s,C,C,C,C,C,C,C,C,Pa,mol/mol,mol/mol,kW
Time,"West_All_TCs","East_All_TCs","West_Bottom_TCs","West_Middle_TCs","West_Upper_TCs","East_Bottom_TCs","East_Middle_TCs","East_Upper_TCs","Pressure","O2","CO2","HRR"
-6.000E+01, 2.500E+01, 2.500E+01, 2.500E+01, 2.500E+01, 2.500E+01, 2.500E+01, 2.500E+01, 2.500E+01,-9.627E-06, 2.095E-01, 3.901E-04, 0.000E+00
-4.998E+01, 2.499E+01, 2.499E+01, 2.499E+01, 2.499E+01, 2.499E+01, 2.499E+01, 2.499E+01, 2.499E+01,-1.964E+01, 2.095E-01, 3.901E-04, 0.000E+00
-3.996E+01, 2.498E+01, 2.499E+01, 2.499E+01, 2.498E+01, 2.498E+01, 2.499E+01, 2.499E+01, 2.499E+01,-1.887E+01, 2.095E-01, 3.901E-04, 0.000E+00
-2.994E+01, 2.498E+01, 2.499E+01, 2.498E+01, 2.498E+01, 2.497E+01, 2.501E+01, 2.499E+01, 2.499E+01,-1.888E+01, 2.095E-01, 3.901E-04, 0.000E+00
-1.992E+01, 2.498E+01, 2.500E+01, 2.498E+01, 2.498E+01, 2.497E+01, 2.502E+01, 2.499E+01, 2.499E+01,-1.889E+01, 2.095E-01, 3.901E-04, 0.000E+00
-9.896E+00, 2.498E+01, 2.500E+01, 2.498E+01, 2.498E+01, 2.497E+01, 2.503E+01, 2.499E+01, 2.499E+01,-1.888E+01, 2.095E-01, 3.901E-04, 0.000E+00
 1.301E-02, 2.498E+01, 2.500E+01, 2.498E+01, 2.498E+01, 2.497E+01, 2.503E+01, 2.499E+01, 2.499E+01,-1.889E+01, 2.095E-01, 3.901E-04, 1.764E-04
 1.002E+01, 2.585E+01, 2.629E+01, 2.548E+01, 2.710E+01, 2.499E+01, 2.578E+01, 2.810E+01, 2.500E+01,-2.145E+00, 2.095E-01, 3.901E-04, 3.280E+01
 2.001E+01, 2.999E+01, 3.092E+01, 2.764E+01, 3.725E+01, 2.507E+01, 2.803E+01, 3.971E+01, 2.502E+01, 3.005E+01, 2.095E-01, 3.901E-04, 9.936E+01
 3.000E+01, 3.842E+01, 3.973E+01, 3.132E+01, 5.842E+01, 2.554E+01, 3.272E+01, 6.145E+01, 2.503E+01, 1.003E+02, 2.095E-01, 3.901E-04, 1.660E+02
 4.002E+01, 5.017E+01, 5.067E+01, 3.928E+01, 8.489E+01, 2.635E+01, 4.112E+01, 8.563E+01, 2.526E+01, 1.246E+02, 2.095E-01, 4.146E-04, 1.998E+02
 5.001E+01, 6.071E+01, 6.183E+01, 4.956E+01, 1.049E+02, 2.771E+01, 5.235E+01, 1.057E+02, 2.744E+01, 8.632E+01, 2.090E-01, 6.675E-04, 2.005E+02
 6.001E+01, 7.034E+01, 7.179E+01, 6.288E+01, 1.199E+02, 2.825E+01, 6.399E+01, 1.224E+02, 2.897E+01, 5.805E+01, 2.088E-01, 7.880E-04, 2.002E+02
 7.001E+01, 7.844E+01, 7.962E+01, 7.427E+01, 1.315E+02, 2.952E+01, 7.622E+01, 1.329E+02, 2.970E+01, 3.715E+01, 2.086E-01, 9.069E-04, 1.999E+02
 8.000E+01, 8.749E+01, 8.654E+01, 8.823E+01, 1.435E+02, 3.071E+01, 8.889E+01, 1.395E+02, 3.122E+01, 2.464E+01, 2.084E-01, 1.056E-03, 1.999E+02
 9.002E+01, 9.398E+01, 9.498E+01, 9.796E+01, 1.519E+02, 3.212E+01, 1.016E+02, 1.502E+02, 3.316E+01, 1.609E+01, 2.080E-01, 1.240E-03, 2.001E+02
 1.000E+02, 9.845E+01, 1.010E+02, 1.076E+02, 1.547E+02, 3.301E+01, 1.105E+02, 1.579E+02, 3.450E+01, 1.171E+01, 2.077E-01, 1.395E-03, 2.002E+02
 1.100E+02, 1.023E+02, 1.045E+02, 1.160E+02, 1.561E+02, 3.476E+01, 1.173E+02, 1.614E+02, 3.494E+01, 8.090E+00, 2.075E-01, 1.535E-03, 2.004E+02
 1.200E+02, 1.083E+02, 1.094E+02, 1.228E+02, 1.664E+02, 3.563E+01, 1.239E+02, 1.684E+02, 3.585E+01, 1.302E+00, 2.072E-01, 1.703E-03, 1.996E+02
 1.300E+02, 1.127E+02, 1.113E+02, 1.279E+02, 1.734E+02, 3.688E+01, 1.297E+02, 1.671E+02, 3.713E+01,-2.177E+00, 2.067E-01, 1.963E-03, 2.000E+02
 1.400E+02, 1.135E+02, 1.140E+02, 1.314E+02, 1.722E+02, 3.690E+01, 1.328E+02, 1.712E+02, 3.806E+01,-4.281E+00, 2.064E-01, 2.133E-03, 1.998E+02
 1.500E+02, 1.169E+02, 1.147E+02, 1.351E+02, 1.777E+02, 3.775E+01, 1.338E+02, 1.719E+02, 3.852E+01,-5.935E+00, 2.063E-01, 2.226E-03, 2.004E+02
 1.600E+02, 1.176E+02, 1.170E+02, 1.361E+02, 1.788E+02, 3.788E+01, 1.360E+02, 1.758E+02, 3.920E+01,-7.313E+00, 2.057E-01, 2.546E-03, 2.005E+02
 1.700E+02, 1.193E+02, 1.183E+02, 1.368E+02, 1.818E+02, 3.915E+01, 1.381E+02, 1.764E+02, 4.024E+01,-8.075E+00, 2.053E-01, 2.744E-03, 2.005E+02
 1.800E+02, 1.182E+02, 1.202E+02, 1.376E+02, 1.779E+02, 3.920E+01, 1.420E+02, 1.781E+02, 4.061E+01,-8.132E+00, 2.049E-01, 2.999E-03, 2.000E+02
 1.900E+02, 1.202E+02, 1.213E+02, 1.399E+02, 1.810E+02, 3.974E+01, 1.410E+02, 1.825E+02, 4.021E+01,-1.074E+01, 2.046E-01, 3.176E-03, 2.001E+02
 2.000E+02, 1.203E+02, 1.220E+02, 1.400E+02, 1.817E+02, 3.916E+01, 1.409E+02, 1.837E+02, 4.148E+01,-1.090E+01, 2.038E-01, 3.608E-03, 2.002E+02
 2.100E+02, 1.209E+02, 1.227E+02, 1.398E+02, 1.831E+02, 3.975E+01, 1.424E+02, 1.842E+02, 4.142E+01,-1.139E+01, 2.037E-01, 3.630E-03, 1.998E+02
 2.200E+02, 1.217E+02, 1.235E+02, 1.402E+02, 1.833E+02, 4.146E+01, 1.431E+02, 1.858E+02, 4.170E+01,-1.036E+01, 2.032E-01, 3.932E-03, 2.004E+02
 2.300E+02, 1.225E+02, 1.242E+02, 1.403E+02, 1.849E+02, 4.216E+01, 1.443E+02, 1.862E+02, 4.199E+01,-9.328E+00, 2.025E-01, 4.302E-03, 2.002E+02
 2.400E+02, 1.242E+02, 1.237E+02, 1.419E+02, 1.882E+02, 4.252E+01, 1.429E+02, 1.865E+02, 4.175E+01,-1.004E+01, 2.023E-01, 4.436E-03, 2.004E+02
 2.500E+02, 1.225E+02, 1.252E+02, 1.409E+02, 1.846E+02, 4.193E+01, 1.439E+02, 1.892E+02, 4.256E+01,-1.127E+01, 2.016E-01, 4.850E-03, 2.000E+02
 2.600E+02, 1.238E+02, 1.258E+02, 1.430E+02, 1.871E+02, 4.125E+01, 1.435E+02, 1.912E+02, 4.260E+01,-1.117E+01, 2.010E-01, 5.148E-03, 2.002E+02
 2.700E+02, 1.238E+02, 1.266E+02, 1.422E+02, 1.874E+02, 4.167E+01, 1.451E+02, 1.921E+02, 4.256E+01,-1.091E+01, 2.006E-01, 5.369E-03, 1.999E+02
 2.800E+02, 1.258E+02, 1.254E+02, 1.447E+02, 1.899E+02, 4.280E+01, 1.455E+02, 1.877E+02, 4.292E+01,-8.773E+00, 2.003E-01, 5.584E-03, 1.998E+02
 2.900E+02, 1.268E+02, 1.266E+02, 1.466E+02, 1.902E+02, 4.345E+01, 1.461E+02, 1.906E+02, 4.294E+01,-9.682E+00, 2.000E-01, 5.749E-03, 2.001E+02
 3.000E+02, 1.277E+02, 1.272E+02, 1.455E+02, 1.941E+02, 4.335E+01, 1.470E+02, 1.916E+02, 4.288E+01,-9.035E+00, 1.993E-01, 6.107E-03, 2.004E+02
 3.100E+02, 1.283E+02, 1.266E+02, 1.454E+02, 1.964E+02, 4.318E+01, 1.474E+02, 1.886E+02, 4.391E+01,-9.631E+00, 1.984E-01, 6.614E-03, 2.000E+02
 3.200E+02, 1.278E+02, 1.279E+02, 1.461E+02, 1.940E+02, 4.341E+01, 1.499E+02, 1.901E+02, 4.375E+01,-1.000E+01, 1.980E-01, 6.838E-03, 2.000E+02
 3.300E+02, 1.288E+02, 1.284E+02, 1.479E+02, 1.950E+02, 4.351E+01, 1.520E+02, 1.896E+02, 4.363E+01,-9.468E+00, 1.972E-01, 7.289E-03, 2.000E+02
 3.400E+02, 1.276E+02, 1.284E+02, 1.467E+02, 1.930E+02, 4.325E+01, 1.478E+02, 1.937E+02, 4.371E+01,-1.156E+01, 1.968E-01, 7.507E-03, 2.003E+02
 3.500E+02, 1.294E+02, 1.290E+02, 1.487E+02, 1.956E+02, 4.376E+01, 1.483E+02, 1.946E+02, 4.413E+01,-8.663E+00, 1.963E-01, 7.818E-03, 1.999E+02
 3.600E+02, 1.294E+02, 1.289E+02, 1.495E+02, 1.953E+02, 4.352E+01, 1.493E+02, 1.938E+02, 4.361E+01,-1.077E+01, 1.960E-01, 7.975E-03, 1.997E+02
 3.700E+02, 1.301E+02, 1.326E+02, 1.504E+02, 1.962E+02, 4.376E+01, 1.526E+02, 2.010E+02, 4.411E+01,-9.833E+00, 1.950E-01, 8.494E-03, 1.997E+02
 3.800E+02, 1.300E+02, 1.316E+02, 1.509E+02, 1.951E+02, 4.391E+01, 1.515E+02, 1.991E+02, 4.406E+01,-1.448E+01, 1.951E-01, 8.489E-03, 1.932E+02
 3.900E+02, 1.268E+02, 1.293E+02, 1.470E+02, 1.899E+02, 4.358E+01, 1.509E+02, 1.929E+02, 4.423E+01,-3.016E+01, 1.941E-01, 9.028E-03, 1.697E+02
 4.000E+02, 1.233E+02, 1.264E+02, 1.423E+02, 1.836E+02, 4.388E+01, 1.487E+02, 1.867E+02, 4.373E+01,-8.356E+01, 1.935E-01, 9.358E-03, 1.160E+02
 4.100E+02, 1.208E+02, 1.251E+02, 1.379E+02, 1.801E+02, 4.441E+01, 1.455E+02, 1.861E+02, 4.372E+01,-4.433E+00, 1.932E-01, 9.531E-03, 1.722E+02
 4.200E+02, 1.210E+02, 1.207E+02, 1.405E+02, 1.777E+02, 4.491E+01, 1.400E+02, 1.779E+02, 4.423E+01,-1.058E+02, 1.925E-01, 9.897E-03, 7.593E+01
 4.300E+02, 1.224E+02, 1.304E+02, 1.360E+02, 1.864E+02, 4.472E+01, 1.516E+02, 1.949E+02, 4.462E+01, 1.748E+02, 1.925E-01, 9.922E-03, 2.586E+02
 4.400E+02, 1.219E+02, 1.252E+02, 1.417E+02, 1.798E+02, 4.434E+01, 1.454E+02, 1.840E+02, 4.603E+01,-9.556E+01, 1.916E-01, 1.040E-02, 7.863E+01
 4.500E+02, 1.256E+02, 1.287E+02, 1.397E+02, 1.907E+02, 4.651E+01, 1.501E+02, 1.905E+02, 4.550E+01, 7.189E+01, 1.915E-01, 1.047E-02, 2.022E+02
 4.600E+02, 1.203E+02, 1.257E+02, 1.364E+02, 1.788E+02, 4.580E+01, 1.469E+02, 1.838E+02, 4.651E+01,-6.197E+01, 1.898E-01, 1.143E-02, 9.868E+01
 4.700E+02, 1.170E+02, 1.232E+02, 1.349E+02, 1.697E+02, 4.634E+01, 1.449E+02, 1.782E+02, 4.654E+01,-3.221E+01, 1.898E-01, 1.144E-02, 2.531E+01
 4.800E+02, 1.158E+02, 1.195E+02, 1.364E+02, 1.642E+02, 4.666E+01, 1.380E+02, 1.735E+02, 4.703E+01,-6.232E+01, 1.895E-01, 1.158E-02, 2.743E+00
 4.900E+02, 1.108E+02, 1.129E+02, 1.262E+02, 1.593E+02, 4.685E+01, 1.270E+02, 1.645E+02, 4.720E+01,-6.575E+01, 1.895E-01, 1.158E-02, 2.380E+00
 5.000E+02, 1.120E+02, 1.196E+02, 1.230E+02, 1.659E+02, 4.701E+01, 1.332E+02, 1.800E+02, 4.568E+01, 1.432E+01, 1.894E-01, 1.165E-02, 2.693E+00
 5.100E+02, 1.112E+02, 1.149E+02, 1.202E+02, 1.676E+02, 4.581E+01, 1.245E+02, 1.739E+02, 4.629E+01,-3.239E+01, 1.882E-01, 1.230E-02, 2.374E+00
 5.200E+02, 1.128E+02, 1.221E+02, 1.178E+02, 1.744E+02, 4.628E+01, 1.248E+02, 1.950E+02, 4.632E+01, 5.497E+01, 1.881E-01, 1.239E-02, 2.905E+01
 5.300E+02, 1.097E+02, 1.247E+02, 1.139E+02, 1.691E+02, 4.600E+01, 1.187E+02, 2.101E+02, 4.543E+01,-3.867E+01, 1.881E-01, 1.239E-02, 1.529E+00
 5.400E+02, 1.092E+02, 1.174E+02, 1.119E+02, 1.686E+02, 4.693E+01, 1.092E+02, 1.970E+02, 4.599E+01, 5.046E+00, 1.879E-01, 1.247E-02, 1.015E+00
 5.500E+02, 1.096E+02, 1.185E+02, 1.100E+02, 1.722E+02, 4.651E+01, 1.189E+02, 1.905E+02, 4.601E+01,-4.021E+01, 1.872E-01, 1.286E-02, 3.332E+00
 5.600E+02, 1.074E+02, 1.713E+02, 1.085E+02, 1.666E+02, 4.710E+01, 1.471E+02, 3.204E+02, 4.626E+01, 1.924E+01, 1.868E-01, 1.311E-02, 9.683E-01
 5.700E+02, 1.089E+02, 1.438E+02, 1.043E+02, 1.746E+02, 4.770E+01, 1.391E+02, 2.452E+02, 4.700E+01, 3.191E+01, 1.868E-01, 1.307E-02, 1.661E-01
 5.800E+02, 1.101E+02, 1.197E+02, 1.070E+02, 1.757E+02, 4.763E+01, 1.059E+02, 2.059E+02, 4.740E+01,-4.218E+01, 1.863E-01, 1.339E-02, 1.131E+00
 5.900E+02, 1.079E+02, 1.194E+02, 1.051E+02, 1.711E+02, 4.759E+01, 1.094E+02, 2.010E+02, 4.772E+01,-2.514E+01, 1.861E-01, 1.349E-02, 1.357E+00
 6.000E+02, 1.061E+02, 1.139E+02, 1.031E+02, 1.671E+02, 4.823E+01, 9.975E+01, 1.944E+02, 4.737E+01,-2.331E+01, 1.862E-01, 1.341E-02, 1.975E-03
 6.100E+02, 1.082E+02, 1.145E+02, 1.028E+02, 1.729E+02, 4.878E+01, 1.002E+02, 1.957E+02, 4.770E+01,-2.515E+00, 1.859E-01, 1.358E-02, 2.760E-01
 6.200E+02, 1.087E+02, 1.229E+02, 1.017E+02, 1.750E+02, 4.947E+01, 1.008E+02, 2.187E+02, 4.908E+01,-1.477E+01, 1.849E-01, 1.418E-02, 1.326E+00
 6.300E+02, 1.071E+02, 1.141E+02, 1.015E+02, 1.713E+02, 4.848E+01, 1.002E+02, 1.934E+02, 4.878E+01,-3.151E+01, 1.849E-01, 1.419E-02, 3.874E-01
 6.400E+02, 1.059E+02, 1.513E+02, 1.000E+02, 1.692E+02, 4.856E+01, 9.991E+01, 3.052E+02, 4.863E+01, 2.455E+01, 1.850E-01, 1.413E-02, 1.994E+00
 6.500E+02, 1.078E+02, 1.169E+02, 1.009E+02, 1.735E+02, 4.902E+01, 9.708E+01, 2.051E+02, 4.868E+01,-2.773E+01, 1.847E-01, 1.425E-02, 3.168E-01
 6.600E+02, 1.051E+02, 1.120E+02, 9.861E+01, 1.676E+02, 4.904E+01, 9.694E+01, 1.891E+02, 4.981E+01,-3.587E+01, 1.848E-01, 1.419E-02, 1.154E+00
 6.700E+02, 1.045E+02, 1.085E+02, 9.894E+01, 1.645E+02, 4.999E+01, 9.273E+01, 1.827E+02, 5.015E+01,-2.165E+01, 1.855E-01, 1.381E-02, 1.154E+00
 6.800E+02, 1.048E+02, 1.110E+02, 9.657E+01, 1.662E+02, 5.156E+01, 9.251E+01, 1.905E+02, 4.999E+01,-1.133E+01, 1.848E-01, 1.421E-02, 8.743E-02
 6.900E+02, 1.041E+02, 1.063E+02, 9.497E+01, 1.660E+02, 5.144E+01, 9.095E+01, 1.769E+02, 5.111E+01,-1.964E+01, 1.840E-01, 1.467E-02, 6.216E-01
 7.000E+02, 1.016E+02, 1.063E+02, 9.276E+01, 1.604E+02, 5.178E+01, 9.163E+01, 1.761E+02, 5.124E+01,-2.721E+01, 1.830E-01, 1.523E-02, 3.500E+00
 7.100E+02, 1.009E+02, 1.029E+02, 9.232E+01, 1.583E+02, 5.220E+01, 8.793E+01, 1.697E+02, 5.110E+01,-1.169E+01, 1.831E-01, 1.519E-02, 1.859E-01
 7.200E+02, 1.000E+02, 1.032E+02, 9.000E+01, 1.570E+02, 5.316E+01, 8.680E+01, 1.709E+02, 5.205E+01,-1.975E+01, 1.829E-01, 1.527E-02, 2.465E+00
 7.300E+02, 1.000E+02, 1.050E+02, 8.958E+01, 1.576E+02, 5.279E+01, 8.709E+01, 1.756E+02, 5.244E+01,-1.142E+01, 1.827E-01, 1.540E-02, 3.915E-01
 7.400E+02, 9.917E+01, 1.025E+02, 8.739E+01, 1.567E+02, 5.340E+01, 8.605E+01, 1.693E+02, 5.210E+01,-2.315E+01, 1.827E-01, 1.540E-02, 5.494E-01
 7.500E+02, 9.889E+01, 1.036E+02, 8.778E+01, 1.552E+02, 5.374E+01, 8.478E+01, 1.739E+02, 5.204E+01,-1.618E+01, 1.824E-01, 1.555E-02, 3.031E-01
 7.600E+02, 9.744E+01, 1.015E+02, 8.707E+01, 1.519E+02, 5.332E+01, 8.414E+01, 1.674E+02, 5.307E+01,-1.666E+01, 1.818E-01, 1.591E-02, 3.050E-01
 7.700E+02, 9.695E+01, 1.000E+02, 8.637E+01, 1.516E+02, 5.291E+01, 8.231E+01, 1.643E+02, 5.341E+01,-2.042E+01, 1.817E-01, 1.592E-02, 1.717E+00
 7.800E+02, 9.581E+01, 9.994E+01, 8.423E+01, 1.489E+02, 5.432E+01, 8.099E+01, 1.656E+02, 5.319E+01,-1.766E+01, 1.817E-01, 1.597E-02, 1.820E+00
 7.900E+02, 9.573E+01, 9.775E+01, 8.317E+01, 1.499E+02, 5.410E+01, 8.022E+01, 1.598E+02, 5.319E+01,-1.755E+01, 1.812E-01, 1.623E-02, 2.206E+00
 8.000E+02, 9.388E+01, 9.728E+01, 8.212E+01, 1.455E+02, 5.402E+01, 7.995E+01, 1.584E+02, 5.354E+01,-1.269E+01, 1.810E-01, 1.632E-02, 1.233E+00
 8.100E+02, 9.349E+01, 9.806E+01, 8.080E+01, 1.449E+02, 5.478E+01, 7.893E+01, 1.609E+02, 5.430E+01,-1.261E+01, 1.810E-01, 1.634E-02, 9.507E-01
 8.200E+02, 9.256E+01, 9.899E+01, 7.913E+01, 1.434E+02, 5.519E+01, 7.891E+01, 1.643E+02, 5.374E+01,-1.119E+01, 1.804E-01, 1.665E-02, 4.685E-01
 8.300E+02, 9.262E+01, 9.892E+01, 7.788E+01, 1.431E+02, 5.690E+01, 7.795E+01, 1.632E+02, 5.563E+01,-1.233E+01, 1.804E-01, 1.665E-02, 2.518E-01
 8.400E+02, 9.198E+01, 9.756E+01, 7.767E+01, 1.417E+02, 5.659E+01, 7.766E+01, 1.586E+02, 5.636E+01,-1.178E+01, 1.801E-01, 1.687E-02, 1.668E+00
 8.500E+02, 9.161E+01, 9.581E+01, 7.739E+01, 1.402E+02, 5.723E+01, 7.725E+01, 1.536E+02, 5.660E+01,-1.227E+01, 1.798E-01, 1.703E-02, 1.575E+00
 8.600E+02, 9.270E+01, 9.703E+01, 7.737E+01, 1.424E+02, 5.827E+01, 7.695E+01, 1.577E+02, 5.649E+01,-8.951E+00, 1.797E-01, 1.704E-02, 5.021E-03
 8.700E+02, 9.228E+01, 9.812E+01, 7.774E+01, 1.406E+02, 5.851E+01, 7.646E+01, 1.595E+02, 5.836E+01,-8.898E+00, 1.793E-01, 1.731E-02, 1.112E-01
 8.800E+02, 9.354E+01, 9.886E+01, 7.799E+01, 1.422E+02, 6.045E+01, 7.596E+01, 1.612E+02, 5.942E+01,-1.210E+01, 1.791E-01, 1.738E-02, 1.712E-02
 8.900E+02, 9.348E+01, 1.010E+02, 7.746E+01, 1.414E+02, 6.158E+01, 7.733E+01, 1.659E+02, 5.971E+01,-1.148E+01, 1.782E-01, 1.790E-02, 1.987E-02
 9.000E+02, 9.383E+01, 1.001E+02, 7.767E+01, 1.411E+02, 6.271E+01, 7.765E+01, 1.620E+02, 6.063E+01,-1.060E+01, 1.783E-01, 1.783E-02, 2.328E-01
 9.100E+02, 9.516E+01, 1.008E+02, 7.793E+01, 1.419E+02, 6.566E+01, 7.665E+01, 1.640E+02, 6.168E+01,-1.019E+01, 1.775E-01, 1.831E-02, 4.719E-03
 9.201E+02, 9.578E+01, 9.732E+01, 7.745E+01, 1.427E+02, 6.720E+01, 7.434E+01, 1.541E+02, 6.354E+01,-6.701E+00, 1.756E-01, 1.933E-02, 1.036E-04
 9.300E+02, 9.592E+01, 9.951E+01, 7.685E+01, 1.419E+02, 6.902E+01, 7.367E+01, 1.599E+02, 6.496E+01,-5.064E+00, 1.763E-01, 1.897E-02, 8.991E-03
 9.400E+02, 9.621E+01, 9.876E+01, 7.670E+01, 1.423E+02, 6.964E+01, 7.378E+01, 1.562E+02, 6.627E+01,-1.299E+01, 1.761E-01, 1.910E-02, 2.236E-04
 9.500E+02, 9.723E+01, 9.914E+01, 7.639E+01, 1.439E+02, 7.136E+01, 7.436E+01, 1.552E+02, 6.788E+01,-5.317E+00, 1.748E-01, 1.983E-02, 9.049E-05
 9.600E+02, 9.758E+01, 1.009E+02, 7.663E+01, 1.427E+02, 7.339E+01, 7.493E+01, 1.594E+02, 6.849E+01,-1.034E+01, 1.751E-01, 1.962E-02, 8.594E-03
 9.700E+02, 9.819E+01, 1.012E+02, 7.682E+01, 1.416E+02, 7.618E+01, 7.560E+01, 1.568E+02, 7.133E+01,-6.121E+00, 1.747E-01, 1.986E-02, 5.057E-04
 9.800E+02, 9.870E+01, 1.019E+02, 7.674E+01, 1.418E+02, 7.756E+01, 7.564E+01, 1.566E+02, 7.335E+01,-8.537E+00, 1.741E-01, 2.021E-02, 6.348E-04
 9.900E+02, 9.973E+01, 1.006E+02, 7.700E+01, 1.412E+02, 8.094E+01, 7.462E+01, 1.531E+02, 7.415E+01,-8.368E+00, 1.739E-01, 2.029E-02, 1.076E-03
 1.000E+03, 1.000E+02, 1.012E+02, 7.707E+01, 1.414E+02, 8.160E+01, 7.393E+01, 1.531E+02, 7.669E+01,-3.130E+00, 1.725E-01, 2.111E-02, 2.622E-04
