s,C,C,C,C,C,C,C,C,Pa,mol/mol,mol/mol,kW
Time,West_All_TCs,East_All_TCs,West_Bottom_TCs,West_Middle_TCs,West_Upper_TCs,East_Bottom_TCs,East_Middle_TCs,East_Upper_TCs,Pressure,O2,CO2,HRR
-6.000E+01, 3.400E+01, 3.400E+01, 3.400E+01, 3.400E+01, 3.400E+01, 3.400E+01, 3.400E+01, 3.400E+01,-9.314E-06, 2.095E-01, 3.901E-04, 0.000E+00
-4.999E+01, 3.400E+01, 3.400E+01, 3.400E+01, 3.402E+01, 3.398E+01, 3.400E+01, 3.401E+01, 3.399E+01,-5.414E-03, 2.095E-01, 3.901E-04, 0.000E+00
-3.999E+01, 3.400E+01, 3.400E+01, 3.400E+01, 3.401E+01, 3.399E+01, 3.400E+01, 3.401E+01, 3.400E+01,-5.353E-03, 2.095E-01, 3.901E-04, 0.000E+00
-2.998E+01, 3.400E+01, 3.400E+01, 3.400E+01, 3.400E+01, 3.400E+01, 3.400E+01, 3.400E+01, 3.400E+01,-5.394E-03, 2.095E-01, 3.901E-04, 0.000E+00
-1.997E+01, 3.400E+01, 3.400E+01, 3.400E+01, 3.400E+01, 3.400E+01, 3.400E+01, 3.400E+01, 3.400E+01,-5.343E-03, 2.095E-01, 3.901E-04, 0.000E+00
-9.967E+00, 3.400E+01, 3.400E+01, 3.400E+01, 3.400E+01, 3.400E+01, 3.400E+01, 3.400E+01, 3.400E+01,-5.330E-03, 2.095E-01, 3.901E-04, 0.000E+00
 3.957E-02, 3.400E+01, 3.400E+01, 3.400E+01, 3.400E+01, 3.400E+01, 3.400E+01, 3.400E+01, 3.400E+01,-5.391E-03, 2.095E-01, 3.901E-04, 7.003E-04
 1.002E+01, 3.515E+01, 3.534E+01, 3.462E+01, 3.624E+01, 3.461E+01, 3.478E+01, 3.679E+01, 3.446E+01, 1.586E+01, 2.095E-01, 3.901E-04, 3.319E+01
 2.002E+01, 3.927E+01, 4.009E+01, 3.659E+01, 4.586E+01, 3.536E+01, 3.724E+01, 4.791E+01, 3.511E+01, 8.560E+01, 2.095E-01, 3.901E-04, 9.935E+01
 3.002E+01, 4.721E+01, 4.792E+01, 4.050E+01, 6.606E+01, 3.507E+01, 4.205E+01, 6.689E+01, 3.481E+01, 1.913E+02, 2.095E-01, 3.901E-04, 1.661E+02
 4.001E+01, 5.952E+01, 5.919E+01, 4.883E+01, 9.426E+01, 3.546E+01, 5.032E+01, 9.238E+01, 3.486E+01, 2.290E+02, 2.095E-01, 3.901E-04, 2.000E+02
 5.001E+01, 6.979E+01, 7.030E+01, 6.049E+01, 1.133E+02, 3.558E+01, 6.127E+01, 1.146E+02, 3.506E+01, 1.701E+02, 2.095E-01, 3.928E-04, 2.001E+02
 6.000E+01, 7.975E+01, 8.103E+01, 7.150E+01, 1.308E+02, 3.694E+01, 7.194E+01, 1.348E+02, 3.635E+01, 1.268E+02, 2.092E-01, 5.986E-04, 2.001E+02
 7.002E+01, 8.836E+01, 8.853E+01, 8.340E+01, 1.448E+02, 3.684E+01, 8.236E+01, 1.462E+02, 3.701E+01, 9.602E+01, 2.090E-01, 6.914E-04, 1.999E+02
 8.002E+01, 9.601E+01, 9.542E+01, 9.487E+01, 1.562E+02, 3.701E+01, 9.516E+01, 1.534E+02, 3.770E+01, 7.444E+01, 2.090E-01, 7.182E-04, 2.002E+02
 9.001E+01, 1.023E+02, 1.020E+02, 1.040E+02, 1.649E+02, 3.791E+01, 1.047E+02, 1.633E+02, 3.803E+01, 5.614E+01, 2.089E-01, 7.561E-04, 2.002E+02
 1.000E+02, 1.068E+02, 1.079E+02, 1.119E+02, 1.704E+02, 3.796E+01, 1.149E+02, 1.703E+02, 3.841E+01, 4.343E+01, 2.088E-01, 8.200E-04, 2.000E+02
 1.100E+02, 1.114E+02, 1.120E+02, 1.202E+02, 1.757E+02, 3.818E+01, 1.225E+02, 1.749E+02, 3.856E+01, 3.437E+01, 2.087E-01, 8.693E-04, 2.003E+02
 1.200E+02, 1.130E+02, 1.176E+02, 1.249E+02, 1.761E+02, 3.813E+01, 1.288E+02, 1.844E+02, 3.946E+01, 2.845E+01, 2.086E-01, 9.235E-04, 2.000E+02
 1.300E+02, 1.168E+02, 1.196E+02, 1.348E+02, 1.768E+02, 3.877E+01, 1.326E+02, 1.869E+02, 3.941E+01, 2.453E+01, 2.084E-01, 1.006E-03, 2.006E+02
 1.400E+02, 1.219E+02, 1.220E+02, 1.399E+02, 1.864E+02, 3.934E+01, 1.379E+02, 1.888E+02, 3.914E+01, 2.040E+01, 2.084E-01, 1.043E-03, 1.997E+02
 1.500E+02, 1.235E+02, 1.235E+02, 1.419E+02, 1.894E+02, 3.927E+01, 1.412E+02, 1.896E+02, 3.959E+01, 1.849E+01, 2.082E-01, 1.135E-03, 2.006E+02
 1.600E+02, 1.256E+02, 1.264E+02, 1.437E+02, 1.936E+02, 3.943E+01, 1.431E+02, 1.964E+02, 3.979E+01, 1.577E+01, 2.081E-01, 1.210E-03, 2.002E+02
 1.700E+02, 1.277E+02, 1.280E+02, 1.464E+02, 1.973E+02, 3.931E+01, 1.456E+02, 1.984E+02, 4.009E+01, 1.461E+01, 2.078E-01, 1.338E-03, 1.997E+02
 1.800E+02, 1.289E+02, 1.306E+02, 1.478E+02, 1.992E+02, 3.968E+01, 1.490E+02, 2.020E+02, 4.090E+01, 1.422E+01, 2.077E-01, 1.420E-03, 1.999E+02
 1.900E+02, 1.302E+02, 1.309E+02, 1.498E+02, 2.008E+02, 4.009E+01, 1.508E+02, 2.014E+02, 4.059E+01, 1.368E+01, 2.076E-01, 1.458E-03, 2.001E+02
 2.000E+02, 1.304E+02, 1.327E+02, 1.509E+02, 2.000E+02, 4.039E+01, 1.535E+02, 2.035E+02, 4.117E+01, 1.346E+01, 2.073E-01, 1.659E-03, 1.998E+02
 2.100E+02, 1.317E+02, 1.333E+02, 1.509E+02, 2.036E+02, 4.056E+01, 1.531E+02, 2.052E+02, 4.151E+01, 1.345E+01, 2.071E-01, 1.773E-03, 2.001E+02
 2.200E+02, 1.316E+02, 1.334E+02, 1.509E+02, 2.030E+02, 4.103E+01, 1.536E+02, 2.052E+02, 4.135E+01, 1.317E+01, 2.069E-01, 1.844E-03, 1.998E+02
 2.300E+02, 1.326E+02, 1.341E+02, 1.530E+02, 2.038E+02, 4.096E+01, 1.553E+02, 2.053E+02, 4.154E+01, 1.274E+01, 2.066E-01, 2.040E-03, 2.003E+02
 2.400E+02, 1.341E+02, 1.352E+02, 1.556E+02, 2.055E+02, 4.113E+01, 1.542E+02, 2.098E+02, 4.167E+01, 1.249E+01, 2.065E-01, 2.095E-03, 1.999E+02
 2.500E+02, 1.339E+02, 1.370E+02, 1.543E+02, 2.060E+02, 4.146E+01, 1.584E+02, 2.108E+02, 4.176E+01, 1.281E+01, 2.064E-01, 2.160E-03, 2.000E+02
 2.600E+02, 1.347E+02, 1.375E+02, 1.565E+02, 2.061E+02, 4.150E+01, 1.592E+02, 2.111E+02, 4.207E+01, 1.218E+01, 2.060E-01, 2.358E-03, 1.996E+02
 2.700E+02, 1.354E+02, 1.385E+02, 1.567E+02, 2.078E+02, 4.155E+01, 1.601E+02, 2.131E+02, 4.231E+01, 1.270E+01, 2.058E-01, 2.479E-03, 1.998E+02
 2.800E+02, 1.360E+02, 1.389E+02, 1.578E+02, 2.083E+02, 4.185E+01, 1.607E+02, 2.135E+02, 4.250E+01, 1.245E+01, 2.054E-01, 2.704E-03, 1.999E+02
 2.900E+02, 1.370E+02, 1.393E+02, 1.595E+02, 2.100E+02, 4.161E+01, 1.608E+02, 2.146E+02, 4.255E+01, 1.216E+01, 2.052E-01, 2.846E-03, 1.999E+02
 3.000E+02, 1.359E+02, 1.392E+02, 1.585E+02, 2.072E+02, 4.186E+01, 1.618E+02, 2.137E+02, 4.218E+01, 1.279E+01, 2.049E-01, 2.980E-03, 1.999E+02
 3.100E+02, 1.371E+02, 1.393E+02, 1.590E+02, 2.101E+02, 4.212E+01, 1.613E+02, 2.143E+02, 4.239E+01, 1.281E+01, 2.048E-01, 3.051E-03, 2.000E+02
 3.200E+02, 1.383E+02, 1.393E+02, 1.600E+02, 2.127E+02, 4.233E+01, 1.633E+02, 2.119E+02, 4.276E+01, 1.194E+01, 2.044E-01, 3.265E-03, 1.997E+02
 3.300E+02, 1.378E+02, 1.396E+02, 1.612E+02, 2.092E+02, 4.300E+01, 1.615E+02, 2.143E+02, 4.294E+01, 1.239E+01, 2.042E-01, 3.385E-03, 1.997E+02
 3.400E+02, 1.388E+02, 1.403E+02, 1.611E+02, 2.117E+02, 4.349E+01, 1.625E+02, 2.149E+02, 4.339E+01, 1.281E+01, 2.038E-01, 3.577E-03, 2.001E+02
 3.500E+02, 1.399E+02, 1.404E+02, 1.608E+02, 2.159E+02, 4.309E+01, 1.622E+02, 2.153E+02, 4.352E+01, 9.610E+00, 2.033E-01, 3.903E-03, 1.972E+02
 3.600E+02, 1.398E+02, 1.401E+02, 1.625E+02, 2.137E+02, 4.326E+01, 1.633E+02, 2.131E+02, 4.374E+01, 2.143E+00, 2.027E-01, 4.224E-03, 1.854E+02
 3.700E+02, 1.376E+02, 1.387E+02, 1.603E+02, 2.094E+02, 4.300E+01, 1.635E+02, 2.088E+02, 4.375E+01,-8.787E+00, 2.026E-01, 4.253E-03, 1.580E+02
 3.800E+02, 1.309E+02, 1.373E+02, 1.529E+02, 1.978E+02, 4.200E+01, 1.670E+02, 2.021E+02, 4.290E+01,-2.030E+01, 2.025E-01, 4.354E-03, 1.286E+02
 3.900E+02, 1.273E+02, 1.304E+02, 1.497E+02, 1.903E+02, 4.189E+01, 1.584E+02, 1.902E+02, 4.263E+01,-4.589E+01, 2.017E-01, 4.769E-03, 7.440E+01
 4.000E+02, 1.219E+02, 1.278E+02, 1.413E+02, 1.822E+02, 4.223E+01, 1.543E+02, 1.857E+02, 4.357E+01, 1.728E+01, 2.013E-01, 5.015E-03, 1.250E+02
 4.100E+02, 1.200E+02, 1.260E+02, 1.422E+02, 1.776E+02, 4.043E+01, 1.526E+02, 1.844E+02, 4.086E+01,-4.725E+01, 2.012E-01, 5.049E-03, 2.390E+01
 4.200E+02, 1.156E+02, 1.241E+02, 1.345E+02, 1.709E+02, 4.141E+01, 1.486E+02, 1.816E+02, 4.204E+01, 3.394E+01, 2.008E-01, 5.293E-03, 1.036E+02
 4.301E+02, 1.155E+02, 1.255E+02, 1.338E+02, 1.720E+02, 4.081E+01, 1.448E+02, 1.916E+02, 4.012E+01,-1.384E+01, 2.003E-01, 5.575E-03, 6.949E+00
 4.400E+02, 1.118E+02, 1.154E+02, 1.306E+02, 1.651E+02, 3.967E+01, 1.337E+02, 1.733E+02, 3.934E+01,-2.190E+01, 1.994E-01, 6.073E-03, 8.654E-02
 4.500E+02, 1.081E+02, 1.182E+02, 1.254E+02, 1.588E+02, 4.004E+01, 1.312E+02, 1.821E+02, 4.124E+01,-1.203E+00, 1.991E-01, 6.205E-03, 3.292E-01
 4.600E+02, 1.063E+02, 1.104E+02, 1.226E+02, 1.555E+02, 4.064E+01, 1.209E+02, 1.706E+02, 3.967E+01,-3.471E+00, 1.993E-01, 6.092E-03, 2.800E+00
 4.700E+02, 1.053E+02, 1.074E+02, 1.163E+02, 1.585E+02, 4.122E+01, 1.179E+02, 1.645E+02, 3.975E+01, 1.802E+00, 1.994E-01, 6.067E-03, 2.073E+00
 4.800E+02, 1.035E+02, 1.042E+02, 1.127E+02, 1.550E+02, 4.268E+01, 1.139E+02, 1.579E+02, 4.075E+01,-2.957E+00, 1.995E-01, 5.990E-03, 2.084E+00
 4.900E+02, 1.035E+02, 1.028E+02, 1.095E+02, 1.578E+02, 4.310E+01, 1.091E+02, 1.589E+02, 4.036E+01, 1.212E-01, 1.982E-01, 6.733E-03, 2.002E+00
 5.000E+02, 1.003E+02, 1.014E+02, 1.056E+02, 1.538E+02, 4.163E+01, 1.057E+02, 1.565E+02, 4.210E+01, 4.103E+00, 1.973E-01, 7.224E-03, 2.980E-01
 5.100E+02, 1.007E+02, 9.994E+01, 1.044E+02, 1.535E+02, 4.423E+01, 1.031E+02, 1.530E+02, 4.380E+01, 8.216E+00, 1.970E-01, 7.375E-03, 1.441E-01
 5.200E+02, 1.002E+02, 9.953E+01, 1.015E+02, 1.533E+02, 4.581E+01, 1.021E+02, 1.511E+02, 4.536E+01, 1.453E+01, 1.967E-01, 7.552E-03, 9.369E-01
 5.300E+02, 1.085E+02, 1.001E+02, 1.008E+02, 1.764E+02, 4.821E+01, 1.008E+02, 1.526E+02, 4.697E+01, 6.523E+01, 1.955E-01, 8.229E-03, 2.375E+00
 5.400E+02, 1.146E+02, 1.070E+02, 1.026E+02, 1.898E+02, 5.138E+01, 9.765E+01, 1.730E+02, 5.034E+01, 7.006E+01, 1.947E-01, 8.675E-03, 6.373E-01
 5.500E+02, 1.110E+02, 1.125E+02, 1.014E+02, 1.796E+02, 5.189E+01, 9.824E+01, 1.834E+02, 5.586E+01, 6.559E+00, 1.940E-01, 9.048E-03, 5.908E-01
 5.600E+02, 1.081E+02, 1.118E+02, 9.920E+01, 1.709E+02, 5.420E+01, 9.983E+01, 1.763E+02, 5.937E+01, 1.263E+01, 1.944E-01, 8.879E-03, 1.558E-03
 5.700E+02, 1.064E+02, 1.091E+02, 9.871E+01, 1.636E+02, 5.701E+01, 9.930E+01, 1.687E+02, 5.930E+01,-5.520E-01, 1.943E-01, 8.916E-03, 9.854E-10
 5.800E+02, 1.063E+02, 1.049E+02, 9.805E+01, 1.615E+02, 5.936E+01, 9.775E+01, 1.589E+02, 5.812E+01, 8.904E+00, 1.939E-01, 9.141E-03, 2.873E-02
 5.901E+02, 1.057E+02, 1.038E+02, 9.800E+01, 1.581E+02, 6.117E+01, 9.675E+01, 1.568E+02, 5.799E+01, 2.292E+00, 1.925E-01, 9.888E-03, 3.349E-02
 6.000E+02, 1.038E+02, 1.064E+02, 9.679E+01, 1.546E+02, 6.007E+01, 9.559E+01, 1.622E+02, 6.159E+01, 7.920E+00, 1.905E-01, 1.103E-02, 8.767E-06
 6.100E+02, 1.046E+02, 1.031E+02, 9.639E+01, 1.563E+02, 6.110E+01, 9.390E+01, 1.538E+02, 6.157E+01, 4.220E+00, 1.905E-01, 1.104E-02, 6.913E-06
 6.200E+02, 1.048E+02, 1.029E+02, 9.537E+01, 1.574E+02, 6.163E+01, 9.418E+01, 1.515E+02, 6.291E+01, 8.710E+00, 1.900E-01, 1.132E-02, 3.733E-06
 6.300E+02, 1.032E+02, 1.031E+02, 9.532E+01, 1.518E+02, 6.244E+01, 9.345E+01, 1.535E+02, 6.247E+01, 4.928E+00, 1.896E-01, 1.156E-02, 4.246E-06
 6.400E+02, 1.020E+02, 1.026E+02, 9.422E+01, 1.469E+02, 6.481E+01, 9.252E+01, 1.496E+02, 6.561E+01, 1.326E+01, 1.882E-01, 1.233E-02, 3.918E-06
 6.500E+02, 1.025E+02, 1.007E+02, 9.305E+01, 1.480E+02, 6.628E+01, 9.170E+01, 1.460E+02, 6.432E+01, 9.195E+00, 1.881E-01, 1.235E-02, 3.163E-06
 6.600E+02, 1.014E+02, 1.020E+02, 9.227E+01, 1.440E+02, 6.791E+01, 9.098E+01, 1.510E+02, 6.391E+01, 5.174E+00, 1.881E-01, 1.235E-02, 4.137E-03
 6.701E+02, 9.905E+01, 1.010E+02, 9.088E+01, 1.400E+02, 6.630E+01, 8.979E+01, 1.494E+02, 6.378E+01, 1.905E+00, 1.876E-01, 1.267E-02, 1.380E-02
 6.801E+02, 9.771E+01, 1.013E+02, 8.973E+01, 1.375E+02, 6.585E+01, 8.945E+01, 1.513E+02, 6.325E+01, 1.845E+00, 1.872E-01, 1.287E-02, 2.175E-02
 6.900E+02, 9.767E+01, 9.767E+01, 8.828E+01, 1.396E+02, 6.513E+01, 8.860E+01, 1.423E+02, 6.215E+01, 7.154E+00, 1.864E-01, 1.334E-02, 2.863E-05
 7.000E+02, 9.956E+01, 9.620E+01, 8.788E+01, 1.452E+02, 6.563E+01, 8.852E+01, 1.361E+02, 6.397E+01, 2.190E+01, 1.843E-01, 1.448E-02, 1.671E-04
 7.100E+02, 9.972E+01, 9.856E+01, 8.882E+01, 1.441E+02, 6.627E+01, 8.616E+01, 1.436E+02, 6.592E+01, 1.333E+01, 1.839E-01, 1.470E-02, 8.343E-05
 7.201E+02, 1.003E+02, 9.770E+01, 8.718E+01, 1.478E+02, 6.596E+01, 8.507E+01, 1.422E+02, 6.585E+01, 1.435E+01, 1.836E-01, 1.489E-02, 2.352E-05
 7.300E+02, 9.988E+01, 9.883E+01, 8.607E+01, 1.467E+02, 6.689E+01, 8.496E+01, 1.440E+02, 6.755E+01, 1.137E+01, 1.822E-01, 1.570E-02, 1.650E-04
 7.400E+02, 9.824E+01, 9.902E+01, 8.523E+01, 1.435E+02, 6.598E+01, 8.466E+01, 1.440E+02, 6.838E+01, 5.386E+00, 1.811E-01, 1.631E-02, 2.836E-05
 7.500E+02, 9.817E+01, 9.904E+01, 8.522E+01, 1.425E+02, 6.679E+01, 8.484E+01, 1.453E+02, 6.697E+01, 6.888E+00, 1.807E-01, 1.651E-02, 1.503E-05
 7.600E+02, 9.738E+01, 9.858E+01, 8.546E+01, 1.396E+02, 6.709E+01, 8.462E+01, 1.433E+02, 6.780E+01, 8.399E+00, 1.796E-01, 1.711E-02, 5.892E-05
 7.700E+02, 9.668E+01, 9.743E+01, 8.568E+01, 1.378E+02, 6.660E+01, 8.428E+01, 1.405E+02, 6.752E+01, 4.804E+00, 1.789E-01, 1.751E-02, 3.202E-05
 7.800E+02, 9.719E+01, 9.589E+01, 8.502E+01, 1.388E+02, 6.772E+01, 8.358E+01, 1.363E+02, 6.779E+01, 8.857E+00, 1.780E-01, 1.799E-02, 1.331E-05
 7.900E+02, 9.720E+01, 9.608E+01, 8.491E+01, 1.372E+02, 6.944E+01, 8.345E+01, 1.360E+02, 6.880E+01, 9.771E+00, 1.775E-01, 1.828E-02, 3.224E-05
 8.000E+02, 9.693E+01, 9.502E+01, 8.435E+01, 1.372E+02, 6.921E+01, 8.254E+01, 1.342E+02, 6.829E+01, 1.116E+01, 1.767E-01, 1.877E-02, 1.438E-04
 8.100E+02, 9.726E+01, 9.564E+01, 8.423E+01, 1.387E+02, 6.886E+01, 8.218E+01, 1.360E+02, 6.873E+01, 9.118E+00, 1.753E-01, 1.950E-02, 2.021E-04
 8.200E+02, 9.638E+01, 9.560E+01, 8.374E+01, 1.375E+02, 6.796E+01, 8.256E+01, 1.364E+02, 6.783E+01, 9.385E+00, 1.746E-01, 1.994E-02, 6.945E-05
 8.300E+02, 9.616E+01, 9.615E+01, 8.353E+01, 1.362E+02, 6.872E+01, 8.235E+01, 1.372E+02, 6.891E+01, 9.259E+00, 1.737E-01, 2.043E-02, 1.943E-05
 8.400E+02, 9.616E+01, 9.514E+01, 8.322E+01, 1.359E+02, 6.940E+01, 8.196E+01, 1.345E+02, 6.895E+01, 6.307E+00, 1.730E-01, 2.083E-02, 3.584E-05
 8.500E+02, 9.562E+01, 9.465E+01, 8.276E+01, 1.352E+02, 6.892E+01, 8.161E+01, 1.327E+02, 6.966E+01, 8.507E+00, 1.724E-01, 2.116E-02, 5.182E-05
 8.600E+02, 9.531E+01, 9.536E+01, 8.228E+01, 1.335E+02, 7.012E+01, 8.119E+01, 1.332E+02, 7.173E+01, 7.966E+00, 1.716E-01, 2.158E-02, 3.708E-05
 8.700E+02, 9.498E+01, 9.379E+01, 8.173E+01, 1.320E+02, 7.122E+01, 8.033E+01, 1.304E+02, 7.063E+01, 8.090E+00, 1.707E-01, 2.208E-02, 7.287E-05
 8.800E+02, 9.467E+01, 9.384E+01, 8.130E+01, 1.314E+02, 7.129E+01, 7.972E+01, 1.305E+02, 7.130E+01, 9.915E+00, 1.698E-01, 2.258E-02, 1.535E-04
 8.900E+02, 9.427E+01, 9.376E+01, 8.084E+01, 1.303E+02, 7.163E+01, 7.943E+01, 1.301E+02, 7.172E+01, 8.296E+00, 1.688E-01, 2.318E-02, 1.385E-04
 9.000E+02, 9.480E+01, 9.307E+01, 8.043E+01, 1.314E+02, 7.258E+01, 7.921E+01, 1.279E+02, 7.210E+01, 9.521E+00, 1.682E-01, 2.347E-02, 4.930E-05
 9.100E+02, 9.471E+01, 9.321E+01, 8.033E+01, 1.310E+02, 7.278E+01, 7.887E+01, 1.281E+02, 7.264E+01, 1.030E+01, 1.674E-01, 2.392E-02, 1.061E-04
 9.200E+02, 9.428E+01, 9.381E+01, 8.014E+01, 1.297E+02, 7.302E+01, 7.846E+01, 1.293E+02, 7.363E+01, 7.429E+00, 1.666E-01, 2.437E-02, 1.365E-04
 9.300E+02, 9.429E+01, 9.340E+01, 7.977E+01, 1.283E+02, 7.475E+01, 7.830E+01, 1.274E+02, 7.450E+01, 8.470E+00, 1.659E-01, 2.476E-02, 7.068E-05
 9.400E+02, 9.390E+01, 9.311E+01, 7.960E+01, 1.274E+02, 7.472E+01, 7.817E+01, 1.265E+02, 7.468E+01, 8.275E+00, 1.652E-01, 2.518E-02, 9.860E-05
 9.500E+02, 9.378E+01, 9.283E+01, 7.919E+01, 1.259E+02, 7.629E+01, 7.807E+01, 1.244E+02, 7.597E+01, 8.899E+00, 1.641E-01, 2.578E-02, 9.295E-05
 9.600E+02, 9.418E+01, 9.293E+01, 7.882E+01, 1.267E+02, 7.701E+01, 7.734E+01, 1.246E+02, 7.683E+01, 7.913E+00, 1.628E-01, 2.652E-02, 1.731E-04
 9.700E+02, 9.337E+01, 9.241E+01, 7.858E+01, 1.249E+02, 7.663E+01, 7.663E+01, 1.237E+02, 7.694E+01, 7.839E+00, 1.624E-01, 2.673E-02, 9.289E-05
 9.800E+02, 9.240E+01, 9.288E+01, 7.801E+01, 1.224E+02, 7.683E+01, 7.650E+01, 1.249E+02, 7.725E+01, 8.181E+00, 1.616E-01, 2.721E-02, 1.674E-04
 9.900E+02, 9.258E+01, 9.202E+01, 7.773E+01, 1.230E+02, 7.700E+01, 7.604E+01, 1.225E+02, 7.756E+01, 7.228E+00, 1.603E-01, 2.789E-02, 1.087E-04
 1.000E+03, 9.251E+01, 9.137E+01, 7.778E+01, 1.227E+02, 7.706E+01, 7.571E+01, 1.226E+02, 7.581E+01, 7.352E+00, 1.597E-01, 2.826E-02, 3.831E-05
