s,C,C,C,C,C,C,C,C,Pa,mol/mol,mol/mol,kW
Time,"West_All_TCs","East_All_TCs","West_Bottom_TCs","West_Middle_TCs","West_Upper_TCs","East_Bottom_TCs","East_Middle_TCs","East_Upper_TCs","Pressure","O2","CO2","HRR"
-6.000E+01, 2.700E+01, 2.700E+01, 2.700E+01, 2.700E+01, 2.700E+01, 2.700E+01, 2.700E+01, 2.700E+01,-9.557E-06, 2.095E-01, 3.901E-04, 0.000E+00
-4.998E+01, 2.700E+01, 2.700E+01, 2.700E+01, 2.700E+01, 2.700E+01, 2.700E+01, 2.700E+01, 2.700E+01,-2.105E-05, 2.095E-01, 3.901E-04, 0.000E+00
-3.996E+01, 2.700E+01, 2.700E+01, 2.700E+01, 2.700E+01, 2.700E+01, 2.700E+01, 2.700E+01, 2.700E+01, 5.564E-06, 2.095E-01, 3.901E-04, 0.000E+00
-2.994E+01, 2.700E+01, 2.700E+01, 2.700E+01, 2.700E+01, 2.700E+01, 2.700E+01, 2.700E+01, 2.700E+01, 5.353E-07, 2.095E-01, 3.901E-04, 0.000E+00
-1.992E+01, 2.700E+01, 2.700E+01, 2.700E+01, 2.700E+01, 2.700E+01, 2.700E+01, 2.700E+01, 2.700E+01, 7.084E-06, 2.095E-01, 3.901E-04, 0.000E+00
-9.896E+00, 2.700E+01, 2.700E+01, 2.700E+01, 2.700E+01, 2.700E+01, 2.700E+01, 2.700E+01, 2.700E+01, 3.540E-06, 2.095E-01, 3.901E-04, 0.000E+00
 1.301E-02, 2.700E+01, 2.700E+01, 2.700E+01, 2.700E+01, 2.700E+01, 2.700E+01, 2.700E+01, 2.700E+01, 4.480E-06, 2.095E-01, 3.901E-04, 1.761E-04
 1.001E+01, 2.804E+01, 2.822E+01, 2.750E+01, 2.963E+01, 2.700E+01, 2.773E+01, 2.991E+01, 2.700E+01, 3.888E-03, 2.095E-01, 3.901E-04, 3.309E+01
 2.001E+01, 3.208E+01, 3.276E+01, 2.951E+01, 3.970E+01, 2.703E+01, 3.047E+01, 4.083E+01, 2.700E+01,-7.760E-03, 2.095E-01, 3.901E-04, 9.876E+01
 3.001E+01, 4.037E+01, 4.112E+01, 3.244E+01, 6.087E+01, 2.780E+01, 3.544E+01, 6.093E+01, 2.699E+01,-9.964E-02, 2.095E-01, 3.901E-04, 1.658E+02
 4.000E+01, 5.120E+01, 5.189E+01, 3.987E+01, 8.438E+01, 2.935E+01, 4.373E+01, 8.441E+01, 2.754E+01, 1.889E-01, 2.094E-01, 4.827E-04, 1.999E+02
 5.002E+01, 5.993E+01, 6.168E+01, 4.903E+01, 9.934E+01, 3.142E+01, 5.270E+01, 1.022E+02, 3.018E+01, 2.630E-01, 2.090E-01, 6.994E-04, 1.999E+02
 6.002E+01, 6.705E+01, 6.928E+01, 5.551E+01, 1.122E+02, 3.350E+01, 6.005E+01, 1.135E+02, 3.428E+01, 1.975E-01, 2.083E-01, 1.096E-03, 1.993E+02
 7.000E+01, 7.280E+01, 7.360E+01, 6.076E+01, 1.213E+02, 3.637E+01, 6.350E+01, 1.197E+02, 3.757E+01, 3.755E-01, 2.079E-01, 1.302E-03, 2.017E+02
 8.000E+01, 7.531E+01, 7.696E+01, 6.332E+01, 1.236E+02, 3.898E+01, 6.469E+01, 1.261E+02, 4.011E+01, 3.714E-01, 2.075E-01, 1.528E-03, 1.993E+02
 9.001E+01, 7.749E+01, 8.017E+01, 6.447E+01, 1.249E+02, 4.306E+01, 6.828E+01, 1.295E+02, 4.276E+01, 1.356E-01, 2.073E-01, 1.660E-03, 2.000E+02
 1.000E+02, 8.012E+01, 8.306E+01, 6.681E+01, 1.288E+02, 4.480E+01, 7.314E+01, 1.310E+02, 4.504E+01, 2.215E-01, 2.069E-01, 1.848E-03, 1.999E+02
 1.100E+02, 8.237E+01, 8.586E+01, 6.761E+01, 1.320E+02, 4.752E+01, 7.700E+01, 1.329E+02, 4.765E+01, 3.768E-01, 2.064E-01, 2.123E-03, 2.004E+02
 1.200E+02, 8.289E+01, 8.623E+01, 6.859E+01, 1.317E+02, 4.838E+01, 7.603E+01, 1.331E+02, 4.957E+01, 1.500E-01, 2.060E-01, 2.365E-03, 1.988E+02
 1.300E+02, 8.371E+01, 8.870E+01, 6.950E+01, 1.328E+02, 4.877E+01, 7.793E+01, 1.383E+02, 4.990E+01, 4.039E-01, 2.058E-01, 2.503E-03, 2.007E+02
 1.400E+02, 8.519E+01, 8.906E+01, 6.850E+01, 1.351E+02, 5.201E+01, 7.929E+01, 1.370E+02, 5.090E+01, 8.020E-01, 2.053E-01, 2.738E-03, 1.998E+02
 1.500E+02, 8.620E+01, 8.928E+01, 6.926E+01, 1.353E+02, 5.403E+01, 7.548E+01, 1.384E+02, 5.391E+01, 6.045E-01, 2.045E-01, 3.197E-03, 1.999E+02
 1.600E+02, 8.539E+01, 9.026E+01, 6.838E+01, 1.318E+02, 5.597E+01, 7.791E+01, 1.382E+02, 5.472E+01, 8.574E-01, 2.041E-01, 3.453E-03, 2.000E+02
 1.700E+02, 8.696E+01, 9.191E+01, 6.973E+01, 1.352E+02, 5.595E+01, 8.115E+01, 1.367E+02, 5.788E+01, 1.251E-01, 2.034E-01, 3.801E-03, 1.987E+02
 1.800E+02, 8.754E+01, 9.234E+01, 7.143E+01, 1.350E+02, 5.616E+01, 8.225E+01, 1.379E+02, 5.689E+01, 1.359E-01, 2.034E-01, 3.824E-03, 2.018E+02
 1.900E+02, 8.761E+01, 9.293E+01, 7.249E+01, 1.334E+02, 5.692E+01, 8.263E+01, 1.405E+02, 5.569E+01, 2.448E-01, 2.031E-01, 4.001E-03, 1.983E+02
 2.000E+02, 8.935E+01, 9.314E+01, 7.251E+01, 1.380E+02, 5.756E+01, 8.065E+01, 1.429E+02, 5.586E+01, 2.020E-01, 2.026E-01, 4.249E-03, 2.008E+02
 2.100E+02, 8.887E+01, 9.301E+01, 7.156E+01, 1.374E+02, 5.768E+01, 8.120E+01, 1.411E+02, 5.676E+01, 6.045E-01, 2.023E-01, 4.448E-03, 1.988E+02
 2.200E+02, 8.899E+01, 9.437E+01, 7.075E+01, 1.372E+02, 5.906E+01, 8.096E+01, 1.445E+02, 5.769E+01, 4.871E-01, 2.019E-01, 4.647E-03, 1.991E+02
 2.300E+02, 9.056E+01, 9.508E+01, 7.208E+01, 1.411E+02, 5.853E+01, 8.436E+01, 1.421E+02, 5.879E+01, 6.719E-02, 2.015E-01, 4.882E-03, 2.020E+02
 2.400E+02, 9.058E+01, 9.469E+01, 7.302E+01, 1.411E+02, 5.766E+01, 8.212E+01, 1.439E+02, 5.802E+01, 1.544E-01, 2.013E-01, 5.003E-03, 1.993E+02
 2.500E+02, 9.128E+01, 9.520E+01, 7.199E+01, 1.401E+02, 6.179E+01, 8.291E+01, 1.465E+02, 5.624E+01, 7.661E-01, 2.012E-01, 5.075E-03, 2.002E+02
 2.600E+02, 9.211E+01, 9.423E+01, 7.196E+01, 1.434E+02, 6.095E+01, 7.824E+01, 1.455E+02, 5.892E+01, 8.809E-01, 2.006E-01, 5.401E-03, 1.997E+02
 2.700E+02, 9.097E+01, 9.416E+01, 6.970E+01, 1.422E+02, 6.104E+01, 7.612E+01, 1.458E+02, 6.060E+01, 4.647E-01, 2.002E-01, 5.610E-03, 2.002E+02
 2.800E+02, 9.076E+01, 9.594E+01, 7.057E+01, 1.411E+02, 6.059E+01, 8.106E+01, 1.464E+02, 6.037E+01, 1.426E-01, 1.999E-01, 5.769E-03, 1.992E+02
 2.900E+02, 9.138E+01, 9.477E+01, 7.290E+01, 1.403E+02, 6.090E+01, 8.306E+01, 1.426E+02, 5.868E+01, 9.649E-01, 1.998E-01, 5.822E-03, 2.001E+02
 3.000E+02, 9.076E+01, 9.506E+01, 7.234E+01, 1.379E+02, 6.204E+01, 7.958E+01, 1.454E+02, 6.020E+01, 6.132E-01, 1.993E-01, 6.136E-03, 2.007E+02
 3.100E+02, 9.144E+01, 9.612E+01, 7.389E+01, 1.393E+02, 6.112E+01, 7.951E+01, 1.469E+02, 6.196E+01, 6.338E-01, 1.991E-01, 6.237E-03, 2.002E+02
 3.200E+02, 9.062E+01, 9.749E+01, 7.246E+01, 1.378E+02, 6.156E+01, 8.354E+01, 1.475E+02, 6.146E+01, 6.765E-01, 1.989E-01, 6.360E-03, 1.998E+02
 3.300E+02, 9.240E+01, 9.683E+01, 7.365E+01, 1.410E+02, 6.257E+01, 8.230E+01, 1.463E+02, 6.185E+01, 9.257E-01, 1.987E-01, 6.439E-03, 2.001E+02
 3.400E+02, 9.256E+01, 9.646E+01, 7.153E+01, 1.433E+02, 6.282E+01, 8.135E+01, 1.467E+02, 6.135E+01, 5.910E-01, 1.984E-01, 6.611E-03, 1.992E+02
 3.500E+02, 9.105E+01, 9.701E+01, 7.144E+01, 1.389E+02, 6.279E+01, 8.071E+01, 1.463E+02, 6.400E+01, 1.067E+00, 1.981E-01, 6.791E-03, 2.008E+02
 3.600E+02, 9.155E+01, 9.694E+01, 7.139E+01, 1.404E+02, 6.290E+01, 8.126E+01, 1.460E+02, 6.354E+01, 4.755E-01, 1.979E-01, 6.888E-03, 1.992E+02
 3.700E+02, 9.368E+01, 9.681E+01, 7.362E+01, 1.424E+02, 6.499E+01, 8.057E+01, 1.471E+02, 6.272E+01, 4.390E-01, 1.978E-01, 6.980E-03, 1.983E+02
 3.800E+02, 9.215E+01, 9.697E+01, 7.347E+01, 1.388E+02, 6.416E+01, 8.261E+01, 1.462E+02, 6.212E+01, 9.907E-01, 1.976E-01, 7.053E-03, 2.014E+02
 3.900E+02, 9.196E+01, 9.662E+01, 7.187E+01, 1.389E+02, 6.512E+01, 8.334E+01, 1.452E+02, 6.131E+01, 6.904E-01, 1.974E-01, 7.178E-03, 2.003E+02
 4.000E+02, 9.224E+01, 9.717E+01, 7.299E+01, 1.389E+02, 6.487E+01, 8.115E+01, 1.472E+02, 6.318E+01, 4.541E-01, 1.973E-01, 7.258E-03, 1.981E+02
 4.100E+02, 9.283E+01, 9.776E+01, 7.423E+01, 1.421E+02, 6.219E+01, 8.411E+01, 1.457E+02, 6.344E+01, 2.043E-02, 1.971E-01, 7.334E-03, 2.006E+02
 4.200E+02, 9.320E+01, 9.708E+01, 7.367E+01, 1.438E+02, 6.212E+01, 8.202E+01, 1.477E+02, 6.148E+01, 2.965E-01, 1.971E-01, 7.364E-03, 2.006E+02
 4.300E+02, 9.269E+01, 9.653E+01, 7.233E+01, 1.419E+02, 6.380E+01, 8.363E+01, 1.460E+02, 6.000E+01, 6.330E-01, 1.970E-01, 7.403E-03, 2.004E+02
 4.400E+02, 9.399E+01, 9.688E+01, 7.490E+01, 1.415E+02, 6.552E+01, 8.409E+01, 1.462E+02, 6.038E+01, 3.495E-01, 1.969E-01, 7.463E-03, 1.990E+02
 4.500E+02, 9.392E+01, 9.754E+01, 7.425E+01, 1.436E+02, 6.393E+01, 8.452E+01, 1.479E+02, 6.021E+01, 7.254E-01, 1.968E-01, 7.516E-03, 2.016E+02
 4.600E+02, 9.420E+01, 9.847E+01, 7.418E+01, 1.433E+02, 6.511E+01, 8.223E+01, 1.494E+02, 6.380E+01, 5.884E-01, 1.966E-01, 7.640E-03, 1.983E+02
 4.700E+02, 9.405E+01, 9.817E+01, 7.352E+01, 1.454E+02, 6.325E+01, 8.196E+01, 1.486E+02, 6.390E+01, 1.464E-01, 1.965E-01, 7.666E-03, 1.991E+02
 4.800E+02, 9.355E+01, 9.871E+01, 7.446E+01, 1.421E+02, 6.414E+01, 8.258E+01, 1.514E+02, 6.213E+01, 4.478E-01, 1.964E-01, 7.713E-03, 2.012E+02
 4.900E+02, 9.397E+01, 9.814E+01, 7.390E+01, 1.439E+02, 6.406E+01, 8.300E+01, 1.487E+02, 6.273E+01, 7.921E-01, 1.963E-01, 7.773E-03, 1.995E+02
 5.000E+02, 9.433E+01, 9.885E+01, 7.375E+01, 1.439E+02, 6.535E+01, 8.540E+01, 1.481E+02, 6.304E+01, 4.085E-01, 1.963E-01, 7.815E-03, 2.002E+02
 5.100E+02, 9.430E+01, 9.956E+01, 7.548E+01, 1.430E+02, 6.436E+01, 8.685E+01, 1.479E+02, 6.395E+01, 3.220E-01, 1.962E-01, 7.874E-03, 1.997E+02
 5.200E+02, 9.548E+01, 9.998E+01, 7.599E+01, 1.476E+02, 6.284E+01, 8.615E+01, 1.504E+02, 6.336E+01,-1.667E-01, 1.961E-01, 7.889E-03, 2.005E+02
 5.300E+02, 9.442E+01, 9.861E+01, 7.471E+01, 1.435E+02, 6.504E+01, 8.454E+01, 1.496E+02, 6.170E+01, 6.380E-01, 1.961E-01, 7.909E-03, 1.996E+02
 5.400E+02, 9.405E+01, 9.849E+01, 7.328E+01, 1.432E+02, 6.570E+01, 8.410E+01, 1.500E+02, 6.141E+01, 8.235E-01, 1.960E-01, 7.969E-03, 2.003E+02
 5.500E+02, 9.488E+01, 9.936E+01, 7.538E+01, 1.449E+02, 6.434E+01, 8.508E+01, 1.492E+02, 6.383E+01, 4.515E-01, 1.959E-01, 8.041E-03, 2.000E+02
 5.600E+02, 9.457E+01, 1.001E+02, 7.397E+01, 1.446E+02, 6.519E+01, 8.510E+01, 1.492E+02, 6.604E+01, 5.940E-01, 1.958E-01, 8.074E-03, 2.001E+02
 5.700E+02, 9.541E+01, 1.006E+02, 7.294E+01, 1.471E+02, 6.619E+01, 8.701E+01, 1.491E+02, 6.569E+01, 4.620E-01, 1.957E-01, 8.111E-03, 1.992E+02
 5.800E+02, 9.635E+01, 9.982E+01, 7.469E+01, 1.472E+02, 6.712E+01, 8.528E+01, 1.497E+02, 6.450E+01, 4.317E-01, 1.957E-01, 8.127E-03, 1.999E+02
 5.900E+02, 9.556E+01, 1.008E+02, 7.408E+01, 1.451E+02, 6.749E+01, 8.488E+01, 1.519E+02, 6.543E+01, 5.237E-01, 1.956E-01, 8.174E-03, 2.000E+02
 6.000E+02, 9.486E+01, 1.013E+02, 7.229E+01, 1.462E+02, 6.610E+01, 8.527E+01, 1.528E+02, 6.569E+01, 2.922E-01, 1.955E-01, 8.214E-03, 1.996E+02
 6.100E+02, 9.577E+01, 9.947E+01, 7.357E+01, 1.465E+02, 6.724E+01, 8.365E+01, 1.503E+02, 6.446E+01, 3.768E-01, 1.955E-01, 8.227E-03, 2.002E+02
 6.200E+02, 9.598E+01, 9.945E+01, 7.476E+01, 1.473E+02, 6.588E+01, 8.406E+01, 1.492E+02, 6.509E+01, 5.830E-01, 1.955E-01, 8.252E-03, 1.997E+02
 6.300E+02, 9.524E+01, 1.001E+02, 7.341E+01, 1.465E+02, 6.580E+01, 8.482E+01, 1.500E+02, 6.535E+01, 9.448E-01, 1.954E-01, 8.293E-03, 1.987E+02
 6.400E+02, 9.602E+01, 9.948E+01, 7.363E+01, 1.475E+02, 6.694E+01, 8.166E+01, 1.501E+02, 6.666E+01, 1.020E+00, 1.954E-01, 8.321E-03, 2.014E+02
 6.500E+02, 9.528E+01, 1.009E+02, 7.385E+01, 1.423E+02, 6.966E+01, 8.380E+01, 1.511E+02, 6.797E+01, 9.369E-01, 1.953E-01, 8.332E-03, 1.989E+02
 6.600E+02, 9.666E+01, 1.010E+02, 7.442E+01, 1.461E+02, 6.942E+01, 8.412E+01, 1.498E+02, 6.904E+01, 1.371E-01, 1.953E-01, 8.362E-03, 2.001E+02
 6.700E+02, 9.680E+01, 1.033E+02, 7.433E+01, 1.472E+02, 6.891E+01, 9.133E+01, 1.525E+02, 6.604E+01, 5.865E-01, 1.953E-01, 8.360E-03, 1.987E+02
 6.800E+02, 9.643E+01, 9.989E+01, 7.327E+01, 1.464E+02, 6.964E+01, 8.453E+01, 1.492E+02, 6.599E+01, 6.910E-01, 1.953E-01, 8.369E-03, 2.005E+02
 6.900E+02, 9.571E+01, 1.001E+02, 7.438E+01, 1.442E+02, 6.853E+01, 8.269E+01, 1.496E+02, 6.795E+01, 9.839E-01, 1.952E-01, 8.390E-03, 2.004E+02
 7.000E+02, 9.639E+01, 1.014E+02, 7.477E+01, 1.450E+02, 6.945E+01, 8.356E+01, 1.519E+02, 6.883E+01, 1.038E+00, 1.952E-01, 8.391E-03, 1.995E+02
 7.100E+02, 9.622E+01, 1.010E+02, 7.381E+01, 1.447E+02, 7.011E+01, 8.446E+01, 1.497E+02, 6.873E+01, 1.026E+00, 1.952E-01, 8.392E-03, 2.002E+02
 7.200E+02, 9.722E+01, 1.020E+02, 7.330E+01, 1.468E+02, 7.159E+01, 8.454E+01, 1.514E+02, 7.006E+01, 7.130E-01, 1.952E-01, 8.414E-03, 1.989E+02
 7.300E+02, 9.590E+01, 1.018E+02, 7.408E+01, 1.443E+02, 6.929E+01, 8.303E+01, 1.527E+02, 6.963E+01, 1.171E+00, 1.952E-01, 8.427E-03, 2.005E+02
 7.400E+02, 9.795E+01, 1.017E+02, 7.458E+01, 1.490E+02, 7.024E+01, 8.670E+01, 1.495E+02, 6.873E+01, 3.570E-01, 1.952E-01, 8.420E-03, 1.994E+02
 7.500E+02, 9.804E+01, 1.024E+02, 7.342E+01, 1.487E+02, 7.201E+01, 8.585E+01, 1.520E+02, 6.928E+01, 6.987E-01, 1.952E-01, 8.420E-03, 1.998E+02
 7.600E+02, 9.771E+01, 1.015E+02, 7.493E+01, 1.480E+02, 7.018E+01, 8.584E+01, 1.502E+02, 6.857E+01, 2.921E-01, 1.951E-01, 8.451E-03, 1.999E+02
 7.700E+02, 9.811E+01, 1.030E+02, 7.660E+01, 1.482E+02, 6.955E+01, 8.786E+01, 1.523E+02, 6.870E+01, 1.156E-01, 1.952E-01, 8.430E-03, 1.996E+02
 7.800E+02, 9.727E+01, 1.020E+02, 7.343E+01, 1.493E+02, 6.907E+01, 8.603E+01, 1.517E+02, 6.823E+01, 5.404E-01, 1.951E-01, 8.447E-03, 2.001E+02
 7.900E+02, 9.724E+01, 1.020E+02, 7.438E+01, 1.484E+02, 6.892E+01, 8.691E+01, 1.506E+02, 6.852E+01, 8.080E-01, 1.951E-01, 8.468E-03, 1.996E+02
 8.000E+02, 9.765E+01, 1.027E+02, 7.477E+01, 1.488E+02, 6.940E+01, 8.792E+01, 1.536E+02, 6.662E+01, 7.544E-01, 1.951E-01, 8.470E-03, 1.998E+02
 8.100E+02, 9.826E+01, 1.027E+02, 7.401E+01, 1.505E+02, 7.028E+01, 8.492E+01, 1.536E+02, 6.961E+01, 8.518E-01, 1.951E-01, 8.459E-03, 1.995E+02
 8.200E+02, 9.860E+01, 1.034E+02, 7.508E+01, 1.496E+02, 7.111E+01, 8.842E+01, 1.516E+02, 7.020E+01, 5.993E-01, 1.951E-01, 8.464E-03, 2.004E+02
 8.300E+02, 9.856E+01, 1.036E+02, 7.579E+01, 1.486E+02, 7.131E+01, 8.843E+01, 1.526E+02, 6.985E+01, 7.627E-01, 1.951E-01, 8.466E-03, 1.990E+02
 8.400E+02, 9.869E+01, 1.025E+02, 7.510E+01, 1.484E+02, 7.257E+01, 8.684E+01, 1.531E+02, 6.766E+01, 9.265E-01, 1.951E-01, 8.476E-03, 2.005E+02
 8.500E+02, 9.853E+01, 1.030E+02, 7.399E+01, 1.491E+02, 7.248E+01, 8.525E+01, 1.537E+02, 7.008E+01, 6.508E-01, 1.951E-01, 8.487E-03, 2.000E+02
 8.600E+02, 9.767E+01, 1.025E+02, 7.469E+01, 1.458E+02, 7.254E+01, 8.395E+01, 1.530E+02, 7.055E+01, 6.015E-01, 1.951E-01, 8.488E-03, 2.002E+02
 8.700E+02, 9.740E+01, 1.028E+02, 7.382E+01, 1.472E+02, 7.122E+01, 8.410E+01, 1.536E+02, 7.056E+01, 1.086E+00, 1.951E-01, 8.487E-03, 1.998E+02
 8.800E+02, 9.836E+01, 1.031E+02, 7.370E+01, 1.482E+02, 7.313E+01, 8.516E+01, 1.525E+02, 7.155E+01, 1.154E+00, 1.950E-01, 8.502E-03, 1.991E+02
 8.900E+02, 9.873E+01, 1.038E+02, 7.441E+01, 1.474E+02, 7.440E+01, 8.497E+01, 1.551E+02, 7.127E+01, 5.990E-01, 1.950E-01, 8.510E-03, 1.997E+02
 9.000E+02, 9.763E+01, 1.038E+02, 7.408E+01, 1.447E+02, 7.413E+01, 8.515E+01, 1.550E+02, 7.126E+01, 1.176E+00, 1.950E-01, 8.511E-03, 1.999E+02
 9.100E+02, 9.855E+01, 1.031E+02, 7.675E+01, 1.448E+02, 7.410E+01, 8.443E+01, 1.526E+02, 7.234E+01, 1.010E+00, 1.950E-01, 8.502E-03, 2.000E+02
 9.200E+02, 9.831E+01, 1.038E+02, 7.599E+01, 1.442E+02, 7.473E+01, 8.736E+01, 1.520E+02, 7.213E+01, 1.179E+00, 1.951E-01, 8.478E-03, 1.978E+02
 9.300E+02, 9.939E+01, 1.029E+02, 7.660E+01, 1.483E+02, 7.329E+01, 8.347E+01, 1.517E+02, 7.341E+01, 9.669E-01, 1.951E-01, 8.460E-03, 2.003E+02
 9.400E+02, 1.008E+02, 1.027E+02, 7.754E+01, 1.496E+02, 7.518E+01, 8.396E+01, 1.508E+02, 7.331E+01, 1.113E+00, 1.951E-01, 8.467E-03, 2.015E+02
 9.500E+02, 9.927E+01, 1.052E+02, 7.539E+01, 1.471E+02, 7.537E+01, 8.549E+01, 1.568E+02, 7.341E+01, 9.872E-01, 1.951E-01, 8.465E-03, 1.990E+02
 9.600E+02, 9.944E+01, 1.041E+02, 7.555E+01, 1.478E+02, 7.498E+01, 8.607E+01, 1.539E+02, 7.250E+01, 9.788E-01, 1.951E-01, 8.450E-03, 2.009E+02
 9.700E+02, 9.909E+01, 1.043E+02, 7.545E+01, 1.476E+02, 7.422E+01, 8.422E+01, 1.551E+02, 7.347E+01, 1.003E+00, 1.951E-01, 8.439E-03, 1.984E+02
 9.800E+02, 9.995E+01, 1.055E+02, 7.460E+01, 1.505E+02, 7.473E+01, 8.606E+01, 1.561E+02, 7.446E+01, 9.398E-01, 1.952E-01, 8.433E-03, 2.006E+02
 9.900E+02, 1.012E+02, 1.052E+02, 7.560E+01, 1.527E+02, 7.540E+01, 8.543E+01, 1.551E+02, 7.495E+01, 4.542E-01, 1.951E-01, 8.445E-03, 2.003E+02
 1.000E+03, 1.003E+02, 1.051E+02, 7.562E+01, 1.501E+02, 7.515E+01, 8.806E+01, 1.549E+02, 7.227E+01, 8.043E-01, 1.951E-01, 8.443E-03, 2.000E+02
 1.010E+03, 1.001E+02, 1.041E+02, 7.545E+01, 1.496E+02, 7.527E+01, 8.870E+01, 1.528E+02, 7.087E+01, 7.895E-01, 1.951E-01, 8.440E-03, 2.004E+02
 1.020E+03, 1.007E+02, 1.041E+02, 7.529E+01, 1.516E+02, 7.532E+01, 8.558E+01, 1.546E+02, 7.195E+01, 1.221E+00, 1.951E-01, 8.448E-03, 1.995E+02
 1.030E+03, 1.010E+02, 1.039E+02, 7.699E+01, 1.503E+02, 7.581E+01, 8.235E+01, 1.562E+02, 7.323E+01, 1.172E+00, 1.951E-01, 8.455E-03, 1.979E+02
 1.040E+03, 1.009E+02, 1.042E+02, 7.545E+01, 1.500E+02, 7.724E+01, 8.284E+01, 1.552E+02, 7.459E+01, 8.616E-01, 1.951E-01, 8.453E-03, 2.010E+02
 1.050E+03, 1.006E+02, 1.043E+02, 7.494E+01, 1.506E+02, 7.626E+01, 8.472E+01, 1.538E+02, 7.430E+01, 7.213E-01, 1.951E-01, 8.442E-03, 2.010E+02
 1.060E+03, 1.002E+02, 1.065E+02, 7.527E+01, 1.508E+02, 7.446E+01, 9.130E+01, 1.534E+02, 7.472E+01, 2.031E-01, 1.951E-01, 8.469E-03, 1.990E+02
 1.070E+03, 1.002E+02, 1.049E+02, 7.594E+01, 1.492E+02, 7.566E+01, 8.466E+01, 1.566E+02, 7.362E+01, 9.290E-01, 1.951E-01, 8.473E-03, 2.000E+02
 1.080E+03, 1.012E+02, 1.037E+02, 7.551E+01, 1.510E+02, 7.707E+01, 8.366E+01, 1.540E+02, 7.350E+01, 1.064E+00, 1.951E-01, 8.461E-03, 1.993E+02
 1.090E+03, 1.009E+02, 1.058E+02, 7.589E+01, 1.497E+02, 7.698E+01, 8.845E+01, 1.558E+02, 7.300E+01, 9.694E-01, 1.951E-01, 8.451E-03, 2.003E+02
 1.100E+03, 1.010E+02, 1.060E+02, 7.663E+01, 1.511E+02, 7.526E+01, 8.724E+01, 1.553E+02, 7.544E+01, 7.004E-01, 1.951E-01, 8.437E-03, 1.996E+02
 1.110E+03, 1.000E+02, 1.062E+02, 7.446E+01, 1.489E+02, 7.663E+01, 8.738E+01, 1.567E+02, 7.452E+01, 1.015E+00, 1.951E-01, 8.444E-03, 2.001E+02
 1.120E+03, 1.022E+02, 1.047E+02, 7.747E+01, 1.527E+02, 7.645E+01, 8.316E+01, 1.571E+02, 7.394E+01, 1.201E+00, 1.952E-01, 8.429E-03, 1.991E+02
 1.130E+03, 1.029E+02, 1.045E+02, 7.708E+01, 1.545E+02, 7.726E+01, 8.436E+01, 1.552E+02, 7.403E+01, 6.622E-01, 1.952E-01, 8.410E-03, 2.005E+02
 1.140E+03, 1.024E+02, 1.063E+02, 7.756E+01, 1.526E+02, 7.705E+01, 9.034E+01, 1.539E+02, 7.484E+01, 8.962E-01, 1.952E-01, 8.401E-03, 1.997E+02
 1.150E+03, 1.015E+02, 1.055E+02, 7.790E+01, 1.504E+02, 7.624E+01, 8.757E+01, 1.530E+02, 7.593E+01, 5.401E-01, 1.952E-01, 8.413E-03, 1.996E+02
 1.160E+03, 1.022E+02, 1.051E+02, 7.686E+01, 1.531E+02, 7.653E+01, 8.595E+01, 1.540E+02, 7.547E+01, 6.301E-01, 1.952E-01, 8.424E-03, 1.993E+02
 1.170E+03, 1.031E+02, 1.068E+02, 7.762E+01, 1.536E+02, 7.804E+01, 8.859E+01, 1.573E+02, 7.440E+01, 1.104E+00, 1.952E-01, 8.431E-03, 2.000E+02
 1.180E+03, 1.022E+02, 1.065E+02, 7.751E+01, 1.510E+02, 7.811E+01, 8.908E+01, 1.555E+02, 7.493E+01, 1.129E+00, 1.952E-01, 8.425E-03, 1.998E+02
 1.190E+03, 1.030E+02, 1.070E+02, 7.790E+01, 1.522E+02, 7.901E+01, 9.350E+01, 1.515E+02, 7.603E+01, 9.968E-01, 1.952E-01, 8.409E-03, 2.001E+02
 1.200E+03, 1.022E+02, 1.062E+02, 7.568E+01, 1.535E+02, 7.731E+01, 8.672E+01, 1.555E+02, 7.631E+01, 1.227E+00, 1.952E-01, 8.411E-03, 1.992E+02
 1.210E+03, 1.024E+02, 1.069E+02, 7.761E+01, 1.515E+02, 7.807E+01, 8.883E+01, 1.553E+02, 7.659E+01, 1.090E+00, 1.951E-01, 8.436E-03, 1.994E+02
 1.220E+03, 1.034E+02, 1.068E+02, 7.700E+01, 1.544E+02, 7.883E+01, 8.865E+01, 1.551E+02, 7.670E+01, 4.922E-01, 1.952E-01, 8.410E-03, 2.002E+02
 1.230E+03, 1.036E+02, 1.074E+02, 7.773E+01, 1.537E+02, 7.945E+01, 9.139E+01, 1.556E+02, 7.513E+01, 1.142E+00, 1.952E-01, 8.396E-03, 2.000E+02
 1.240E+03, 1.017E+02, 1.069E+02, 7.778E+01, 1.480E+02, 7.934E+01, 8.553E+01, 1.587E+02, 7.662E+01, 7.898E-01, 1.952E-01, 8.403E-03, 1.988E+02
 1.250E+03, 1.029E+02, 1.068E+02, 7.760E+01, 1.525E+02, 7.848E+01, 8.665E+01, 1.567E+02, 7.696E+01, 1.252E+00, 1.952E-01, 8.380E-03, 1.993E+02
 1.260E+03, 1.019E+02, 1.067E+02, 7.493E+01, 1.513E+02, 7.960E+01, 8.669E+01, 1.566E+02, 7.697E+01, 7.739E-01, 1.952E-01, 8.381E-03, 2.013E+02
 1.270E+03, 1.025E+02, 1.087E+02, 7.670E+01, 1.519E+02, 7.896E+01, 9.192E+01, 1.584E+02, 7.578E+01, 2.817E-01, 1.952E-01, 8.414E-03, 1.992E+02
 1.280E+03, 1.041E+02, 1.061E+02, 7.838E+01, 1.555E+02, 7.854E+01, 8.660E+01, 1.570E+02, 7.486E+01, 7.825E-01, 1.952E-01, 8.401E-03, 1.996E+02
 1.290E+03, 1.034E+02, 1.055E+02, 7.761E+01, 1.542E+02, 7.832E+01, 8.606E+01, 1.549E+02, 7.551E+01, 5.401E-01, 1.952E-01, 8.400E-03, 2.003E+02
 1.300E+03, 1.029E+02, 1.074E+02, 7.685E+01, 1.550E+02, 7.692E+01, 8.883E+01, 1.569E+02, 7.634E+01, 1.037E+00, 1.952E-01, 8.418E-03, 1.987E+02
 1.310E+03, 1.021E+02, 1.080E+02, 7.639E+01, 1.518E+02, 7.812E+01, 8.939E+01, 1.576E+02, 7.705E+01, 1.169E+00, 1.952E-01, 8.411E-03, 1.993E+02
