s,C,C,C,C,C,C,C,C,Pa,mol/mol,mol/mol,kW
Time,"West_All_TCs","East_All_TCs","West_Bottom_TCs","West_Middle_TCs","West_Upper_TCs","East_Bottom_TCs","East_Middle_TCs","East_Upper_TCs","Pressure","O2","CO2","HRR"
-6.000E+01, 4.200E+01, 4.200E+01, 4.200E+01, 4.200E+01, 4.200E+01, 4.200E+01, 4.200E+01, 4.200E+01,-9.037E-06, 2.095E-01, 3.901E-04, 0.000E+00
-4.998E+01, 4.196E+01, 4.196E+01, 4.196E+01, 4.196E+01, 4.196E+01, 4.196E+01, 4.196E+01, 4.196E+01,-6.967E+01, 2.095E-01, 3.901E-04, 0.000E+00
-3.994E+01, 4.194E+01, 4.195E+01, 4.195E+01, 4.194E+01, 4.194E+01, 4.196E+01, 4.195E+01, 4.195E+01,-7.017E+01, 2.095E-01, 3.901E-04, 0.000E+00
-2.992E+01, 4.194E+01, 4.196E+01, 4.194E+01, 4.194E+01, 4.194E+01, 4.197E+01, 4.195E+01, 4.195E+01,-7.025E+01, 2.095E-01, 3.901E-04, 0.000E+00
-1.993E+01, 4.194E+01, 4.196E+01, 4.194E+01, 4.194E+01, 4.194E+01, 4.198E+01, 4.195E+01, 4.195E+01,-7.026E+01, 2.095E-01, 3.901E-04, 0.000E+00
-9.962E+00, 4.194E+01, 4.197E+01, 4.194E+01, 4.194E+01, 4.194E+01, 4.199E+01, 4.196E+01, 4.195E+01,-7.028E+01, 2.095E-01, 3.901E-04, 0.000E+00
 5.786E-02, 4.194E+01, 4.197E+01, 4.194E+01, 4.194E+01, 4.194E+01, 4.200E+01, 4.196E+01, 4.195E+01,-7.038E+01, 2.095E-01, 3.901E-04, 3.557E-04
 1.002E+01, 4.303E+01, 4.324E+01, 4.232E+01, 4.478E+01, 4.199E+01, 4.270E+01, 4.503E+01, 4.198E+01,-3.260E+01, 2.095E-01, 3.901E-04, 3.200E+01
 2.002E+01, 4.792E+01, 4.812E+01, 4.385E+01, 5.696E+01, 4.296E+01, 4.472E+01, 5.765E+01, 4.199E+01, 3.316E+00, 2.095E-01, 3.901E-04, 9.869E+01
 3.000E+01, 5.720E+01, 5.733E+01, 4.650E+01, 8.167E+01, 4.342E+01, 4.724E+01, 8.285E+01, 4.190E+01, 3.104E+01, 2.095E-01, 3.901E-04, 1.659E+02
 4.001E+01, 7.006E+01, 6.905E+01, 5.109E+01, 1.138E+02, 4.529E+01, 5.238E+01, 1.124E+02, 4.232E+01, 3.678E+01, 2.095E-01, 4.391E-04, 1.996E+02
 5.001E+01, 8.159E+01, 8.243E+01, 5.756E+01, 1.394E+02, 4.779E+01, 5.940E+01, 1.410E+02, 4.686E+01, 1.420E+01, 2.086E-01, 9.429E-04, 1.992E+02
 6.002E+01, 9.041E+01, 9.228E+01, 6.464E+01, 1.565E+02, 5.004E+01, 6.736E+01, 1.600E+02, 4.952E+01, 3.377E+00, 2.082E-01, 1.160E-03, 1.979E+02
 7.001E+01, 9.934E+01, 9.965E+01, 7.221E+01, 1.724E+02, 5.336E+01, 7.624E+01, 1.704E+02, 5.233E+01,-3.153E+00, 2.075E-01, 1.538E-03, 2.038E+02
 8.001E+01, 1.048E+02, 1.061E+02, 7.855E+01, 1.807E+02, 5.511E+01, 8.343E+01, 1.796E+02, 5.517E+01,-1.175E+01, 2.068E-01, 1.934E-03, 1.980E+02
 9.000E+01, 1.081E+02, 1.107E+02, 8.342E+01, 1.840E+02, 5.693E+01, 8.859E+01, 1.843E+02, 5.916E+01,-1.989E+01, 2.058E-01, 2.502E-03, 2.014E+02
 1.000E+02, 1.114E+02, 1.169E+02, 8.763E+01, 1.864E+02, 6.021E+01, 9.826E+01, 1.921E+02, 6.044E+01,-2.486E+01, 2.052E-01, 2.793E-03, 1.996E+02
 1.100E+02, 1.129E+02, 1.173E+02, 9.042E+01, 1.866E+02, 6.174E+01, 9.854E+01, 1.916E+02, 6.178E+01,-3.212E+01, 2.047E-01, 3.075E-03, 2.013E+02
 1.200E+02, 1.145E+02, 1.206E+02, 9.399E+01, 1.877E+02, 6.171E+01, 1.023E+02, 1.952E+02, 6.410E+01,-3.484E+01, 2.038E-01, 3.575E-03, 1.985E+02
 1.300E+02, 1.181E+02, 1.224E+02, 9.732E+01, 1.920E+02, 6.497E+01, 1.061E+02, 1.970E+02, 6.393E+01,-3.614E+01, 2.035E-01, 3.757E-03, 1.994E+02
 1.400E+02, 1.202E+02, 1.259E+02, 9.980E+01, 1.939E+02, 6.690E+01, 1.117E+02, 1.997E+02, 6.624E+01,-3.944E+01, 2.023E-01, 4.430E-03, 2.017E+02
 1.500E+02, 1.206E+02, 1.265E+02, 1.020E+02, 1.937E+02, 6.620E+01, 1.100E+02, 2.028E+02, 6.663E+01,-4.163E+01, 2.015E-01, 4.899E-03, 1.992E+02
 1.600E+02, 1.223E+02, 1.264E+02, 1.050E+02, 1.940E+02, 6.783E+01, 1.117E+02, 1.995E+02, 6.806E+01,-4.441E+01, 2.006E-01, 5.392E-03, 1.999E+02
 1.700E+02, 1.237E+02, 1.302E+02, 1.062E+02, 1.960E+02, 6.893E+01, 1.145E+02, 2.073E+02, 6.895E+01,-4.001E+01, 2.000E-01, 5.733E-03, 1.998E+02
 1.800E+02, 1.253E+02, 1.296E+02, 1.080E+02, 1.988E+02, 6.925E+01, 1.130E+02, 2.054E+02, 7.041E+01,-4.973E+01, 1.989E-01, 6.312E-03, 2.002E+02
 1.900E+02, 1.261E+02, 1.315E+02, 1.077E+02, 2.002E+02, 7.054E+01, 1.185E+02, 2.058E+02, 7.030E+01,-4.440E+01, 1.981E-01, 6.763E-03, 2.000E+02
 2.000E+02, 1.277E+02, 1.307E+02, 1.090E+02, 2.032E+02, 7.085E+01, 1.165E+02, 2.048E+02, 7.077E+01,-5.037E+01, 1.970E-01, 7.413E-03, 2.001E+02
 2.100E+02, 1.281E+02, 1.327E+02, 1.118E+02, 2.004E+02, 7.199E+01, 1.185E+02, 2.082E+02, 7.134E+01,-4.860E+01, 1.963E-01, 7.784E-03, 1.993E+02
 2.200E+02, 1.279E+02, 1.339E+02, 1.116E+02, 1.998E+02, 7.232E+01, 1.184E+02, 2.105E+02, 7.267E+01,-5.066E+01, 1.951E-01, 8.485E-03, 2.000E+02
 2.300E+02, 1.294E+02, 1.321E+02, 1.122E+02, 2.028E+02, 7.324E+01, 1.165E+02, 2.075E+02, 7.230E+01,-5.029E+01, 1.943E-01, 8.929E-03, 1.993E+02
 2.400E+02, 1.300E+02, 1.352E+02, 1.139E+02, 2.026E+02, 7.339E+01, 1.203E+02, 2.120E+02, 7.326E+01,-5.205E+01, 1.926E-01, 9.852E-03, 2.004E+02
 2.500E+02, 1.304E+02, 1.348E+02, 1.140E+02, 2.035E+02, 7.364E+01, 1.218E+02, 2.096E+02, 7.312E+01,-5.437E+01, 1.917E-01, 1.035E-02, 1.986E+02
 2.600E+02, 1.315E+02, 1.346E+02, 1.144E+02, 2.051E+02, 7.496E+01, 1.197E+02, 2.113E+02, 7.276E+01,-5.394E+01, 1.909E-01, 1.080E-02, 2.022E+02
 2.700E+02, 1.315E+02, 1.366E+02, 1.154E+02, 2.056E+02, 7.350E+01, 1.221E+02, 2.143E+02, 7.345E+01,-5.567E+01, 1.900E-01, 1.133E-02, 1.985E+02
 2.800E+02, 1.313E+02, 1.361E+02, 1.162E+02, 2.043E+02, 7.341E+01, 1.220E+02, 2.128E+02, 7.361E+01,-5.140E+01, 1.892E-01, 1.174E-02, 2.002E+02
 2.900E+02, 1.328E+02, 1.368E+02, 1.161E+02, 2.076E+02, 7.470E+01, 1.233E+02, 2.143E+02, 7.279E+01,-5.052E+01, 1.878E-01, 1.252E-02, 2.004E+02
 3.000E+02, 1.339E+02, 1.375E+02, 1.168E+02, 2.102E+02, 7.463E+01, 1.228E+02, 2.142E+02, 7.536E+01,-5.501E+01, 1.862E-01, 1.341E-02, 1.998E+02
 3.100E+02, 1.334E+02, 1.388E+02, 1.178E+02, 2.074E+02, 7.516E+01, 1.264E+02, 2.154E+02, 7.451E+01,-5.115E+01, 1.862E-01, 1.343E-02, 1.994E+02
 3.200E+02, 1.349E+02, 1.391E+02, 1.182E+02, 2.108E+02, 7.570E+01, 1.245E+02, 2.181E+02, 7.455E+01,-5.577E+01, 1.849E-01, 1.415E-02, 1.981E+02
 3.300E+02, 1.337E+02, 1.384E+02, 1.191E+02, 2.073E+02, 7.470E+01, 1.250E+02, 2.154E+02, 7.476E+01,-5.317E+01, 1.842E-01, 1.455E-02, 2.013E+02
 3.400E+02, 1.365E+02, 1.390E+02, 1.192E+02, 2.130E+02, 7.712E+01, 1.260E+02, 2.164E+02, 7.469E+01,-5.864E+01, 1.831E-01, 1.519E-02, 1.999E+02
 3.500E+02, 1.358E+02, 1.389E+02, 1.200E+02, 2.122E+02, 7.535E+01, 1.253E+02, 2.163E+02, 7.504E+01,-5.297E+01, 1.823E-01, 1.559E-02, 2.003E+02
 3.600E+02, 1.362E+02, 1.398E+02, 1.216E+02, 2.108E+02, 7.617E+01, 1.261E+02, 2.194E+02, 7.406E+01,-4.923E+01, 1.810E-01, 1.635E-02, 2.000E+02
 3.700E+02, 1.372E+02, 1.412E+02, 1.203E+02, 2.156E+02, 7.577E+01, 1.277E+02, 2.207E+02, 7.519E+01,-6.160E+01, 1.803E-01, 1.674E-02, 1.999E+02
 3.800E+02, 1.368E+02, 1.421E+02, 1.217E+02, 2.137E+02, 7.498E+01, 1.294E+02, 2.213E+02, 7.554E+01,-5.292E+01, 1.795E-01, 1.719E-02, 1.989E+02
 3.900E+02, 1.376E+02, 1.413E+02, 1.217E+02, 2.150E+02, 7.618E+01, 1.270E+02, 2.219E+02, 7.507E+01,-5.436E+01, 1.787E-01, 1.764E-02, 2.014E+02
 4.000E+02, 1.374E+02, 1.430E+02, 1.219E+02, 2.139E+02, 7.629E+01, 1.281E+02, 2.249E+02, 7.589E+01,-5.100E+01, 1.777E-01, 1.819E-02, 1.984E+02
 4.100E+02, 1.383E+02, 1.427E+02, 1.230E+02, 2.160E+02, 7.597E+01, 1.275E+02, 2.252E+02, 7.547E+01,-5.681E+01, 1.765E-01, 1.885E-02, 2.006E+02
 4.200E+02, 1.387E+02, 1.419E+02, 1.221E+02, 2.178E+02, 7.604E+01, 1.286E+02, 2.223E+02, 7.494E+01,-5.849E+01, 1.756E-01, 1.935E-02, 1.997E+02
 4.300E+02, 1.394E+02, 1.445E+02, 1.240E+02, 2.180E+02, 7.625E+01, 1.310E+02, 2.261E+02, 7.635E+01,-4.991E+01, 1.749E-01, 1.973E-02, 2.000E+02
 4.400E+02, 1.397E+02, 1.442E+02, 1.246E+02, 2.181E+02, 7.653E+01, 1.295E+02, 2.261E+02, 7.683E+01,-5.162E+01, 1.744E-01, 2.002E-02, 2.002E+02
 4.500E+02, 1.398E+02, 1.452E+02, 1.245E+02, 2.179E+02, 7.692E+01, 1.307E+02, 2.286E+02, 7.633E+01,-5.555E+01, 1.733E-01, 2.065E-02, 1.995E+02
 4.600E+02, 1.397E+02, 1.433E+02, 1.242E+02, 2.187E+02, 7.603E+01, 1.293E+02, 2.243E+02, 7.639E+01,-5.391E+01, 1.725E-01, 2.109E-02, 2.007E+02
 4.700E+02, 1.411E+02, 1.441E+02, 1.259E+02, 2.209E+02, 7.649E+01, 1.280E+02, 2.278E+02, 7.651E+01,-5.735E+01, 1.716E-01, 2.159E-02, 1.982E+02
 4.800E+02, 1.416E+02, 1.457E+02, 1.269E+02, 2.209E+02, 7.688E+01, 1.303E+02, 2.291E+02, 7.764E+01,-5.250E+01, 1.707E-01, 2.211E-02, 2.010E+02
 4.900E+02, 1.420E+02, 1.463E+02, 1.270E+02, 2.209E+02, 7.799E+01, 1.335E+02, 2.283E+02, 7.709E+01,-5.012E+01, 1.701E-01, 2.244E-02, 1.987E+02
 5.000E+02, 1.420E+02, 1.474E+02, 1.276E+02, 2.203E+02, 7.816E+01, 1.335E+02, 2.311E+02, 7.759E+01,-5.173E+01, 1.693E-01, 2.286E-02, 2.002E+02
 5.100E+02, 1.434E+02, 1.457E+02, 1.277E+02, 2.237E+02, 7.886E+01, 1.321E+02, 2.282E+02, 7.684E+01,-5.595E+01, 1.686E-01, 2.326E-02, 2.001E+02
 5.200E+02, 1.430E+02, 1.479E+02, 1.273E+02, 2.237E+02, 7.797E+01, 1.356E+02, 2.309E+02, 7.720E+01,-4.963E+01, 1.677E-01, 2.378E-02, 2.001E+02
 5.300E+02, 1.436E+02, 1.483E+02, 1.293E+02, 2.224E+02, 7.909E+01, 1.361E+02, 2.319E+02, 7.696E+01,-5.292E+01, 1.667E-01, 2.431E-02, 1.998E+02
 5.400E+02, 1.450E+02, 1.483E+02, 1.294E+02, 2.268E+02, 7.879E+01, 1.341E+02, 2.318E+02, 7.889E+01,-4.988E+01, 1.661E-01, 2.467E-02, 1.987E+02
 5.500E+02, 1.448E+02, 1.488E+02, 1.288E+02, 2.245E+02, 8.096E+01, 1.336E+02, 2.346E+02, 7.824E+01,-5.436E+01, 1.655E-01, 2.500E-02, 2.008E+02
 5.600E+02, 1.445E+02, 1.492E+02, 1.290E+02, 2.255E+02, 7.907E+01, 1.341E+02, 2.346E+02, 7.893E+01,-5.223E+01, 1.646E-01, 2.549E-02, 2.000E+02
 5.700E+02, 1.445E+02, 1.481E+02, 1.298E+02, 2.225E+02, 8.128E+01, 1.328E+02, 2.320E+02, 7.949E+01,-5.146E+01, 1.640E-01, 2.584E-02, 1.994E+02
 5.800E+02, 1.460E+02, 1.491E+02, 1.296E+02, 2.274E+02, 8.099E+01, 1.366E+02, 2.303E+02, 8.030E+01,-5.186E+01, 1.630E-01, 2.641E-02, 2.009E+02
 5.900E+02, 1.461E+02, 1.503E+02, 1.306E+02, 2.269E+02, 8.096E+01, 1.344E+02, 2.366E+02, 7.979E+01,-5.437E+01, 1.626E-01, 2.664E-02, 1.992E+02
 6.000E+02, 1.457E+02, 1.494E+02, 1.306E+02, 2.257E+02, 8.077E+01, 1.358E+02, 2.324E+02, 7.997E+01,-5.481E+01, 1.617E-01, 2.712E-02, 2.001E+02
 6.100E+02, 1.473E+02, 1.503E+02, 1.317E+02, 2.292E+02, 8.109E+01, 1.365E+02, 2.340E+02, 8.051E+01,-4.906E+01, 1.607E-01, 2.770E-02, 1.995E+02
 6.200E+02, 1.473E+02, 1.503E+02, 1.317E+02, 2.285E+02, 8.176E+01, 1.358E+02, 2.342E+02, 8.075E+01,-5.015E+01, 1.603E-01, 2.793E-02, 1.997E+02
 6.300E+02, 1.474E+02, 1.502E+02, 1.322E+02, 2.270E+02, 8.295E+01, 1.374E+02, 2.329E+02, 8.037E+01,-5.113E+01, 1.594E-01, 2.839E-02, 1.994E+02
 6.400E+02, 1.484E+02, 1.521E+02, 1.330E+02, 2.290E+02, 8.320E+01, 1.375E+02, 2.365E+02, 8.231E+01,-5.366E+01, 1.584E-01, 2.898E-02, 2.002E+02
 6.500E+02, 1.483E+02, 1.520E+02, 1.324E+02, 2.285E+02, 8.401E+01, 1.370E+02, 2.369E+02, 8.216E+01,-5.491E+01, 1.578E-01, 2.931E-02, 1.988E+02
 6.600E+02, 1.486E+02, 1.528E+02, 1.337E+02, 2.295E+02, 8.259E+01, 1.370E+02, 2.389E+02, 8.256E+01,-5.397E+01, 1.573E-01, 2.957E-02, 2.005E+02
 6.700E+02, 1.498E+02, 1.537E+02, 1.342E+02, 2.315E+02, 8.377E+01, 1.382E+02, 2.410E+02, 8.179E+01,-5.080E+01, 1.567E-01, 2.991E-02, 1.996E+02
 6.800E+02, 1.486E+02, 1.537E+02, 1.343E+02, 2.276E+02, 8.388E+01, 1.375E+02, 2.413E+02, 8.227E+01,-5.534E+01, 1.559E-01, 3.035E-02, 2.001E+02
 6.900E+02, 1.498E+02, 1.532E+02, 1.340E+02, 2.323E+02, 8.317E+01, 1.378E+02, 2.402E+02, 8.167E+01,-5.247E+01, 1.555E-01, 3.061E-02, 1.999E+02
 7.000E+02, 1.509E+02, 1.538E+02, 1.351E+02, 2.327E+02, 8.477E+01, 1.384E+02, 2.407E+02, 8.229E+01,-5.527E+01, 1.549E-01, 3.093E-02, 1.999E+02
 7.100E+02, 1.510E+02, 1.528E+02, 1.346E+02, 2.330E+02, 8.543E+01, 1.382E+02, 2.378E+02, 8.247E+01,-5.290E+01, 1.539E-01, 3.150E-02, 1.991E+02
 7.200E+02, 1.511E+02, 1.531E+02, 1.346E+02, 2.330E+02, 8.581E+01, 1.395E+02, 2.366E+02, 8.312E+01,-5.700E+01, 1.536E-01, 3.167E-02, 1.999E+02
 7.300E+02, 1.504E+02, 1.536E+02, 1.340E+02, 2.326E+02, 8.440E+01, 1.385E+02, 2.391E+02, 8.328E+01,-5.425E+01, 1.532E-01, 3.187E-02, 1.989E+02
 7.400E+02, 1.509E+02, 1.551E+02, 1.352E+02, 2.327E+02, 8.486E+01, 1.409E+02, 2.425E+02, 8.192E+01,-4.905E+01, 1.526E-01, 3.221E-02, 2.003E+02
 7.500E+02, 1.513E+02, 1.555E+02, 1.356E+02, 2.334E+02, 8.497E+01, 1.403E+02, 2.420E+02, 8.432E+01,-5.171E+01, 1.519E-01, 3.261E-02, 2.001E+02
 7.600E+02, 1.527E+02, 1.543E+02, 1.351E+02, 2.381E+02, 8.504E+01, 1.409E+02, 2.387E+02, 8.344E+01,-5.232E+01, 1.517E-01, 3.271E-02, 2.000E+02
 7.700E+02, 1.532E+02, 1.554E+02, 1.365E+02, 2.362E+02, 8.688E+01, 1.439E+02, 2.397E+02, 8.246E+01,-5.657E+01, 1.512E-01, 3.298E-02, 1.989E+02
 7.800E+02, 1.518E+02, 1.570E+02, 1.368E+02, 2.328E+02, 8.589E+01, 1.446E+02, 2.425E+02, 8.392E+01,-4.986E+01, 1.505E-01, 3.338E-02, 2.004E+02
 7.900E+02, 1.523E+02, 1.547E+02, 1.359E+02, 2.356E+02, 8.532E+01, 1.412E+02, 2.375E+02, 8.526E+01,-5.297E+01, 1.502E-01, 3.355E-02, 1.999E+02
 8.000E+02, 1.527E+02, 1.586E+02, 1.369E+02, 2.351E+02, 8.595E+01, 1.467E+02, 2.445E+02, 8.456E+01,-5.264E+01, 1.500E-01, 3.365E-02, 2.006E+02
 8.100E+02, 1.531E+02, 1.570E+02, 1.365E+02, 2.369E+02, 8.576E+01, 1.432E+02, 2.433E+02, 8.459E+01,-5.545E+01, 1.496E-01, 3.390E-02, 1.994E+02
 8.200E+02, 1.527E+02, 1.566E+02, 1.376E+02, 2.348E+02, 8.568E+01, 1.424E+02, 2.426E+02, 8.482E+01,-5.057E+01, 1.494E-01, 3.400E-02, 1.990E+02
 8.300E+02, 1.539E+02, 1.573E+02, 1.380E+02, 2.373E+02, 8.632E+01, 1.427E+02, 2.442E+02, 8.505E+01,-5.101E+01, 1.490E-01, 3.422E-02, 2.006E+02
 8.400E+02, 1.542E+02, 1.582E+02, 1.381E+02, 2.375E+02, 8.699E+01, 1.439E+02, 2.460E+02, 8.465E+01,-5.215E+01, 1.485E-01, 3.447E-02, 2.000E+02
 8.500E+02, 1.543E+02, 1.584E+02, 1.391E+02, 2.368E+02, 8.713E+01, 1.456E+02, 2.441E+02, 8.547E+01,-5.096E+01, 1.483E-01, 3.463E-02, 1.999E+02
 8.600E+02, 1.539E+02, 1.581E+02, 1.385E+02, 2.365E+02, 8.661E+01, 1.438E+02, 2.445E+02, 8.601E+01,-5.132E+01, 1.478E-01, 3.487E-02, 1.982E+02
 8.700E+02, 1.543E+02, 1.583E+02, 1.396E+02, 2.362E+02, 8.717E+01, 1.442E+02, 2.449E+02, 8.573E+01,-5.438E+01, 1.474E-01, 3.511E-02, 2.007E+02
 8.800E+02, 1.545E+02, 1.575E+02, 1.397E+02, 2.364E+02, 8.743E+01, 1.442E+02, 2.423E+02, 8.607E+01,-5.058E+01, 1.470E-01, 3.531E-02, 1.995E+02
 8.900E+02, 1.555E+02, 1.597E+02, 1.405E+02, 2.379E+02, 8.830E+01, 1.443E+02, 2.471E+02, 8.764E+01,-5.208E+01, 1.466E-01, 3.558E-02, 2.009E+02
 9.000E+02, 1.569E+02, 1.603E+02, 1.406E+02, 2.417E+02, 8.844E+01, 1.452E+02, 2.485E+02, 8.718E+01,-5.094E+01, 1.465E-01, 3.560E-02, 1.993E+02
 9.100E+02, 1.574E+02, 1.601E+02, 1.409E+02, 2.422E+02, 8.921E+01, 1.448E+02, 2.485E+02, 8.719E+01,-5.033E+01, 1.461E-01, 3.581E-02, 2.004E+02
 9.200E+02, 1.566E+02, 1.598E+02, 1.405E+02, 2.405E+02, 8.879E+01, 1.454E+02, 2.465E+02, 8.743E+01,-5.579E+01, 1.459E-01, 3.594E-02, 1.990E+02
 9.300E+02, 1.568E+02, 1.587E+02, 1.413E+02, 2.405E+02, 8.847E+01, 1.458E+02, 2.436E+02, 8.655E+01,-4.961E+01, 1.457E-01, 3.607E-02, 2.003E+02
 9.400E+02, 1.582E+02, 1.606E+02, 1.415E+02, 2.426E+02, 9.061E+01, 1.452E+02, 2.477E+02, 8.901E+01,-5.688E+01, 1.449E-01, 3.653E-02, 1.993E+02
 9.500E+02, 1.564E+02, 1.605E+02, 1.421E+02, 2.384E+02, 8.882E+01, 1.459E+02, 2.473E+02, 8.822E+01,-5.233E+01, 1.448E-01, 3.659E-02, 2.005E+02
 9.600E+02, 1.578E+02, 1.605E+02, 1.419E+02, 2.418E+02, 8.959E+01, 1.454E+02, 2.475E+02, 8.846E+01,-5.033E+01, 1.447E-01, 3.664E-02, 2.005E+02
 9.700E+02, 1.580E+02, 1.606E+02, 1.421E+02, 2.415E+02, 9.054E+01, 1.458E+02, 2.477E+02, 8.840E+01,-5.419E+01, 1.444E-01, 3.681E-02, 1.990E+02
 9.800E+02, 1.574E+02, 1.614E+02, 1.424E+02, 2.411E+02, 8.878E+01, 1.478E+02, 2.475E+02, 8.881E+01,-4.960E+01, 1.440E-01, 3.702E-02, 2.000E+02
 9.900E+02, 1.581E+02, 1.616E+02, 1.429E+02, 2.404E+02, 9.110E+01, 1.494E+02, 2.461E+02, 8.945E+01,-5.512E+01, 1.439E-01, 3.709E-02, 1.996E+02
 1.000E+03, 1.584E+02, 1.608E+02, 1.424E+02, 2.430E+02, 8.983E+01, 1.484E+02, 2.456E+02, 8.822E+01,-5.440E+01, 1.439E-01, 3.707E-02, 1.998E+02
 1.010E+03, 1.594E+02, 1.608E+02, 1.439E+02, 2.446E+02, 8.972E+01, 1.477E+02, 2.467E+02, 8.791E+01,-5.055E+01, 1.436E-01, 3.723E-02, 1.996E+02
 1.020E+03, 1.599E+02, 1.627E+02, 1.441E+02, 2.435E+02, 9.189E+01, 1.499E+02, 2.489E+02, 8.921E+01,-4.891E+01, 1.432E-01, 3.748E-02, 2.002E+02
 1.030E+03, 1.601E+02, 1.625E+02, 1.448E+02, 2.455E+02, 9.019E+01, 1.497E+02, 2.481E+02, 8.980E+01,-4.855E+01, 1.430E-01, 3.756E-02, 2.002E+02
 1.040E+03, 1.596E+02, 1.626E+02, 1.448E+02, 2.431E+02, 9.101E+01, 1.486E+02, 2.497E+02, 8.946E+01,-5.184E+01, 1.428E-01, 3.768E-02, 1.993E+02
 1.050E+03, 1.602E+02, 1.636E+02, 1.438E+02, 2.448E+02, 9.202E+01, 1.495E+02, 2.510E+02, 9.037E+01,-5.283E+01, 1.426E-01, 3.781E-02, 2.010E+02
 1.060E+03, 1.614E+02, 1.637E+02, 1.453E+02, 2.468E+02, 9.194E+01, 1.494E+02, 2.509E+02, 9.073E+01,-5.269E+01, 1.425E-01, 3.784E-02, 1.989E+02
 1.070E+03, 1.613E+02, 1.646E+02, 1.443E+02, 2.480E+02, 9.166E+01, 1.501E+02, 2.523E+02, 9.139E+01,-5.680E+01, 1.422E-01, 3.799E-02, 1.999E+02
 1.080E+03, 1.606E+02, 1.639E+02, 1.449E+02, 2.457E+02, 9.124E+01, 1.490E+02, 2.530E+02, 8.965E+01,-5.370E+01, 1.422E-01, 3.803E-02, 2.001E+02
 1.090E+03, 1.609E+02, 1.645E+02, 1.459E+02, 2.449E+02, 9.181E+01, 1.524E+02, 2.504E+02, 9.069E+01,-4.583E+01, 1.421E-01, 3.807E-02, 1.998E+02
 1.100E+03, 1.615E+02, 1.644E+02, 1.465E+02, 2.438E+02, 9.405E+01, 1.538E+02, 2.484E+02, 9.101E+01,-4.827E+01, 1.419E-01, 3.821E-02, 1.993E+02
 1.110E+03, 1.624E+02, 1.658E+02, 1.467E+02, 2.461E+02, 9.443E+01, 1.536E+02, 2.523E+02, 9.168E+01,-5.070E+01, 1.416E-01, 3.834E-02, 2.002E+02
 1.120E+03, 1.627E+02, 1.643E+02, 1.457E+02, 2.474E+02, 9.501E+01, 1.504E+02, 2.503E+02, 9.227E+01,-5.246E+01, 1.414E-01, 3.849E-02, 1.993E+02
 1.130E+03, 1.631E+02, 1.645E+02, 1.473E+02, 2.469E+02, 9.512E+01, 1.500E+02, 2.520E+02, 9.156E+01,-4.821E+01, 1.412E-01, 3.857E-02, 2.008E+02
 1.140E+03, 1.639E+02, 1.647E+02, 1.480E+02, 2.489E+02, 9.490E+01, 1.520E+02, 2.493E+02, 9.283E+01,-5.594E+01, 1.411E-01, 3.861E-02, 1.997E+02
 1.150E+03, 1.632E+02, 1.663E+02, 1.475E+02, 2.487E+02, 9.336E+01, 1.507E+02, 2.547E+02, 9.344E+01,-4.712E+01, 1.410E-01, 3.871E-02, 1.994E+02
 1.160E+03, 1.643E+02, 1.661E+02, 1.479E+02, 2.498E+02, 9.507E+01, 1.509E+02, 2.542E+02, 9.313E+01,-5.068E+01, 1.407E-01, 3.883E-02, 2.007E+02
 1.170E+03, 1.645E+02, 1.663E+02, 1.478E+02, 2.497E+02, 9.596E+01, 1.519E+02, 2.545E+02, 9.250E+01,-5.601E+01, 1.406E-01, 3.892E-02, 1.998E+02
 1.180E+03, 1.636E+02, 1.676E+02, 1.478E+02, 2.477E+02, 9.528E+01, 1.521E+02, 2.561E+02, 9.452E+01,-5.433E+01, 1.406E-01, 3.892E-02, 1.997E+02
 1.190E+03, 1.646E+02, 1.664E+02, 1.483E+02, 2.510E+02, 9.443E+01, 1.518E+02, 2.535E+02, 9.395E+01,-4.989E+01, 1.404E-01, 3.901E-02, 1.996E+02
 1.200E+03, 1.644E+02, 1.671E+02, 1.487E+02, 2.494E+02, 9.498E+01, 1.523E+02, 2.541E+02, 9.482E+01,-5.473E+01, 1.403E-01, 3.910E-02, 1.988E+02
 1.210E+03, 1.640E+02, 1.666E+02, 1.490E+02, 2.471E+02, 9.598E+01, 1.528E+02, 2.538E+02, 9.327E+01,-5.181E+01, 1.403E-01, 3.906E-02, 2.005E+02
 1.220E+03, 1.650E+02, 1.678E+02, 1.497E+02, 2.488E+02, 9.637E+01, 1.543E+02, 2.566E+02, 9.247E+01,-5.222E+01, 1.402E-01, 3.916E-02, 1.999E+02
 1.230E+03, 1.660E+02, 1.671E+02, 1.498E+02, 2.511E+02, 9.695E+01, 1.533E+02, 2.537E+02, 9.426E+01,-5.204E+01, 1.400E-01, 3.927E-02, 2.000E+02
 1.240E+03, 1.654E+02, 1.680E+02, 1.495E+02, 2.510E+02, 9.547E+01, 1.543E+02, 2.555E+02, 9.412E+01,-4.973E+01, 1.399E-01, 3.931E-02, 1.982E+02
 1.250E+03, 1.649E+02, 1.674E+02, 1.496E+02, 2.486E+02, 9.639E+01, 1.543E+02, 2.540E+02, 9.407E+01,-5.246E+01, 1.399E-01, 3.932E-02, 2.008E+02
 1.260E+03, 1.653E+02, 1.687E+02, 1.497E+02, 2.510E+02, 9.521E+01, 1.547E+02, 2.581E+02, 9.327E+01,-5.285E+01, 1.398E-01, 3.935E-02, 1.992E+02
 1.270E+03, 1.665E+02, 1.680E+02, 1.499E+02, 2.523E+02, 9.739E+01, 1.543E+02, 2.551E+02, 9.447E+01,-5.121E+01, 1.397E-01, 3.943E-02, 2.002E+02
 1.280E+03, 1.667E+02, 1.690E+02, 1.497E+02, 2.529E+02, 9.744E+01, 1.579E+02, 2.548E+02, 9.434E+01,-5.638E+01, 1.397E-01, 3.942E-02, 2.002E+02
 1.290E+03, 1.659E+02, 1.679E+02, 1.499E+02, 2.520E+02, 9.589E+01, 1.557E+02, 2.532E+02, 9.473E+01,-5.334E+01, 1.395E-01, 3.953E-02, 1.994E+02
 1.300E+03, 1.663E+02, 1.691E+02, 1.505E+02, 2.517E+02, 9.659E+01, 1.554E+02, 2.588E+02, 9.317E+01,-4.966E+01, 1.395E-01, 3.954E-02, 1.997E+02
 1.310E+03, 1.673E+02, 1.703E+02, 1.512E+02, 2.532E+02, 9.753E+01, 1.559E+02, 2.600E+02, 9.501E+01,-5.052E+01, 1.394E-01, 3.956E-02, 2.002E+02
