s,C,C,C,C,C,C,C,C,Pa,mol/mol,mol/mol,kW
Time,"West_All_TCs","East_All_TCs","West_Bottom_TCs","West_Middle_TCs","West_Upper_TCs","East_Bottom_TCs","East_Middle_TCs","East_Upper_TCs","Pressure","O2","CO2","HRR"
-6.000E+01, 2.700E+01, 2.700E+01, 2.700E+01, 2.700E+01, 2.700E+01, 2.700E+01, 2.700E+01, 2.700E+01,-9.557E-06, 2.095E-01, 3.901E-04, 0.000E+00
-4.998E+01, 2.700E+01, 2.700E+01, 2.700E+01, 2.700E+01, 2.700E+01, 2.700E+01, 2.700E+01, 2.700E+01,-1.518E-05, 2.095E-01, 3.901E-04, 0.000E+00
-3.996E+01, 2.700E+01, 2.700E+01, 2.700E+01, 2.700E+01, 2.700E+01, 2.700E+01, 2.700E+01, 2.700E+01,-9.817E-06, 2.095E-01, 3.901E-04, 0.000E+00
-2.994E+01, 2.700E+01, 2.700E+01, 2.700E+01, 2.700E+01, 2.700E+01, 2.700E+01, 2.700E+01, 2.700E+01,-2.152E-06, 2.095E-01, 3.901E-04, 0.000E+00
-1.992E+01, 2.700E+01, 2.700E+01, 2.700E+01, 2.700E+01, 2.700E+01, 2.700E+01, 2.700E+01, 2.700E+01,-5.944E-08, 2.095E-01, 3.901E-04, 0.000E+00
-9.896E+00, 2.700E+01, 2.700E+01, 2.700E+01, 2.700E+01, 2.700E+01, 2.700E+01, 2.700E+01, 2.700E+01, 7.494E-07, 2.095E-01, 3.901E-04, 0.000E+00
 1.301E-02, 2.700E+01, 2.700E+01, 2.700E+01, 2.700E+01, 2.700E+01, 2.700E+01, 2.700E+01, 2.700E+01,-2.532E-07, 2.095E-01, 3.901E-04, 1.761E-04
 1.001E+01, 2.797E+01, 2.832E+01, 2.750E+01, 2.717E+01, 2.924E+01, 2.776E+01, 2.721E+01, 3.000E+01, 2.020E-02, 2.092E-01, 5.593E-04, 3.308E+01
 2.001E+01, 3.127E+01, 3.188E+01, 2.868E+01, 2.866E+01, 3.649E+01, 2.956E+01, 2.869E+01, 3.738E+01, 2.090E-01, 2.084E-01, 1.051E-03, 9.921E+01
 3.000E+01, 4.016E+01, 4.035E+01, 3.048E+01, 3.678E+01, 5.322E+01, 3.162E+01, 3.712E+01, 5.231E+01, 1.225E+00, 2.069E-01, 1.854E-03, 1.660E+02
 4.002E+01, 5.233E+01, 5.142E+01, 3.373E+01, 5.222E+01, 7.103E+01, 3.550E+01, 4.998E+01, 6.877E+01, 2.550E+00, 2.051E-01, 2.880E-03, 1.999E+02
 5.000E+01, 6.396E+01, 6.431E+01, 3.888E+01, 6.772E+01, 8.527E+01, 4.140E+01, 6.693E+01, 8.460E+01, 3.940E+00, 2.034E-01, 3.806E-03, 2.004E+02
 6.001E+01, 7.374E+01, 7.435E+01, 4.385E+01, 8.063E+01, 9.674E+01, 4.774E+01, 8.004E+01, 9.525E+01, 4.880E+00, 2.024E-01, 4.389E-03, 2.003E+02
 7.002E+01, 8.177E+01, 8.253E+01, 5.050E+01, 9.295E+01, 1.019E+02, 5.345E+01, 9.097E+01, 1.032E+02, 5.528E+00, 2.012E-01, 5.040E-03, 2.001E+02
 8.001E+01, 8.835E+01, 8.876E+01, 5.732E+01, 1.001E+02, 1.076E+02, 5.799E+01, 9.851E+01, 1.098E+02, 6.140E+00, 1.999E-01, 5.797E-03, 2.002E+02
 9.000E+01, 9.277E+01, 9.478E+01, 5.955E+01, 1.038E+02, 1.150E+02, 6.163E+01, 1.045E+02, 1.182E+02, 6.589E+00, 1.988E-01, 6.414E-03, 2.005E+02
 1.000E+02, 9.722E+01, 9.668E+01, 6.328E+01, 1.090E+02, 1.194E+02, 6.287E+01, 1.080E+02, 1.192E+02, 6.888E+00, 1.982E-01, 6.735E-03, 1.996E+02
 1.100E+02, 9.880E+01, 9.987E+01, 6.414E+01, 1.082E+02, 1.241E+02, 6.544E+01, 1.145E+02, 1.197E+02, 7.191E+00, 1.975E-01, 7.144E-03, 2.000E+02
 1.200E+02, 9.999E+01, 1.020E+02, 6.575E+01, 1.097E+02, 1.245E+02, 6.799E+01, 1.158E+02, 1.222E+02, 7.315E+00, 1.969E-01, 7.466E-03, 2.011E+02
 1.300E+02, 1.029E+02, 1.039E+02, 6.626E+01, 1.146E+02, 1.278E+02, 7.061E+01, 1.169E+02, 1.243E+02, 7.412E+00, 1.965E-01, 7.664E-03, 1.998E+02
 1.400E+02, 1.042E+02, 1.033E+02, 6.666E+01, 1.179E+02, 1.282E+02, 7.187E+01, 1.156E+02, 1.225E+02, 7.509E+00, 1.959E-01, 8.034E-03, 2.005E+02
 1.500E+02, 1.049E+02, 1.046E+02, 6.772E+01, 1.188E+02, 1.283E+02, 7.202E+01, 1.175E+02, 1.242E+02, 7.555E+00, 1.955E-01, 8.224E-03, 2.001E+02
 1.600E+02, 1.037E+02, 1.049E+02, 6.743E+01, 1.167E+02, 1.270E+02, 7.335E+01, 1.168E+02, 1.247E+02, 7.582E+00, 1.950E-01, 8.515E-03, 2.002E+02
 1.700E+02, 1.039E+02, 1.061E+02, 6.732E+01, 1.177E+02, 1.267E+02, 7.433E+01, 1.184E+02, 1.257E+02, 7.832E+00, 1.945E-01, 8.795E-03, 2.000E+02
 1.800E+02, 1.036E+02, 1.071E+02, 6.848E+01, 1.149E+02, 1.275E+02, 7.213E+01, 1.207E+02, 1.284E+02, 7.724E+00, 1.942E-01, 8.990E-03, 2.010E+02
 1.900E+02, 1.064E+02, 1.074E+02, 6.907E+01, 1.204E+02, 1.297E+02, 7.391E+01, 1.198E+02, 1.284E+02, 7.575E+00, 1.941E-01, 8.995E-03, 2.007E+02
 2.000E+02, 1.061E+02, 1.075E+02, 6.934E+01, 1.193E+02, 1.296E+02, 7.593E+01, 1.199E+02, 1.266E+02, 7.687E+00, 1.938E-01, 9.171E-03, 2.002E+02
 2.100E+02, 1.070E+02, 1.077E+02, 6.959E+01, 1.188E+02, 1.326E+02, 7.472E+01, 1.218E+02, 1.264E+02, 7.761E+00, 1.933E-01, 9.459E-03, 2.003E+02
 2.200E+02, 1.082E+02, 1.069E+02, 6.897E+01, 1.236E+02, 1.320E+02, 7.276E+01, 1.220E+02, 1.261E+02, 7.772E+00, 1.933E-01, 9.464E-03, 1.996E+02
 2.300E+02, 1.064E+02, 1.077E+02, 6.861E+01, 1.208E+02, 1.299E+02, 7.438E+01, 1.205E+02, 1.282E+02, 7.824E+00, 1.932E-01, 9.533E-03, 2.009E+02
 2.400E+02, 1.073E+02, 1.079E+02, 7.069E+01, 1.193E+02, 1.320E+02, 7.553E+01, 1.208E+02, 1.274E+02, 7.938E+00, 1.928E-01, 9.760E-03, 2.003E+02
 2.500E+02, 1.066E+02, 1.091E+02, 6.873E+01, 1.188E+02, 1.323E+02, 7.504E+01, 1.240E+02, 1.282E+02, 7.807E+00, 1.926E-01, 9.863E-03, 2.004E+02
 2.600E+02, 1.087E+02, 1.093E+02, 7.064E+01, 1.219E+02, 1.335E+02, 7.444E+01, 1.234E+02, 1.302E+02, 7.928E+00, 1.923E-01, 1.005E-02, 2.008E+02
 2.700E+02, 1.088E+02, 1.089E+02, 7.022E+01, 1.231E+02, 1.331E+02, 7.553E+01, 1.227E+02, 1.284E+02, 7.799E+00, 1.924E-01, 9.951E-03, 2.003E+02
 2.800E+02, 1.070E+02, 1.100E+02, 7.068E+01, 1.203E+02, 1.300E+02, 7.612E+01, 1.231E+02, 1.309E+02, 7.847E+00, 1.924E-01, 9.944E-03, 2.000E+02
 2.900E+02, 1.080E+02, 1.101E+02, 7.187E+01, 1.203E+02, 1.317E+02, 7.726E+01, 1.240E+02, 1.291E+02, 7.976E+00, 1.924E-01, 9.943E-03, 2.006E+02
 3.000E+02, 1.075E+02, 1.092E+02, 7.119E+01, 1.170E+02, 1.342E+02, 7.749E+01, 1.217E+02, 1.283E+02, 7.892E+00, 1.920E-01, 1.018E-02, 2.005E+02
 3.100E+02, 1.078E+02, 1.105E+02, 7.200E+01, 1.185E+02, 1.328E+02, 7.646E+01, 1.247E+02, 1.302E+02, 7.931E+00, 1.920E-01, 1.022E-02, 2.004E+02
 3.200E+02, 1.093E+02, 1.105E+02, 7.097E+01, 1.238E+02, 1.331E+02, 7.577E+01, 1.242E+02, 1.315E+02, 7.799E+00, 1.919E-01, 1.024E-02, 2.004E+02
 3.300E+02, 1.101E+02, 1.108E+02, 7.145E+01, 1.249E+02, 1.339E+02, 7.719E+01, 1.231E+02, 1.322E+02, 7.831E+00, 1.916E-01, 1.040E-02, 2.005E+02
 3.400E+02, 1.094E+02, 1.099E+02, 7.197E+01, 1.237E+02, 1.325E+02, 7.802E+01, 1.221E+02, 1.296E+02, 7.944E+00, 1.918E-01, 1.030E-02, 2.002E+02
 3.500E+02, 1.075E+02, 1.117E+02, 6.946E+01, 1.211E+02, 1.318E+02, 7.674E+01, 1.259E+02, 1.324E+02, 8.054E+00, 1.916E-01, 1.041E-02, 2.001E+02
 3.600E+02, 1.080E+02, 1.118E+02, 6.942E+01, 1.210E+02, 1.336E+02, 7.572E+01, 1.255E+02, 1.340E+02, 7.986E+00, 1.915E-01, 1.048E-02, 2.003E+02
 3.700E+02, 1.086E+02, 1.106E+02, 7.010E+01, 1.218E+02, 1.338E+02, 7.597E+01, 1.259E+02, 1.299E+02, 7.977E+00, 1.917E-01, 1.037E-02, 2.000E+02
 3.800E+02, 1.081E+02, 1.112E+02, 7.118E+01, 1.211E+02, 1.321E+02, 7.690E+01, 1.241E+02, 1.327E+02, 7.973E+00, 1.917E-01, 1.036E-02, 2.012E+02
 3.900E+02, 1.103E+02, 1.119E+02, 7.330E+01, 1.244E+02, 1.332E+02, 7.680E+01, 1.251E+02, 1.337E+02, 7.939E+00, 1.916E-01, 1.040E-02, 2.004E+02
 4.000E+02, 1.114E+02, 1.121E+02, 7.209E+01, 1.264E+02, 1.357E+02, 7.787E+01, 1.241E+02, 1.343E+02, 7.986E+00, 1.917E-01, 1.034E-02, 1.998E+02
 4.100E+02, 1.122E+02, 1.132E+02, 7.625E+01, 1.280E+02, 1.324E+02, 7.899E+01, 1.276E+02, 1.330E+02, 8.046E+00, 1.921E-01, 1.013E-02, 2.007E+02
 4.200E+02, 1.108E+02, 1.132E+02, 7.305E+01, 1.267E+02, 1.327E+02, 7.725E+01, 1.228E+02, 1.397E+02, 8.017E+00, 1.919E-01, 1.023E-02, 1.999E+02
 4.300E+02, 1.111E+02, 1.110E+02, 7.422E+01, 1.266E+02, 1.326E+02, 7.590E+01, 1.226E+02, 1.346E+02, 7.972E+00, 1.921E-01, 1.016E-02, 2.004E+02
 4.400E+02, 1.109E+02, 1.138E+02, 7.209E+01, 1.258E+02, 1.350E+02, 7.608E+01, 1.242E+02, 1.412E+02, 8.060E+00, 1.917E-01, 1.035E-02, 2.009E+02
 4.500E+02, 1.119E+02, 1.134E+02, 7.526E+01, 1.275E+02, 1.330E+02, 7.592E+01, 1.251E+02, 1.392E+02, 7.927E+00, 1.923E-01, 1.001E-02, 1.996E+02
 4.600E+02, 1.135E+02, 1.126E+02, 7.618E+01, 1.307E+02, 1.336E+02, 7.747E+01, 1.245E+02, 1.357E+02, 8.011E+00, 1.922E-01, 1.009E-02, 2.003E+02
 4.700E+02, 1.113E+02, 1.119E+02, 7.474E+01, 1.273E+02, 1.320E+02, 7.828E+01, 1.223E+02, 1.351E+02, 7.993E+00, 1.926E-01, 9.885E-03, 2.009E+02
 4.800E+02, 1.109E+02, 1.122E+02, 7.326E+01, 1.268E+02, 1.325E+02, 7.783E+01, 1.224E+02, 1.363E+02, 8.036E+00, 1.923E-01, 1.003E-02, 2.002E+02
 4.900E+02, 1.115E+02, 1.130E+02, 7.490E+01, 1.266E+02, 1.330E+02, 7.679E+01, 1.237E+02, 1.384E+02, 8.098E+00, 1.922E-01, 1.010E-02, 2.006E+02
 5.000E+02, 1.141E+02, 1.132E+02, 7.674E+01, 1.318E+02, 1.337E+02, 7.678E+01, 1.241E+02, 1.389E+02, 8.071E+00, 1.922E-01, 1.011E-02, 2.002E+02
 5.100E+02, 1.130E+02, 1.132E+02, 7.424E+01, 1.298E+02, 1.349E+02, 7.751E+01, 1.229E+02, 1.390E+02, 7.993E+00, 1.920E-01, 1.020E-02, 2.004E+02
 5.200E+02, 1.129E+02, 1.150E+02, 7.546E+01, 1.303E+02, 1.328E+02, 7.672E+01, 1.275E+02, 1.408E+02, 8.069E+00, 1.921E-01, 1.011E-02, 2.005E+02
 5.300E+02, 1.121E+02, 1.138E+02, 7.367E+01, 1.291E+02, 1.335E+02, 7.650E+01, 1.261E+02, 1.389E+02, 8.066E+00, 1.921E-01, 1.015E-02, 2.001E+02
 5.400E+02, 1.134E+02, 1.146E+02, 7.711E+01, 1.297E+02, 1.335E+02, 7.744E+01, 1.260E+02, 1.404E+02, 8.111E+00, 1.922E-01, 1.006E-02, 2.001E+02
 5.500E+02, 1.126E+02, 1.148E+02, 7.514E+01, 1.283E+02, 1.343E+02, 7.859E+01, 1.257E+02, 1.400E+02, 8.157E+00, 1.924E-01, 9.968E-03, 2.007E+02
 5.600E+02, 1.126E+02, 1.158E+02, 7.714E+01, 1.281E+02, 1.327E+02, 7.785E+01, 1.292E+02, 1.404E+02, 8.026E+00, 1.925E-01, 9.898E-03, 2.004E+02
 5.700E+02, 1.134E+02, 1.153E+02, 7.626E+01, 1.298E+02, 1.341E+02, 7.895E+01, 1.300E+02, 1.369E+02, 7.991E+00, 1.921E-01, 1.015E-02, 1.999E+02
 5.800E+02, 1.155E+02, 1.144E+02, 7.697E+01, 1.325E+02, 1.369E+02, 7.908E+01, 1.264E+02, 1.378E+02, 8.202E+00, 1.921E-01, 1.013E-02, 1.997E+02
 5.900E+02, 1.134E+02, 1.135E+02, 7.580E+01, 1.295E+02, 1.349E+02, 8.018E+01, 1.222E+02, 1.383E+02, 8.197E+00, 1.919E-01, 1.024E-02, 2.006E+02
 6.000E+02, 1.139E+02, 1.145E+02, 7.564E+01, 1.317E+02, 1.344E+02, 7.810E+01, 1.262E+02, 1.391E+02, 8.067E+00, 1.922E-01, 1.009E-02, 2.003E+02
 6.100E+02, 1.138E+02, 1.156E+02, 7.470E+01, 1.318E+02, 1.350E+02, 7.772E+01, 1.281E+02, 1.410E+02, 8.082E+00, 1.920E-01, 1.020E-02, 1.999E+02
 6.200E+02, 1.143E+02, 1.146E+02, 7.765E+01, 1.297E+02, 1.357E+02, 7.648E+01, 1.271E+02, 1.402E+02, 8.151E+00, 1.920E-01, 1.018E-02, 2.003E+02
 6.300E+02, 1.149E+02, 1.142E+02, 7.957E+01, 1.284E+02, 1.366E+02, 7.880E+01, 1.263E+02, 1.376E+02, 8.202E+00, 1.924E-01, 9.944E-03, 2.001E+02
 6.400E+02, 1.141E+02, 1.154E+02, 7.902E+01, 1.279E+02, 1.354E+02, 8.083E+01, 1.269E+02, 1.386E+02, 8.081E+00, 1.923E-01, 1.001E-02, 2.004E+02
 6.500E+02, 1.154E+02, 1.158E+02, 7.542E+01, 1.304E+02, 1.403E+02, 7.913E+01, 1.286E+02, 1.397E+02, 8.150E+00, 1.920E-01, 1.018E-02, 2.004E+02
 6.600E+02, 1.146E+02, 1.164E+02, 7.482E+01, 1.306E+02, 1.384E+02, 8.073E+01, 1.273E+02, 1.411E+02, 8.349E+00, 1.923E-01, 1.002E-02, 1.996E+02
 6.700E+02, 1.152E+02, 1.150E+02, 7.527E+01, 1.323E+02, 1.381E+02, 7.908E+01, 1.270E+02, 1.388E+02, 8.273E+00, 1.922E-01, 1.009E-02, 2.005E+02
 6.800E+02, 1.157E+02, 1.160E+02, 7.768E+01, 1.315E+02, 1.379E+02, 8.022E+01, 1.272E+02, 1.407E+02, 8.151E+00, 1.925E-01, 9.931E-03, 2.000E+02
 6.900E+02, 1.148E+02, 1.153E+02, 7.517E+01, 1.307E+02, 1.385E+02, 7.711E+01, 1.268E+02, 1.421E+02, 8.138E+00, 1.920E-01, 1.018E-02, 2.003E+02
 7.000E+02, 1.157E+02, 1.150E+02, 7.545E+01, 1.316E+02, 1.400E+02, 7.708E+01, 1.262E+02, 1.417E+02, 8.346E+00, 1.922E-01, 1.010E-02, 2.005E+02
 7.100E+02, 1.142E+02, 1.178E+02, 7.552E+01, 1.310E+02, 1.362E+02, 8.011E+01, 1.287E+02, 1.446E+02, 8.295E+00, 1.923E-01, 1.000E-02, 2.005E+02
 7.200E+02, 1.158E+02, 1.146E+02, 8.083E+01, 1.312E+02, 1.353E+02, 7.778E+01, 1.270E+02, 1.391E+02, 8.232E+00, 1.925E-01, 9.938E-03, 2.003E+02
 7.300E+02, 1.139E+02, 1.160E+02, 7.815E+01, 1.271E+02, 1.365E+02, 7.951E+01, 1.283E+02, 1.401E+02, 8.268E+00, 1.927E-01, 9.796E-03, 2.005E+02
 7.400E+02, 1.162E+02, 1.157E+02, 7.854E+01, 1.314E+02, 1.387E+02, 7.943E+01, 1.277E+02, 1.398E+02, 8.221E+00, 1.926E-01, 9.881E-03, 2.001E+02
 7.500E+02, 1.156E+02, 1.157E+02, 7.858E+01, 1.304E+02, 1.377E+02, 7.712E+01, 1.271E+02, 1.428E+02, 8.313E+00, 1.926E-01, 9.880E-03, 2.006E+02
 7.600E+02, 1.155E+02, 1.166E+02, 7.572E+01, 1.329E+02, 1.379E+02, 7.805E+01, 1.275E+02, 1.443E+02, 8.220E+00, 1.923E-01, 1.000E-02, 2.006E+02
 7.700E+02, 1.160E+02, 1.163E+02, 7.872E+01, 1.323E+02, 1.369E+02, 7.943E+01, 1.290E+02, 1.406E+02, 8.253E+00, 1.924E-01, 9.974E-03, 2.002E+02
 7.800E+02, 1.168E+02, 1.162E+02, 7.860E+01, 1.336E+02, 1.381E+02, 7.951E+01, 1.281E+02, 1.410E+02, 8.332E+00, 1.924E-01, 9.965E-03, 1.999E+02
 7.900E+02, 1.158E+02, 1.179E+02, 7.682E+01, 1.321E+02, 1.384E+02, 7.880E+01, 1.270E+02, 1.478E+02, 8.200E+00, 1.919E-01, 1.025E-02, 2.000E+02
 8.000E+02, 1.165E+02, 1.172E+02, 7.916E+01, 1.331E+02, 1.371E+02, 7.828E+01, 1.302E+02, 1.431E+02, 8.255E+00, 1.925E-01, 9.887E-03, 1.998E+02
 8.100E+02, 1.166E+02, 1.165E+02, 7.767E+01, 1.347E+02, 1.374E+02, 7.907E+01, 1.284E+02, 1.421E+02, 8.271E+00, 1.923E-01, 1.004E-02, 1.998E+02
 8.200E+02, 1.158E+02, 1.167E+02, 7.846E+01, 1.326E+02, 1.364E+02, 7.987E+01, 1.290E+02, 1.413E+02, 8.269E+00, 1.925E-01, 9.923E-03, 2.006E+02
 8.300E+02, 1.168E+02, 1.158E+02, 8.005E+01, 1.333E+02, 1.370E+02, 7.775E+01, 1.276E+02, 1.419E+02, 8.290E+00, 1.926E-01, 9.882E-03, 2.004E+02
 8.400E+02, 1.157E+02, 1.165E+02, 7.840E+01, 1.330E+02, 1.358E+02, 8.044E+01, 1.262E+02, 1.429E+02, 8.291E+00, 1.924E-01, 9.942E-03, 2.000E+02
 8.500E+02, 1.167E+02, 1.165E+02, 7.868E+01, 1.336E+02, 1.378E+02, 7.821E+01, 1.262E+02, 1.452E+02, 8.291E+00, 1.920E-01, 1.018E-02, 2.004E+02
 8.600E+02, 1.173E+02, 1.167E+02, 7.798E+01, 1.361E+02, 1.378E+02, 7.674E+01, 1.288E+02, 1.446E+02, 8.278E+00, 1.923E-01, 1.003E-02, 2.003E+02
 8.700E+02, 1.175E+02, 1.162E+02, 7.777E+01, 1.366E+02, 1.380E+02, 7.674E+01, 1.265E+02, 1.454E+02, 8.357E+00, 1.924E-01, 9.990E-03, 2.005E+02
 8.800E+02, 1.175E+02, 1.175E+02, 7.852E+01, 1.348E+02, 1.393E+02, 7.926E+01, 1.292E+02, 1.441E+02, 8.272E+00, 1.922E-01, 1.006E-02, 2.002E+02
 8.900E+02, 1.169E+02, 1.183E+02, 7.733E+01, 1.345E+02, 1.388E+02, 7.967E+01, 1.325E+02, 1.428E+02, 8.326E+00, 1.927E-01, 9.789E-03, 2.001E+02
 9.000E+02, 1.170E+02, 1.168E+02, 8.117E+01, 1.312E+02, 1.385E+02, 7.913E+01, 1.290E+02, 1.423E+02, 8.442E+00, 1.925E-01, 9.919E-03, 2.004E+02
 9.100E+02, 1.157E+02, 1.172E+02, 7.854E+01, 1.300E+02, 1.386E+02, 8.009E+01, 1.294E+02, 1.420E+02, 8.326E+00, 1.927E-01, 9.786E-03, 1.998E+02
 9.200E+02, 1.191E+02, 1.175E+02, 8.168E+01, 1.348E+02, 1.410E+02, 8.035E+01, 1.276E+02, 1.445E+02, 8.406E+00, 1.924E-01, 9.965E-03, 2.005E+02
 9.300E+02, 1.190E+02, 1.181E+02, 8.037E+01, 1.360E+02, 1.406E+02, 7.983E+01, 1.306E+02, 1.439E+02, 8.317E+00, 1.922E-01, 1.006E-02, 2.008E+02
 9.400E+02, 1.184E+02, 1.197E+02, 7.521E+01, 1.367E+02, 1.433E+02, 8.033E+01, 1.324E+02, 1.462E+02, 8.386E+00, 1.921E-01, 1.013E-02, 1.998E+02
 9.500E+02, 1.184E+02, 1.179E+02, 7.918E+01, 1.349E+02, 1.412E+02, 8.054E+01, 1.300E+02, 1.432E+02, 8.499E+00, 1.923E-01, 1.000E-02, 2.005E+02
 9.600E+02, 1.169E+02, 1.190E+02, 7.688E+01, 1.350E+02, 1.387E+02, 8.026E+01, 1.327E+02, 1.439E+02, 8.427E+00, 1.928E-01, 9.766E-03, 2.003E+02
 9.700E+02, 1.170E+02, 1.181E+02, 7.747E+01, 1.347E+02, 1.387E+02, 7.839E+01, 1.323E+02, 1.437E+02, 8.370E+00, 1.922E-01, 1.010E-02, 2.006E+02
 9.800E+02, 1.186E+02, 1.180E+02, 7.711E+01, 1.361E+02, 1.426E+02, 7.888E+01, 1.308E+02, 1.444E+02, 8.488E+00, 1.922E-01, 1.011E-02, 2.003E+02
 9.900E+02, 1.190E+02, 1.187E+02, 7.647E+01, 1.355E+02, 1.450E+02, 7.880E+01, 1.321E+02, 1.453E+02, 8.343E+00, 1.922E-01, 1.010E-02, 2.003E+02
 1.000E+03, 1.170E+02, 1.211E+02, 7.515E+01, 1.346E+02, 1.412E+02, 8.176E+01, 1.353E+02, 1.462E+02, 8.377E+00, 1.924E-01, 9.967E-03, 2.005E+02
 1.010E+03, 1.184E+02, 1.180E+02, 8.042E+01, 1.361E+02, 1.388E+02, 8.031E+01, 1.318E+02, 1.420E+02, 8.405E+00, 1.926E-01, 9.850E-03, 2.000E+02
 1.020E+03, 1.178E+02, 1.172E+02, 8.062E+01, 1.342E+02, 1.386E+02, 8.048E+01, 1.306E+02, 1.406E+02, 8.499E+00, 1.924E-01, 9.975E-03, 1.999E+02
 1.030E+03, 1.165E+02, 1.180E+02, 7.932E+01, 1.296E+02, 1.405E+02, 8.053E+01, 1.301E+02, 1.434E+02, 8.486E+00, 1.926E-01, 9.865E-03, 2.003E+02
 1.040E+03, 1.177E+02, 1.191E+02, 7.854E+01, 1.324E+02, 1.421E+02, 8.130E+01, 1.315E+02, 1.446E+02, 8.468E+00, 1.927E-01, 9.778E-03, 2.001E+02
 1.050E+03, 1.202E+02, 1.206E+02, 7.970E+01, 1.375E+02, 1.434E+02, 8.321E+01, 1.336E+02, 1.449E+02, 8.368E+00, 1.923E-01, 1.004E-02, 2.001E+02
 1.060E+03, 1.187E+02, 1.208E+02, 7.889E+01, 1.359E+02, 1.414E+02, 8.298E+01, 1.340E+02, 1.453E+02, 8.460E+00, 1.926E-01, 9.833E-03, 1.999E+02
 1.070E+03, 1.194E+02, 1.194E+02, 7.916E+01, 1.377E+02, 1.414E+02, 8.078E+01, 1.320E+02, 1.454E+02, 8.391E+00, 1.921E-01, 1.012E-02, 2.004E+02
 1.080E+03, 1.196E+02, 1.194E+02, 7.948E+01, 1.378E+02, 1.414E+02, 8.100E+01, 1.317E+02, 1.454E+02, 8.371E+00, 1.922E-01, 1.010E-02, 2.004E+02
 1.090E+03, 1.180E+02, 1.194E+02, 7.886E+01, 1.360E+02, 1.393E+02, 8.049E+01, 1.313E+02, 1.465E+02, 8.476E+00, 1.925E-01, 9.936E-03, 2.007E+02
 1.100E+03, 1.191E+02, 1.179E+02, 7.903E+01, 1.375E+02, 1.408E+02, 8.084E+01, 1.287E+02, 1.442E+02, 8.538E+00, 1.925E-01, 9.935E-03, 2.004E+02
 1.110E+03, 1.176E+02, 1.187E+02, 7.919E+01, 1.336E+02, 1.401E+02, 8.062E+01, 1.307E+02, 1.449E+02, 8.517E+00, 1.928E-01, 9.762E-03, 2.007E+02
 1.120E+03, 1.173E+02, 1.188E+02, 7.880E+01, 1.316E+02, 1.414E+02, 8.118E+01, 1.313E+02, 1.438E+02, 8.450E+00, 1.929E-01, 9.699E-03, 2.003E+02
 1.130E+03, 1.182E+02, 1.191E+02, 7.885E+01, 1.347E+02, 1.410E+02, 8.009E+01, 1.325E+02, 1.448E+02, 8.602E+00, 1.929E-01, 9.704E-03, 2.002E+02
 1.140E+03, 1.186E+02, 1.183E+02, 8.197E+01, 1.330E+02, 1.407E+02, 8.109E+01, 1.294E+02, 1.446E+02, 8.502E+00, 1.928E-01, 9.740E-03, 1.998E+02
 1.150E+03, 1.188E+02, 1.192E+02, 7.978E+01, 1.341E+02, 1.425E+02, 8.085E+01, 1.315E+02, 1.452E+02, 8.443E+00, 1.926E-01, 9.881E-03, 2.004E+02
 1.160E+03, 1.202E+02, 1.190E+02, 7.910E+01, 1.368E+02, 1.446E+02, 8.074E+01, 1.307E+02, 1.457E+02, 8.597E+00, 1.925E-01, 9.899E-03, 2.006E+02
 1.170E+03, 1.196E+02, 1.199E+02, 8.092E+01, 1.357E+02, 1.423E+02, 8.058E+01, 1.333E+02, 1.457E+02, 8.496E+00, 1.927E-01, 9.799E-03, 2.000E+02
 1.180E+03, 1.195E+02, 1.186E+02, 7.922E+01, 1.362E+02, 1.432E+02, 7.822E+01, 1.331E+02, 1.445E+02, 8.604E+00, 1.927E-01, 9.809E-03, 2.006E+02
 1.190E+03, 1.199E+02, 1.205E+02, 8.211E+01, 1.344E+02, 1.432E+02, 8.373E+01, 1.335E+02, 1.442E+02, 8.630E+00, 1.929E-01, 9.670E-03, 1.998E+02
 1.200E+03, 1.192E+02, 1.194E+02, 8.158E+01, 1.324E+02, 1.437E+02, 8.214E+01, 1.314E+02, 1.446E+02, 8.513E+00, 1.926E-01, 9.858E-03, 2.003E+02
 1.210E+03, 1.200E+02, 1.203E+02, 8.212E+01, 1.342E+02, 1.438E+02, 8.298E+01, 1.321E+02, 1.458E+02, 8.507E+00, 1.927E-01, 9.791E-03, 2.005E+02
 1.220E+03, 1.204E+02, 1.247E+02, 8.130E+01, 1.363E+02, 1.436E+02, 8.308E+01, 1.394E+02, 1.515E+02, 8.473E+00, 1.926E-01, 9.875E-03, 2.000E+02
 1.230E+03, 1.209E+02, 1.208E+02, 8.318E+01, 1.368E+02, 1.428E+02, 8.276E+01, 1.351E+02, 1.445E+02, 8.523E+00, 1.926E-01, 9.837E-03, 2.003E+02
 1.240E+03, 1.209E+02, 1.185E+02, 8.392E+01, 1.354E+02, 1.432E+02, 8.099E+01, 1.320E+02, 1.424E+02, 8.719E+00, 1.926E-01, 9.882E-03, 2.001E+02
 1.250E+03, 1.194E+02, 1.202E+02, 8.012E+01, 1.336E+02, 1.444E+02, 8.470E+01, 1.324E+02, 1.435E+02, 8.586E+00, 1.927E-01, 9.801E-03, 2.004E+02
 1.260E+03, 1.200E+02, 1.216E+02, 8.170E+01, 1.354E+02, 1.428E+02, 8.550E+01, 1.318E+02, 1.474E+02, 8.544E+00, 1.925E-01, 9.899E-03, 2.009E+02
 1.270E+03, 1.194E+02, 1.237E+02, 7.800E+01, 1.392E+02, 1.410E+02, 8.377E+01, 1.360E+02, 1.512E+02, 8.594E+00, 1.921E-01, 1.013E-02, 1.995E+02
 1.280E+03, 1.188E+02, 1.235E+02, 7.969E+01, 1.352E+02, 1.415E+02, 8.333E+01, 1.360E+02, 1.512E+02, 8.494E+00, 1.922E-01, 1.008E-02, 2.000E+02
 1.290E+03, 1.218E+02, 1.204E+02, 7.778E+01, 1.423E+02, 1.452E+02, 8.225E+01, 1.328E+02, 1.463E+02, 8.597E+00, 1.925E-01, 9.896E-03, 2.009E+02
 1.300E+03, 1.199E+02, 1.205E+02, 8.042E+01, 1.375E+02, 1.417E+02, 8.202E+01, 1.329E+02, 1.465E+02, 8.592E+00, 1.927E-01, 9.812E-03, 2.000E+02
 1.310E+03, 1.202E+02, 1.211E+02, 8.130E+01, 1.360E+02, 1.433E+02, 8.221E+01, 1.341E+02, 1.470E+02, 8.694E+00, 1.921E-01, 1.012E-02, 2.005E+02
