s,C,C,C,C,C,C,C,C,Pa,mol/mol,mol/mol,kW
Time,"West_All_TCs","East_All_TCs","West_Bottom_TCs","West_Middle_TCs","West_Upper_TCs","East_Bottom_TCs","East_Middle_TCs","East_Upper_TCs","Pressure","O2","CO2","HRR"
-6.000E+01, 2.500E+01, 2.500E+01, 2.500E+01, 2.500E+01, 2.500E+01, 2.500E+01, 2.500E+01, 2.500E+01,-9.627E-06, 2.095E-01, 3.901E-04, 0.000E+00
-4.998E+01, 2.499E+01, 2.499E+01, 2.499E+01, 2.499E+01, 2.499E+01, 2.499E+01, 2.499E+01, 2.499E+01,-1.841E+01, 2.095E-01, 3.901E-04, 0.000E+00
-3.996E+01, 2.498E+01, 2.499E+01, 2.499E+01, 2.498E+01, 2.498E+01, 2.499E+01, 2.499E+01, 2.499E+01,-1.764E+01, 2.095E-01, 3.901E-04, 0.000E+00
-2.994E+01, 2.498E+01, 2.499E+01, 2.499E+01, 2.498E+01, 2.497E+01, 2.500E+01, 2.499E+01, 2.499E+01,-1.765E+01, 2.095E-01, 3.901E-04, 0.000E+00
-1.992E+01, 2.498E+01, 2.499E+01, 2.498E+01, 2.498E+01, 2.497E+01, 2.501E+01, 2.499E+01, 2.499E+01,-1.766E+01, 2.095E-01, 3.901E-04, 0.000E+00
-9.896E+00, 2.498E+01, 2.500E+01, 2.498E+01, 2.498E+01, 2.497E+01, 2.501E+01, 2.499E+01, 2.499E+01,-1.765E+01, 2.095E-01, 3.901E-04, 0.000E+00
 1.301E-02, 2.498E+01, 2.500E+01, 2.498E+01, 2.498E+01, 2.498E+01, 2.502E+01, 2.499E+01, 2.499E+01,-1.765E+01, 2.095E-01, 3.901E-04, 2.201E-04
 1.001E+01, 2.609E+01, 2.669E+01, 2.561E+01, 2.767E+01, 2.499E+01, 2.596E+01, 2.910E+01, 2.500E+01, 1.405E+00, 2.095E-01, 3.901E-04, 4.101E+01
 2.002E+01, 3.139E+01, 3.199E+01, 2.828E+01, 4.062E+01, 2.528E+01, 2.917E+01, 4.177E+01, 2.503E+01, 5.807E+01, 2.095E-01, 3.901E-04, 1.240E+02
 3.000E+01, 4.211E+01, 4.275E+01, 3.346E+01, 6.719E+01, 2.567E+01, 3.477E+01, 6.832E+01, 2.517E+01, 1.704E+02, 2.095E-01, 3.946E-04, 2.078E+02
 4.000E+01, 5.713E+01, 5.791E+01, 4.385E+01, 1.005E+02, 2.709E+01, 4.654E+01, 1.011E+02, 2.607E+01, 2.044E+02, 2.093E-01, 5.062E-04, 2.504E+02
 5.000E+01, 6.989E+01, 7.151E+01, 5.795E+01, 1.231E+02, 2.859E+01, 6.015E+01, 1.259E+02, 2.844E+01, 1.366E+02, 2.088E-01, 7.862E-04, 2.497E+02
 6.001E+01, 8.218E+01, 8.351E+01, 7.434E+01, 1.431E+02, 2.914E+01, 7.564E+01, 1.450E+02, 2.985E+01, 8.744E+01, 2.087E-01, 8.835E-04, 2.497E+02
 7.001E+01, 9.237E+01, 9.414E+01, 8.942E+01, 1.574E+02, 3.027E+01, 9.100E+01, 1.603E+02, 3.111E+01, 5.363E+01, 2.084E-01, 1.057E-03, 2.509E+02
 8.002E+01, 1.016E+02, 1.013E+02, 1.045E+02, 1.682E+02, 3.212E+01, 1.037E+02, 1.679E+02, 3.229E+01, 3.208E+01, 2.082E-01, 1.153E-03, 2.496E+02
 9.000E+01, 1.090E+02, 1.090E+02, 1.151E+02, 1.783E+02, 3.366E+01, 1.180E+02, 1.749E+02, 3.423E+01, 2.063E+01, 2.076E-01, 1.475E-03, 2.502E+02
 1.000E+02, 1.152E+02, 1.143E+02, 1.251E+02, 1.862E+02, 3.436E+01, 1.283E+02, 1.794E+02, 3.533E+01, 1.342E+01, 2.073E-01, 1.653E-03, 2.499E+02
 1.100E+02, 1.206E+02, 1.193E+02, 1.362E+02, 1.895E+02, 3.590E+01, 1.366E+02, 1.843E+02, 3.720E+01, 9.060E+00, 2.069E-01, 1.858E-03, 2.502E+02
 1.200E+02, 1.234E+02, 1.242E+02, 1.428E+02, 1.904E+02, 3.706E+01, 1.467E+02, 1.874E+02, 3.859E+01, 3.311E+00, 2.066E-01, 2.059E-03, 2.502E+02
 1.300E+02, 1.267E+02, 1.273E+02, 1.490E+02, 1.932E+02, 3.787E+01, 1.502E+02, 1.926E+02, 3.915E+01,-2.100E+00, 2.062E-01, 2.276E-03, 2.495E+02
 1.400E+02, 1.282E+02, 1.308E+02, 1.519E+02, 1.936E+02, 3.906E+01, 1.543E+02, 1.980E+02, 3.994E+01,-5.518E+00, 2.057E-01, 2.525E-03, 2.502E+02
 1.500E+02, 1.312E+02, 1.335E+02, 1.547E+02, 1.987E+02, 4.009E+01, 1.567E+02, 2.034E+02, 4.048E+01,-6.528E+00, 2.053E-01, 2.773E-03, 2.501E+02
 1.600E+02, 1.332E+02, 1.381E+02, 1.565E+02, 2.028E+02, 4.024E+01, 1.600E+02, 2.134E+02, 4.089E+01,-8.340E+00, 2.051E-01, 2.877E-03, 2.496E+02
 1.700E+02, 1.320E+02, 1.383E+02, 1.555E+02, 1.999E+02, 4.043E+01, 1.604E+02, 2.123E+02, 4.231E+01,-9.346E+00, 2.043E-01, 3.301E-03, 2.501E+02
 1.800E+02, 1.331E+02, 1.382E+02, 1.556E+02, 2.024E+02, 4.117E+01, 1.613E+02, 2.105E+02, 4.291E+01,-1.091E+01, 2.039E-01, 3.528E-03, 2.502E+02
 1.900E+02, 1.337E+02, 1.384E+02, 1.555E+02, 2.039E+02, 4.185E+01, 1.607E+02, 2.117E+02, 4.285E+01,-1.111E+01, 2.034E-01, 3.807E-03, 2.500E+02
 2.000E+02, 1.343E+02, 1.375E+02, 1.556E+02, 2.054E+02, 4.180E+01, 1.604E+02, 2.086E+02, 4.362E+01,-1.096E+01, 2.027E-01, 4.201E-03, 2.493E+02
 2.100E+02, 1.353E+02, 1.395E+02, 1.575E+02, 2.058E+02, 4.273E+01, 1.623E+02, 2.122E+02, 4.397E+01,-1.057E+01, 2.022E-01, 4.507E-03, 2.503E+02
 2.200E+02, 1.372E+02, 1.391E+02, 1.581E+02, 2.102E+02, 4.330E+01, 1.628E+02, 2.103E+02, 4.407E+01,-1.057E+01, 2.017E-01, 4.771E-03, 2.499E+02
 2.300E+02, 1.374E+02, 1.401E+02, 1.593E+02, 2.097E+02, 4.333E+01, 1.617E+02, 2.145E+02, 4.418E+01,-9.908E+00, 2.011E-01, 5.082E-03, 2.499E+02
 2.400E+02, 1.382E+02, 1.400E+02, 1.592E+02, 2.112E+02, 4.422E+01, 1.622E+02, 2.134E+02, 4.445E+01,-1.179E+01, 2.005E-01, 5.437E-03, 2.490E+02
 2.500E+02, 1.386E+02, 1.410E+02, 1.602E+02, 2.117E+02, 4.393E+01, 1.645E+02, 2.140E+02, 4.453E+01,-1.156E+01, 2.001E-01, 5.686E-03, 2.511E+02
 2.600E+02, 1.402E+02, 1.423E+02, 1.604E+02, 2.151E+02, 4.501E+01, 1.661E+02, 2.156E+02, 4.508E+01,-9.816E+00, 1.992E-01, 6.160E-03, 2.498E+02
 2.700E+02, 1.420E+02, 1.421E+02, 1.626E+02, 2.186E+02, 4.495E+01, 1.637E+02, 2.177E+02, 4.478E+01,-9.813E+00, 1.988E-01, 6.421E-03, 2.497E+02
 2.800E+02, 1.419E+02, 1.441E+02, 1.631E+02, 2.181E+02, 4.446E+01, 1.696E+02, 2.172E+02, 4.553E+01,-1.115E+01, 1.979E-01, 6.914E-03, 2.503E+02
 2.900E+02, 1.416E+02, 1.448E+02, 1.641E+02, 2.163E+02, 4.458E+01, 1.648E+02, 2.237E+02, 4.594E+01,-1.097E+01, 1.975E-01, 7.147E-03, 2.491E+02
 3.000E+02, 1.429E+02, 1.439E+02, 1.637E+02, 2.191E+02, 4.582E+01, 1.690E+02, 2.174E+02, 4.517E+01,-1.044E+01, 1.968E-01, 7.535E-03, 2.471E+02
 3.100E+02, 1.425E+02, 1.450E+02, 1.658E+02, 2.168E+02, 4.493E+01, 1.642E+02, 2.251E+02, 4.589E+01,-2.388E+01, 1.956E-01, 8.171E-03, 2.244E+02
 3.200E+02, 1.367E+02, 1.373E+02, 1.604E+02, 2.061E+02, 4.372E+01, 1.620E+02, 2.040E+02, 4.598E+01,-1.924E+02, 1.951E-01, 8.469E-03, 1.146E+02
 3.300E+02, 1.336E+02, 1.392E+02, 1.529E+02, 2.034E+02, 4.450E+01, 1.670E+02, 2.052E+02, 4.547E+01, 9.928E+01, 1.948E-01, 8.605E-03, 2.631E+02
 3.400E+02, 1.324E+02, 1.362E+02, 1.513E+02, 2.003E+02, 4.547E+01, 1.619E+02, 2.010E+02, 4.562E+01,-3.763E+01, 1.937E-01, 9.237E-03, 1.653E+02
 3.500E+02, 1.315E+02, 1.502E+02, 1.470E+02, 2.011E+02, 4.635E+01, 1.760E+02, 2.276E+02, 4.694E+01, 8.252E+01, 1.932E-01, 9.524E-03, 2.016E+02
 3.600E+02, 1.278E+02, 1.379E+02, 1.469E+02, 1.911E+02, 4.549E+01, 1.638E+02, 2.025E+02, 4.719E+01,-1.534E+02, 1.929E-01, 9.664E-03, 3.645E+01
 3.700E+02, 1.335E+02, 1.398E+02, 1.454E+02, 2.068E+02, 4.828E+01, 1.594E+02, 2.133E+02, 4.679E+01, 2.155E+02, 1.921E-01, 1.016E-02, 2.649E+02
 3.800E+02, 1.265E+02, 1.360E+02, 1.437E+02, 1.886E+02, 4.727E+01, 1.558E+02, 2.046E+02, 4.772E+01,-4.423E+01, 1.910E-01, 1.077E-02, 5.316E+01
 3.900E+02, 1.286E+02, 1.321E+02, 1.467E+02, 1.905E+02, 4.861E+01, 1.553E+02, 1.929E+02, 4.805E+01,-2.359E+01, 1.910E-01, 1.076E-02, 5.023E+01
 4.000E+02, 1.329E+02, 1.379E+02, 1.505E+02, 1.973E+02, 5.075E+01, 1.620E+02, 2.019E+02, 4.989E+01, 4.443E+01, 1.902E-01, 1.121E-02, 1.272E+02
 4.100E+02, 1.233E+02, 1.596E+02, 1.412E+02, 1.790E+02, 4.976E+01, 2.026E+02, 2.253E+02, 5.090E+01,-1.737E+01, 1.887E-01, 1.204E-02, 2.597E+01
 4.200E+02, 1.261E+02, 1.325E+02, 1.459E+02, 1.814E+02, 5.096E+01, 1.718E+02, 1.753E+02, 5.033E+01,-4.984E+01, 1.890E-01, 1.187E-02, 1.878E+01
 4.300E+02, 1.206E+02, 1.332E+02, 1.363E+02, 1.755E+02, 5.010E+01, 1.551E+02, 1.941E+02, 5.046E+01,-4.763E+01, 1.884E-01, 1.220E-02, 1.337E+01
 4.400E+02, 1.186E+02, 1.272E+02, 1.321E+02, 1.741E+02, 4.973E+01, 1.310E+02, 2.001E+02, 5.042E+01,-4.274E+01, 1.883E-01, 1.225E-02, 1.086E+01
 4.500E+02, 1.181E+02, 1.290E+02, 1.247E+02, 1.782E+02, 5.132E+01, 1.342E+02, 2.033E+02, 4.950E+01,-2.776E+01, 1.882E-01, 1.229E-02, 4.859E+00
 4.600E+02, 1.150E+02, 1.195E+02, 1.209E+02, 1.747E+02, 4.958E+01, 1.233E+02, 1.853E+02, 4.996E+01,-5.223E+01, 1.874E-01, 1.279E-02, 3.283E+00
 4.700E+02, 1.115E+02, 1.258E+02, 1.171E+02, 1.674E+02, 5.003E+01, 1.155E+02, 2.123E+02, 4.952E+01,-3.041E+01, 1.867E-01, 1.313E-02, 1.957E+00
 4.800E+02, 1.101E+02, 1.181E+02, 1.123E+02, 1.689E+02, 4.928E+01, 1.083E+02, 1.970E+02, 4.887E+01,-1.925E+01, 1.870E-01, 1.300E-02, 2.013E-01
 4.900E+02, 1.114E+02, 1.159E+02, 1.097E+02, 1.751E+02, 4.933E+01, 1.097E+02, 1.893E+02, 4.869E+01,-2.871E+01, 1.861E-01, 1.352E-02, 3.322E+00
 5.000E+02, 1.106E+02, 1.158E+02, 1.076E+02, 1.755E+02, 4.858E+01, 1.041E+02, 1.953E+02, 4.811E+01,-3.495E+01, 1.861E-01, 1.352E-02, 2.216E+00
 5.100E+02, 1.100E+02, 1.251E+02, 1.047E+02, 1.756E+02, 4.961E+01, 1.021E+02, 2.242E+02, 4.893E+01, 6.544E+01, 1.861E-01, 1.348E-02, 6.108E-01
 5.200E+02, 1.140E+02, 1.202E+02, 1.044E+02, 1.885E+02, 4.928E+01, 1.011E+02, 2.104E+02, 4.919E+01,-1.473E+01, 1.860E-01, 1.352E-02, 6.660E-01
 5.300E+02, 1.110E+02, 1.175E+02, 1.036E+02, 1.791E+02, 5.017E+01, 1.035E+02, 1.987E+02, 5.019E+01,-3.710E+01, 1.857E-01, 1.374E-02, 5.235E+00
 5.400E+02, 1.089E+02, 1.216E+02, 1.021E+02, 1.739E+02, 5.072E+01, 1.009E+02, 2.139E+02, 4.994E+01,-1.933E+01, 1.856E-01, 1.378E-02, 1.568E+00
 5.500E+02, 1.102E+02, 1.206E+02, 1.013E+02, 1.780E+02, 5.127E+01, 9.663E+01, 2.139E+02, 5.124E+01, 1.329E+01, 1.849E-01, 1.418E-02, 2.188E-01
 5.600E+02, 1.134E+02, 1.222E+02, 1.012E+02, 1.857E+02, 5.319E+01, 9.836E+01, 2.161E+02, 5.202E+01,-1.086E+01, 1.839E-01, 1.470E-02, 2.730E-01
 5.700E+02, 1.121E+02, 1.260E+02, 1.008E+02, 1.814E+02, 5.403E+01, 9.800E+01, 2.272E+02, 5.287E+01,-2.817E+01, 1.835E-01, 1.492E-02, 8.424E-02
 5.800E+02, 1.133E+02, 1.233E+02, 1.001E+02, 1.846E+02, 5.521E+01, 9.573E+01, 2.210E+02, 5.322E+01, 2.927E+01, 1.830E-01, 1.523E-02, 1.038E+00
 5.900E+02, 1.194E+02, 1.302E+02, 1.014E+02, 2.002E+02, 5.660E+01, 9.947E+01, 2.361E+02, 5.508E+01, 9.789E+01, 1.817E-01, 1.597E-02, 2.432E+00
 6.000E+02, 1.173E+02, 1.222E+02, 1.033E+02, 1.917E+02, 5.683E+01, 1.001E+02, 2.104E+02, 5.619E+01,-4.223E+01, 1.815E-01, 1.604E-02, 9.455E-01
 6.100E+02, 1.179E+02, 1.292E+02, 1.030E+02, 1.926E+02, 5.797E+01, 1.073E+02, 2.248E+02, 5.559E+01, 2.302E+01, 1.819E-01, 1.583E-02, 9.066E-01
 6.200E+02, 1.155E+02, 1.227E+02, 1.015E+02, 1.870E+02, 5.817E+01, 1.034E+02, 2.076E+02, 5.705E+01,-2.698E+01, 1.806E-01, 1.656E-02, 1.350E+00
 6.300E+02, 1.170E+02, 1.230E+02, 1.022E+02, 1.882E+02, 6.049E+01, 1.022E+02, 2.094E+02, 5.748E+01,-6.696E+00, 1.810E-01, 1.635E-02, 5.487E-01
 6.400E+02, 1.146E+02, 1.180E+02, 1.004E+02, 1.826E+02, 6.072E+01, 9.876E+01, 1.963E+02, 5.883E+01,-3.213E+01, 1.798E-01, 1.699E-02, 3.098E+00
 6.500E+02, 1.139E+02, 1.189E+02, 1.009E+02, 1.794E+02, 6.133E+01, 9.826E+01, 1.986E+02, 5.969E+01,-1.950E+01, 1.797E-01, 1.708E-02, 2.173E+00
 6.600E+02, 1.112E+02, 1.171E+02, 9.855E+01, 1.747E+02, 6.044E+01, 9.856E+01, 1.925E+02, 6.015E+01,-2.229E+01, 1.792E-01, 1.734E-02, 1.229E+00
 6.700E+02, 1.112E+02, 1.160E+02, 9.847E+01, 1.742E+02, 6.076E+01, 9.767E+01, 1.897E+02, 6.057E+01,-6.522E+00, 1.789E-01, 1.752E-02, 3.536E-02
 6.800E+02, 1.123E+02, 1.204E+02, 9.685E+01, 1.772E+02, 6.296E+01, 9.742E+01, 2.025E+02, 6.124E+01,-2.031E+01, 1.790E-01, 1.744E-02, 1.048E+00
 6.900E+02, 1.108E+02, 1.176E+02, 9.736E+01, 1.719E+02, 6.323E+01, 9.575E+01, 1.954E+02, 6.151E+01,-6.112E+00, 1.791E-01, 1.742E-02, 2.338E-01
 7.000E+02, 1.120E+02, 1.199E+02, 9.560E+01, 1.744E+02, 6.610E+01, 9.451E+01, 2.017E+02, 6.337E+01,-1.603E+01, 1.777E-01, 1.819E-02, 3.687E-01
 7.100E+02, 1.119E+02, 1.178E+02, 9.600E+01, 1.722E+02, 6.756E+01, 9.433E+01, 1.942E+02, 6.486E+01,-2.228E+00, 1.771E-01, 1.851E-02, 5.441E-02
 7.200E+02, 1.138E+02, 1.203E+02, 9.521E+01, 1.752E+02, 7.094E+01, 9.524E+01, 1.990E+02, 6.652E+01,-1.373E+01, 1.763E-01, 1.896E-02, 6.799E-01
 7.300E+02, 1.129E+02, 1.216E+02, 9.601E+01, 1.716E+02, 7.123E+01, 9.407E+01, 2.028E+02, 6.798E+01,-2.774E+00, 1.748E-01, 1.982E-02, 1.074E+00
 7.400E+02, 1.117E+02, 1.217E+02, 9.374E+01, 1.712E+02, 7.012E+01, 9.507E+01, 2.014E+02, 6.875E+01,-2.735E+01, 1.760E-01, 1.916E-02, 7.069E-01
 7.500E+02, 1.116E+02, 1.189E+02, 9.492E+01, 1.684E+02, 7.154E+01, 9.347E+01, 1.935E+02, 6.974E+01,-1.813E+01, 1.755E-01, 1.940E-02, 1.088E-01
 7.600E+02, 1.129E+02, 1.208E+02, 9.427E+01, 1.715E+02, 7.277E+01, 9.324E+01, 1.988E+02, 7.041E+01,-2.130E+00, 1.755E-01, 1.940E-02, 1.609E-01
 7.700E+02, 1.123E+02, 1.211E+02, 9.436E+01, 1.687E+02, 7.379E+01, 9.237E+01, 2.001E+02, 7.094E+01,-6.643E+00, 1.744E-01, 2.001E-02, 4.778E-01
 7.800E+02, 1.142E+02, 1.205E+02, 9.346E+01, 1.739E+02, 7.533E+01, 9.138E+01, 1.975E+02, 7.249E+01,-1.079E+01, 1.747E-01, 1.987E-02, 7.312E-01
 7.900E+02, 1.128E+02, 1.177E+02, 9.388E+01, 1.673E+02, 7.721E+01, 8.839E+01, 1.900E+02, 7.464E+01,-1.601E+01, 1.738E-01, 2.034E-02, 1.599E-01
 8.000E+02, 1.138E+02, 1.162E+02, 9.308E+01, 1.676E+02, 8.084E+01, 8.701E+01, 1.866E+02, 7.509E+01,-1.418E+01, 1.734E-01, 2.061E-02, 1.704E-02
 8.100E+02, 1.148E+02, 1.211E+02, 9.215E+01, 1.710E+02, 8.139E+01, 8.897E+01, 1.959E+02, 7.856E+01, 1.345E+01, 1.711E-01, 2.188E-02, 1.112E+00
 8.200E+02, 1.193E+02, 1.271E+02, 9.383E+01, 1.791E+02, 8.498E+01, 8.927E+01, 2.145E+02, 7.771E+01, 2.165E+01, 1.716E-01, 2.161E-02, 1.697E+00
 8.300E+02, 1.205E+02, 1.305E+02, 9.364E+01, 1.848E+02, 8.298E+01, 8.963E+01, 2.221E+02, 7.986E+01,-6.196E+00, 1.707E-01, 2.209E-02, 1.158E+00
 8.400E+02, 1.236E+02, 1.335E+02, 9.514E+01, 1.904E+02, 8.528E+01, 9.188E+01, 2.284E+02, 8.030E+01, 7.561E+00, 1.704E-01, 2.224E-02, 1.986E+00
 8.500E+02, 1.247E+02, 1.391E+02, 9.657E+01, 1.927E+02, 8.492E+01, 9.391E+01, 2.422E+02, 8.115E+01, 1.681E+01, 1.699E-01, 2.256E-02, 1.722E+00
 8.600E+02, 1.273E+02, 1.440E+02, 9.748E+01, 2.017E+02, 8.279E+01, 9.595E+01, 2.548E+02, 8.139E+01, 4.707E+00, 1.700E-01, 2.248E-02, 2.540E+00
 8.700E+02, 1.280E+02, 1.406E+02, 9.979E+01, 2.011E+02, 8.322E+01, 9.706E+01, 2.432E+02, 8.157E+01, 1.928E+00, 1.691E-01, 2.300E-02, 1.910E+00
 8.800E+02, 1.319E+02, 1.546E+02, 1.018E+02, 2.108E+02, 8.304E+01, 1.018E+02, 2.814E+02, 8.044E+01, 1.236E+01, 1.682E-01, 2.352E-02, 2.016E+00
 8.900E+02, 1.385E+02, 1.742E+02, 1.067E+02, 2.253E+02, 8.339E+01, 1.081E+02, 3.347E+02, 7.968E+01, 2.771E+01, 1.674E-01, 2.393E-02, 2.559E+00
 9.000E+02, 1.443E+02, 1.822E+02, 1.123E+02, 2.381E+02, 8.237E+01, 1.138E+02, 3.520E+02, 8.090E+01, 2.911E+01, 1.665E-01, 2.442E-02, 3.618E+00
 9.100E+02, 1.490E+02, 1.789E+02, 1.185E+02, 2.463E+02, 8.215E+01, 1.191E+02, 3.359E+02, 8.164E+01, 1.318E+01, 1.655E-01, 2.500E-02, 8.908E+00
 9.200E+02, 1.504E+02, 1.721E+02, 1.230E+02, 2.435E+02, 8.459E+01, 1.220E+02, 3.114E+02, 8.285E+01,-7.759E+00, 1.631E-01, 2.633E-02, 1.981E+00
 9.300E+02, 1.516E+02, 1.736E+02, 1.251E+02, 2.442E+02, 8.551E+01, 1.245E+02, 3.140E+02, 8.235E+01,-1.778E+01, 1.619E-01, 2.702E-02, 4.274E+00
 9.400E+02, 1.531E+02, 1.687E+02, 1.269E+02, 2.454E+02, 8.691E+01, 1.253E+02, 2.975E+02, 8.324E+01,-7.123E+00, 1.595E-01, 2.833E-02, 2.209E+00
 9.500E+02, 1.523E+02, 1.694E+02, 1.277E+02, 2.431E+02, 8.612E+01, 1.261E+02, 2.991E+02, 8.295E+01,-2.512E+01, 1.583E-01, 2.903E-02, 2.539E+00
 9.600E+02, 1.507E+02, 1.698E+02, 1.280E+02, 2.384E+02, 8.569E+01, 1.252E+02, 3.029E+02, 8.124E+01,-2.348E+01, 1.575E-01, 2.947E-02, 1.659E+00
 9.700E+02, 1.512E+02, 1.723E+02, 1.291E+02, 2.402E+02, 8.425E+01, 1.277E+02, 3.074E+02, 8.172E+01, 6.537E+00, 1.563E-01, 3.014E-02, 7.818E+00
 9.800E+02, 1.510E+02, 1.758E+02, 1.291E+02, 2.403E+02, 8.371E+01, 1.283E+02, 3.167E+02, 8.231E+01,-1.389E+01, 1.550E-01, 3.089E-02, 5.269E+00
 9.900E+02, 1.534E+02, 1.747E+02, 1.294E+02, 2.456E+02, 8.528E+01, 1.284E+02, 3.129E+02, 8.267E+01,-8.617E-01, 1.543E-01, 3.126E-02, 6.347E+00
 1.000E+03, 1.565E+02, 1.758E+02, 1.323E+02, 2.531E+02, 8.413E+01, 1.282E+02, 3.186E+02, 8.071E+01,-1.702E+00, 1.538E-01, 3.155E-02, 1.537E+01
