s,C,C,C,C,C,C,C,C,Pa,mol/mol,mol/mol,kW
Time,"West_All_TCs","East_All_TCs","West_Bottom_TCs","West_Middle_TCs","West_Upper_TCs","East_Bottom_TCs","East_Middle_TCs","East_Upper_TCs","Pressure","O2","CO2","HRR"
-6.000E+01, 2.200E+01, 2.200E+01, 2.200E+01, 2.200E+01, 2.200E+01, 2.200E+01, 2.200E+01, 2.200E+01,-9.732E-06, 2.095E-01, 3.901E-04, 0.000E+00
-4.999E+01, 2.200E+01, 2.200E+01, 2.200E+01, 2.200E+01, 2.200E+01, 2.200E+01, 2.200E+01, 2.200E+01,-1.289E-05, 2.095E-01, 3.901E-04, 0.000E+00
-3.999E+01, 2.200E+01, 2.200E+01, 2.200E+01, 2.200E+01, 2.200E+01, 2.200E+01, 2.200E+01, 2.200E+01,-9.539E-06, 2.095E-01, 3.901E-04, 0.000E+00
-2.998E+01, 2.200E+01, 2.200E+01, 2.200E+01, 2.200E+01, 2.200E+01, 2.200E+01, 2.200E+01, 2.200E+01,-2.337E-06, 2.095E-01, 3.901E-04, 0.000E+00
-1.997E+01, 2.200E+01, 2.200E+01, 2.200E+01, 2.200E+01, 2.200E+01, 2.200E+01, 2.200E+01, 2.200E+01,-6.086E-07, 2.095E-01, 3.901E-04, 0.000E+00
-9.967E+00, 2.200E+01, 2.200E+01, 2.200E+01, 2.200E+01, 2.200E+01, 2.200E+01, 2.200E+01, 2.200E+01, 3.598E-07, 2.095E-01, 3.901E-04, 0.000E+00
 3.957E-02, 2.200E+01, 2.200E+01, 2.200E+01, 2.200E+01, 2.200E+01, 2.200E+01, 2.200E+01, 2.200E+01,-2.358E-07, 2.095E-01, 3.901E-04, 3.536E-04
 1.003E+01, 2.222E+01, 2.227E+01, 2.228E+01, 2.210E+01, 2.228E+01, 2.234E+01, 2.211E+01, 2.236E+01, 2.346E-02, 2.094E-01, 4.522E-04, 1.644E+01
 2.000E+01, 2.306E+01, 2.323E+01, 2.296E+01, 2.237E+01, 2.383E+01, 2.318E+01, 2.243E+01, 2.408E+01, 6.256E-02, 2.087E-01, 8.459E-04, 4.959E+01
 3.002E+01, 2.705E+01, 2.671E+01, 2.395E+01, 2.481E+01, 3.238E+01, 2.428E+01, 2.447E+01, 3.137E+01, 5.178E-01, 2.083E-01, 1.078E-03, 8.299E+01
 4.001E+01, 3.251E+01, 3.272E+01, 2.476E+01, 3.047E+01, 4.229E+01, 2.497E+01, 3.038E+01, 4.280E+01, 1.165E+00, 2.072E-01, 1.683E-03, 1.000E+02
 5.001E+01, 3.801E+01, 3.815E+01, 2.594E+01, 3.713E+01, 5.096E+01, 2.624E+01, 3.752E+01, 5.069E+01, 2.006E+00, 2.064E-01, 2.164E-03, 1.001E+02
 6.001E+01, 4.381E+01, 4.393E+01, 2.747E+01, 4.659E+01, 5.735E+01, 2.861E+01, 4.657E+01, 5.661E+01, 2.698E+00, 2.058E-01, 2.477E-03, 1.000E+02
 7.002E+01, 4.842E+01, 4.882E+01, 3.030E+01, 5.250E+01, 6.245E+01, 3.157E+01, 5.263E+01, 6.225E+01, 3.230E+00, 2.050E-01, 2.915E-03, 1.002E+02
 8.002E+01, 5.307E+01, 5.346E+01, 3.338E+01, 5.799E+01, 6.785E+01, 3.430E+01, 5.880E+01, 6.729E+01, 3.652E+00, 2.045E-01, 3.187E-03, 1.000E+02
 9.000E+01, 5.676E+01, 5.657E+01, 3.599E+01, 6.317E+01, 7.113E+01, 3.682E+01, 6.293E+01, 6.997E+01, 4.032E+00, 2.041E-01, 3.423E-03, 1.001E+02
 1.000E+02, 5.927E+01, 5.957E+01, 3.845E+01, 6.533E+01, 7.402E+01, 3.862E+01, 6.616E+01, 7.391E+01, 4.355E+00, 2.034E-01, 3.824E-03, 1.001E+02
 1.100E+02, 6.176E+01, 6.203E+01, 3.965E+01, 6.813E+01, 7.750E+01, 4.027E+01, 6.932E+01, 7.651E+01, 4.544E+00, 2.029E-01, 4.117E-03, 1.002E+02
 1.200E+02, 6.345E+01, 6.368E+01, 4.086E+01, 7.079E+01, 7.871E+01, 4.183E+01, 7.092E+01, 7.829E+01, 4.763E+00, 2.027E-01, 4.206E-03, 1.001E+02
 1.300E+02, 6.470E+01, 6.535E+01, 4.211E+01, 7.209E+01, 7.990E+01, 4.256E+01, 7.394E+01, 7.955E+01, 4.952E+00, 2.023E-01, 4.460E-03, 1.002E+02
 1.400E+02, 6.573E+01, 6.672E+01, 4.304E+01, 7.358E+01, 8.056E+01, 4.397E+01, 7.630E+01, 7.991E+01, 5.038E+00, 2.022E-01, 4.514E-03, 1.002E+02
 1.500E+02, 6.697E+01, 6.796E+01, 4.458E+01, 7.403E+01, 8.231E+01, 4.420E+01, 7.631E+01, 8.337E+01, 5.238E+00, 2.019E-01, 4.636E-03, 9.987E+01
 1.600E+02, 7.041E+01, 6.734E+01, 4.622E+01, 7.971E+01, 8.529E+01, 4.535E+01, 7.667E+01, 8.000E+01, 5.443E+00, 2.021E-01, 4.569E-03, 1.003E+02
 1.700E+02, 6.812E+01, 6.865E+01, 4.690E+01, 7.516E+01, 8.231E+01, 4.852E+01, 7.658E+01, 8.085E+01, 5.308E+00, 2.018E-01, 4.718E-03, 1.004E+02
 1.800E+02, 6.831E+01, 6.807E+01, 4.789E+01, 7.490E+01, 8.213E+01, 4.832E+01, 7.527E+01, 8.064E+01, 5.436E+00, 2.017E-01, 4.753E-03, 1.003E+02
 1.900E+02, 6.855E+01, 6.896E+01, 4.736E+01, 7.565E+01, 8.264E+01, 4.836E+01, 7.706E+01, 8.148E+01, 5.285E+00, 2.015E-01, 4.910E-03, 1.002E+02
 2.000E+02, 6.907E+01, 6.976E+01, 4.630E+01, 7.667E+01, 8.424E+01, 4.842E+01, 7.705E+01, 8.383E+01, 5.334E+00, 2.010E-01, 5.179E-03, 1.002E+02
 2.100E+02, 7.053E+01, 7.037E+01, 4.689E+01, 7.985E+01, 8.485E+01, 4.848E+01, 7.873E+01, 8.390E+01, 5.345E+00, 2.010E-01, 5.185E-03, 1.004E+02
 2.200E+02, 6.974E+01, 7.110E+01, 4.673E+01, 7.761E+01, 8.487E+01, 4.863E+01, 8.009E+01, 8.458E+01, 5.444E+00, 2.005E-01, 5.448E-03, 1.002E+02
 2.300E+02, 6.978E+01, 7.164E+01, 4.674E+01, 7.823E+01, 8.436E+01, 4.896E+01, 8.153E+01, 8.442E+01, 5.475E+00, 2.006E-01, 5.399E-03, 1.001E+02
 2.400E+02, 6.964E+01, 7.118E+01, 4.596E+01, 7.722E+01, 8.576E+01, 4.894E+01, 8.029E+01, 8.430E+01, 5.592E+00, 2.006E-01, 5.391E-03, 1.004E+02
 2.500E+02, 7.025E+01, 7.194E+01, 4.630E+01, 7.741E+01, 8.705E+01, 5.033E+01, 8.041E+01, 8.507E+01, 5.473E+00, 2.003E-01, 5.571E-03, 1.001E+02
 2.600E+02, 6.987E+01, 7.176E+01, 4.601E+01, 7.804E+01, 8.556E+01, 4.886E+01, 8.134E+01, 8.507E+01, 5.491E+00, 2.003E-01, 5.571E-03, 1.004E+02
 2.700E+02, 7.035E+01, 7.223E+01, 4.527E+01, 7.850E+01, 8.727E+01, 4.935E+01, 8.183E+01, 8.550E+01, 5.574E+00, 2.002E-01, 5.619E-03, 1.002E+02
 2.800E+02, 7.075E+01, 7.231E+01, 4.697E+01, 7.901E+01, 8.628E+01, 4.993E+01, 8.150E+01, 8.550E+01, 5.548E+00, 2.000E-01, 5.718E-03, 1.005E+02
 2.900E+02, 7.042E+01, 7.234E+01, 4.634E+01, 7.827E+01, 8.666E+01, 5.024E+01, 8.272E+01, 8.404E+01, 5.548E+00, 2.001E-01, 5.677E-03, 1.005E+02
 3.000E+02, 7.129E+01, 7.270E+01, 4.681E+01, 7.948E+01, 8.759E+01, 5.062E+01, 8.264E+01, 8.484E+01, 5.644E+00, 1.999E-01, 5.784E-03, 1.002E+02
 3.100E+02, 7.099E+01, 7.200E+01, 4.691E+01, 7.949E+01, 8.657E+01, 4.921E+01, 8.206E+01, 8.474E+01, 5.697E+00, 1.997E-01, 5.875E-03, 1.003E+02
 3.200E+02, 7.090E+01, 7.202E+01, 4.655E+01, 8.010E+01, 8.605E+01, 5.050E+01, 8.134E+01, 8.421E+01, 5.562E+00, 1.996E-01, 5.922E-03, 1.001E+02
 3.300E+02, 7.144E+01, 7.227E+01, 4.723E+01, 7.929E+01, 8.780E+01, 4.894E+01, 8.245E+01, 8.544E+01, 5.604E+00, 1.997E-01, 5.891E-03, 1.003E+02
 3.400E+02, 7.104E+01, 7.234E+01, 4.678E+01, 7.980E+01, 8.653E+01, 4.980E+01, 8.270E+01, 8.450E+01, 5.552E+00, 1.997E-01, 5.919E-03, 1.004E+02
 3.500E+02, 7.139E+01, 7.301E+01, 4.754E+01, 7.887E+01, 8.777E+01, 5.032E+01, 8.365E+01, 8.506E+01, 5.589E+00, 1.995E-01, 5.984E-03, 1.001E+02
 3.600E+02, 7.228E+01, 7.249E+01, 4.697E+01, 8.044E+01, 8.943E+01, 5.037E+01, 8.201E+01, 8.510E+01, 5.649E+00, 1.996E-01, 5.967E-03, 1.001E+02
 3.700E+02, 7.140E+01, 7.372E+01, 4.663E+01, 8.062E+01, 8.694E+01, 5.185E+01, 8.295E+01, 8.637E+01, 5.641E+00, 1.995E-01, 6.024E-03, 1.002E+02
 3.800E+02, 7.207E+01, 7.284E+01, 4.850E+01, 8.049E+01, 8.723E+01, 5.091E+01, 8.216E+01, 8.544E+01, 5.626E+00, 1.996E-01, 5.964E-03, 1.003E+02
 3.900E+02, 7.114E+01, 7.303E+01, 4.789E+01, 7.906E+01, 8.648E+01, 5.249E+01, 8.209E+01, 8.452E+01, 5.739E+00, 1.995E-01, 5.978E-03, 1.001E+02
 4.000E+02, 7.173E+01, 7.356E+01, 4.848E+01, 7.983E+01, 8.687E+01, 5.084E+01, 8.325E+01, 8.657E+01, 5.704E+00, 1.994E-01, 6.041E-03, 1.002E+02
 4.100E+02, 7.156E+01, 7.249E+01, 4.778E+01, 7.920E+01, 8.771E+01, 5.108E+01, 8.014E+01, 8.626E+01, 5.655E+00, 1.993E-01, 6.117E-03, 1.000E+02
 4.200E+02, 7.163E+01, 7.323E+01, 4.687E+01, 7.956E+01, 8.846E+01, 5.100E+01, 8.146E+01, 8.722E+01, 5.583E+00, 1.993E-01, 6.136E-03, 1.002E+02
 4.300E+02, 7.246E+01, 7.346E+01, 4.646E+01, 8.152E+01, 8.940E+01, 5.052E+01, 8.301E+01, 8.685E+01, 5.644E+00, 1.993E-01, 6.088E-03, 1.002E+02
 4.400E+02, 7.318E+01, 7.421E+01, 4.797E+01, 8.244E+01, 8.914E+01, 5.074E+01, 8.412E+01, 8.777E+01, 5.610E+00, 1.992E-01, 6.181E-03, 1.002E+02
 4.500E+02, 7.408E+01, 7.461E+01, 4.801E+01, 8.490E+01, 8.932E+01, 5.018E+01, 8.528E+01, 8.838E+01, 5.723E+00, 1.991E-01, 6.252E-03, 1.003E+02
 4.600E+02, 7.207E+01, 7.425E+01, 4.718E+01, 8.129E+01, 8.776E+01, 5.059E+01, 8.335E+01, 8.882E+01, 5.751E+00, 1.991E-01, 6.234E-03, 1.003E+02
 4.700E+02, 7.126E+01, 7.364E+01, 4.688E+01, 7.980E+01, 8.710E+01, 4.947E+01, 8.326E+01, 8.817E+01, 5.735E+00, 1.991E-01, 6.245E-03, 9.997E+01
 4.800E+02, 7.208E+01, 7.371E+01, 4.739E+01, 8.143E+01, 8.742E+01, 4.985E+01, 8.245E+01, 8.882E+01, 5.712E+00, 1.991E-01, 6.213E-03, 1.002E+02
 4.900E+02, 7.170E+01, 7.318E+01, 4.713E+01, 8.008E+01, 8.787E+01, 5.030E+01, 8.123E+01, 8.800E+01, 5.760E+00, 1.992E-01, 6.173E-03, 1.002E+02
 5.000E+02, 7.256E+01, 7.430E+01, 4.784E+01, 8.143E+01, 8.841E+01, 5.125E+01, 8.181E+01, 8.985E+01, 5.585E+00, 1.991E-01, 6.213E-03, 1.001E+02
 5.100E+02, 7.240E+01, 7.365E+01, 4.699E+01, 8.168E+01, 8.853E+01, 5.025E+01, 8.152E+01, 8.918E+01, 5.629E+00, 1.993E-01, 6.116E-03, 1.002E+02
 5.200E+02, 7.284E+01, 7.414E+01, 4.767E+01, 8.217E+01, 8.868E+01, 5.048E+01, 8.200E+01, 8.994E+01, 5.687E+00, 1.992E-01, 6.196E-03, 1.002E+02
 5.300E+02, 7.340E+01, 7.380E+01, 4.783E+01, 8.366E+01, 8.869E+01, 4.970E+01, 8.160E+01, 9.009E+01, 5.741E+00, 1.991E-01, 6.213E-03, 1.002E+02
 5.400E+02, 7.340E+01, 7.418E+01, 4.826E+01, 8.516E+01, 8.677E+01, 4.990E+01, 8.256E+01, 9.007E+01, 5.705E+00, 1.992E-01, 6.187E-03, 1.004E+02
 5.500E+02, 7.312E+01, 7.341E+01, 4.835E+01, 8.366E+01, 8.734E+01, 4.914E+01, 8.079E+01, 9.032E+01, 5.783E+00, 1.993E-01, 6.108E-03, 9.986E+01
 5.600E+02, 7.332E+01, 7.414E+01, 4.824E+01, 8.409E+01, 8.763E+01, 5.021E+01, 8.244E+01, 8.976E+01, 5.660E+00, 1.993E-01, 6.137E-03, 1.004E+02
 5.700E+02, 7.299E+01, 7.402E+01, 4.847E+01, 8.472E+01, 8.579E+01, 4.987E+01, 8.181E+01, 9.037E+01, 5.698E+00, 1.994E-01, 6.037E-03, 1.001E+02
 5.800E+02, 7.371E+01, 7.386E+01, 4.922E+01, 8.522E+01, 8.668E+01, 4.955E+01, 8.116E+01, 9.088E+01, 5.754E+00, 1.994E-01, 6.073E-03, 1.004E+02
 5.900E+02, 7.349E+01, 7.304E+01, 4.885E+01, 8.444E+01, 8.718E+01, 4.968E+01, 8.018E+01, 8.927E+01, 5.739E+00, 1.992E-01, 6.143E-03, 1.001E+02
 6.000E+02, 7.425E+01, 7.343E+01, 4.964E+01, 8.517E+01, 8.794E+01, 4.917E+01, 8.142E+01, 8.969E+01, 5.722E+00, 1.994E-01, 6.043E-03, 1.002E+02
 6.100E+02, 7.401E+01, 7.309E+01, 5.036E+01, 8.480E+01, 8.687E+01, 4.853E+01, 8.084E+01, 8.990E+01, 5.723E+00, 1.994E-01, 6.044E-03, 1.003E+02
 6.200E+02, 7.330E+01, 7.337E+01, 5.002E+01, 8.352E+01, 8.635E+01, 4.858E+01, 8.044E+01, 9.110E+01, 5.706E+00, 1.995E-01, 6.017E-03, 1.003E+02
 6.300E+02, 7.326E+01, 7.376E+01, 4.920E+01, 8.412E+01, 8.647E+01, 5.146E+01, 7.977E+01, 9.006E+01, 5.683E+00, 1.993E-01, 6.099E-03, 1.000E+02
 6.400E+02, 7.368E+01, 7.327E+01, 4.987E+01, 8.361E+01, 8.757E+01, 4.881E+01, 8.051E+01, 9.050E+01, 5.653E+00, 1.996E-01, 5.951E-03, 1.006E+02
 6.500E+02, 7.422E+01, 7.250E+01, 5.076E+01, 8.419E+01, 8.771E+01, 4.833E+01, 7.876E+01, 9.042E+01, 5.689E+00, 1.995E-01, 6.013E-03, 1.004E+02
 6.600E+02, 7.377E+01, 7.402E+01, 5.033E+01, 8.401E+01, 8.695E+01, 4.922E+01, 8.070E+01, 9.214E+01, 5.699E+00, 1.993E-01, 6.105E-03, 1.002E+02
 6.700E+02, 7.424E+01, 7.423E+01, 5.111E+01, 8.451E+01, 8.710E+01, 5.021E+01, 8.244E+01, 9.003E+01, 5.783E+00, 1.994E-01, 6.056E-03, 1.001E+02
 6.800E+02, 7.377E+01, 7.479E+01, 4.858E+01, 8.537E+01, 8.736E+01, 5.005E+01, 8.147E+01, 9.286E+01, 5.790E+00, 1.992E-01, 6.193E-03, 1.001E+02
 6.900E+02, 7.451E+01, 7.498E+01, 5.160E+01, 8.485E+01, 8.707E+01, 5.057E+01, 8.283E+01, 9.156E+01, 5.785E+00, 1.995E-01, 6.019E-03, 1.004E+02
 7.000E+02, 7.351E+01, 7.407E+01, 4.911E+01, 8.384E+01, 8.759E+01, 5.059E+01, 8.240E+01, 8.921E+01, 5.799E+00, 1.993E-01, 6.118E-03, 1.000E+02
 7.100E+02, 7.398E+01, 7.582E+01, 5.112E+01, 8.303E+01, 8.778E+01, 5.199E+01, 8.446E+01, 9.102E+01, 5.806E+00, 1.996E-01, 5.945E-03, 1.005E+02
 7.200E+02, 7.405E+01, 7.475E+01, 4.922E+01, 8.318E+01, 8.975E+01, 5.081E+01, 8.286E+01, 9.058E+01, 5.851E+00, 1.995E-01, 5.998E-03, 1.002E+02
 7.300E+02, 7.400E+01, 7.532E+01, 4.891E+01, 8.216E+01, 9.093E+01, 5.123E+01, 8.323E+01, 9.150E+01, 5.818E+00, 1.995E-01, 6.006E-03, 1.003E+02
 7.400E+02, 7.436E+01, 7.587E+01, 4.936E+01, 8.301E+01, 9.072E+01, 5.299E+01, 8.338E+01, 9.123E+01, 5.781E+00, 1.995E-01, 6.002E-03, 1.001E+02
 7.500E+02, 7.543E+01, 7.570E+01, 5.035E+01, 8.630E+01, 8.963E+01, 5.197E+01, 8.434E+01, 9.078E+01, 5.821E+00, 1.994E-01, 6.048E-03, 1.003E+02
 7.600E+02, 7.531E+01, 7.564E+01, 5.019E+01, 8.638E+01, 8.937E+01, 5.147E+01, 8.363E+01, 9.183E+01, 5.755E+00, 1.994E-01, 6.062E-03, 1.000E+02
 7.700E+02, 7.594E+01, 7.526E+01, 5.105E+01, 8.604E+01, 9.074E+01, 5.123E+01, 8.339E+01, 9.117E+01, 5.781E+00, 1.994E-01, 6.034E-03, 1.001E+02
 7.800E+02, 7.492E+01, 7.490E+01, 5.153E+01, 8.443E+01, 8.881E+01, 5.154E+01, 8.259E+01, 9.058E+01, 5.889E+00, 1.994E-01, 6.033E-03, 1.002E+02
 7.900E+02, 7.472E+01, 7.607E+01, 5.136E+01, 8.431E+01, 8.850E+01, 5.382E+01, 8.410E+01, 9.030E+01, 5.778E+00, 1.996E-01, 5.929E-03, 1.008E+02
 8.000E+02, 7.429E+01, 7.518E+01, 5.108E+01, 8.334E+01, 8.846E+01, 5.222E+01, 8.323E+01, 9.008E+01, 5.835E+00, 1.997E-01, 5.881E-03, 1.002E+02
 8.100E+02, 7.552E+01, 7.433E+01, 5.209E+01, 8.445E+01, 9.002E+01, 5.214E+01, 8.227E+01, 8.858E+01, 5.966E+00, 1.997E-01, 5.873E-03, 1.008E+02
 8.200E+02, 7.476E+01, 7.448E+01, 5.004E+01, 8.249E+01, 9.176E+01, 5.295E+01, 8.244E+01, 8.805E+01, 5.984E+00, 1.998E-01, 5.827E-03, 1.002E+02
 8.300E+02, 7.471E+01, 7.482E+01, 5.296E+01, 8.214E+01, 8.904E+01, 5.237E+01, 8.439E+01, 8.769E+01, 5.849E+00, 1.999E-01, 5.764E-03, 1.001E+02
 8.400E+02, 7.418E+01, 7.428E+01, 5.020E+01, 8.201E+01, 9.033E+01, 5.341E+01, 8.194E+01, 8.748E+01, 5.881E+00, 1.997E-01, 5.919E-03, 9.999E+01
 8.500E+02, 7.409E+01, 7.587E+01, 5.077E+01, 8.278E+01, 8.873E+01, 5.358E+01, 8.449E+01, 8.955E+01, 5.765E+00, 1.995E-01, 6.013E-03, 1.001E+02
 8.600E+02, 7.505E+01, 7.601E+01, 5.134E+01, 8.367E+01, 9.013E+01, 5.361E+01, 8.392E+01, 9.049E+01, 5.790E+00, 1.995E-01, 6.018E-03, 1.002E+02
 8.700E+02, 7.554E+01, 7.647E+01, 4.943E+01, 8.555E+01, 9.163E+01, 5.339E+01, 8.509E+01, 9.093E+01, 5.808E+00, 1.993E-01, 6.108E-03, 1.001E+02
 8.800E+02, 7.603E+01, 7.781E+01, 5.097E+01, 8.564E+01, 9.148E+01, 5.292E+01, 8.870E+01, 9.181E+01, 5.855E+00, 1.993E-01, 6.128E-03, 1.007E+02
 8.900E+02, 7.642E+01, 7.634E+01, 5.067E+01, 8.636E+01, 9.224E+01, 5.204E+01, 8.580E+01, 9.118E+01, 5.965E+00, 1.993E-01, 6.129E-03, 1.001E+02
 9.000E+02, 7.540E+01, 7.615E+01, 5.105E+01, 8.519E+01, 8.996E+01, 5.279E+01, 8.408E+01, 9.159E+01, 5.864E+00, 1.992E-01, 6.174E-03, 1.004E+02
 9.100E+02, 7.539E+01, 7.688E+01, 4.971E+01, 8.612E+01, 9.034E+01, 5.223E+01, 8.559E+01, 9.281E+01, 5.904E+00, 1.993E-01, 6.111E-03, 1.005E+02
 9.200E+02, 7.579E+01, 7.555E+01, 5.059E+01, 8.610E+01, 9.068E+01, 5.209E+01, 8.354E+01, 9.100E+01, 5.838E+00, 1.993E-01, 6.096E-03, 1.007E+02
 9.300E+02, 7.606E+01, 7.647E+01, 5.062E+01, 8.714E+01, 9.044E+01, 5.255E+01, 8.565E+01, 9.121E+01, 5.919E+00, 1.995E-01, 5.994E-03, 1.004E+02
 9.400E+02, 7.528E+01, 7.669E+01, 4.988E+01, 8.581E+01, 9.014E+01, 5.270E+01, 8.407E+01, 9.330E+01, 5.871E+00, 1.994E-01, 6.086E-03, 9.996E+01
 9.500E+02, 7.553E+01, 7.653E+01, 5.144E+01, 8.549E+01, 8.965E+01, 5.161E+01, 8.486E+01, 9.311E+01, 5.918E+00, 1.995E-01, 6.002E-03, 1.000E+02
 9.600E+02, 7.491E+01, 7.555E+01, 5.069E+01, 8.462E+01, 8.942E+01, 5.206E+01, 8.372E+01, 9.088E+01, 5.992E+00, 1.994E-01, 6.051E-03, 1.000E+02
 9.700E+02, 7.550E+01, 7.577E+01, 5.211E+01, 8.427E+01, 9.014E+01, 5.325E+01, 8.315E+01, 9.091E+01, 5.870E+00, 1.996E-01, 5.969E-03, 1.004E+02
 9.800E+02, 7.595E+01, 7.710E+01, 5.139E+01, 8.545E+01, 9.102E+01, 5.232E+01, 8.498E+01, 9.400E+01, 5.903E+00, 1.996E-01, 5.966E-03, 1.006E+02
 9.900E+02, 7.600E+01, 7.637E+01, 5.107E+01, 8.678E+01, 9.015E+01, 5.175E+01, 8.493E+01, 9.245E+01, 5.810E+00, 1.996E-01, 5.969E-03, 1.002E+02
 1.000E+03, 7.579E+01, 7.599E+01, 5.088E+01, 8.526E+01, 9.122E+01, 5.295E+01, 8.379E+01, 9.123E+01, 5.923E+00, 1.994E-01, 6.046E-03, 1.002E+02
 1.010E+03, 7.677E+01, 7.728E+01, 5.094E+01, 8.742E+01, 9.195E+01, 5.310E+01, 8.663E+01, 9.211E+01, 5.877E+00, 1.995E-01, 6.020E-03, 1.003E+02
 1.020E+03, 7.638E+01, 7.691E+01, 5.069E+01, 8.703E+01, 9.142E+01, 5.327E+01, 8.388E+01, 9.359E+01, 5.872E+00, 1.994E-01, 6.047E-03, 1.000E+02
 1.030E+03, 7.673E+01, 7.713E+01, 5.280E+01, 8.691E+01, 9.047E+01, 5.176E+01, 8.658E+01, 9.304E+01, 5.944E+00, 1.996E-01, 5.967E-03, 1.002E+02
 1.040E+03, 7.593E+01, 7.527E+01, 5.196E+01, 8.649E+01, 8.934E+01, 5.120E+01, 8.291E+01, 9.171E+01, 5.973E+00, 1.996E-01, 5.971E-03, 1.002E+02
 1.050E+03, 7.591E+01, 7.645E+01, 5.286E+01, 8.466E+01, 9.020E+01, 5.329E+01, 8.424E+01, 9.183E+01, 5.895E+00, 1.996E-01, 5.962E-03, 1.005E+02
 1.060E+03, 7.606E+01, 7.647E+01, 5.053E+01, 8.574E+01, 9.190E+01, 5.256E+01, 8.490E+01, 9.195E+01, 5.964E+00, 1.994E-01, 6.067E-03, 1.003E+02
 1.070E+03, 7.662E+01, 7.648E+01, 5.190E+01, 8.687E+01, 9.108E+01, 5.231E+01, 8.482E+01, 9.230E+01, 5.996E+00, 1.994E-01, 6.055E-03, 1.001E+02
 1.080E+03, 7.603E+01, 7.768E+01, 4.921E+01, 8.717E+01, 9.173E+01, 5.195E+01, 8.541E+01, 9.566E+01, 5.917E+00, 1.995E-01, 6.024E-03, 1.000E+02
 1.090E+03, 7.587E+01, 7.808E+01, 5.152E+01, 8.507E+01, 9.101E+01, 5.218E+01, 8.947E+01, 9.260E+01, 5.961E+00, 1.996E-01, 5.942E-03, 1.003E+02
 1.100E+03, 7.603E+01, 7.631E+01, 5.053E+01, 8.562E+01, 9.193E+01, 5.134E+01, 8.568E+01, 9.192E+01, 6.038E+00, 1.995E-01, 6.013E-03, 1.006E+02
 1.110E+03, 7.561E+01, 7.714E+01, 5.051E+01, 8.409E+01, 9.224E+01, 5.228E+01, 8.642E+01, 9.273E+01, 5.986E+00, 1.995E-01, 5.996E-03, 9.973E+01
 1.120E+03, 7.681E+01, 7.747E+01, 5.319E+01, 8.501E+01, 9.223E+01, 5.339E+01, 8.646E+01, 9.256E+01, 6.055E+00, 1.997E-01, 5.881E-03, 1.006E+02
 1.130E+03, 7.657E+01, 7.618E+01, 5.279E+01, 8.520E+01, 9.171E+01, 5.373E+01, 8.446E+01, 9.035E+01, 5.847E+00, 1.997E-01, 5.892E-03, 1.003E+02
 1.140E+03, 7.661E+01, 7.655E+01, 5.267E+01, 8.547E+01, 9.170E+01, 5.346E+01, 8.438E+01, 9.182E+01, 6.011E+00, 1.996E-01, 5.934E-03, 1.004E+02
 1.150E+03, 7.639E+01, 7.792E+01, 5.136E+01, 8.667E+01, 9.114E+01, 5.467E+01, 8.577E+01, 9.331E+01, 5.987E+00, 1.994E-01, 6.066E-03, 1.004E+02
 1.160E+03, 7.685E+01, 7.780E+01, 5.080E+01, 8.745E+01, 9.232E+01, 5.333E+01, 8.739E+01, 9.269E+01, 6.038E+00, 1.995E-01, 5.994E-03, 1.004E+02
 1.170E+03, 7.623E+01, 7.840E+01, 5.015E+01, 8.552E+01, 9.301E+01, 5.430E+01, 8.640E+01, 9.449E+01, 5.984E+00, 1.993E-01, 6.102E-03, 9.980E+01
 1.180E+03, 7.755E+01, 7.751E+01, 5.085E+01, 8.844E+01, 9.335E+01, 5.399E+01, 8.531E+01, 9.322E+01, 6.050E+00, 1.993E-01, 6.103E-03, 1.004E+02
 1.190E+03, 7.694E+01, 7.780E+01, 5.170E+01, 8.624E+01, 9.289E+01, 5.473E+01, 8.582E+01, 9.286E+01, 5.977E+00, 1.995E-01, 6.020E-03, 1.003E+02
 1.200E+03, 7.717E+01, 7.801E+01, 5.315E+01, 8.598E+01, 9.239E+01, 5.448E+01, 8.626E+01, 9.329E+01, 6.026E+00, 1.996E-01, 5.939E-03, 1.002E+02
 1.210E+03, 7.731E+01, 7.762E+01, 5.225E+01, 8.730E+01, 9.239E+01, 5.385E+01, 8.515E+01, 9.385E+01, 5.990E+00, 1.994E-01, 6.084E-03, 1.000E+02
 1.220E+03, 7.731E+01, 7.764E+01, 5.146E+01, 8.733E+01, 9.313E+01, 5.218E+01, 8.563E+01, 9.511E+01, 5.995E+00, 1.993E-01, 6.138E-03, 1.000E+02
 1.230E+03, 7.853E+01, 7.877E+01, 5.277E+01, 8.891E+01, 9.390E+01, 5.280E+01, 8.787E+01, 9.563E+01, 6.052E+00, 1.993E-01, 6.089E-03, 1.004E+02
 1.240E+03, 7.804E+01, 7.797E+01, 5.119E+01, 8.971E+01, 9.324E+01, 5.281E+01, 8.652E+01, 9.460E+01, 6.036E+00, 1.993E-01, 6.095E-03, 1.003E+02
 1.250E+03, 7.854E+01, 7.778E+01, 5.128E+01, 9.066E+01, 9.369E+01, 5.287E+01, 8.619E+01, 9.429E+01, 6.022E+00, 1.993E-01, 6.134E-03, 1.004E+02
 1.260E+03, 7.768E+01, 7.771E+01, 5.189E+01, 8.879E+01, 9.235E+01, 5.242E+01, 8.653E+01, 9.416E+01, 6.038E+00, 1.995E-01, 5.989E-03, 1.003E+02
 1.270E+03, 7.794E+01, 7.773E+01, 5.281E+01, 8.930E+01, 9.172E+01, 5.270E+01, 8.640E+01, 9.411E+01, 6.053E+00, 1.997E-01, 5.896E-03, 1.003E+02
 1.280E+03, 7.696E+01, 7.714E+01, 5.216E+01, 8.815E+01, 9.058E+01, 5.389E+01, 8.424E+01, 9.331E+01, 6.090E+00, 1.996E-01, 5.970E-03, 1.002E+02
 1.290E+03, 7.633E+01, 7.796E+01, 5.122E+01, 8.593E+01, 9.184E+01, 5.486E+01, 8.570E+01, 9.334E+01, 5.996E+00, 1.996E-01, 5.962E-03, 1.006E+02
 1.300E+03, 7.760E+01, 7.765E+01, 5.306E+01, 8.782E+01, 9.192E+01, 5.391E+01, 8.561E+01, 9.343E+01, 5.984E+00, 1.994E-01, 6.031E-03, 1.002E+02
 1.310E+03, 7.783E+01, 7.842E+01, 5.242E+01, 8.899E+01, 9.207E+01, 5.324E+01, 8.689E+01, 9.515E+01, 5.995E+00, 1.994E-01, 6.074E-03, 1.002E+02
