s,C,C,C,C,C,C,C,C,Pa,mol/mol,mol/mol,kW
Time,West_All_TCs,East_All_TCs,West_Bottom_TCs,West_Middle_TCs,West_Upper_TCs,East_Bottom_TCs,East_Middle_TCs,East_Upper_TCs,Pressure,O2,CO2,HRR
-6.000E+01, 3.700E+01, 3.700E+01, 3.700E+01, 3.700E+01, 3.700E+01, 3.700E+01, 3.700E+01, 3.700E+01,-9.210E-06, 2.095E-01, 3.901E-04, 0.000E+00
-4.999E+01, 3.700E+01, 3.700E+01, 3.700E+01, 3.702E+01, 3.698E+01, 3.700E+01, 3.701E+01, 3.699E+01,-5.345E-03, 2.095E-01, 3.901E-04, 0.000E+00
-3.999E+01, 3.700E+01, 3.700E+01, 3.700E+01, 3.701E+01, 3.699E+01, 3.700E+01, 3.701E+01, 3.699E+01,-5.285E-03, 2.095E-01, 3.901E-04, 0.000E+00
-2.998E+01, 3.700E+01, 3.700E+01, 3.700E+01, 3.701E+01, 3.699E+01, 3.700E+01, 3.700E+01, 3.700E+01,-5.340E-03, 2.095E-01, 3.901E-04, 0.000E+00
-1.997E+01, 3.700E+01, 3.700E+01, 3.700E+01, 3.700E+01, 3.700E+01, 3.700E+01, 3.700E+01, 3.700E+01,-5.259E-03, 2.095E-01, 3.901E-04, 0.000E+00
-9.967E+00, 3.700E+01, 3.700E+01, 3.700E+01, 3.700E+01, 3.700E+01, 3.700E+01, 3.700E+01, 3.700E+01,-5.320E-03, 2.095E-01, 3.901E-04, 0.000E+00
 3.957E-02, 3.700E+01, 3.700E+01, 3.700E+01, 3.700E+01, 3.700E+01, 3.700E+01, 3.700E+01, 3.700E+01,-5.247E-03, 2.095E-01, 3.901E-04, 6.996E-04
 1.001E+01, 3.832E+01, 3.838E+01, 3.751E+01, 3.995E+01, 3.749E+01, 3.764E+01, 4.016E+01, 3.733E+01, 1.557E+01, 2.095E-01, 3.901E-04, 3.319E+01
 2.000E+01, 4.324E+01, 4.323E+01, 3.958E+01, 5.212E+01, 3.802E+01, 3.955E+01, 5.261E+01, 3.753E+01, 8.302E+01, 2.095E-01, 3.901E-04, 9.919E+01
 3.000E+01, 5.185E+01, 5.165E+01, 4.174E+01, 7.574E+01, 3.807E+01, 4.188E+01, 7.521E+01, 3.785E+01, 1.798E+02, 2.095E-01, 3.901E-04, 1.658E+02
 4.000E+01, 6.286E+01, 6.301E+01, 4.526E+01, 1.052E+02, 3.816E+01, 4.627E+01, 1.049E+02, 3.782E+01, 2.016E+02, 2.095E-01, 3.901E-04, 1.996E+02
 5.000E+01, 7.414E+01, 7.327E+01, 5.092E+01, 1.325E+02, 3.894E+01, 5.162E+01, 1.301E+02, 3.808E+01, 1.397E+02, 2.095E-01, 4.018E-04, 2.002E+02
 6.001E+01, 8.280E+01, 8.299E+01, 5.751E+01, 1.515E+02, 3.941E+01, 5.816E+01, 1.518E+02, 3.899E+01, 9.767E+01, 2.091E-01, 6.363E-04, 2.000E+02
 7.001E+01, 9.105E+01, 9.093E+01, 6.566E+01, 1.683E+02, 3.918E+01, 6.631E+01, 1.669E+02, 3.963E+01, 7.098E+01, 2.091E-01, 6.662E-04, 2.003E+02
 8.001E+01, 9.787E+01, 9.737E+01, 7.359E+01, 1.806E+02, 3.937E+01, 7.287E+01, 1.791E+02, 4.014E+01, 5.208E+01, 2.089E-01, 7.353E-04, 1.999E+02
 9.001E+01, 1.019E+02, 1.020E+02, 8.005E+01, 1.858E+02, 3.977E+01, 8.077E+01, 1.845E+02, 4.063E+01, 4.100E+01, 2.088E-01, 8.050E-04, 2.003E+02
 1.000E+02, 1.073E+02, 1.073E+02, 8.706E+01, 1.942E+02, 4.065E+01, 8.751E+01, 1.934E+02, 4.109E+01, 3.259E+01, 2.087E-01, 8.883E-04, 2.001E+02
 1.100E+02, 1.089E+02, 1.103E+02, 9.259E+01, 1.933E+02, 4.089E+01, 9.391E+01, 1.954E+02, 4.167E+01, 2.681E+01, 2.085E-01, 9.799E-04, 1.998E+02
 1.200E+02, 1.112E+02, 1.140E+02, 9.794E+01, 1.942E+02, 4.141E+01, 9.815E+01, 2.018E+02, 4.192E+01, 2.326E+01, 2.083E-01, 1.071E-03, 2.000E+02
 1.300E+02, 1.157E+02, 1.151E+02, 1.014E+02, 2.039E+02, 4.180E+01, 1.024E+02, 2.008E+02, 4.205E+01, 2.074E+01, 2.081E-01, 1.192E-03, 1.997E+02
 1.400E+02, 1.180E+02, 1.172E+02, 1.045E+02, 2.075E+02, 4.200E+01, 1.064E+02, 2.027E+02, 4.262E+01, 1.902E+01, 2.079E-01, 1.317E-03, 1.996E+02
 1.500E+02, 1.191E+02, 1.205E+02, 1.076E+02, 2.072E+02, 4.251E+01, 1.087E+02, 2.092E+02, 4.359E+01, 1.792E+01, 2.078E-01, 1.373E-03, 1.998E+02
 1.600E+02, 1.216E+02, 1.215E+02, 1.094E+02, 2.124E+02, 4.294E+01, 1.111E+02, 2.102E+02, 4.323E+01, 1.639E+01, 2.075E-01, 1.510E-03, 2.000E+02
 1.700E+02, 1.248E+02, 1.225E+02, 1.126E+02, 2.186E+02, 4.316E+01, 1.134E+02, 2.105E+02, 4.345E+01, 1.668E+01, 2.073E-01, 1.630E-03, 2.007E+02
 1.800E+02, 1.253E+02, 1.232E+02, 1.153E+02, 2.174E+02, 4.329E+01, 1.169E+02, 2.094E+02, 4.341E+01, 1.538E+01, 2.071E-01, 1.782E-03, 1.998E+02
 1.900E+02, 1.269E+02, 1.259E+02, 1.177E+02, 2.196E+02, 4.334E+01, 1.192E+02, 2.147E+02, 4.394E+01, 1.488E+01, 2.067E-01, 1.971E-03, 1.999E+02
 2.000E+02, 1.275E+02, 1.275E+02, 1.202E+02, 2.190E+02, 4.343E+01, 1.215E+02, 2.170E+02, 4.410E+01, 1.491E+01, 2.064E-01, 2.160E-03, 1.996E+02
 2.100E+02, 1.291E+02, 1.288E+02, 1.224E+02, 2.205E+02, 4.443E+01, 1.231E+02, 2.188E+02, 4.448E+01, 1.517E+01, 2.061E-01, 2.296E-03, 2.002E+02
 2.200E+02, 1.283E+02, 1.292E+02, 1.242E+02, 2.167E+02, 4.390E+01, 1.251E+02, 2.180E+02, 4.445E+01, 1.449E+01, 2.059E-01, 2.433E-03, 1.998E+02
 2.300E+02, 1.302E+02, 1.302E+02, 1.269E+02, 2.190E+02, 4.470E+01, 1.259E+02, 2.201E+02, 4.461E+01, 1.454E+01, 2.056E-01, 2.576E-03, 2.000E+02
 2.400E+02, 1.323E+02, 1.306E+02, 1.278E+02, 2.241E+02, 4.496E+01, 1.290E+02, 2.180E+02, 4.486E+01, 1.451E+01, 2.051E-01, 2.883E-03, 2.000E+02
 2.500E+02, 1.332E+02, 1.307E+02, 1.294E+02, 2.251E+02, 4.506E+01, 1.299E+02, 2.165E+02, 4.559E+01, 1.460E+01, 2.051E-01, 2.901E-03, 2.003E+02
 2.600E+02, 1.332E+02, 1.325E+02, 1.302E+02, 2.239E+02, 4.550E+01, 1.311E+02, 2.203E+02, 4.609E+01, 1.389E+01, 2.045E-01, 3.199E-03, 1.992E+02
 2.700E+02, 1.332E+02, 1.332E+02, 1.314E+02, 2.229E+02, 4.539E+01, 1.318E+02, 2.217E+02, 4.602E+01, 1.397E+01, 2.044E-01, 3.289E-03, 2.003E+02
 2.800E+02, 1.354E+02, 1.352E+02, 1.327E+02, 2.270E+02, 4.653E+01, 1.334E+02, 2.257E+02, 4.645E+01, 1.432E+01, 2.040E-01, 3.490E-03, 1.997E+02
 2.900E+02, 1.359E+02, 1.347E+02, 1.341E+02, 2.274E+02, 4.633E+01, 1.352E+02, 2.223E+02, 4.658E+01, 1.383E+01, 2.037E-01, 3.683E-03, 1.996E+02
 3.000E+02, 1.374E+02, 1.345E+02, 1.362E+02, 2.296E+02, 4.652E+01, 1.364E+02, 2.206E+02, 4.655E+01, 1.389E+01, 2.034E-01, 3.796E-03, 1.996E+02
 3.100E+02, 1.374E+02, 1.361E+02, 1.377E+02, 2.279E+02, 4.650E+01, 1.385E+02, 2.226E+02, 4.711E+01, 1.343E+01, 2.030E-01, 4.051E-03, 2.006E+02
 3.200E+02, 1.372E+02, 1.380E+02, 1.375E+02, 2.279E+02, 4.615E+01, 1.393E+02, 2.272E+02, 4.753E+01, 1.316E+01, 2.026E-01, 4.296E-03, 1.993E+02
 3.300E+02, 1.371E+02, 1.407E+02, 1.390E+02, 2.256E+02, 4.659E+01, 1.412E+02, 2.331E+02, 4.792E+01, 1.179E+01, 2.024E-01, 4.385E-03, 1.964E+02
 3.400E+02, 1.358E+02, 1.419E+02, 1.396E+02, 2.207E+02, 4.695E+01, 1.413E+02, 2.358E+02, 4.855E+01, 1.198E+01, 2.021E-01, 4.566E-03, 1.942E+02
 3.500E+02, 1.368E+02, 1.421E+02, 1.404E+02, 2.223E+02, 4.772E+01, 1.424E+02, 2.359E+02, 4.794E+01, 1.134E+01, 2.020E-01, 4.593E-03, 1.912E+02
 3.600E+02, 1.370E+02, 1.400E+02, 1.433E+02, 2.197E+02, 4.804E+01, 1.434E+02, 2.285E+02, 4.803E+01, 1.335E+01, 2.012E-01, 5.075E-03, 1.942E+02
 3.700E+02, 1.392E+02, 1.391E+02, 1.437E+02, 2.258E+02, 4.806E+01, 1.425E+02, 2.265E+02, 4.832E+01, 8.296E+00, 2.006E-01, 5.375E-03, 1.829E+02
 3.800E+02, 1.371E+02, 1.366E+02, 1.415E+02, 2.221E+02, 4.764E+01, 1.433E+02, 2.182E+02, 4.815E+01,-3.863E-01, 2.003E-01, 5.566E-03, 1.541E+02
 3.900E+02, 1.346E+02, 1.327E+02, 1.407E+02, 2.145E+02, 4.841E+01, 1.402E+02, 2.094E+02, 4.848E+01, 2.700E+00, 2.000E-01, 5.735E-03, 1.446E+02
 4.000E+02, 1.332E+02, 1.320E+02, 1.383E+02, 2.118E+02, 4.945E+01, 1.380E+02, 2.087E+02, 4.929E+01,-4.013E+00, 1.996E-01, 5.939E-03, 1.240E+02
 4.100E+02, 1.318E+02, 1.308E+02, 1.366E+02, 2.092E+02, 4.966E+01, 1.363E+02, 2.056E+02, 5.059E+01, 5.465E+00, 1.988E-01, 6.367E-03, 1.275E+02
 4.200E+02, 1.315E+02, 1.312E+02, 1.354E+02, 2.076E+02, 5.144E+01, 1.345E+02, 2.074E+02, 5.155E+01, 1.770E+01, 1.982E-01, 6.728E-03, 1.345E+02
 4.300E+02, 1.318E+02, 1.314E+02, 1.355E+02, 2.076E+02, 5.245E+01, 1.354E+02, 2.066E+02, 5.207E+01, 2.541E+01, 1.974E-01, 7.169E-03, 1.610E+02
 4.400E+02, 1.336E+02, 1.349E+02, 1.367E+02, 2.118E+02, 5.242E+01, 1.361E+02, 2.161E+02, 5.234E+01, 1.515E+01, 1.972E-01, 7.290E-03, 1.644E+02
 4.500E+02, 1.333E+02, 1.354E+02, 1.361E+02, 2.118E+02, 5.212E+01, 1.377E+02, 2.155E+02, 5.307E+01, 1.246E+01, 1.964E-01, 7.752E-03, 1.527E+02
 4.600E+02, 1.333E+02, 1.367E+02, 1.359E+02, 2.105E+02, 5.340E+01, 1.391E+02, 2.170E+02, 5.383E+01, 1.884E+01, 1.961E-01, 7.919E-03, 1.615E+02
 4.700E+02, 1.339E+02, 1.356E+02, 1.370E+02, 2.114E+02, 5.339E+01, 1.387E+02, 2.156E+02, 5.260E+01, 2.796E+00, 1.951E-01, 8.458E-03, 1.329E+02
 4.800E+02, 1.291E+02, 1.328E+02, 1.356E+02, 1.995E+02, 5.229E+01, 1.372E+02, 2.080E+02, 5.311E+01,-1.707E+01, 1.941E-01, 9.026E-03, 7.072E+01
 4.900E+02, 1.229E+02, 1.258E+02, 1.317E+02, 1.852E+02, 5.173E+01, 1.351E+02, 1.896E+02, 5.283E+01,-3.113E+01, 1.939E-01, 9.136E-03, 1.141E+01
 5.000E+02, 1.171E+02, 1.214E+02, 1.284E+02, 1.702E+02, 5.267E+01, 1.344E+02, 1.771E+02, 5.280E+01,-1.184E+01, 1.932E-01, 9.510E-03, 1.232E+01
 5.100E+02, 1.163E+02, 1.217E+02, 1.254E+02, 1.706E+02, 5.309E+01, 1.285E+02, 1.843E+02, 5.222E+01, 1.986E+01, 1.934E-01, 9.432E-03, 7.783E+01
 5.200E+02, 1.150E+02, 1.185E+02, 1.210E+02, 1.704E+02, 5.348E+01, 1.237E+02, 1.794E+02, 5.244E+01, 1.156E+00, 1.925E-01, 9.926E-03, 1.629E+00
 5.300E+02, 1.128E+02, 1.168E+02, 1.172E+02, 1.679E+02, 5.336E+01, 1.195E+02, 1.765E+02, 5.447E+01,-5.495E+00, 1.915E-01, 1.049E-02, 1.088E+00
 5.400E+02, 1.116E+02, 1.129E+02, 1.142E+02, 1.651E+02, 5.553E+01, 1.150E+02, 1.662E+02, 5.758E+01, 6.463E-01, 1.914E-01, 1.052E-02, 2.441E-02
 5.500E+02, 1.083E+02, 1.141E+02, 1.111E+02, 1.580E+02, 5.590E+01, 1.112E+02, 1.715E+02, 5.963E+01,-4.042E+00, 1.915E-01, 1.045E-02, 1.787E-01
 5.600E+02, 1.063E+02, 1.107E+02, 1.070E+02, 1.555E+02, 5.650E+01, 1.090E+02, 1.671E+02, 5.599E+01,-1.402E+00, 1.918E-01, 1.031E-02, 2.581E-01
 5.701E+02, 1.049E+02, 1.101E+02, 1.045E+02, 1.529E+02, 5.727E+01, 1.057E+02, 1.688E+02, 5.594E+01,-6.130E-01, 1.907E-01, 1.092E-02, 2.577E-02
 5.800E+02, 1.026E+02, 1.096E+02, 1.024E+02, 1.486E+02, 5.696E+01, 1.029E+02, 1.709E+02, 5.509E+01, 9.471E-01, 1.905E-01, 1.101E-02, 4.458E-01
 5.900E+02, 1.012E+02, 1.073E+02, 1.000E+02, 1.478E+02, 5.568E+01, 1.009E+02, 1.665E+02, 5.468E+01, 3.232E-01, 1.905E-01, 1.104E-02, 4.511E-02
 6.000E+02, 1.018E+02, 1.033E+02, 9.834E+01, 1.494E+02, 5.756E+01, 9.868E+01, 1.563E+02, 5.482E+01, 6.574E+00, 1.898E-01, 1.144E-02, 4.411E-07
 6.100E+02, 1.022E+02, 1.003E+02, 9.677E+01, 1.513E+02, 5.857E+01, 9.676E+01, 1.473E+02, 5.698E+01, 1.108E+01, 1.887E-01, 1.201E-02, 9.329E-07
 6.200E+02, 1.032E+02, 1.005E+02, 9.610E+01, 1.541E+02, 5.949E+01, 9.500E+01, 1.479E+02, 5.848E+01, 1.361E+01, 1.878E-01, 1.255E-02, 8.167E-05
 6.300E+02, 1.051E+02, 1.018E+02, 9.510E+01, 1.612E+02, 5.906E+01, 9.394E+01, 1.500E+02, 6.138E+01, 2.216E+01, 1.865E-01, 1.325E-02, 5.482E-05
 6.400E+02, 1.043E+02, 1.026E+02, 9.416E+01, 1.585E+02, 6.016E+01, 9.330E+01, 1.517E+02, 6.293E+01, 1.392E+01, 1.858E-01, 1.367E-02, 7.959E-06
 6.500E+02, 1.047E+02, 1.039E+02, 9.326E+01, 1.585E+02, 6.244E+01, 9.281E+01, 1.548E+02, 6.405E+01, 1.387E+01, 1.846E-01, 1.435E-02, 9.812E-06
 6.600E+02, 1.042E+02, 1.043E+02, 9.306E+01, 1.556E+02, 6.390E+01, 9.212E+01, 1.544E+02, 6.634E+01, 6.364E+00, 1.838E-01, 1.478E-02, 3.109E-06
 6.700E+02, 1.035E+02, 1.034E+02, 9.234E+01, 1.528E+02, 6.528E+01, 9.171E+01, 1.533E+02, 6.518E+01, 9.591E+00, 1.834E-01, 1.502E-02, 1.469E-05
 6.800E+02, 1.030E+02, 1.031E+02, 9.187E+01, 1.520E+02, 6.511E+01, 9.100E+01, 1.520E+02, 6.642E+01, 5.059E+00, 1.821E-01, 1.570E-02, 1.908E-06
 6.900E+02, 1.015E+02, 1.023E+02, 9.074E+01, 1.478E+02, 6.591E+01, 9.049E+01, 1.491E+02, 6.738E+01, 9.642E+00, 1.814E-01, 1.609E-02, 4.042E-06
 7.000E+02, 1.009E+02, 1.022E+02, 9.007E+01, 1.460E+02, 6.663E+01, 8.959E+01, 1.489E+02, 6.808E+01, 6.842E+00, 1.806E-01, 1.655E-02, 3.463E-06
 7.100E+02, 1.009E+02, 1.019E+02, 8.937E+01, 1.464E+02, 6.692E+01, 8.898E+01, 1.496E+02, 6.719E+01, 7.097E+00, 1.797E-01, 1.709E-02, 2.561E-05
 7.200E+02, 1.006E+02, 1.010E+02, 8.867E+01, 1.466E+02, 6.655E+01, 8.844E+01, 1.458E+02, 6.886E+01, 1.031E+01, 1.788E-01, 1.755E-02, 1.147E-05
 7.300E+02, 1.002E+02, 1.009E+02, 8.822E+01, 1.437E+02, 6.859E+01, 8.751E+01, 1.464E+02, 6.893E+01, 7.351E+00, 1.784E-01, 1.777E-02, 4.214E-06
 7.400E+02, 1.003E+02, 9.978E+01, 8.762E+01, 1.437E+02, 6.952E+01, 8.727E+01, 1.433E+02, 6.874E+01, 8.914E+00, 1.774E-01, 1.833E-02, 5.954E-05
 7.500E+02, 1.004E+02, 1.000E+02, 8.750E+01, 1.452E+02, 6.857E+01, 8.668E+01, 1.432E+02, 7.017E+01, 1.185E+01, 1.760E-01, 1.915E-02, 1.442E-05
 7.600E+02, 1.006E+02, 1.003E+02, 8.704E+01, 1.447E+02, 7.020E+01, 8.629E+01, 1.434E+02, 7.134E+01, 9.335E+00, 1.751E-01, 1.962E-02, 1.147E-05
 7.700E+02, 1.004E+02, 1.015E+02, 8.640E+01, 1.426E+02, 7.226E+01, 8.616E+01, 1.454E+02, 7.308E+01, 9.895E+00, 1.741E-01, 2.018E-02, 2.910E-05
 7.800E+02, 1.001E+02, 1.009E+02, 8.593E+01, 1.422E+02, 7.225E+01, 8.556E+01, 1.445E+02, 7.263E+01, 9.597E+00, 1.736E-01, 2.050E-02, 9.046E-06
 7.900E+02, 1.000E+02, 1.003E+02, 8.553E+01, 1.417E+02, 7.286E+01, 8.521E+01, 1.430E+02, 7.274E+01, 9.385E+00, 1.726E-01, 2.105E-02, 5.836E-05
 8.000E+02, 9.940E+01, 1.002E+02, 8.489E+01, 1.399E+02, 7.342E+01, 8.472E+01, 1.412E+02, 7.478E+01, 8.229E+00, 1.713E-01, 2.177E-02, 2.374E-05
 8.100E+02, 9.913E+01, 1.004E+02, 8.449E+01, 1.379E+02, 7.499E+01, 8.434E+01, 1.422E+02, 7.460E+01, 7.606E+00, 1.708E-01, 2.203E-02, 1.114E-05
 8.200E+02, 9.805E+01, 9.960E+01, 8.376E+01, 1.357E+02, 7.470E+01, 8.383E+01, 1.401E+02, 7.491E+01, 7.604E+00, 1.697E-01, 2.267E-02, 2.085E-05
 8.300E+02, 9.781E+01, 9.889E+01, 8.303E+01, 1.367E+02, 7.374E+01, 8.343E+01, 1.384E+02, 7.480E+01, 8.511E+00, 1.687E-01, 2.321E-02, 2.166E-05
 8.400E+02, 9.759E+01, 9.793E+01, 8.264E+01, 1.357E+02, 7.439E+01, 8.290E+01, 1.382E+02, 7.272E+01, 8.047E+00, 1.676E-01, 2.380E-02, 1.934E-04
 8.500E+02, 9.726E+01, 9.731E+01, 8.199E+01, 1.353E+02, 7.451E+01, 8.279E+01, 1.353E+02, 7.382E+01, 9.011E+00, 1.667E-01, 2.435E-02, 2.442E-05
 8.600E+02, 9.747E+01, 9.708E+01, 8.192E+01, 1.343E+02, 7.621E+01, 8.215E+01, 1.336E+02, 7.553E+01, 7.426E+00, 1.658E-01, 2.480E-02, 7.479E-06
 8.700E+02, 9.740E+01, 9.656E+01, 8.156E+01, 1.327E+02, 7.799E+01, 8.199E+01, 1.319E+02, 7.585E+01, 8.771E+00, 1.650E-01, 2.530E-02, 3.116E-04
 8.800E+02, 9.708E+01, 9.753E+01, 8.132E+01, 1.330E+02, 7.693E+01, 8.180E+01, 1.342E+02, 7.655E+01, 1.058E+01, 1.638E-01, 2.597E-02, 7.255E-05
 8.900E+02, 9.732E+01, 9.771E+01, 8.114E+01, 1.328E+02, 7.797E+01, 8.148E+01, 1.350E+02, 7.667E+01, 9.337E+00, 1.622E-01, 2.685E-02, 2.676E-04
 9.000E+02, 9.740E+01, 9.768E+01, 8.116E+01, 1.328E+02, 7.827E+01, 8.095E+01, 1.348E+02, 7.729E+01, 8.436E+00, 1.608E-01, 2.764E-02, 3.653E-05
 9.100E+02, 9.728E+01, 9.703E+01, 8.096E+01, 1.313E+02, 7.956E+01, 8.075E+01, 1.319E+02, 7.842E+01, 1.121E+01, 1.604E-01, 2.784E-02, 3.092E-05
 9.200E+02, 9.717E+01, 9.722E+01, 8.062E+01, 1.303E+02, 8.054E+01, 8.041E+01, 1.309E+02, 8.033E+01, 9.148E+00, 1.595E-01, 2.835E-02, 6.892E-05
 9.300E+02, 9.749E+01, 9.682E+01, 8.005E+01, 1.297E+02, 8.275E+01, 8.021E+01, 1.303E+02, 7.990E+01, 1.027E+01, 1.583E-01, 2.901E-02, 1.739E-04
 9.400E+02, 9.753E+01, 9.694E+01, 7.990E+01, 1.289E+02, 8.377E+01, 7.986E+01, 1.315E+02, 7.942E+01, 9.136E+00, 1.575E-01, 2.949E-02, 3.889E-04
 9.500E+02, 9.786E+01, 9.817E+01, 7.933E+01, 1.317E+02, 8.256E+01, 7.991E+01, 1.352E+02, 7.941E+01, 1.911E+01, 1.558E-01, 3.041E-02, 2.537E-03
 9.600E+02, 9.855E+01, 9.893E+01, 7.936E+01, 1.328E+02, 8.353E+01, 7.953E+01, 1.367E+02, 8.054E+01, 1.873E+01, 1.542E-01, 3.133E-02, 2.037E-03
 9.700E+02, 9.795E+01, 1.008E+02, 7.935E+01, 1.303E+02, 8.421E+01, 7.973E+01, 1.377E+02, 8.494E+01, 8.872E+00, 1.529E-01, 3.202E-02, 6.103E-05
 9.800E+02, 9.851E+01, 9.880E+01, 7.917E+01, 1.292E+02, 8.720E+01, 7.973E+01, 1.349E+02, 8.181E+01, 1.312E+01, 1.525E-01, 3.224E-02, 2.303E-04
 9.900E+02, 9.735E+01, 9.976E+01, 7.908E+01, 1.272E+02, 8.572E+01, 7.944E+01, 1.347E+02, 8.515E+01, 9.337E+00, 1.507E-01, 3.324E-02, 8.030E-05
 1.000E+03, 9.766E+01, 9.898E+01, 7.894E+01, 1.261E+02, 8.794E+01, 7.939E+01, 1.323E+02, 8.522E+01, 8.975E+00, 1.501E-01, 3.358E-02, 9.527E-05
 1.010E+03, 9.722E+01, 9.944E+01, 7.864E+01, 1.241E+02, 8.896E+01, 7.925E+01, 1.318E+02, 8.730E+01, 1.116E+01, 1.489E-01, 3.427E-02, 2.374E-04
 1.020E+03, 9.738E+01, 9.938E+01, 7.875E+01, 1.229E+02, 9.045E+01, 7.876E+01, 1.309E+02, 8.846E+01, 1.003E+01, 1.482E-01, 3.469E-02, 3.026E-04
 1.030E+03, 9.681E+01, 9.854E+01, 7.829E+01, 1.210E+02, 9.118E+01, 7.872E+01, 1.269E+02, 8.996E+01, 9.444E+00, 1.467E-01, 3.549E-02, 8.339E-04
 1.040E+03, 9.631E+01, 9.881E+01, 7.814E+01, 1.189E+02, 9.186E+01, 7.838E+01, 1.279E+02, 9.011E+01, 8.923E+00, 1.460E-01, 3.592E-02, 7.445E-04
 1.050E+03, 9.626E+01, 9.816E+01, 7.776E+01, 1.180E+02, 9.300E+01, 7.813E+01, 1.253E+02, 9.105E+01, 8.594E+00, 1.455E-01, 3.619E-02, 2.173E-03
 1.060E+03, 9.657E+01, 9.785E+01, 7.751E+01, 1.188E+02, 9.343E+01, 7.777E+01, 1.257E+02, 9.010E+01, 8.977E+00, 1.445E-01, 3.676E-02, 2.108E-01
 1.070E+03, 9.568E+01, 1.000E+02, 7.701E+01, 1.176E+02, 9.240E+01, 7.754E+01, 1.318E+02, 9.067E+01, 6.040E+00, 1.436E-01, 3.725E-02, 3.860E-01
 1.080E+03, 9.531E+01, 1.131E+02, 7.678E+01, 1.188E+02, 9.033E+01, 7.781E+01, 1.708E+02, 9.065E+01, 1.127E+02, 1.427E-01, 3.767E-02, 1.262E+01
 1.090E+03, 2.195E+02, 2.335E+02, 1.010E+02, 4.432E+02, 1.141E+02, 1.028E+02, 4.931E+02, 1.045E+02, 6.089E+03, 1.400E-01, 3.910E-02, 5.139E+02
 1.100E+03, 2.182E+02, 2.456E+02, 1.395E+02, 4.117E+02, 1.034E+02, 1.414E+02, 4.862E+02, 1.092E+02, 1.755E+03, 1.375E-01, 4.052E-02, 4.422E+02
 1.110E+03, 2.064E+02, 2.161E+02, 1.613E+02, 3.594E+02, 9.847E+01, 1.676E+02, 3.838E+02, 9.696E+01,-9.485E+01, 1.377E-01, 4.040E-02, 3.616E+01
 1.120E+03, 1.848E+02, 1.952E+02, 1.691E+02, 2.920E+02, 9.336E+01, 1.761E+02, 3.186E+02, 9.089E+01,-8.729E+01, 1.365E-01, 4.106E-02, 1.588E+00
 1.130E+03, 1.871E+02, 2.012E+02, 1.678E+02, 3.055E+02, 8.801E+01, 1.682E+02, 3.449E+02, 9.060E+01, 1.329E+02, 1.344E-01, 4.224E-02, 4.972E+01
 1.140E+03, 1.733E+02, 1.830E+02, 1.669E+02, 2.701E+02, 8.293E+01, 1.655E+02, 3.001E+02, 8.345E+01,-6.771E+01, 1.336E-01, 4.268E-02, 2.328E+00
 1.150E+03, 1.621E+02, 1.768E+02, 1.604E+02, 2.460E+02, 7.985E+01, 1.575E+02, 2.916E+02, 8.146E+01,-3.240E+01, 1.326E-01, 4.324E-02, 2.150E+00
 1.160E+03, 1.560E+02, 1.637E+02, 1.517E+02, 2.380E+02, 7.823E+01, 1.529E+02, 2.611E+02, 7.728E+01,-2.139E+01, 1.331E-01, 4.293E-02, 7.436E+00
 1.170E+03, 1.489E+02, 1.529E+02, 1.468E+02, 2.237E+02, 7.628E+01, 1.463E+02, 2.381E+02, 7.426E+01,-3.017E+01, 1.331E-01, 4.293E-02, 1.083E+00
 1.180E+03, 1.414E+02, 1.486E+02, 1.401E+02, 2.099E+02, 7.430E+01, 1.407E+02, 2.307E+02, 7.444E+01,-1.614E+01, 1.324E-01, 4.333E-02, 0.000E+00
 1.190E+03, 1.372E+02, 1.417E+02, 1.354E+02, 2.035E+02, 7.265E+01, 1.359E+02, 2.159E+02, 7.318E+01,-1.132E+01, 1.327E-01, 4.318E-02, 2.751E-02
 1.200E+03, 1.326E+02, 1.369E+02, 1.306E+02, 1.955E+02, 7.165E+01, 1.311E+02, 2.101E+02, 6.942E+01,-9.400E+00, 1.331E-01, 4.294E-02, 4.860E-02
 1.210E+03, 1.286E+02, 1.351E+02, 1.264E+02, 1.885E+02, 7.101E+01, 1.271E+02, 2.092E+02, 6.902E+01,-8.835E+00, 1.330E-01, 4.299E-02, 0.000E+00
 1.220E+03, 1.247E+02, 1.290E+02, 1.225E+02, 1.815E+02, 7.007E+01, 1.231E+02, 1.958E+02, 6.802E+01,-7.073E+00, 1.330E-01, 4.298E-02, 1.022E-01
 1.230E+03, 1.213E+02, 1.260E+02, 1.190E+02, 1.773E+02, 6.773E+01, 1.195E+02, 1.920E+02, 6.649E+01,-4.671E+00, 1.331E-01, 4.291E-02, 0.000E+00
 1.240E+03, 1.191E+02, 1.234E+02, 1.161E+02, 1.732E+02, 6.806E+01, 1.165E+02, 1.874E+02, 6.617E+01,-3.293E+00, 1.329E-01, 4.303E-02, 0.000E+00
 1.250E+03, 1.167E+02, 1.202E+02, 1.133E+02, 1.689E+02, 6.783E+01, 1.140E+02, 1.817E+02, 6.498E+01,-2.472E+00, 1.328E-01, 4.305E-02, 0.000E+00
 1.260E+03, 1.145E+02, 1.191E+02, 1.109E+02, 1.647E+02, 6.791E+01, 1.114E+02, 1.815E+02, 6.445E+01,-9.600E-01, 1.328E-01, 4.305E-02, 0.000E+00
 1.270E+03, 1.124E+02, 1.167E+02, 1.086E+02, 1.612E+02, 6.735E+01, 1.090E+02, 1.766E+02, 6.457E+01,-1.567E+00, 1.328E-01, 4.302E-02, 0.000E+00
 1.280E+03, 1.105E+02, 1.144E+02, 1.065E+02, 1.579E+02, 6.708E+01, 1.071E+02, 1.712E+02, 6.503E+01,-7.174E-01, 1.328E-01, 4.305E-02, 0.000E+00
 1.290E+03, 1.086E+02, 1.118E+02, 1.047E+02, 1.547E+02, 6.621E+01, 1.051E+02, 1.666E+02, 6.381E+01,-5.402E-01, 1.328E-01, 4.304E-02, 0.000E+00
 1.300E+03, 1.070E+02, 1.102E+02, 1.030E+02, 1.520E+02, 6.610E+01, 1.033E+02, 1.638E+02, 6.369E+01,-2.515E-01, 1.327E-01, 4.306E-02, 0.000E+00
 1.310E+03, 1.058E+02, 1.086E+02, 1.014E+02, 1.494E+02, 6.677E+01, 1.018E+02, 1.602E+02, 6.390E+01,-1.432E-01, 1.327E-01, 4.305E-02, 0.000E+00
