s,C,C,C,C,C,C,C,C,Pa,mol/mol,mol/mol,kW
Time,"West_All_TCs","East_All_TCs","West_Bottom_TCs","West_Middle_TCs","West_Upper_TCs","East_Bottom_TCs","East_Middle_TCs","East_Upper_TCs","Pressure","O2","CO2","HRR"
-6.000E+01, 2.500E+01, 2.500E+01, 2.500E+01, 2.500E+01, 2.500E+01, 2.500E+01, 2.500E+01, 2.500E+01,-9.627E-06, 2.095E-01, 3.901E-04, 0.000E+00
-4.998E+01, 2.496E+01, 2.496E+01, 2.496E+01, 2.495E+01, 2.496E+01, 2.496E+01, 2.496E+01, 2.496E+01,-7.802E+01, 2.095E-01, 3.901E-04, 0.000E+00
-3.991E+01, 2.494E+01, 2.496E+01, 2.494E+01, 2.494E+01, 2.493E+01, 2.498E+01, 2.495E+01, 2.495E+01,-7.892E+01, 2.095E-01, 3.901E-04, 0.000E+00
-2.994E+01, 2.493E+01, 2.496E+01, 2.494E+01, 2.493E+01, 2.493E+01, 2.499E+01, 2.494E+01, 2.494E+01,-7.902E+01, 2.095E-01, 3.901E-04, 0.000E+00
-1.999E+01, 2.493E+01, 2.496E+01, 2.494E+01, 2.493E+01, 2.493E+01, 2.499E+01, 2.495E+01, 2.494E+01,-7.906E+01, 2.095E-01, 3.901E-04, 0.000E+00
-9.992E+00, 2.493E+01, 2.496E+01, 2.493E+01, 2.493E+01, 2.493E+01, 2.499E+01, 2.495E+01, 2.494E+01,-7.909E+01, 2.095E-01, 3.901E-04, 0.000E+00
 4.707E-02, 2.493E+01, 2.496E+01, 2.494E+01, 2.493E+01, 2.493E+01, 2.499E+01, 2.495E+01, 2.494E+01,-7.910E+01, 2.095E-01, 3.901E-04, 3.521E-04
 1.001E+01, 2.615E+01, 2.605E+01, 2.547E+01, 2.798E+01, 2.499E+01, 2.568E+01, 2.749E+01, 2.497E+01,-3.804E+01, 2.095E-01, 3.901E-04, 3.259E+01
 2.001E+01, 3.012E+01, 3.022E+01, 2.746E+01, 3.758E+01, 2.531E+01, 2.788E+01, 3.779E+01, 2.499E+01, 1.743E+00, 2.095E-01, 3.901E-04, 9.879E+01
 3.001E+01, 3.847E+01, 3.908E+01, 3.141E+01, 5.807E+01, 2.592E+01, 3.285E+01, 5.942E+01, 2.496E+01, 3.298E+01, 2.095E-01, 3.901E-04, 1.658E+02
 4.001E+01, 4.987E+01, 5.067E+01, 3.956E+01, 8.274E+01, 2.731E+01, 4.243E+01, 8.407E+01, 2.552E+01, 5.005E+01, 2.094E-01, 4.507E-04, 2.004E+02
 5.001E+01, 6.154E+01, 6.167E+01, 5.140E+01, 1.041E+02, 2.915E+01, 5.355E+01, 1.031E+02, 2.838E+01, 2.499E+01, 2.090E-01, 7.001E-04, 1.986E+02
 6.001E+01, 7.072E+01, 7.160E+01, 6.421E+01, 1.165E+02, 3.146E+01, 6.595E+01, 1.178E+02, 3.109E+01, 1.611E+01, 2.085E-01, 9.980E-04, 2.018E+02
 7.000E+01, 8.098E+01, 8.125E+01, 7.751E+01, 1.316E+02, 3.385E+01, 7.906E+01, 1.311E+02, 3.354E+01, 5.259E+00, 2.081E-01, 1.196E-03, 2.000E+02
 8.002E+01, 9.015E+01, 8.875E+01, 9.112E+01, 1.430E+02, 3.637E+01, 9.265E+01, 1.379E+02, 3.566E+01,-3.812E+00, 2.077E-01, 1.418E-03, 1.996E+02
 9.000E+01, 9.440E+01, 9.547E+01, 1.006E+02, 1.453E+02, 3.733E+01, 1.026E+02, 1.457E+02, 3.808E+01,-7.584E+00, 2.073E-01, 1.628E-03, 2.004E+02
 1.000E+02, 9.966E+01, 1.013E+02, 1.084E+02, 1.512E+02, 3.939E+01, 1.101E+02, 1.541E+02, 3.960E+01,-1.734E+01, 2.070E-01, 1.803E-03, 1.996E+02
 1.100E+02, 1.042E+02, 1.059E+02, 1.137E+02, 1.575E+02, 4.154E+01, 1.173E+02, 1.580E+02, 4.252E+01,-2.737E+01, 2.065E-01, 2.099E-03, 2.000E+02
 1.200E+02, 1.076E+02, 1.099E+02, 1.185E+02, 1.613E+02, 4.301E+01, 1.220E+02, 1.639E+02, 4.375E+01,-3.468E+01, 2.061E-01, 2.300E-03, 1.990E+02
 1.300E+02, 1.093E+02, 1.130E+02, 1.196E+02, 1.636E+02, 4.459E+01, 1.221E+02, 1.710E+02, 4.577E+01,-4.440E+01, 2.057E-01, 2.537E-03, 2.004E+02
 1.400E+02, 1.124E+02, 1.149E+02, 1.224E+02, 1.683E+02, 4.650E+01, 1.260E+02, 1.717E+02, 4.692E+01,-4.797E+01, 2.052E-01, 2.813E-03, 1.993E+02
 1.500E+02, 1.128E+02, 1.164E+02, 1.232E+02, 1.674E+02, 4.762E+01, 1.286E+02, 1.731E+02, 4.766E+01,-5.260E+01, 2.046E-01, 3.181E-03, 2.002E+02
 1.600E+02, 1.138E+02, 1.173E+02, 1.251E+02, 1.681E+02, 4.802E+01, 1.294E+02, 1.726E+02, 5.000E+01,-5.992E+01, 2.039E-01, 3.529E-03, 1.996E+02
 1.700E+02, 1.151E+02, 1.165E+02, 1.242E+02, 1.706E+02, 5.052E+01, 1.261E+02, 1.737E+02, 4.970E+01,-5.565E+01, 2.035E-01, 3.779E-03, 2.002E+02
 1.800E+02, 1.164E+02, 1.193E+02, 1.255E+02, 1.727E+02, 5.097E+01, 1.322E+02, 1.745E+02, 5.123E+01,-5.850E+01, 2.025E-01, 4.319E-03, 2.010E+02
 1.900E+02, 1.173E+02, 1.214E+02, 1.266E+02, 1.737E+02, 5.149E+01, 1.321E+02, 1.796E+02, 5.267E+01,-6.353E+01, 2.019E-01, 4.639E-03, 1.992E+02
 2.000E+02, 1.172E+02, 1.212E+02, 1.287E+02, 1.698E+02, 5.297E+01, 1.325E+02, 1.778E+02, 5.321E+01,-5.814E+01, 2.013E-01, 5.015E-03, 2.008E+02
 2.100E+02, 1.196E+02, 1.225E+02, 1.297E+02, 1.747E+02, 5.425E+01, 1.376E+02, 1.763E+02, 5.354E+01,-5.858E+01, 2.006E-01, 5.372E-03, 1.995E+02
 2.200E+02, 1.192E+02, 1.249E+02, 1.281E+02, 1.757E+02, 5.368E+01, 1.399E+02, 1.795E+02, 5.522E+01,-6.827E+01, 1.995E-01, 6.013E-03, 1.999E+02
 2.300E+02, 1.187E+02, 1.225E+02, 1.284E+02, 1.729E+02, 5.478E+01, 1.363E+02, 1.777E+02, 5.351E+01,-6.609E+01, 1.994E-01, 6.048E-03, 1.981E+02
 2.400E+02, 1.188E+02, 1.249E+02, 1.292E+02, 1.735E+02, 5.361E+01, 1.406E+02, 1.800E+02, 5.416E+01,-6.511E+01, 1.987E-01, 6.460E-03, 2.007E+02
 2.500E+02, 1.212E+02, 1.255E+02, 1.315E+02, 1.786E+02, 5.365E+01, 1.426E+02, 1.793E+02, 5.459E+01,-6.654E+01, 1.978E-01, 6.946E-03, 1.993E+02
 2.600E+02, 1.224E+02, 1.242E+02, 1.345E+02, 1.775E+02, 5.523E+01, 1.374E+02, 1.800E+02, 5.527E+01,-6.417E+01, 1.970E-01, 7.399E-03, 2.000E+02
 2.700E+02, 1.227E+02, 1.234E+02, 1.330E+02, 1.795E+02, 5.568E+01, 1.361E+02, 1.781E+02, 5.612E+01,-6.039E+01, 1.959E-01, 7.995E-03, 1.997E+02
 2.800E+02, 1.260E+02, 1.236E+02, 1.376E+02, 1.842E+02, 5.626E+01, 1.386E+02, 1.759E+02, 5.628E+01,-6.265E+01, 1.948E-01, 8.607E-03, 1.992E+02
 2.900E+02, 1.236E+02, 1.262E+02, 1.388E+02, 1.762E+02, 5.565E+01, 1.466E+02, 1.758E+02, 5.615E+01,-6.709E+01, 1.942E-01, 8.957E-03, 1.994E+02
 3.000E+02, 1.226E+02, 1.291E+02, 1.349E+02, 1.766E+02, 5.629E+01, 1.479E+02, 1.843E+02, 5.497E+01,-6.919E+01, 1.934E-01, 9.387E-03, 1.997E+02
 3.100E+02, 1.239E+02, 1.265E+02, 1.348E+02, 1.802E+02, 5.688E+01, 1.428E+02, 1.808E+02, 5.596E+01,-6.489E+01, 1.928E-01, 9.773E-03, 1.996E+02
 3.200E+02, 1.253E+02, 1.294E+02, 1.349E+02, 1.830E+02, 5.789E+01, 1.447E+02, 1.870E+02, 5.635E+01,-6.573E+01, 1.916E-01, 1.044E-02, 2.012E+02
 3.300E+02, 1.241E+02, 1.279E+02, 1.357E+02, 1.806E+02, 5.612E+01, 1.428E+02, 1.842E+02, 5.659E+01,-6.972E+01, 1.911E-01, 1.068E-02, 1.981E+02
 3.400E+02, 1.267E+02, 1.275E+02, 1.379E+02, 1.851E+02, 5.695E+01, 1.417E+02, 1.840E+02, 5.666E+01,-6.810E+01, 1.903E-01, 1.112E-02, 2.003E+02
 3.500E+02, 1.253E+02, 1.282E+02, 1.356E+02, 1.833E+02, 5.690E+01, 1.452E+02, 1.833E+02, 5.604E+01,-6.667E+01, 1.900E-01, 1.129E-02, 1.981E+02
 3.600E+02, 1.253E+02, 1.298E+02, 1.348E+02, 1.830E+02, 5.796E+01, 1.476E+02, 1.849E+02, 5.678E+01,-6.115E+01, 1.887E-01, 1.206E-02, 1.995E+02
 3.700E+02, 1.241E+02, 1.313E+02, 1.333E+02, 1.812E+02, 5.773E+01, 1.490E+02, 1.877E+02, 5.735E+01,-6.401E+01, 1.879E-01, 1.247E-02, 2.019E+02
 3.800E+02, 1.245E+02, 1.307E+02, 1.357E+02, 1.793E+02, 5.843E+01, 1.470E+02, 1.879E+02, 5.718E+01,-6.209E+01, 1.871E-01, 1.294E-02, 1.987E+02
 3.900E+02, 1.265E+02, 1.309E+02, 1.379E+02, 1.830E+02, 5.864E+01, 1.500E+02, 1.860E+02, 5.675E+01,-6.708E+01, 1.865E-01, 1.324E-02, 2.000E+02
 4.000E+02, 1.271E+02, 1.309E+02, 1.393E+02, 1.846E+02, 5.756E+01, 1.464E+02, 1.880E+02, 5.835E+01,-6.600E+01, 1.852E-01, 1.397E-02, 2.000E+02
 4.100E+02, 1.273E+02, 1.316E+02, 1.390E+02, 1.847E+02, 5.829E+01, 1.447E+02, 1.935E+02, 5.675E+01,-6.157E+01, 1.850E-01, 1.409E-02, 2.004E+02
 4.200E+02, 1.299E+02, 1.302E+02, 1.402E+02, 1.912E+02, 5.838E+01, 1.469E+02, 1.852E+02, 5.835E+01,-6.709E+01, 1.833E-01, 1.504E-02, 1.984E+02
 4.300E+02, 1.292E+02, 1.337E+02, 1.409E+02, 1.880E+02, 5.864E+01, 1.505E+02, 1.920E+02, 5.851E+01,-6.781E+01, 1.829E-01, 1.528E-02, 1.992E+02
 4.400E+02, 1.276E+02, 1.341E+02, 1.386E+02, 1.861E+02, 5.822E+01, 1.507E+02, 1.947E+02, 5.672E+01,-6.606E+01, 1.819E-01, 1.581E-02, 1.992E+02
 4.500E+02, 1.280E+02, 1.345E+02, 1.404E+02, 1.859E+02, 5.748E+01, 1.489E+02, 1.965E+02, 5.823E+01,-6.300E+01, 1.808E-01, 1.648E-02, 2.000E+02
 4.600E+02, 1.286E+02, 1.353E+02, 1.411E+02, 1.865E+02, 5.818E+01, 1.498E+02, 1.980E+02, 5.810E+01,-6.403E+01, 1.804E-01, 1.668E-02, 1.987E+02
 4.700E+02, 1.287E+02, 1.335E+02, 1.428E+02, 1.846E+02, 5.853E+01, 1.486E+02, 1.934E+02, 5.857E+01,-6.487E+01, 1.796E-01, 1.714E-02, 1.989E+02
 4.800E+02, 1.295E+02, 1.340E+02, 1.419E+02, 1.888E+02, 5.787E+01, 1.498E+02, 1.935E+02, 5.866E+01,-6.787E+01, 1.789E-01, 1.749E-02, 2.012E+02
 4.900E+02, 1.296E+02, 1.327E+02, 1.425E+02, 1.882E+02, 5.803E+01, 1.491E+02, 1.915E+02, 5.743E+01,-6.403E+01, 1.786E-01, 1.771E-02, 1.997E+02
 5.000E+02, 1.303E+02, 1.348E+02, 1.436E+02, 1.883E+02, 5.891E+01, 1.529E+02, 1.924E+02, 5.915E+01,-6.853E+01, 1.777E-01, 1.820E-02, 1.969E+02
 5.100E+02, 1.306E+02, 1.345E+02, 1.427E+02, 1.911E+02, 5.791E+01, 1.531E+02, 1.919E+02, 5.856E+01,-6.347E+01, 1.768E-01, 1.866E-02, 2.027E+02
 5.200E+02, 1.322E+02, 1.342E+02, 1.460E+02, 1.929E+02, 5.782E+01, 1.531E+02, 1.921E+02, 5.738E+01,-6.096E+01, 1.762E-01, 1.901E-02, 1.997E+02
 5.300E+02, 1.306E+02, 1.368E+02, 1.441E+02, 1.897E+02, 5.811E+01, 1.593E+02, 1.927E+02, 5.841E+01,-7.117E+01, 1.756E-01, 1.934E-02, 1.982E+02
 5.400E+02, 1.315E+02, 1.368E+02, 1.440E+02, 1.913E+02, 5.913E+01, 1.554E+02, 1.966E+02, 5.856E+01,-6.027E+01, 1.753E-01, 1.952E-02, 1.992E+02
 5.500E+02, 1.315E+02, 1.373E+02, 1.443E+02, 1.908E+02, 5.944E+01, 1.561E+02, 1.953E+02, 6.068E+01,-6.195E+01, 1.738E-01, 2.035E-02, 2.010E+02
 5.600E+02, 1.325E+02, 1.371E+02, 1.464E+02, 1.915E+02, 5.960E+01, 1.560E+02, 1.940E+02, 6.129E+01,-6.211E+01, 1.733E-01, 2.063E-02, 1.985E+02
 5.700E+02, 1.336E+02, 1.377E+02, 1.461E+02, 1.943E+02, 6.034E+01, 1.564E+02, 1.972E+02, 5.951E+01,-6.718E+01, 1.727E-01, 2.098E-02, 2.004E+02
 5.800E+02, 1.325E+02, 1.371E+02, 1.463E+02, 1.917E+02, 5.955E+01, 1.553E+02, 1.962E+02, 5.960E+01,-6.967E+01, 1.716E-01, 2.158E-02, 1.981E+02
 5.900E+02, 1.331E+02, 1.398E+02, 1.464E+02, 1.929E+02, 6.000E+01, 1.563E+02, 2.020E+02, 6.103E+01,-6.989E+01, 1.711E-01, 2.189E-02, 1.979E+02
 6.000E+02, 1.329E+02, 1.398E+02, 1.442E+02, 1.942E+02, 6.017E+01, 1.548E+02, 2.037E+02, 6.105E+01,-6.543E+01, 1.702E-01, 2.238E-02, 1.975E+02
 6.100E+02, 1.343E+02, 1.386E+02, 1.468E+02, 1.953E+02, 6.075E+01, 1.542E+02, 2.012E+02, 6.054E+01,-6.945E+01, 1.694E-01, 2.281E-02, 1.949E+02
 6.200E+02, 1.340E+02, 1.406E+02, 1.471E+02, 1.936E+02, 6.118E+01, 1.560E+02, 2.040E+02, 6.185E+01,-5.958E+01, 1.687E-01, 2.321E-02, 2.067E+02
 6.300E+02, 1.370E+02, 1.394E+02, 1.485E+02, 2.000E+02, 6.246E+01, 1.572E+02, 1.998E+02, 6.122E+01,-6.626E+01, 1.680E-01, 2.359E-02, 1.998E+02
 6.400E+02, 1.337E+02, 1.419E+02, 1.457E+02, 1.933E+02, 6.206E+01, 1.587E+02, 2.055E+02, 6.162E+01,-7.321E+01, 1.675E-01, 2.390E-02, 1.973E+02
 6.500E+02, 1.336E+02, 1.385E+02, 1.465E+02, 1.928E+02, 6.144E+01, 1.543E+02, 2.009E+02, 6.044E+01,-6.249E+01, 1.671E-01, 2.413E-02, 2.009E+02
 6.600E+02, 1.338E+02, 1.429E+02, 1.464E+02, 1.934E+02, 6.174E+01, 1.593E+02, 2.067E+02, 6.251E+01,-6.700E+01, 1.661E-01, 2.464E-02, 2.017E+02
 6.700E+02, 1.366E+02, 1.403E+02, 1.494E+02, 1.989E+02, 6.138E+01, 1.581E+02, 2.017E+02, 6.102E+01,-7.285E+01, 1.658E-01, 2.481E-02, 1.964E+02
 6.800E+02, 1.361E+02, 1.414E+02, 1.479E+02, 1.987E+02, 6.163E+01, 1.623E+02, 2.013E+02, 6.048E+01,-6.640E+01, 1.653E-01, 2.512E-02, 1.991E+02
 6.900E+02, 1.352E+02, 1.418E+02, 1.485E+02, 1.955E+02, 6.160E+01, 1.626E+02, 2.014E+02, 6.148E+01,-5.817E+01, 1.639E-01, 2.587E-02, 2.020E+02
 7.000E+02, 1.370E+02, 1.414E+02, 1.493E+02, 1.996E+02, 6.203E+01, 1.614E+02, 2.014E+02, 6.157E+01,-8.149E+01, 1.636E-01, 2.609E-02, 1.926E+02
 7.100E+02, 1.371E+02, 1.418E+02, 1.492E+02, 1.988E+02, 6.327E+01, 1.602E+02, 2.024E+02, 6.290E+01,-5.859E+01, 1.633E-01, 2.624E-02, 2.056E+02
 7.200E+02, 1.370E+02, 1.438E+02, 1.493E+02, 1.988E+02, 6.280E+01, 1.596E+02, 2.079E+02, 6.374E+01,-6.930E+01, 1.629E-01, 2.646E-02, 1.956E+02
 7.300E+02, 1.374E+02, 1.435E+02, 1.497E+02, 1.988E+02, 6.361E+01, 1.600E+02, 2.077E+02, 6.280E+01,-6.022E+01, 1.622E-01, 2.687E-02, 2.026E+02
 7.400E+02, 1.384E+02, 1.426E+02, 1.500E+02, 2.015E+02, 6.376E+01, 1.599E+02, 2.058E+02, 6.205E+01,-6.828E+01, 1.617E-01, 2.714E-02, 2.002E+02
 7.500E+02, 1.381E+02, 1.440E+02, 1.503E+02, 2.013E+02, 6.275E+01, 1.596E+02, 2.087E+02, 6.374E+01,-6.621E+01, 1.610E-01, 2.749E-02, 1.973E+02
 7.600E+02, 1.377E+02, 1.444E+02, 1.498E+02, 1.994E+02, 6.384E+01, 1.582E+02, 2.111E+02, 6.384E+01,-6.536E+01, 1.606E-01, 2.774E-02, 1.977E+02
 7.700E+02, 1.385E+02, 1.445E+02, 1.512E+02, 1.991E+02, 6.522E+01, 1.589E+02, 2.093E+02, 6.537E+01,-6.112E+01, 1.598E-01, 2.820E-02, 2.039E+02
 7.800E+02, 1.394E+02, 1.437E+02, 1.531E+02, 1.996E+02, 6.548E+01, 1.629E+02, 2.047E+02, 6.353E+01,-6.869E+01, 1.595E-01, 2.838E-02, 1.983E+02
 7.900E+02, 1.400E+02, 1.434E+02, 1.545E+02, 1.999E+02, 6.546E+01, 1.586E+02, 2.072E+02, 6.438E+01,-7.205E+01, 1.586E-01, 2.885E-02, 1.963E+02
 8.000E+02, 1.397E+02, 1.441E+02, 1.526E+02, 2.019E+02, 6.476E+01, 1.606E+02, 2.076E+02, 6.415E+01,-6.520E+01, 1.584E-01, 2.894E-02, 1.995E+02
 8.100E+02, 1.396E+02, 1.462E+02, 1.530E+02, 2.010E+02, 6.472E+01, 1.652E+02, 2.083E+02, 6.498E+01,-6.596E+01, 1.580E-01, 2.919E-02, 2.016E+02
 8.200E+02, 1.392E+02, 1.466E+02, 1.503E+02, 2.029E+02, 6.444E+01, 1.664E+02, 2.090E+02, 6.450E+01,-6.078E+01, 1.577E-01, 2.934E-02, 2.019E+02
 8.300E+02, 1.395E+02, 1.433E+02, 1.520E+02, 2.014E+02, 6.527E+01, 1.616E+02, 2.036E+02, 6.460E+01,-5.578E+01, 1.572E-01, 2.963E-02, 1.994E+02
 8.400E+02, 1.417E+02, 1.458E+02, 1.578E+02, 2.018E+02, 6.560E+01, 1.667E+02, 2.053E+02, 6.533E+01,-6.356E+01, 1.569E-01, 2.979E-02, 2.006E+02
 8.500E+02, 1.415E+02, 1.479E+02, 1.553E+02, 2.032E+02, 6.584E+01, 1.711E+02, 2.075E+02, 6.509E+01,-7.201E+01, 1.564E-01, 3.006E-02, 1.923E+02
 8.600E+02, 1.421E+02, 1.472E+02, 1.539E+02, 2.052E+02, 6.711E+01, 1.688E+02, 2.072E+02, 6.555E+01,-6.431E+01, 1.556E-01, 3.052E-02, 2.030E+02
 8.700E+02, 1.414E+02, 1.481E+02, 1.550E+02, 2.022E+02, 6.701E+01, 1.663E+02, 2.121E+02, 6.602E+01,-7.517E+01, 1.555E-01, 3.056E-02, 1.938E+02
 8.800E+02, 1.416E+02, 1.487E+02, 1.554E+02, 2.028E+02, 6.659E+01, 1.673E+02, 2.133E+02, 6.554E+01,-6.030E+01, 1.553E-01, 3.072E-02, 2.003E+02
 8.900E+02, 1.436E+02, 1.482E+02, 1.554E+02, 2.080E+02, 6.739E+01, 1.655E+02, 2.118E+02, 6.737E+01,-6.043E+01, 1.550E-01, 3.085E-02, 2.019E+02
 9.000E+02, 1.449E+02, 1.481E+02, 1.569E+02, 2.094E+02, 6.848E+01, 1.635E+02, 2.130E+02, 6.766E+01,-7.330E+01, 1.545E-01, 3.112E-02, 1.988E+02
 9.100E+02, 1.449E+02, 1.491E+02, 1.572E+02, 2.091E+02, 6.834E+01, 1.679E+02, 2.119E+02, 6.734E+01,-6.039E+01, 1.543E-01, 3.124E-02, 2.021E+02
 9.200E+02, 1.423E+02, 1.502E+02, 1.552E+02, 2.025E+02, 6.907E+01, 1.675E+02, 2.162E+02, 6.687E+01,-6.846E+01, 1.539E-01, 3.148E-02, 1.976E+02
 9.300E+02, 1.424E+02, 1.475E+02, 1.557E+02, 2.043E+02, 6.724E+01, 1.627E+02, 2.121E+02, 6.757E+01,-6.298E+01, 1.537E-01, 3.161E-02, 2.017E+02
 9.400E+02, 1.427E+02, 1.484E+02, 1.553E+02, 2.052E+02, 6.755E+01, 1.679E+02, 2.114E+02, 6.592E+01,-6.490E+01, 1.536E-01, 3.163E-02, 1.978E+02
 9.500E+02, 1.440E+02, 1.479E+02, 1.562E+02, 2.083E+02, 6.770E+01, 1.674E+02, 2.098E+02, 6.645E+01,-6.295E+01, 1.533E-01, 3.184E-02, 2.001E+02
 9.600E+02, 1.437E+02, 1.478E+02, 1.572E+02, 2.068E+02, 6.701E+01, 1.632E+02, 2.129E+02, 6.741E+01,-5.847E+01, 1.530E-01, 3.196E-02, 2.005E+02
 9.700E+02, 1.450E+02, 1.494E+02, 1.593E+02, 2.075E+02, 6.812E+01, 1.693E+02, 2.106E+02, 6.833E+01,-6.237E+01, 1.525E-01, 3.226E-02, 1.959E+02
 9.800E+02, 1.440E+02, 1.502E+02, 1.554E+02, 2.075E+02, 6.924E+01, 1.695E+02, 2.125E+02, 6.846E+01,-6.245E+01, 1.523E-01, 3.240E-02, 2.030E+02
 9.900E+02, 1.430E+02, 1.519E+02, 1.554E+02, 2.056E+02, 6.805E+01, 1.735E+02, 2.149E+02, 6.721E+01,-7.133E+01, 1.519E-01, 3.262E-02, 1.963E+02
 1.000E+03, 1.441E+02, 1.526E+02, 1.566E+02, 2.064E+02, 6.929E+01, 1.710E+02, 2.179E+02, 6.884E+01,-6.209E+01, 1.515E-01, 3.285E-02, 1.978E+02
 1.010E+03, 1.448E+02, 1.510E+02, 1.582E+02, 2.068E+02, 6.920E+01, 1.705E+02, 2.136E+02, 6.886E+01,-6.200E+01, 1.512E-01, 3.297E-02, 2.010E+02
 1.020E+03, 1.454E+02, 1.516E+02, 1.583E+02, 2.074E+02, 7.044E+01, 1.723E+02, 2.142E+02, 6.832E+01,-6.904E+01, 1.509E-01, 3.315E-02, 1.998E+02
 1.030E+03, 1.461E+02, 1.527E+02, 1.576E+02, 2.101E+02, 7.055E+01, 1.721E+02, 2.164E+02, 6.954E+01,-6.100E+01, 1.506E-01, 3.331E-02, 1.977E+02
 1.040E+03, 1.466E+02, 1.528E+02, 1.599E+02, 2.098E+02, 7.019E+01, 1.679E+02, 2.216E+02, 6.891E+01,-6.525E+01, 1.507E-01, 3.330E-02, 2.012E+02
 1.050E+03, 1.454E+02, 1.533E+02, 1.580E+02, 2.088E+02, 6.951E+01, 1.716E+02, 2.184E+02, 6.983E+01,-5.902E+01, 1.506E-01, 3.332E-02, 1.995E+02
 1.060E+03, 1.461E+02, 1.529E+02, 1.573E+02, 2.098E+02, 7.133E+01, 1.687E+02, 2.197E+02, 7.026E+01,-6.557E+01, 1.503E-01, 3.351E-02, 2.004E+02
 1.070E+03, 1.452E+02, 1.536E+02, 1.601E+02, 2.045E+02, 7.096E+01, 1.714E+02, 2.204E+02, 6.901E+01,-6.312E+01, 1.501E-01, 3.360E-02, 1.967E+02
 1.080E+03, 1.477E+02, 1.526E+02, 1.621E+02, 2.086E+02, 7.246E+01, 1.718E+02, 2.150E+02, 7.100E+01,-6.467E+01, 1.498E-01, 3.380E-02, 2.017E+02
 1.090E+03, 1.478E+02, 1.517E+02, 1.621E+02, 2.090E+02, 7.230E+01, 1.688E+02, 2.155E+02, 7.080E+01,-5.880E+01, 1.496E-01, 3.386E-02, 1.998E+02
 1.100E+03, 1.487E+02, 1.493E+02, 1.605E+02, 2.115E+02, 7.402E+01, 1.660E+02, 2.114E+02, 7.054E+01,-5.917E+01, 1.493E-01, 3.404E-02, 2.011E+02
 1.110E+03, 1.472E+02, 1.534E+02, 1.600E+02, 2.088E+02, 7.284E+01, 1.756E+02, 2.125E+02, 7.218E+01,-6.698E+01, 1.490E-01, 3.424E-02, 1.980E+02
 1.120E+03, 1.482E+02, 1.527E+02, 1.620E+02, 2.098E+02, 7.293E+01, 1.739E+02, 2.126E+02, 7.151E+01,-6.837E+01, 1.491E-01, 3.418E-02, 1.969E+02
 1.130E+03, 1.489E+02, 1.532E+02, 1.622E+02, 2.121E+02, 7.230E+01, 1.756E+02, 2.127E+02, 7.121E+01,-6.463E+01, 1.488E-01, 3.432E-02, 2.008E+02
 1.140E+03, 1.496E+02, 1.518E+02, 1.648E+02, 2.113E+02, 7.267E+01, 1.713E+02, 2.144E+02, 6.978E+01,-6.611E+01, 1.488E-01, 3.435E-02, 1.996E+02
 1.150E+03, 1.511E+02, 1.518E+02, 1.632E+02, 2.176E+02, 7.232E+01, 1.679E+02, 2.168E+02, 7.056E+01,-5.798E+01, 1.485E-01, 3.452E-02, 1.998E+02
 1.160E+03, 1.508E+02, 1.544E+02, 1.639E+02, 2.144E+02, 7.396E+01, 1.754E+02, 2.170E+02, 7.092E+01,-7.022E+01, 1.484E-01, 3.457E-02, 1.953E+02
 1.170E+03, 1.490E+02, 1.533E+02, 1.605E+02, 2.136E+02, 7.284E+01, 1.729E+02, 2.146E+02, 7.231E+01,-6.207E+01, 1.481E-01, 3.470E-02, 2.003E+02
 1.180E+03, 1.487E+02, 1.538E+02, 1.607E+02, 2.114E+02, 7.393E+01, 1.742E+02, 2.154E+02, 7.185E+01,-6.271E+01, 1.483E-01, 3.460E-02, 1.989E+02
 1.190E+03, 1.496E+02, 1.543E+02, 1.634E+02, 2.115E+02, 7.394E+01, 1.720E+02, 2.180E+02, 7.297E+01,-6.402E+01, 1.481E-01, 3.470E-02, 1.961E+02
 1.200E+03, 1.489E+02, 1.559E+02, 1.633E+02, 2.098E+02, 7.345E+01, 1.743E+02, 2.199E+02, 7.345E+01,-6.123E+01, 1.479E-01, 3.486E-02, 2.049E+02
 1.210E+03, 1.503E+02, 1.564E+02, 1.641E+02, 2.127E+02, 7.403E+01, 1.723E+02, 2.242E+02, 7.280E+01,-5.834E+01, 1.477E-01, 3.492E-02, 1.968E+02
 1.220E+03, 1.528E+02, 1.562E+02, 1.666E+02, 2.150E+02, 7.673E+01, 1.754E+02, 2.193E+02, 7.387E+01,-7.526E+01, 1.474E-01, 3.514E-02, 2.008E+02
 1.230E+03, 1.513E+02, 1.558E+02, 1.617E+02, 2.172E+02, 7.487E+01, 1.765E+02, 2.179E+02, 7.301E+01,-6.819E+01, 1.474E-01, 3.512E-02, 2.004E+02
 1.240E+03, 1.502E+02, 1.557E+02, 1.617E+02, 2.145E+02, 7.447E+01, 1.749E+02, 2.198E+02, 7.252E+01,-6.519E+01, 1.472E-01, 3.523E-02, 1.980E+02
 1.250E+03, 1.510E+02, 1.564E+02, 1.609E+02, 2.168E+02, 7.536E+01, 1.759E+02, 2.198E+02, 7.354E+01,-5.963E+01, 1.472E-01, 3.520E-02, 2.025E+02
 1.260E+03, 1.497E+02, 1.578E+02, 1.614E+02, 2.144E+02, 7.339E+01, 1.764E+02, 2.225E+02, 7.448E+01,-6.613E+01, 1.470E-01, 3.532E-02, 1.966E+02
 1.270E+03, 1.527E+02, 1.555E+02, 1.640E+02, 2.167E+02, 7.753E+01, 1.746E+02, 2.187E+02, 7.325E+01,-6.909E+01, 1.471E-01, 3.529E-02, 1.957E+02
 1.280E+03, 1.510E+02, 1.569E+02, 1.637E+02, 2.137E+02, 7.548E+01, 1.771E+02, 2.191E+02, 7.454E+01,-6.192E+01, 1.471E-01, 3.531E-02, 2.056E+02
 1.290E+03, 1.516E+02, 1.571E+02, 1.634E+02, 2.156E+02, 7.574E+01, 1.753E+02, 2.225E+02, 7.361E+01,-6.433E+01, 1.469E-01, 3.537E-02, 1.944E+02
 1.300E+03, 1.530E+02, 1.568E+02, 1.643E+02, 2.182E+02, 7.654E+01, 1.749E+02, 2.218E+02, 7.381E+01,-6.234E+01, 1.467E-01, 3.550E-02, 2.010E+02
 1.310E+03, 1.522E+02, 1.582E+02, 1.626E+02, 2.182E+02, 7.569E+01, 1.769E+02, 2.225E+02, 7.525E+01,-6.474E+01, 1.467E-01, 3.549E-02, 2.010E+02
