s,C,C,C,C,C,C,C,C,Pa,mol/mol,mol/mol,kW
Time,West_All_TCs,East_All_TCs,West_Bottom_TCs,West_Middle_TCs,West_Upper_TCs,East_Bottom_TCs,East_Middle_TCs,East_Upper_TCs,Pressure,O2,CO2,HRR
-6.000E+01, 3.100E+01, 3.100E+01, 3.100E+01, 3.100E+01, 3.100E+01, 3.100E+01, 3.100E+01, 3.100E+01,-9.418E-06, 2.095E-01, 3.901E-04, 0.000E+00
-4.999E+01, 3.100E+01, 3.100E+01, 3.100E+01, 3.100E+01, 3.100E+01, 3.100E+01, 3.100E+01, 3.100E+01,-6.761E-04, 2.095E-01, 3.901E-04, 0.000E+00
-3.999E+01, 3.100E+01, 3.100E+01, 3.100E+01, 3.100E+01, 3.100E+01, 3.100E+01, 3.100E+01, 3.100E+01,-3.021E-05, 2.095E-01, 3.901E-04, 0.000E+00
-2.998E+01, 3.100E+01, 3.100E+01, 3.100E+01, 3.100E+01, 3.100E+01, 3.100E+01, 3.100E+01, 3.100E+01,-2.564E-05, 2.095E-01, 3.901E-04, 0.000E+00
-1.997E+01, 3.100E+01, 3.100E+01, 3.100E+01, 3.100E+01, 3.100E+01, 3.100E+01, 3.100E+01, 3.100E+01,-2.598E-05, 2.095E-01, 3.901E-04, 0.000E+00
-9.967E+00, 3.100E+01, 3.100E+01, 3.100E+01, 3.100E+01, 3.100E+01, 3.100E+01, 3.100E+01, 3.100E+01,-2.680E-05, 2.095E-01, 3.901E-04, 0.000E+00
 3.957E-02, 3.100E+01, 3.100E+01, 3.100E+01, 3.100E+01, 3.100E+01, 3.100E+01, 3.100E+01, 3.100E+01,-2.153E-05, 2.095E-01, 3.901E-04, 7.029E-04
 1.002E+01, 3.162E+01, 3.156E+01, 3.162E+01, 3.127E+01, 3.197E+01, 3.179E+01, 3.132E+01, 3.158E+01, 1.542E+01, 2.094E-01, 4.815E-04, 3.315E+01
 2.001E+01, 3.426E+01, 3.448E+01, 3.301E+01, 3.267E+01, 3.710E+01, 3.357E+01, 3.275E+01, 3.713E+01, 8.715E+01, 2.083E-01, 1.103E-03, 9.933E+01
 3.001E+01, 4.167E+01, 4.231E+01, 3.496E+01, 3.930E+01, 5.074E+01, 3.622E+01, 3.986E+01, 5.084E+01, 2.080E+02, 2.070E-01, 1.820E-03, 1.660E+02
 4.001E+01, 5.449E+01, 5.440E+01, 3.963E+01, 5.369E+01, 7.014E+01, 4.041E+01, 5.414E+01, 6.865E+01, 2.736E+02, 2.053E-01, 2.788E-03, 2.003E+02
 5.001E+01, 6.712E+01, 6.800E+01, 4.628E+01, 6.970E+01, 8.538E+01, 4.720E+01, 6.904E+01, 8.776E+01, 2.293E+02, 2.028E-01, 4.132E-03, 2.004E+02
 6.001E+01, 7.839E+01, 8.080E+01, 5.586E+01, 8.504E+01, 9.426E+01, 5.692E+01, 8.561E+01, 9.988E+01, 1.829E+02, 2.016E-01, 4.805E-03, 2.003E+02
 7.000E+01, 8.957E+01, 9.017E+01, 6.588E+01, 9.764E+01, 1.052E+02, 6.785E+01, 9.610E+01, 1.066E+02, 1.421E+02, 2.003E-01, 5.544E-03, 2.004E+02
 8.001E+01, 9.810E+01, 9.878E+01, 7.549E+01, 1.060E+02, 1.129E+02, 7.798E+01, 1.044E+02, 1.139E+02, 1.062E+02, 1.993E-01, 6.141E-03, 2.004E+02
 9.002E+01, 1.077E+02, 1.079E+02, 8.471E+01, 1.161E+02, 1.222E+02, 8.697E+01, 1.141E+02, 1.226E+02, 8.078E+01, 1.976E-01, 7.040E-03, 2.004E+02
 1.000E+02, 1.140E+02, 1.157E+02, 9.295E+01, 1.208E+02, 1.283E+02, 9.412E+01, 1.233E+02, 1.298E+02, 6.110E+01, 1.966E-01, 7.624E-03, 2.007E+02
 1.100E+02, 1.191E+02, 1.215E+02, 1.011E+02, 1.255E+02, 1.307E+02, 1.007E+02, 1.276E+02, 1.363E+02, 4.604E+01, 1.950E-01, 8.526E-03, 2.008E+02
 1.200E+02, 1.259E+02, 1.259E+02, 1.046E+02, 1.316E+02, 1.416E+02, 1.079E+02, 1.287E+02, 1.410E+02, 3.411E+01, 1.935E-01, 9.377E-03, 2.003E+02
 1.300E+02, 1.295E+02, 1.314E+02, 1.087E+02, 1.363E+02, 1.434E+02, 1.127E+02, 1.367E+02, 1.447E+02, 2.673E+01, 1.919E-01, 1.026E-02, 2.008E+02
 1.400E+02, 1.339E+02, 1.348E+02, 1.148E+02, 1.378E+02, 1.491E+02, 1.143E+02, 1.394E+02, 1.506E+02, 2.165E+01, 1.902E-01, 1.120E-02, 1.999E+02
 1.500E+02, 1.363E+02, 1.371E+02, 1.171E+02, 1.421E+02, 1.496E+02, 1.186E+02, 1.415E+02, 1.514E+02, 1.894E+01, 1.891E-01, 1.179E-02, 2.006E+02
 1.600E+02, 1.392E+02, 1.385E+02, 1.196E+02, 1.439E+02, 1.542E+02, 1.199E+02, 1.448E+02, 1.507E+02, 1.618E+01, 1.878E-01, 1.254E-02, 2.002E+02
 1.700E+02, 1.402E+02, 1.405E+02, 1.214E+02, 1.463E+02, 1.529E+02, 1.228E+02, 1.461E+02, 1.525E+02, 1.444E+01, 1.864E-01, 1.332E-02, 2.002E+02
 1.800E+02, 1.425E+02, 1.430E+02, 1.244E+02, 1.472E+02, 1.559E+02, 1.233E+02, 1.470E+02, 1.588E+02, 1.412E+01, 1.847E-01, 1.425E-02, 2.005E+02
 1.900E+02, 1.434E+02, 1.432E+02, 1.271E+02, 1.478E+02, 1.551E+02, 1.248E+02, 1.479E+02, 1.571E+02, 1.357E+01, 1.832E-01, 1.509E-02, 2.006E+02
 2.000E+02, 1.462E+02, 1.447E+02, 1.288E+02, 1.504E+02, 1.593E+02, 1.286E+02, 1.475E+02, 1.580E+02, 1.339E+01, 1.819E-01, 1.584E-02, 2.011E+02
 2.100E+02, 1.483E+02, 1.449E+02, 1.298E+02, 1.522E+02, 1.630E+02, 1.278E+02, 1.484E+02, 1.584E+02, 1.304E+01, 1.807E-01, 1.650E-02, 2.001E+02
 2.200E+02, 1.498E+02, 1.463E+02, 1.318E+02, 1.539E+02, 1.637E+02, 1.304E+02, 1.500E+02, 1.583E+02, 1.314E+01, 1.788E-01, 1.755E-02, 2.009E+02
 2.300E+02, 1.518E+02, 1.462E+02, 1.355E+02, 1.554E+02, 1.644E+02, 1.315E+02, 1.501E+02, 1.570E+02, 1.265E+01, 1.776E-01, 1.823E-02, 2.003E+02
 2.400E+02, 1.517E+02, 1.454E+02, 1.356E+02, 1.530E+02, 1.664E+02, 1.311E+02, 1.484E+02, 1.567E+02, 1.244E+01, 1.761E-01, 1.905E-02, 2.009E+02
 2.500E+02, 1.486E+02, 1.485E+02, 1.343E+02, 1.507E+02, 1.609E+02, 1.339E+02, 1.501E+02, 1.616E+02, 1.231E+01, 1.740E-01, 2.025E-02, 1.999E+02
 2.600E+02, 1.490E+02, 1.492E+02, 1.342E+02, 1.510E+02, 1.619E+02, 1.369E+02, 1.519E+02, 1.588E+02, 1.276E+01, 1.724E-01, 2.113E-02, 2.002E+02
 2.700E+02, 1.481E+02, 1.509E+02, 1.331E+02, 1.498E+02, 1.613E+02, 1.365E+02, 1.551E+02, 1.612E+02, 1.260E+01, 1.705E-01, 2.221E-02, 2.008E+02
 2.800E+02, 1.475E+02, 1.516E+02, 1.339E+02, 1.498E+02, 1.587E+02, 1.382E+02, 1.526E+02, 1.641E+02, 1.221E+01, 1.682E-01, 2.351E-02, 2.003E+02
 2.900E+02, 1.482E+02, 1.507E+02, 1.332E+02, 1.500E+02, 1.614E+02, 1.367E+02, 1.533E+02, 1.621E+02, 1.219E+01, 1.668E-01, 2.426E-02, 1.989E+02
 3.000E+02, 1.489E+02, 1.523E+02, 1.355E+02, 1.515E+02, 1.596E+02, 1.369E+02, 1.541E+02, 1.658E+02, 1.310E+01, 1.650E-01, 2.529E-02, 1.997E+02
 3.100E+02, 1.493E+02, 1.519E+02, 1.373E+02, 1.516E+02, 1.590E+02, 1.369E+02, 1.533E+02, 1.655E+02, 1.254E+01, 1.640E-01, 2.583E-02, 2.001E+02
 3.200E+02, 1.511E+02, 1.513E+02, 1.425E+02, 1.530E+02, 1.578E+02, 1.336E+02, 1.509E+02, 1.693E+02, 1.262E+01, 1.618E-01, 2.706E-02, 1.999E+02
 3.300E+02, 1.530E+02, 1.504E+02, 1.434E+02, 1.541E+02, 1.615E+02, 1.348E+02, 1.510E+02, 1.654E+02, 1.216E+01, 1.610E-01, 2.750E-02, 1.982E+02
 3.400E+02, 1.519E+02, 1.529E+02, 1.371E+02, 1.535E+02, 1.651E+02, 1.382E+02, 1.555E+02, 1.649E+02, 1.263E+01, 1.592E-01, 2.851E-02, 2.007E+02
 3.500E+02, 1.528E+02, 1.507E+02, 1.373E+02, 1.545E+02, 1.666E+02, 1.365E+02, 1.523E+02, 1.633E+02, 1.257E+01, 1.575E-01, 2.946E-02, 2.000E+02
 3.600E+02, 1.540E+02, 1.536E+02, 1.400E+02, 1.568E+02, 1.652E+02, 1.403E+02, 1.565E+02, 1.640E+02, 1.280E+01, 1.559E-01, 3.034E-02, 1.999E+02
 3.700E+02, 1.520E+02, 1.526E+02, 1.358E+02, 1.537E+02, 1.666E+02, 1.382E+02, 1.555E+02, 1.641E+02, 1.214E+01, 1.541E-01, 3.134E-02, 1.997E+02
 3.800E+02, 1.512E+02, 1.542E+02, 1.363E+02, 1.529E+02, 1.644E+02, 1.393E+02, 1.576E+02, 1.658E+02, 1.277E+01, 1.522E-01, 3.245E-02, 1.994E+02
 3.900E+02, 1.513E+02, 1.530E+02, 1.352E+02, 1.548E+02, 1.639E+02, 1.368E+02, 1.561E+02, 1.661E+02, 1.292E+01, 1.505E-01, 3.338E-02, 2.004E+02
 4.000E+02, 1.523E+02, 1.556E+02, 1.361E+02, 1.552E+02, 1.656E+02, 1.390E+02, 1.592E+02, 1.686E+02, 1.236E+01, 1.486E-01, 3.443E-02, 1.985E+02
 4.100E+02, 1.522E+02, 1.544E+02, 1.384E+02, 1.550E+02, 1.632E+02, 1.365E+02, 1.576E+02, 1.690E+02, 1.279E+01, 1.469E-01, 3.542E-02, 2.009E+02
 4.200E+02, 1.536E+02, 1.547E+02, 1.393E+02, 1.571E+02, 1.643E+02, 1.388E+02, 1.562E+02, 1.692E+02, 1.256E+01, 1.458E-01, 3.602E-02, 2.002E+02
 4.300E+02, 1.559E+02, 1.541E+02, 1.418E+02, 1.601E+02, 1.657E+02, 1.376E+02, 1.569E+02, 1.679E+02, 1.290E+01, 1.441E-01, 3.698E-02, 2.000E+02
 4.400E+02, 1.552E+02, 1.533E+02, 1.395E+02, 1.587E+02, 1.674E+02, 1.368E+02, 1.556E+02, 1.674E+02, 1.255E+01, 1.424E-01, 3.793E-02, 1.997E+02
 4.500E+02, 1.558E+02, 1.537E+02, 1.390E+02, 1.581E+02, 1.704E+02, 1.405E+02, 1.560E+02, 1.645E+02, 1.294E+01, 1.411E-01, 3.864E-02, 2.000E+02
 4.600E+02, 1.558E+02, 1.545E+02, 1.385E+02, 1.586E+02, 1.701E+02, 1.384E+02, 1.563E+02, 1.687E+02, 1.299E+01, 1.385E-01, 4.007E-02, 1.997E+02
 4.700E+02, 1.584E+02, 1.545E+02, 1.405E+02, 1.618E+02, 1.728E+02, 1.381E+02, 1.562E+02, 1.692E+02, 1.315E+01, 1.375E-01, 4.065E-02, 1.993E+02
 4.800E+02, 1.572E+02, 1.539E+02, 1.403E+02, 1.601E+02, 1.712E+02, 1.394E+02, 1.563E+02, 1.661E+02, 1.149E+01, 1.360E-01, 4.147E-02, 1.930E+02
 4.900E+02, 1.536E+02, 1.540E+02, 1.375E+02, 1.553E+02, 1.681E+02, 1.402E+02, 1.573E+02, 1.644E+02, 1.045E+01, 1.344E-01, 4.238E-02, 1.850E+02
 5.000E+02, 1.518E+02, 1.527E+02, 1.371E+02, 1.540E+02, 1.642E+02, 1.380E+02, 1.555E+02, 1.647E+02,-1.134E+01, 1.327E-01, 4.329E-02, 1.666E+02
 5.100E+02, 1.492E+02, 1.522E+02, 1.351E+02, 1.524E+02, 1.601E+02, 1.362E+02, 1.566E+02, 1.639E+02,-8.926E+00, 1.324E-01, 4.342E-02, 1.495E+02
 5.200E+02, 1.444E+02, 1.479E+02, 1.315E+02, 1.471E+02, 1.545E+02, 1.310E+02, 1.520E+02, 1.608E+02,-1.375E+01, 1.325E-01, 4.333E-02, 1.205E+02
 5.300E+02, 1.406E+02, 1.621E+02, 1.290E+02, 1.434E+02, 1.494E+02, 1.544E+02, 1.673E+02, 1.648E+02,-1.860E+01, 1.328E-01, 4.315E-02, 3.813E+01
 5.400E+02, 1.422E+02, 1.430E+02, 1.340E+02, 1.431E+02, 1.494E+02, 1.333E+02, 1.432E+02, 1.523E+02,-9.856E+00, 1.331E-01, 4.296E-02, 3.160E-01
 5.500E+02, 1.374E+02, 1.346E+02, 1.303E+02, 1.396E+02, 1.423E+02, 1.235E+02, 1.370E+02, 1.433E+02, 1.061E+01, 1.332E-01, 4.279E-02, 6.995E+01
 5.600E+02, 1.336E+02, 1.466E+02, 1.292E+02, 1.333E+02, 1.383E+02, 1.415E+02, 1.490E+02, 1.493E+02,-2.043E+01, 1.328E-01, 4.301E-02, 4.970E+01
 5.700E+02, 1.290E+02, 1.370E+02, 1.235E+02, 1.298E+02, 1.336E+02, 1.329E+02, 1.359E+02, 1.420E+02, 2.927E+00, 1.333E-01, 4.263E-02, 2.862E+01
 5.800E+02, 1.282E+02, 1.267E+02, 1.234E+02, 1.286E+02, 1.324E+02, 1.186E+02, 1.269E+02, 1.346E+02,-7.006E+00, 1.343E-01, 4.216E-02, 0.000E+00
 5.900E+02, 1.240E+02, 1.417E+02, 1.165E+02, 1.265E+02, 1.289E+02, 1.500E+02, 1.388E+02, 1.364E+02,-2.573E+00, 1.337E-01, 4.240E-02, 8.683E-02
 6.000E+02, 1.213E+02, 1.237E+02, 1.158E+02, 1.223E+02, 1.256E+02, 1.201E+02, 1.223E+02, 1.286E+02, 1.540E+00, 1.348E-01, 4.176E-02, 2.988E-02
 6.100E+02, 1.186E+02, 1.174E+02, 1.137E+02, 1.200E+02, 1.221E+02, 1.115E+02, 1.171E+02, 1.234E+02,-2.987E+00, 1.339E-01, 4.215E-02, 0.000E+00
 6.200E+02, 1.159E+02, 1.161E+02, 1.126E+02, 1.159E+02, 1.193E+02, 1.144E+02, 1.142E+02, 1.197E+02,-2.262E-02, 1.337E-01, 4.221E-02, 0.000E+00
 6.300E+02, 1.115E+02, 1.262E+02, 1.057E+02, 1.129E+02, 1.159E+02, 1.322E+02, 1.255E+02, 1.208E+02,-2.695E-01, 1.342E-01, 4.198E-02, 2.441E-02
 6.400E+02, 1.091E+02, 1.117E+02, 1.037E+02, 1.107E+02, 1.130E+02, 1.071E+02, 1.116E+02, 1.163E+02, 4.157E+00, 1.340E-01, 4.194E-02, 0.000E+00
 6.500E+02, 1.087E+02, 1.078E+02, 1.053E+02, 1.096E+02, 1.113E+02, 1.027E+02, 1.079E+02, 1.128E+02, 3.550E+00, 1.335E-01, 4.212E-02, 0.000E+00
 6.600E+02, 1.066E+02, 1.060E+02, 1.025E+02, 1.077E+02, 1.097E+02, 1.013E+02, 1.065E+02, 1.101E+02, 2.509E+00, 1.337E-01, 4.199E-02, 0.000E+00
 6.700E+02, 1.032E+02, 1.170E+02, 9.793E+01, 1.049E+02, 1.069E+02, 1.225E+02, 1.173E+02, 1.111E+02, 3.831E+00, 1.339E-01, 4.185E-02, 0.000E+00
 6.800E+02, 1.017E+02, 1.031E+02, 9.673E+01, 1.029E+02, 1.053E+02, 9.775E+01, 1.038E+02, 1.079E+02, 5.083E+00, 1.336E-01, 4.192E-02, 0.000E+00
 6.900E+02, 1.009E+02, 1.000E+02, 9.588E+01, 1.021E+02, 1.047E+02, 9.531E+01, 1.008E+02, 1.040E+02, 4.310E+00, 1.335E-01, 4.192E-02, 0.000E+00
 7.000E+02, 9.994E+01, 9.782E+01, 9.554E+01, 1.012E+02, 1.030E+02, 9.274E+01, 9.863E+01, 1.021E+02, 4.414E+00, 1.335E-01, 4.190E-02, 0.000E+00
 7.100E+02, 9.706E+01, 9.793E+01, 9.302E+01, 9.832E+01, 9.983E+01, 9.317E+01, 9.848E+01, 1.021E+02, 4.649E+00, 1.334E-01, 4.183E-02, 0.000E+00
 7.200E+02, 9.540E+01, 9.476E+01, 9.169E+01, 9.641E+01, 9.809E+01, 8.905E+01, 9.602E+01, 9.921E+01, 4.727E+00, 1.334E-01, 4.178E-02, 0.000E+00
 7.300E+02, 9.462E+01, 9.420E+01, 9.105E+01, 9.567E+01, 9.714E+01, 8.940E+01, 9.477E+01, 9.845E+01, 4.434E+00, 1.332E-01, 4.176E-02, 0.000E+00
 7.400E+02, 9.324E+01, 9.093E+01, 8.928E+01, 9.436E+01, 9.607E+01, 8.509E+01, 9.138E+01, 9.634E+01, 4.559E+00, 1.333E-01, 4.179E-02, 0.000E+00
 7.500E+02, 9.185E+01, 9.412E+01, 8.857E+01, 9.232E+01, 9.466E+01, 9.318E+01, 9.360E+01, 9.558E+01, 4.811E+00, 1.331E-01, 4.173E-02, 0.000E+00
 7.600E+02, 9.015E+01, 9.046E+01, 8.680E+01, 9.093E+01, 9.272E+01, 8.693E+01, 9.037E+01, 9.408E+01, 5.158E+00, 1.330E-01, 4.172E-02, 0.000E+00
 7.700E+02, 8.968E+01, 8.937E+01, 8.651E+01, 9.002E+01, 9.251E+01, 8.676E+01, 8.902E+01, 9.232E+01, 4.385E+00, 1.329E-01, 4.171E-02, 0.000E+00
 7.800E+02, 8.867E+01, 8.650E+01, 8.620E+01, 8.917E+01, 9.064E+01, 8.211E+01, 8.703E+01, 9.035E+01, 4.599E+00, 1.328E-01, 4.162E-02, 0.000E+00
 7.900E+02, 8.683E+01, 8.719E+01, 8.353E+01, 8.744E+01, 8.952E+01, 8.426E+01, 8.798E+01, 8.931E+01, 4.939E+00, 1.328E-01, 4.159E-02, 0.000E+00
 8.000E+02, 8.523E+01, 9.311E+01, 8.147E+01, 8.626E+01, 8.796E+01, 9.405E+01, 9.369E+01, 9.158E+01, 4.240E+00, 1.326E-01, 4.161E-02, 0.000E+00
 8.100E+02, 8.433E+01, 8.484E+01, 8.081E+01, 8.534E+01, 8.685E+01, 8.150E+01, 8.492E+01, 8.810E+01, 5.050E+00, 1.328E-01, 4.155E-02, 0.000E+00
 8.201E+02, 8.401E+01, 8.317E+01, 8.153E+01, 8.456E+01, 8.595E+01, 7.960E+01, 8.329E+01, 8.663E+01, 4.491E+00, 1.325E-01, 4.149E-02, 0.000E+00
 8.300E+02, 8.324E+01, 8.124E+01, 8.121E+01, 8.396E+01, 8.455E+01, 7.721E+01, 8.159E+01, 8.493E+01, 5.193E+00, 1.326E-01, 4.144E-02, 0.000E+00
 8.400E+02, 8.186E+01, 8.108E+01, 7.962E+01, 8.255E+01, 8.342E+01, 7.838E+01, 8.126E+01, 8.360E+01, 4.702E+00, 1.326E-01, 4.144E-02, 0.000E+00
 8.500E+02, 8.085E+01, 8.141E+01, 7.878E+01, 8.151E+01, 8.225E+01, 7.883E+01, 8.169E+01, 8.370E+01, 4.820E+00, 1.323E-01, 4.136E-02, 0.000E+00
 8.600E+02, 7.987E+01, 7.993E+01, 7.773E+01, 8.049E+01, 8.137E+01, 7.729E+01, 7.978E+01, 8.270E+01, 4.550E+00, 1.322E-01, 4.130E-02, 0.000E+00
 8.700E+02, 7.948E+01, 8.327E+01, 7.781E+01, 7.996E+01, 8.067E+01, 8.154E+01, 8.388E+01, 8.437E+01, 5.232E+00, 1.323E-01, 4.133E-02, 0.000E+00
 8.800E+02, 7.848E+01, 7.849E+01, 7.666E+01, 7.879E+01, 7.999E+01, 7.551E+01, 7.874E+01, 8.123E+01, 4.941E+00, 1.323E-01, 4.128E-02, 0.000E+00
 8.900E+02, 7.794E+01, 7.827E+01, 7.573E+01, 7.833E+01, 7.975E+01, 7.712E+01, 7.764E+01, 8.007E+01, 4.222E+00, 1.322E-01, 4.122E-02, 0.000E+00
 9.000E+02, 7.718E+01, 7.677E+01, 7.574E+01, 7.773E+01, 7.808E+01, 7.448E+01, 7.665E+01, 7.918E+01, 4.973E+00, 1.321E-01, 4.118E-02, 0.000E+00
 9.100E+02, 7.619E+01, 7.549E+01, 7.397E+01, 7.660E+01, 7.799E+01, 7.265E+01, 7.595E+01, 7.787E+01, 5.160E+00, 1.319E-01, 4.114E-02, 0.000E+00
 9.200E+02, 7.559E+01, 7.520E+01, 7.361E+01, 7.598E+01, 7.718E+01, 7.288E+01, 7.534E+01, 7.738E+01, 4.547E+00, 1.321E-01, 4.111E-02, 0.000E+00
 9.300E+02, 7.468E+01, 7.391E+01, 7.245E+01, 7.527E+01, 7.630E+01, 7.088E+01, 7.452E+01, 7.633E+01, 5.190E+00, 1.321E-01, 4.112E-02, 0.000E+00
 9.400E+02, 7.427E+01, 7.324E+01, 7.255E+01, 7.448E+01, 7.579E+01, 7.067E+01, 7.344E+01, 7.561E+01, 4.795E+00, 1.319E-01, 4.104E-02, 0.000E+00
 9.501E+02, 7.362E+01, 7.345E+01, 7.221E+01, 7.382E+01, 7.483E+01, 7.150E+01, 7.335E+01, 7.551E+01, 4.489E+00, 1.316E-01, 4.094E-02, 0.000E+00
 9.600E+02, 7.316E+01, 7.226E+01, 7.180E+01, 7.346E+01, 7.422E+01, 7.022E+01, 7.211E+01, 7.446E+01, 4.925E+00, 1.319E-01, 4.100E-02, 0.000E+00
 9.700E+02, 7.270E+01, 7.165E+01, 7.113E+01, 7.280E+01, 7.417E+01, 6.926E+01, 7.196E+01, 7.374E+01, 5.259E+00, 1.315E-01, 4.086E-02, 0.000E+00
 9.800E+02, 7.225E+01, 7.164E+01, 7.088E+01, 7.266E+01, 7.322E+01, 7.016E+01, 7.160E+01, 7.315E+01, 4.163E+00, 1.316E-01, 4.088E-02, 0.000E+00
 9.900E+02, 7.104E+01, 7.053E+01, 6.910E+01, 7.169E+01, 7.232E+01, 6.821E+01, 7.059E+01, 7.278E+01, 4.765E+00, 1.317E-01, 4.093E-02, 0.000E+00
 1.000E+03, 7.090E+01, 7.041E+01, 6.901E+01, 7.132E+01, 7.239E+01, 6.867E+01, 7.029E+01, 7.226E+01, 4.557E+00, 1.314E-01, 4.082E-02, 0.000E+00
