s,C,C,C,C,C,C,C,C,Pa,mol/mol,mol/mol,kW
Time,"West_All_TCs","East_All_TCs","West_Bottom_TCs","West_Middle_TCs","West_Upper_TCs","East_Bottom_TCs","East_Middle_TCs","East_Upper_TCs","Pressure","O2","CO2","HRR"
-6.000E+01, 2.000E+01, 2.000E+01, 2.000E+01, 2.000E+01, 2.000E+01, 2.000E+01, 2.000E+01, 2.000E+01,-9.803E-06, 2.095E-01, 3.901E-04, 0.000E+00
-4.999E+01, 2.000E+01, 2.000E+01, 2.000E+01, 2.000E+01, 2.000E+01, 2.000E+01, 2.000E+01, 2.000E+01,-7.118E-04, 2.095E-01, 3.901E-04, 0.000E+00
-3.999E+01, 2.000E+01, 2.000E+01, 2.000E+01, 2.000E+01, 2.000E+01, 2.000E+01, 2.000E+01, 2.000E+01,-3.368E-05, 2.095E-01, 3.901E-04, 0.000E+00
-2.998E+01, 2.000E+01, 2.000E+01, 2.000E+01, 2.000E+01, 2.000E+01, 2.000E+01, 2.000E+01, 2.000E+01,-3.033E-05, 2.095E-01, 3.901E-04, 0.000E+00
-1.997E+01, 2.000E+01, 2.000E+01, 2.000E+01, 2.000E+01, 2.000E+01, 2.000E+01, 2.000E+01, 2.000E+01,-3.207E-05, 2.095E-01, 3.901E-04, 0.000E+00
-9.967E+00, 2.000E+01, 2.000E+01, 2.000E+01, 2.000E+01, 2.000E+01, 2.000E+01, 2.000E+01, 2.000E+01,-3.418E-05, 2.095E-01, 3.901E-04, 0.000E+00
 3.957E-02, 2.000E+01, 2.000E+01, 2.000E+01, 2.000E+01, 2.000E+01, 2.000E+01, 2.000E+01, 2.000E+01,-3.317E-05, 2.095E-01, 3.901E-04, 3.536E-04
 1.003E+01, 2.029E+01, 2.049E+01, 2.024E+01, 2.008E+01, 2.056E+01, 2.038E+01, 2.010E+01, 2.100E+01, 4.577E+00, 2.094E-01, 4.489E-04, 1.645E+01
 2.002E+01, 2.199E+01, 2.210E+01, 2.081E+01, 2.032E+01, 2.483E+01, 2.136E+01, 2.040E+01, 2.455E+01, 2.506E+01, 2.091E-01, 6.456E-04, 4.966E+01
 3.000E+01, 2.555E+01, 2.636E+01, 2.163E+01, 2.311E+01, 3.192E+01, 2.266E+01, 2.258E+01, 3.383E+01, 6.203E+01, 2.081E-01, 1.180E-03, 8.302E+01
 4.002E+01, 3.143E+01, 3.210E+01, 2.243E+01, 2.944E+01, 4.241E+01, 2.367E+01, 2.924E+01, 4.338E+01, 8.203E+01, 2.072E-01, 1.725E-03, 1.001E+02
 5.002E+01, 3.747E+01, 3.768E+01, 2.425E+01, 3.796E+01, 5.020E+01, 2.504E+01, 3.727E+01, 5.073E+01, 7.331E+01, 2.063E-01, 2.183E-03, 1.002E+02
 6.001E+01, 4.277E+01, 4.329E+01, 2.627E+01, 4.608E+01, 5.596E+01, 2.778E+01, 4.549E+01, 5.660E+01, 6.392E+01, 2.056E-01, 2.604E-03, 1.002E+02
 7.002E+01, 4.848E+01, 4.856E+01, 3.051E+01, 5.185E+01, 6.307E+01, 3.165E+01, 5.191E+01, 6.211E+01, 5.572E+01, 2.050E-01, 2.908E-03, 1.004E+02
 8.002E+01, 5.347E+01, 5.431E+01, 3.474E+01, 5.734E+01, 6.832E+01, 3.646E+01, 5.774E+01, 6.873E+01, 4.713E+01, 2.045E-01, 3.217E-03, 1.001E+02
 9.002E+01, 5.815E+01, 5.846E+01, 3.966E+01, 6.316E+01, 7.164E+01, 4.045E+01, 6.281E+01, 7.213E+01, 4.028E+01, 2.039E-01, 3.552E-03, 1.004E+02
 1.000E+02, 6.263E+01, 6.339E+01, 4.395E+01, 6.822E+01, 7.571E+01, 4.573E+01, 6.792E+01, 7.652E+01, 3.481E+01, 2.032E-01, 3.951E-03, 1.003E+02
 1.100E+02, 6.674E+01, 6.659E+01, 4.896E+01, 7.167E+01, 7.958E+01, 4.943E+01, 6.933E+01, 8.101E+01, 2.951E+01, 2.025E-01, 4.317E-03, 1.003E+02
 1.200E+02, 6.993E+01, 7.046E+01, 5.246E+01, 7.568E+01, 8.165E+01, 5.380E+01, 7.374E+01, 8.385E+01, 2.486E+01, 2.017E-01, 4.774E-03, 1.004E+02
 1.300E+02, 7.292E+01, 7.346E+01, 5.664E+01, 7.756E+01, 8.455E+01, 5.715E+01, 7.783E+01, 8.539E+01, 2.159E+01, 2.013E-01, 5.009E-03, 1.005E+02
 1.400E+02, 7.552E+01, 7.626E+01, 5.901E+01, 8.015E+01, 8.739E+01, 6.127E+01, 7.886E+01, 8.867E+01, 1.890E+01, 2.008E-01, 5.289E-03, 1.002E+02
 1.500E+02, 7.882E+01, 7.878E+01, 6.421E+01, 8.338E+01, 8.888E+01, 6.351E+01, 8.229E+01, 9.053E+01, 1.636E+01, 2.001E-01, 5.662E-03, 1.003E+02
 1.600E+02, 8.078E+01, 8.192E+01, 6.588E+01, 8.548E+01, 9.098E+01, 6.685E+01, 8.467E+01, 9.424E+01, 1.459E+01, 1.995E-01, 6.009E-03, 1.005E+02
 1.700E+02, 8.276E+01, 8.365E+01, 6.811E+01, 8.687E+01, 9.331E+01, 6.971E+01, 8.541E+01, 9.582E+01, 1.309E+01, 1.989E-01, 6.364E-03, 1.006E+02
 1.800E+02, 8.484E+01, 8.532E+01, 7.023E+01, 8.831E+01, 9.598E+01, 7.081E+01, 8.712E+01, 9.804E+01, 1.195E+01, 1.981E-01, 6.789E-03, 1.005E+02
 1.900E+02, 8.622E+01, 8.709E+01, 7.300E+01, 9.037E+01, 9.528E+01, 7.269E+01, 8.927E+01, 9.931E+01, 1.097E+01, 1.975E-01, 7.127E-03, 1.006E+02
 2.000E+02, 8.830E+01, 8.847E+01, 7.412E+01, 9.318E+01, 9.760E+01, 7.474E+01, 8.948E+01, 1.012E+02, 1.007E+01, 1.969E-01, 7.467E-03, 1.002E+02
 2.100E+02, 8.889E+01, 8.999E+01, 7.470E+01, 9.319E+01, 9.879E+01, 7.571E+01, 9.071E+01, 1.036E+02, 9.823E+00, 1.962E-01, 7.833E-03, 1.004E+02
 2.200E+02, 8.947E+01, 9.053E+01, 7.541E+01, 9.269E+01, 1.003E+02, 7.668E+01, 9.129E+01, 1.036E+02, 9.984E+00, 1.955E-01, 8.221E-03, 1.012E+02
 2.300E+02, 9.112E+01, 9.114E+01, 7.775E+01, 9.456E+01, 1.011E+02, 7.687E+01, 9.305E+01, 1.035E+02, 9.255E+00, 1.948E-01, 8.650E-03, 1.005E+02
 2.400E+02, 9.170E+01, 9.127E+01, 7.907E+01, 9.500E+01, 1.010E+02, 7.841E+01, 9.213E+01, 1.033E+02, 9.423E+00, 1.942E-01, 8.954E-03, 1.007E+02
 2.500E+02, 9.261E+01, 9.307E+01, 7.831E+01, 9.687E+01, 1.027E+02, 8.065E+01, 9.440E+01, 1.041E+02, 9.127E+00, 1.938E-01, 9.191E-03, 1.006E+02
 2.600E+02, 9.244E+01, 9.309E+01, 7.893E+01, 9.629E+01, 1.021E+02, 8.075E+01, 9.527E+01, 1.032E+02, 9.060E+00, 1.934E-01, 9.414E-03, 1.004E+02
 2.700E+02, 9.290E+01, 9.341E+01, 7.993E+01, 9.583E+01, 1.029E+02, 8.105E+01, 9.548E+01, 1.037E+02, 8.915E+00, 1.926E-01, 9.859E-03, 1.008E+02
 2.800E+02, 9.341E+01, 9.413E+01, 8.075E+01, 9.698E+01, 1.025E+02, 8.087E+01, 9.519E+01, 1.063E+02, 9.045E+00, 1.916E-01, 1.041E-02, 1.006E+02
 2.900E+02, 9.414E+01, 9.400E+01, 8.047E+01, 9.803E+01, 1.039E+02, 8.133E+01, 9.548E+01, 1.052E+02, 8.920E+00, 1.913E-01, 1.057E-02, 1.003E+02
 3.000E+02, 9.485E+01, 9.489E+01, 8.070E+01, 9.820E+01, 1.056E+02, 8.103E+01, 9.739E+01, 1.063E+02, 9.062E+00, 1.906E-01, 1.097E-02, 1.006E+02
 3.100E+02, 9.497E+01, 9.513E+01, 8.064E+01, 9.824E+01, 1.060E+02, 8.120E+01, 9.799E+01, 1.062E+02, 8.874E+00, 1.897E-01, 1.147E-02, 1.004E+02
 3.200E+02, 9.496E+01, 9.616E+01, 8.025E+01, 9.830E+01, 1.063E+02, 8.210E+01, 9.915E+01, 1.072E+02, 9.027E+00, 1.890E-01, 1.185E-02, 1.005E+02
 3.300E+02, 9.522E+01, 9.558E+01, 8.144E+01, 9.844E+01, 1.058E+02, 8.151E+01, 9.832E+01, 1.069E+02, 9.126E+00, 1.885E-01, 1.216E-02, 1.011E+02
 3.400E+02, 9.655E+01, 9.645E+01, 8.197E+01, 1.004E+02, 1.072E+02, 8.242E+01, 1.002E+02, 1.068E+02, 8.937E+00, 1.878E-01, 1.252E-02, 1.006E+02
 3.500E+02, 9.657E+01, 9.813E+01, 8.158E+01, 9.981E+01, 1.083E+02, 8.346E+01, 1.018E+02, 1.092E+02, 9.052E+00, 1.869E-01, 1.305E-02, 1.003E+02
 3.600E+02, 9.605E+01, 9.704E+01, 8.227E+01, 9.830E+01, 1.076E+02, 8.306E+01, 9.877E+01, 1.093E+02, 9.109E+00, 1.862E-01, 1.346E-02, 1.005E+02
 3.700E+02, 9.611E+01, 9.696E+01, 8.336E+01, 9.848E+01, 1.065E+02, 8.316E+01, 9.957E+01, 1.082E+02, 9.215E+00, 1.856E-01, 1.379E-02, 1.005E+02
 3.800E+02, 9.678E+01, 9.624E+01, 8.366E+01, 9.961E+01, 1.071E+02, 8.327E+01, 9.847E+01, 1.070E+02, 9.110E+00, 1.854E-01, 1.389E-02, 1.010E+02
 3.900E+02, 9.703E+01, 9.768E+01, 8.300E+01, 9.984E+01, 1.083E+02, 8.512E+01, 1.006E+02, 1.073E+02, 9.172E+00, 1.846E-01, 1.434E-02, 1.005E+02
 4.000E+02, 9.758E+01, 9.672E+01, 8.328E+01, 1.002E+02, 1.093E+02, 8.471E+01, 9.903E+01, 1.064E+02, 9.117E+00, 1.840E-01, 1.466E-02, 1.007E+02
 4.100E+02, 9.782E+01, 9.732E+01, 8.311E+01, 1.009E+02, 1.094E+02, 8.439E+01, 9.962E+01, 1.080E+02, 9.122E+00, 1.832E-01, 1.510E-02, 1.005E+02
 4.200E+02, 9.715E+01, 9.780E+01, 8.431E+01, 9.969E+01, 1.075E+02, 8.399E+01, 1.006E+02, 1.088E+02, 9.223E+00, 1.822E-01, 1.568E-02, 1.008E+02
 4.300E+02, 9.929E+01, 9.790E+01, 8.674E+01, 1.022E+02, 1.089E+02, 8.459E+01, 1.019E+02, 1.072E+02, 9.530E+00, 1.821E-01, 1.575E-02, 1.014E+02
 4.400E+02, 9.757E+01, 9.744E+01, 8.494E+01, 9.919E+01, 1.086E+02, 8.507E+01, 9.904E+01, 1.082E+02, 9.109E+00, 1.813E-01, 1.617E-02, 1.006E+02
 4.500E+02, 9.852E+01, 9.795E+01, 8.478E+01, 1.029E+02, 1.079E+02, 8.567E+01, 1.010E+02, 1.072E+02, 9.127E+00, 1.807E-01, 1.648E-02, 1.004E+02
 4.600E+02, 9.883E+01, 9.698E+01, 8.507E+01, 1.021E+02, 1.093E+02, 8.379E+01, 9.903E+01, 1.081E+02, 9.170E+00, 1.799E-01, 1.698E-02, 1.005E+02
 4.700E+02, 9.979E+01, 9.805E+01, 8.500E+01, 1.055E+02, 1.089E+02, 8.463E+01, 1.006E+02, 1.089E+02, 9.315E+00, 1.791E-01, 1.740E-02, 1.007E+02
 4.800E+02, 9.987E+01, 9.810E+01, 8.558E+01, 1.049E+02, 1.091E+02, 8.450E+01, 9.965E+01, 1.101E+02, 9.339E+00, 1.783E-01, 1.786E-02, 1.008E+02
 4.900E+02, 9.799E+01, 9.761E+01, 8.427E+01, 1.022E+02, 1.075E+02, 8.411E+01, 9.975E+01, 1.090E+02, 9.463E+00, 1.777E-01, 1.817E-02, 1.006E+02
 5.000E+02, 9.981E+01, 9.815E+01, 8.626E+01, 1.041E+02, 1.091E+02, 8.427E+01, 1.002E+02, 1.100E+02, 9.489E+00, 1.771E-01, 1.851E-02, 1.008E+02
 5.100E+02, 1.002E+02, 9.783E+01, 8.618E+01, 1.049E+02, 1.094E+02, 8.475E+01, 1.000E+02, 1.087E+02, 9.358E+00, 1.764E-01, 1.893E-02, 1.010E+02
 5.200E+02, 9.986E+01, 9.898E+01, 8.652E+01, 1.050E+02, 1.081E+02, 8.480E+01, 1.005E+02, 1.117E+02, 9.425E+00, 1.757E-01, 1.930E-02, 1.005E+02
 5.300E+02, 1.005E+02, 9.853E+01, 8.966E+01, 1.049E+02, 1.070E+02, 8.488E+01, 1.004E+02, 1.103E+02, 9.577E+00, 1.751E-01, 1.963E-02, 1.004E+02
 5.400E+02, 9.953E+01, 9.799E+01, 8.753E+01, 1.017E+02, 1.094E+02, 8.457E+01, 9.974E+01, 1.097E+02, 9.281E+00, 1.746E-01, 1.992E-02, 1.011E+02
 5.500E+02, 9.896E+01, 9.794E+01, 8.658E+01, 1.011E+02, 1.091E+02, 8.511E+01, 9.924E+01, 1.095E+02, 9.512E+00, 1.737E-01, 2.042E-02, 1.009E+02
 5.600E+02, 9.946E+01, 9.873E+01, 8.527E+01, 1.026E+02, 1.105E+02, 8.617E+01, 1.007E+02, 1.093E+02, 9.394E+00, 1.730E-01, 2.082E-02, 1.003E+02
 5.700E+02, 1.003E+02, 9.855E+01, 8.643E+01, 1.044E+02, 1.101E+02, 8.701E+01, 1.003E+02, 1.083E+02, 9.521E+00, 1.724E-01, 2.114E-02, 1.012E+02
 5.800E+02, 1.004E+02, 9.840E+01, 8.549E+01, 1.044E+02, 1.114E+02, 8.573E+01, 1.009E+02, 1.086E+02, 9.310E+00, 1.716E-01, 2.158E-02, 1.004E+02
 5.900E+02, 9.920E+01, 9.909E+01, 8.468E+01, 1.032E+02, 1.097E+02, 8.647E+01, 1.008E+02, 1.100E+02, 9.431E+00, 1.710E-01, 2.193E-02, 1.006E+02
 6.000E+02, 1.008E+02, 9.975E+01, 8.751E+01, 1.054E+02, 1.095E+02, 8.519E+01, 1.022E+02, 1.118E+02, 9.462E+00, 1.698E-01, 2.259E-02, 1.003E+02
 6.100E+02, 9.992E+01, 1.005E+02, 8.708E+01, 1.038E+02, 1.089E+02, 8.559E+01, 1.017E+02, 1.143E+02, 9.245E+00, 1.689E-01, 2.309E-02, 1.003E+02
 6.200E+02, 9.983E+01, 1.008E+02, 8.678E+01, 1.032E+02, 1.095E+02, 8.584E+01, 1.015E+02, 1.151E+02, 9.691E+00, 1.684E-01, 2.340E-02, 1.010E+02
 6.300E+02, 1.011E+02, 9.969E+01, 8.960E+01, 1.043E+02, 1.094E+02, 8.571E+01, 1.012E+02, 1.122E+02, 9.655E+00, 1.681E-01, 2.357E-02, 1.010E+02
 6.400E+02, 1.009E+02, 1.002E+02, 8.780E+01, 1.048E+02, 1.101E+02, 8.572E+01, 1.013E+02, 1.136E+02, 9.469E+00, 1.672E-01, 2.404E-02, 1.005E+02
 6.500E+02, 1.021E+02, 1.001E+02, 8.931E+01, 1.067E+02, 1.102E+02, 8.600E+01, 1.020E+02, 1.124E+02, 9.475E+00, 1.667E-01, 2.434E-02, 1.009E+02
 6.600E+02, 1.020E+02, 9.881E+01, 8.747E+01, 1.055E+02, 1.129E+02, 8.511E+01, 1.007E+02, 1.106E+02, 9.737E+00, 1.662E-01, 2.461E-02, 1.010E+02
 6.700E+02, 1.019E+02, 9.974E+01, 8.832E+01, 1.066E+02, 1.108E+02, 8.593E+01, 1.019E+02, 1.114E+02, 9.575E+00, 1.654E-01, 2.503E-02, 1.003E+02
 6.800E+02, 1.018E+02, 9.957E+01, 8.933E+01, 1.068E+02, 1.092E+02, 8.534E+01, 1.014E+02, 1.119E+02, 9.682E+00, 1.648E-01, 2.537E-02, 1.007E+02
 6.900E+02, 1.023E+02, 9.960E+01, 8.928E+01, 1.073E+02, 1.103E+02, 8.586E+01, 1.016E+02, 1.113E+02, 9.711E+00, 1.639E-01, 2.588E-02, 1.009E+02
 7.000E+02, 1.020E+02, 9.980E+01, 8.775E+01, 1.057E+02, 1.125E+02, 8.694E+01, 1.012E+02, 1.113E+02, 9.814E+00, 1.634E-01, 2.617E-02, 1.009E+02
 7.100E+02, 1.013E+02, 1.004E+02, 8.791E+01, 1.049E+02, 1.112E+02, 8.795E+01, 1.030E+02, 1.101E+02, 9.653E+00, 1.628E-01, 2.649E-02, 1.008E+02
 7.200E+02, 1.024E+02, 1.010E+02, 8.943E+01, 1.074E+02, 1.104E+02, 8.883E+01, 1.032E+02, 1.110E+02, 9.690E+00, 1.619E-01, 2.699E-02, 1.007E+02
 7.300E+02, 1.014E+02, 1.008E+02, 8.922E+01, 1.066E+02, 1.085E+02, 8.803E+01, 1.018E+02, 1.127E+02, 9.716E+00, 1.608E-01, 2.763E-02, 1.009E+02
 7.400E+02, 1.016E+02, 1.003E+02, 8.818E+01, 1.057E+02, 1.108E+02, 8.741E+01, 1.013E+02, 1.123E+02, 9.807E+00, 1.600E-01, 2.805E-02, 1.011E+02
 7.500E+02, 1.025E+02, 1.018E+02, 8.774E+01, 1.068E+02, 1.131E+02, 8.797E+01, 1.048E+02, 1.128E+02, 9.470E+00, 1.597E-01, 2.826E-02, 1.004E+02
 7.600E+02, 1.030E+02, 1.026E+02, 8.729E+01, 1.060E+02, 1.158E+02, 8.964E+01, 1.059E+02, 1.124E+02, 9.633E+00, 1.590E-01, 2.861E-02, 1.006E+02
 7.700E+02, 1.031E+02, 1.033E+02, 8.750E+01, 1.075E+02, 1.143E+02, 8.921E+01, 1.073E+02, 1.133E+02, 9.737E+00, 1.584E-01, 2.899E-02, 1.005E+02
 7.800E+02, 1.039E+02, 1.027E+02, 8.875E+01, 1.080E+02, 1.151E+02, 8.837E+01, 1.058E+02, 1.139E+02, 9.728E+00, 1.574E-01, 2.955E-02, 1.002E+02
 7.900E+02, 1.035E+02, 1.021E+02, 8.708E+01, 1.079E+02, 1.157E+02, 8.810E+01, 1.043E+02, 1.141E+02, 9.569E+00, 1.567E-01, 2.990E-02, 1.004E+02
 8.000E+02, 1.043E+02, 1.034E+02, 8.804E+01, 1.091E+02, 1.157E+02, 8.806E+01, 1.074E+02, 1.148E+02, 9.774E+00, 1.562E-01, 3.018E-02, 1.009E+02
 8.100E+02, 1.033E+02, 1.022E+02, 8.740E+01, 1.063E+02, 1.162E+02, 8.831E+01, 1.050E+02, 1.133E+02, 9.747E+00, 1.555E-01, 3.059E-02, 1.008E+02
 8.200E+02, 1.034E+02, 1.032E+02, 8.734E+01, 1.080E+02, 1.149E+02, 9.003E+01, 1.058E+02, 1.137E+02, 9.665E+00, 1.549E-01, 3.094E-02, 1.005E+02
 8.300E+02, 1.033E+02, 1.036E+02, 8.881E+01, 1.066E+02, 1.144E+02, 8.808E+01, 1.072E+02, 1.157E+02, 9.795E+00, 1.541E-01, 3.139E-02, 1.007E+02
 8.400E+02, 1.033E+02, 1.027E+02, 8.720E+01, 1.069E+02, 1.159E+02, 8.850E+01, 1.049E+02, 1.148E+02, 9.668E+00, 1.532E-01, 3.189E-02, 1.002E+02
 8.500E+02, 1.036E+02, 1.038E+02, 8.771E+01, 1.064E+02, 1.166E+02, 8.946E+01, 1.063E+02, 1.156E+02, 9.642E+00, 1.527E-01, 3.216E-02, 1.003E+02
 8.600E+02, 1.038E+02, 1.034E+02, 8.698E+01, 1.074E+02, 1.171E+02, 8.898E+01, 1.057E+02, 1.154E+02, 9.775E+00, 1.521E-01, 3.251E-02, 1.004E+02
 8.700E+02, 1.037E+02, 1.031E+02, 8.814E+01, 1.081E+02, 1.149E+02, 8.862E+01, 1.058E+02, 1.149E+02, 9.635E+00, 1.511E-01, 3.304E-02, 1.001E+02
 8.800E+02, 1.046E+02, 1.029E+02, 8.987E+01, 1.096E+02, 1.144E+02, 8.821E+01, 1.059E+02, 1.146E+02, 9.975E+00, 1.506E-01, 3.331E-02, 1.005E+02
 8.900E+02, 1.043E+02, 1.033E+02, 8.808E+01, 1.092E+02, 1.158E+02, 8.924E+01, 1.050E+02, 1.157E+02, 9.958E+00, 1.496E-01, 3.390E-02, 1.007E+02
 9.000E+02, 1.045E+02, 1.041E+02, 8.922E+01, 1.094E+02, 1.149E+02, 8.907E+01, 1.081E+02, 1.151E+02, 9.777E+00, 1.494E-01, 3.400E-02, 1.007E+02
 9.100E+02, 1.044E+02, 1.030E+02, 9.033E+01, 1.094E+02, 1.136E+02, 8.971E+01, 1.048E+02, 1.144E+02, 9.956E+00, 1.487E-01, 3.441E-02, 1.008E+02
 9.200E+02, 1.039E+02, 1.034E+02, 8.962E+01, 1.079E+02, 1.143E+02, 8.953E+01, 1.051E+02, 1.155E+02, 9.834E+00, 1.477E-01, 3.497E-02, 1.005E+02
 9.300E+02, 1.042E+02, 1.044E+02, 9.192E+01, 1.086E+02, 1.121E+02, 8.941E+01, 1.067E+02, 1.172E+02, 9.946E+00, 1.469E-01, 3.542E-02, 1.007E+02
 9.400E+02, 1.051E+02, 1.034E+02, 9.192E+01, 1.085E+02, 1.148E+02, 8.948E+01, 1.045E+02, 1.163E+02, 9.908E+00, 1.463E-01, 3.570E-02, 1.007E+02
 9.500E+02, 1.038E+02, 1.040E+02, 9.087E+01, 1.082E+02, 1.125E+02, 9.027E+01, 1.054E+02, 1.162E+02, 1.020E+01, 1.458E-01, 3.603E-02, 1.004E+02
 9.600E+02, 1.058E+02, 1.030E+02, 9.306E+01, 1.085E+02, 1.158E+02, 8.940E+01, 1.053E+02, 1.144E+02, 1.011E+01, 1.452E-01, 3.636E-02, 1.002E+02
 9.700E+02, 1.057E+02, 1.022E+02, 9.155E+01, 1.106E+02, 1.150E+02, 8.847E+01, 1.054E+02, 1.128E+02, 1.007E+01, 1.445E-01, 3.671E-02, 1.010E+02
 9.800E+02, 1.057E+02, 1.027E+02, 9.068E+01, 1.103E+02, 1.161E+02, 9.030E+01, 1.061E+02, 1.117E+02, 1.026E+01, 1.438E-01, 3.711E-02, 1.009E+02
 9.900E+02, 1.070E+02, 1.030E+02, 9.288E+01, 1.107E+02, 1.174E+02, 9.003E+01, 1.054E+02, 1.136E+02, 9.962E+00, 1.428E-01, 3.766E-02, 9.991E+01
 1.000E+03, 1.066E+02, 1.036E+02, 9.175E+01, 1.105E+02, 1.175E+02, 9.128E+01, 1.064E+02, 1.130E+02, 1.023E+01, 1.424E-01, 3.789E-02, 1.005E+02
 1.010E+03, 1.053E+02, 1.035E+02, 9.289E+01, 1.070E+02, 1.160E+02, 9.230E+01, 1.062E+02, 1.120E+02, 9.920E+00, 1.418E-01, 3.822E-02, 1.003E+02
 1.020E+03, 1.056E+02, 1.036E+02, 9.306E+01, 1.084E+02, 1.153E+02, 9.161E+01, 1.065E+02, 1.126E+02, 1.039E+01, 1.410E-01, 3.871E-02, 1.014E+02
 1.030E+03, 1.050E+02, 1.048E+02, 9.021E+01, 1.081E+02, 1.167E+02, 9.262E+01, 1.085E+02, 1.133E+02, 1.008E+01, 1.402E-01, 3.915E-02, 1.009E+02
 1.040E+03, 1.057E+02, 1.049E+02, 9.100E+01, 1.089E+02, 1.172E+02, 9.231E+01, 1.069E+02, 1.155E+02, 9.756E+00, 1.392E-01, 3.972E-02, 9.865E+01
 1.050E+03, 1.052E+02, 1.053E+02, 9.089E+01, 1.085E+02, 1.164E+02, 9.356E+01, 1.080E+02, 1.142E+02, 9.512E+00, 1.385E-01, 4.010E-02, 9.551E+01
 1.060E+03, 1.054E+02, 1.051E+02, 9.102E+01, 1.085E+02, 1.167E+02, 9.259E+01, 1.082E+02, 1.146E+02, 9.653E+00, 1.375E-01, 4.061E-02, 9.733E+01
 1.070E+03, 1.041E+02, 1.054E+02, 9.093E+01, 1.056E+02, 1.157E+02, 9.207E+01, 1.089E+02, 1.153E+02, 9.779E+00, 1.371E-01, 4.085E-02, 9.671E+01
 1.080E+03, 1.045E+02, 1.038E+02, 9.045E+01, 1.078E+02, 1.151E+02, 9.204E+01, 1.072E+02, 1.121E+02, 4.900E+00, 1.368E-01, 4.102E-02, 8.171E+01
 1.090E+03, 1.032E+02, 1.031E+02, 8.908E+01, 1.067E+02, 1.138E+02, 9.243E+01, 1.059E+02, 1.109E+02, 9.697E+00, 1.365E-01, 4.120E-02, 9.497E+01
 1.100E+03, 1.022E+02, 1.028E+02, 8.894E+01, 1.056E+02, 1.120E+02, 9.272E+01, 1.061E+02, 1.095E+02, 2.082E+00, 1.361E-01, 4.137E-02, 7.678E+01
 1.110E+03, 1.004E+02, 1.028E+02, 8.747E+01, 1.022E+02, 1.116E+02, 8.997E+01, 1.054E+02, 1.132E+02, 1.248E+01, 1.353E-01, 4.182E-02, 9.413E+01
 1.120E+03, 9.973E+01, 1.009E+02, 8.733E+01, 1.021E+02, 1.098E+02, 9.014E+01, 1.035E+02, 1.091E+02, 2.231E+00, 1.354E-01, 4.176E-02, 7.422E+01
 1.130E+03, 9.880E+01, 1.009E+02, 8.512E+01, 1.021E+02, 1.092E+02, 9.067E+01, 1.036E+02, 1.085E+02, 1.680E+00, 1.350E-01, 4.199E-02, 7.234E+01
 1.140E+03, 9.810E+01, 9.931E+01, 8.526E+01, 9.987E+01, 1.092E+02, 8.697E+01, 1.017E+02, 1.093E+02, 7.188E+00, 1.346E-01, 4.222E-02, 7.527E+01
 1.150E+03, 9.743E+01, 9.906E+01, 8.607E+01, 9.975E+01, 1.065E+02, 8.654E+01, 1.000E+02, 1.106E+02,-2.780E-01, 1.345E-01, 4.222E-02, 6.610E+01
 1.160E+03, 9.635E+01, 9.781E+01, 8.579E+01, 9.897E+01, 1.043E+02, 8.791E+01, 9.910E+01, 1.064E+02, 2.297E+00, 1.349E-01, 4.196E-02, 6.679E+01
 1.170E+03, 9.333E+01, 9.783E+01, 8.351E+01, 9.588E+01, 1.006E+02, 8.723E+01, 1.024E+02, 1.039E+02,-7.856E-02, 1.347E-01, 4.208E-02, 5.622E+01
 1.180E+03, 9.276E+01, 9.427E+01, 8.462E+01, 9.454E+01, 9.914E+01, 8.436E+01, 9.543E+01, 1.030E+02,-5.288E+00, 1.349E-01, 4.194E-02, 5.449E+01
 1.190E+03, 9.133E+01, 9.300E+01, 8.397E+01, 9.429E+01, 9.573E+01, 8.506E+01, 9.509E+01, 9.885E+01, 7.766E-01, 1.358E-01, 4.144E-02, 1.355E+01
 1.200E+03, 8.893E+01, 9.010E+01, 8.294E+01, 9.062E+01, 9.323E+01, 8.164E+01, 9.061E+01, 9.805E+01, 5.466E+00, 1.365E-01, 4.103E-02, 2.372E+00
 1.210E+03, 8.910E+01, 8.901E+01, 8.532E+01, 9.005E+01, 9.194E+01, 8.121E+01, 8.906E+01, 9.678E+01, 1.329E+00, 1.363E-01, 4.114E-02, 0.000E+00
 1.220E+03, 8.738E+01, 8.602E+01, 8.321E+01, 8.878E+01, 9.015E+01, 8.109E+01, 8.637E+01, 9.058E+01, 3.455E-01, 1.362E-01, 4.111E-02, 5.098E+00
 1.230E+03, 8.484E+01, 8.389E+01, 7.889E+01, 8.612E+01, 8.950E+01, 7.968E+01, 8.362E+01, 8.836E+01, 6.458E-01, 1.367E-01, 4.085E-02, 2.405E+00
 1.240E+03, 8.253E+01, 8.212E+01, 7.695E+01, 8.430E+01, 8.633E+01, 7.773E+01, 8.261E+01, 8.601E+01, 3.698E+00, 1.378E-01, 4.029E-02, 2.084E-02
 1.250E+03, 7.985E+01, 8.109E+01, 7.357E+01, 8.150E+01, 8.448E+01, 7.449E+01, 8.167E+01, 8.712E+01, 1.520E+00, 1.377E-01, 4.035E-02, 0.000E+00
 1.260E+03, 8.118E+01, 8.038E+01, 7.522E+01, 8.306E+01, 8.526E+01, 7.437E+01, 8.137E+01, 8.539E+01, 1.520E+00, 1.368E-01, 4.076E-02, 0.000E+00
 1.270E+03, 7.846E+01, 7.873E+01, 7.278E+01, 8.001E+01, 8.260E+01, 7.102E+01, 8.122E+01, 8.394E+01, 2.252E+00, 1.371E-01, 4.055E-02, 0.000E+00
 1.280E+03, 7.650E+01, 7.686E+01, 6.985E+01, 7.828E+01, 8.138E+01, 7.037E+01, 7.782E+01, 8.238E+01, 6.694E+00, 1.380E-01, 4.012E-02, 0.000E+00
 1.290E+03, 7.612E+01, 7.552E+01, 6.955E+01, 7.816E+01, 8.066E+01, 6.929E+01, 7.597E+01, 8.131E+01, 2.919E+00, 1.373E-01, 4.043E-02, 0.000E+00
 1.300E+03, 7.499E+01, 7.587E+01, 6.810E+01, 7.720E+01, 7.966E+01, 7.070E+01, 7.643E+01, 8.048E+01, 4.169E+00, 1.376E-01, 4.031E-02, 0.000E+00
 1.310E+03, 7.333E+01, 7.398E+01, 6.740E+01, 7.514E+01, 7.746E+01, 6.754E+01, 7.457E+01, 7.982E+01, 5.326E+00, 1.378E-01, 4.019E-02, 0.000E+00
