s,C,C,C,C,C,C,C,C,Pa,mol/mol,mol/mol,kW
Time,"West_All_TCs","East_All_TCs","West_Bottom_TCs","West_Middle_TCs","West_Upper_TCs","East_Bottom_TCs","East_Middle_TCs","East_Upper_TCs","Pressure","O2","CO2","HRR"
-6.000E+01, 3.800E+01, 3.800E+01, 3.800E+01, 3.800E+01, 3.800E+01, 3.800E+01, 3.800E+01, 3.800E+01,-9.175E-06, 2.095E-01, 3.901E-04, 0.000E+00
-4.998E+01, 3.800E+01, 3.800E+01, 3.800E+01, 3.800E+01, 3.800E+01, 3.800E+01, 3.800E+01, 3.800E+01, 3.467E-06, 2.095E-01, 3.901E-04, 0.000E+00
-3.996E+01, 3.800E+01, 3.800E+01, 3.800E+01, 3.800E+01, 3.800E+01, 3.800E+01, 3.800E+01, 3.800E+01, 1.943E-08, 2.095E-01, 3.901E-04, 0.000E+00
-2.994E+01, 3.800E+01, 3.800E+01, 3.800E+01, 3.800E+01, 3.800E+01, 3.800E+01, 3.800E+01, 3.800E+01, 1.601E-06, 2.095E-01, 3.901E-04, 0.000E+00
-1.992E+01, 3.800E+01, 3.800E+01, 3.800E+01, 3.800E+01, 3.800E+01, 3.800E+01, 3.800E+01, 3.800E+01, 4.071E-06, 2.095E-01, 3.901E-04, 0.000E+00
-9.896E+00, 3.800E+01, 3.800E+01, 3.800E+01, 3.800E+01, 3.800E+01, 3.800E+01, 3.800E+01, 3.800E+01, 3.058E-06, 2.095E-01, 3.901E-04, 0.000E+00
 1.301E-02, 3.800E+01, 3.800E+01, 3.800E+01, 3.800E+01, 3.800E+01, 3.800E+01, 3.800E+01, 3.800E+01, 2.844E-06, 2.095E-01, 3.901E-04, 1.759E-04
 1.002E+01, 3.907E+01, 3.942E+01, 3.839E+01, 4.081E+01, 3.800E+01, 3.859E+01, 4.166E+01, 3.800E+01, 4.786E-03, 2.095E-01, 3.901E-04, 3.298E+01
 2.002E+01, 4.415E+01, 4.519E+01, 4.029E+01, 5.411E+01, 3.804E+01, 4.075E+01, 5.683E+01, 3.800E+01, 3.012E-02, 2.095E-01, 3.901E-04, 9.934E+01
 3.001E+01, 5.319E+01, 5.568E+01, 4.181E+01, 7.872E+01, 3.903E+01, 4.351E+01, 8.555E+01, 3.800E+01, 1.321E-01, 2.095E-01, 3.901E-04, 1.661E+02
 4.002E+01, 6.528E+01, 6.671E+01, 4.475E+01, 1.094E+02, 4.172E+01, 4.672E+01, 1.150E+02, 3.842E+01, 4.709E-01, 2.095E-01, 4.419E-04, 1.999E+02
 5.002E+01, 7.544E+01, 7.639E+01, 4.811E+01, 1.314E+02, 4.678E+01, 4.943E+01, 1.343E+02, 4.542E+01, 5.769E-01, 2.081E-01, 1.178E-03, 2.000E+02
 6.001E+01, 8.212E+01, 8.368E+01, 5.075E+01, 1.452E+02, 5.045E+01, 5.178E+01, 1.489E+02, 5.037E+01, 6.121E-01, 2.073E-01, 1.641E-03, 1.998E+02
 7.002E+01, 8.691E+01, 8.811E+01, 5.312E+01, 1.530E+02, 5.465E+01, 5.274E+01, 1.569E+02, 5.471E+01, 6.251E-01, 2.063E-01, 2.179E-03, 2.002E+02
 8.000E+01, 9.084E+01, 9.159E+01, 5.423E+01, 1.587E+02, 5.961E+01, 5.422E+01, 1.626E+02, 5.797E+01, 7.615E-01, 2.056E-01, 2.573E-03, 1.998E+02
 9.000E+01, 9.228E+01, 9.428E+01, 5.428E+01, 1.602E+02, 6.237E+01, 5.475E+01, 1.661E+02, 6.196E+01, 7.492E-01, 2.048E-01, 3.019E-03, 2.000E+02
 1.000E+02, 9.405E+01, 9.606E+01, 5.496E+01, 1.624E+02, 6.476E+01, 5.521E+01, 1.675E+02, 6.549E+01, 6.829E-01, 2.041E-01, 3.438E-03, 1.998E+02
 1.100E+02, 9.617E+01, 9.723E+01, 5.603E+01, 1.641E+02, 6.838E+01, 5.588E+01, 1.682E+02, 6.755E+01, 5.895E-01, 2.030E-01, 4.030E-03, 2.001E+02
 1.200E+02, 9.663E+01, 9.785E+01, 5.640E+01, 1.634E+02, 7.010E+01, 5.632E+01, 1.691E+02, 6.815E+01, 8.366E-01, 2.025E-01, 4.312E-03, 1.997E+02
 1.300E+02, 9.779E+01, 1.003E+02, 5.545E+01, 1.655E+02, 7.245E+01, 5.635E+01, 1.731E+02, 7.145E+01, 9.897E-01, 2.014E-01, 4.965E-03, 2.003E+02
 1.400E+02, 9.810E+01, 1.005E+02, 5.555E+01, 1.646E+02, 7.420E+01, 5.653E+01, 1.718E+02, 7.323E+01, 9.227E-01, 2.003E-01, 5.573E-03, 1.999E+02
 1.500E+02, 9.857E+01, 1.012E+02, 5.577E+01, 1.654E+02, 7.457E+01, 5.676E+01, 1.710E+02, 7.592E+01, 9.462E-01, 1.989E-01, 6.326E-03, 1.995E+02
 1.600E+02, 1.014E+02, 1.018E+02, 5.668E+01, 1.705E+02, 7.712E+01, 5.710E+01, 1.722E+02, 7.617E+01, 9.940E-01, 1.985E-01, 6.550E-03, 2.000E+02
 1.700E+02, 1.015E+02, 1.020E+02, 5.740E+01, 1.689E+02, 7.832E+01, 5.770E+01, 1.729E+02, 7.536E+01, 7.390E-01, 1.980E-01, 6.862E-03, 1.999E+02
 1.800E+02, 1.022E+02, 1.025E+02, 5.719E+01, 1.702E+02, 7.912E+01, 5.835E+01, 1.733E+02, 7.593E+01, 7.664E-01, 1.970E-01, 7.403E-03, 2.000E+02
 1.900E+02, 1.020E+02, 1.028E+02, 5.696E+01, 1.712E+02, 7.789E+01, 5.846E+01, 1.745E+02, 7.560E+01, 1.034E+00, 1.965E-01, 7.683E-03, 2.000E+02
 2.000E+02, 1.013E+02, 1.037E+02, 5.739E+01, 1.686E+02, 7.786E+01, 5.811E+01, 1.757E+02, 7.730E+01, 9.654E-01, 1.957E-01, 8.117E-03, 1.997E+02
 2.100E+02, 1.020E+02, 1.043E+02, 5.725E+01, 1.703E+02, 7.843E+01, 5.889E+01, 1.748E+02, 7.915E+01, 1.031E+00, 1.948E-01, 8.618E-03, 2.001E+02
 2.200E+02, 1.023E+02, 1.050E+02, 5.728E+01, 1.693E+02, 8.016E+01, 5.894E+01, 1.770E+02, 7.911E+01, 9.176E-01, 1.943E-01, 8.934E-03, 2.000E+02
 2.300E+02, 1.026E+02, 1.051E+02, 5.589E+01, 1.730E+02, 7.883E+01, 5.910E+01, 1.773E+02, 7.891E+01, 8.847E-01, 1.937E-01, 9.260E-03, 2.001E+02
 2.400E+02, 1.030E+02, 1.045E+02, 5.764E+01, 1.714E+02, 8.000E+01, 5.888E+01, 1.753E+02, 7.922E+01, 1.039E+00, 1.931E-01, 9.567E-03, 1.995E+02
 2.500E+02, 1.029E+02, 1.048E+02, 5.704E+01, 1.714E+02, 8.035E+01, 5.888E+01, 1.770E+02, 7.859E+01, 1.073E+00, 1.926E-01, 9.881E-03, 2.002E+02
 2.600E+02, 1.035E+02, 1.057E+02, 5.710E+01, 1.725E+02, 8.092E+01, 5.932E+01, 1.771E+02, 8.054E+01, 7.214E-01, 1.922E-01, 1.010E-02, 1.998E+02
 2.700E+02, 1.045E+02, 1.056E+02, 5.873E+01, 1.737E+02, 8.108E+01, 5.942E+01, 1.774E+02, 7.988E+01, 9.139E-01, 1.918E-01, 1.031E-02, 1.999E+02
 2.800E+02, 1.059E+02, 1.063E+02, 5.815E+01, 1.783E+02, 8.128E+01, 6.048E+01, 1.779E+02, 8.066E+01, 9.947E-01, 1.915E-01, 1.049E-02, 1.998E+02
 2.900E+02, 1.049E+02, 1.056E+02, 5.812E+01, 1.751E+02, 8.141E+01, 5.905E+01, 1.781E+02, 7.961E+01, 9.637E-01, 1.912E-01, 1.067E-02, 2.001E+02
 3.000E+02, 1.054E+02, 1.062E+02, 5.743E+01, 1.756E+02, 8.325E+01, 5.937E+01, 1.786E+02, 8.064E+01, 1.256E+00, 1.906E-01, 1.096E-02, 2.004E+02
 3.100E+02, 1.058E+02, 1.071E+02, 5.817E+01, 1.752E+02, 8.403E+01, 5.926E+01, 1.802E+02, 8.198E+01, 1.114E+00, 1.903E-01, 1.117E-02, 2.000E+02
 3.200E+02, 1.054E+02, 1.078E+02, 5.857E+01, 1.743E+02, 8.333E+01, 5.996E+01, 1.802E+02, 8.305E+01, 1.095E+00, 1.898E-01, 1.141E-02, 1.998E+02
 3.300E+02, 1.051E+02, 1.080E+02, 5.834E+01, 1.735E+02, 8.346E+01, 5.991E+01, 1.807E+02, 8.345E+01, 8.365E-01, 1.895E-01, 1.162E-02, 2.003E+02
 3.400E+02, 1.073E+02, 1.089E+02, 6.019E+01, 1.786E+02, 8.302E+01, 6.031E+01, 1.842E+02, 8.227E+01, 8.768E-01, 1.893E-01, 1.172E-02, 1.993E+02
 3.500E+02, 1.059E+02, 1.088E+02, 5.858E+01, 1.764E+02, 8.274E+01, 6.017E+01, 1.840E+02, 8.230E+01, 9.434E-01, 1.890E-01, 1.187E-02, 1.998E+02
 3.600E+02, 1.067E+02, 1.083E+02, 5.877E+01, 1.773E+02, 8.407E+01, 6.008E+01, 1.818E+02, 8.293E+01, 1.165E+00, 1.889E-01, 1.195E-02, 1.999E+02
 3.700E+02, 1.066E+02, 1.086E+02, 5.839E+01, 1.777E+02, 8.384E+01, 5.997E+01, 1.820E+02, 8.399E+01, 1.073E+00, 1.885E-01, 1.214E-02, 2.000E+02
 3.800E+02, 1.068E+02, 1.082E+02, 5.845E+01, 1.767E+02, 8.527E+01, 5.994E+01, 1.812E+02, 8.353E+01, 1.136E+00, 1.884E-01, 1.221E-02, 1.997E+02
 3.900E+02, 1.081E+02, 1.087E+02, 5.939E+01, 1.790E+02, 8.593E+01, 6.070E+01, 1.826E+02, 8.262E+01, 8.925E-01, 1.882E-01, 1.230E-02, 1.999E+02
 4.000E+02, 1.083E+02, 1.087E+02, 5.915E+01, 1.788E+02, 8.712E+01, 6.113E+01, 1.813E+02, 8.375E+01, 1.125E+00, 1.880E-01, 1.241E-02, 2.000E+02
 4.100E+02, 1.091E+02, 1.091E+02, 6.033E+01, 1.818E+02, 8.512E+01, 6.118E+01, 1.818E+02, 8.415E+01, 1.044E+00, 1.879E-01, 1.249E-02, 2.004E+02
 4.200E+02, 1.081E+02, 1.096E+02, 5.930E+01, 1.784E+02, 8.646E+01, 6.084E+01, 1.829E+02, 8.507E+01, 1.216E+00, 1.877E-01, 1.257E-02, 1.995E+02
 4.300E+02, 1.077E+02, 1.099E+02, 5.818E+01, 1.783E+02, 8.656E+01, 6.077E+01, 1.848E+02, 8.421E+01, 1.144E+00, 1.876E-01, 1.263E-02, 2.003E+02
 4.400E+02, 1.090E+02, 1.099E+02, 5.826E+01, 1.807E+02, 8.810E+01, 6.168E+01, 1.828E+02, 8.535E+01, 1.188E+00, 1.874E-01, 1.274E-02, 1.996E+02
 4.500E+02, 1.092E+02, 1.107E+02, 5.911E+01, 1.818E+02, 8.657E+01, 6.150E+01, 1.827E+02, 8.783E+01, 8.752E-01, 1.872E-01, 1.290E-02, 2.000E+02
 4.600E+02, 1.087E+02, 1.104E+02, 5.867E+01, 1.808E+02, 8.652E+01, 6.179E+01, 1.842E+02, 8.515E+01, 1.099E+00, 1.872E-01, 1.287E-02, 1.997E+02
 4.700E+02, 1.097E+02, 1.113E+02, 6.019E+01, 1.804E+02, 8.841E+01, 6.165E+01, 1.872E+02, 8.515E+01, 1.127E+00, 1.871E-01, 1.292E-02, 2.004E+02
 4.800E+02, 1.090E+02, 1.105E+02, 5.920E+01, 1.808E+02, 8.705E+01, 6.149E+01, 1.843E+02, 8.580E+01, 1.219E+00, 1.871E-01, 1.295E-02, 2.002E+02
 4.900E+02, 1.096E+02, 1.110E+02, 5.956E+01, 1.801E+02, 8.928E+01, 6.120E+01, 1.846E+02, 8.703E+01, 1.235E+00, 1.870E-01, 1.301E-02, 1.995E+02
 5.000E+02, 1.096E+02, 1.111E+02, 5.852E+01, 1.794E+02, 9.088E+01, 6.165E+01, 1.851E+02, 8.669E+01, 1.272E+00, 1.869E-01, 1.305E-02, 2.000E+02
 5.100E+02, 1.095E+02, 1.126E+02, 5.831E+01, 1.788E+02, 9.126E+01, 6.141E+01, 1.865E+02, 8.985E+01, 1.351E+00, 1.867E-01, 1.314E-02, 2.001E+02
 5.200E+02, 1.085E+02, 1.124E+02, 5.830E+01, 1.771E+02, 8.993E+01, 6.111E+01, 1.855E+02, 9.062E+01, 1.469E+00, 1.867E-01, 1.318E-02, 1.994E+02
 5.300E+02, 1.097E+02, 1.120E+02, 5.889E+01, 1.769E+02, 9.343E+01, 6.129E+01, 1.839E+02, 9.080E+01, 1.577E+00, 1.866E-01, 1.321E-02, 2.002E+02
 5.400E+02, 1.103E+02, 1.124E+02, 5.943E+01, 1.777E+02, 9.375E+01, 6.130E+01, 1.843E+02, 9.145E+01, 1.459E+00, 1.866E-01, 1.322E-02, 1.997E+02
 5.500E+02, 1.094E+02, 1.127E+02, 5.927E+01, 1.761E+02, 9.288E+01, 6.149E+01, 1.837E+02, 9.285E+01, 1.368E+00, 1.866E-01, 1.319E-02, 2.001E+02
 5.600E+02, 1.107E+02, 1.134E+02, 5.822E+01, 1.796E+02, 9.422E+01, 6.193E+01, 1.864E+02, 9.196E+01, 1.067E+00, 1.866E-01, 1.320E-02, 1.998E+02
 5.700E+02, 1.118E+02, 1.132E+02, 5.970E+01, 1.838E+02, 9.193E+01, 6.191E+01, 1.862E+02, 9.157E+01, 8.575E-01, 1.866E-01, 1.324E-02, 2.002E+02
 5.800E+02, 1.109E+02, 1.122E+02, 6.036E+01, 1.804E+02, 9.185E+01, 6.201E+01, 1.857E+02, 8.895E+01, 1.179E+00, 1.866E-01, 1.323E-02, 1.998E+02
 5.900E+02, 1.114E+02, 1.133E+02, 5.986E+01, 1.821E+02, 9.211E+01, 6.238E+01, 1.876E+02, 8.997E+01, 1.233E+00, 1.865E-01, 1.326E-02, 2.000E+02
 6.000E+02, 1.117E+02, 1.128E+02, 6.064E+01, 1.821E+02, 9.230E+01, 6.209E+01, 1.861E+02, 9.034E+01, 1.200E+00, 1.865E-01, 1.329E-02, 1.996E+02
 6.100E+02, 1.109E+02, 1.132E+02, 6.081E+01, 1.797E+02, 9.228E+01, 6.239E+01, 1.869E+02, 9.037E+01, 1.378E+00, 1.863E-01, 1.335E-02, 1.998E+02
 6.200E+02, 1.111E+02, 1.140E+02, 6.018E+01, 1.811E+02, 9.210E+01, 6.191E+01, 1.884E+02, 9.183E+01, 1.197E+00, 1.864E-01, 1.333E-02, 2.004E+02
 6.300E+02, 1.124E+02, 1.141E+02, 6.116E+01, 1.838E+02, 9.227E+01, 6.274E+01, 1.897E+02, 8.980E+01, 1.008E+00, 1.864E-01, 1.330E-02, 1.996E+02
 6.400E+02, 1.119E+02, 1.142E+02, 6.101E+01, 1.827E+02, 9.189E+01, 6.267E+01, 1.900E+02, 8.986E+01, 1.193E+00, 1.865E-01, 1.329E-02, 2.006E+02
 6.500E+02, 1.129E+02, 1.140E+02, 6.138E+01, 1.838E+02, 9.354E+01, 6.278E+01, 1.891E+02, 9.004E+01, 1.071E+00, 1.864E-01, 1.330E-02, 1.998E+02
 6.600E+02, 1.124E+02, 1.147E+02, 6.106E+01, 1.832E+02, 9.283E+01, 6.307E+01, 1.905E+02, 9.044E+01, 1.085E+00, 1.864E-01, 1.331E-02, 1.999E+02
 6.700E+02, 1.123E+02, 1.142E+02, 6.078E+01, 1.843E+02, 9.192E+01, 6.290E+01, 1.898E+02, 9.007E+01, 1.421E+00, 1.864E-01, 1.332E-02, 1.999E+02
 6.800E+02, 1.134E+02, 1.140E+02, 6.126E+01, 1.843E+02, 9.461E+01, 6.300E+01, 1.867E+02, 9.224E+01, 1.273E+00, 1.864E-01, 1.335E-02, 1.998E+02
 6.900E+02, 1.141E+02, 1.140E+02, 6.019E+01, 1.865E+02, 9.569E+01, 6.234E+01, 1.879E+02, 9.182E+01, 1.356E+00, 1.864E-01, 1.334E-02, 1.997E+02
 7.000E+02, 1.132E+02, 1.144E+02, 6.044E+01, 1.841E+02, 9.517E+01, 6.210E+01, 1.887E+02, 9.251E+01, 1.274E+00, 1.863E-01, 1.339E-02, 2.000E+02
 7.100E+02, 1.140E+02, 1.152E+02, 6.095E+01, 1.851E+02, 9.585E+01, 6.277E+01, 1.891E+02, 9.382E+01, 1.496E+00, 1.863E-01, 1.338E-02, 1.997E+02
 7.200E+02, 1.138E+02, 1.160E+02, 6.091E+01, 1.840E+02, 9.637E+01, 6.310E+01, 1.890E+02, 9.601E+01, 1.407E+00, 1.863E-01, 1.339E-02, 2.001E+02
 7.300E+02, 1.150E+02, 1.149E+02, 6.082E+01, 1.846E+02, 9.942E+01, 6.229E+01, 1.888E+02, 9.348E+01, 1.393E+00, 1.863E-01, 1.340E-02, 2.000E+02
 7.400E+02, 1.147E+02, 1.146E+02, 6.168E+01, 1.830E+02, 9.930E+01, 6.158E+01, 1.869E+02, 9.534E+01, 1.631E+00, 1.862E-01, 1.342E-02, 1.998E+02
 7.500E+02, 1.144E+02, 1.156E+02, 6.129E+01, 1.843E+02, 9.743E+01, 6.214E+01, 1.877E+02, 9.713E+01, 1.272E+00, 1.862E-01, 1.342E-02, 2.002E+02
 7.600E+02, 1.146E+02, 1.160E+02, 6.202E+01, 1.826E+02, 9.928E+01, 6.240E+01, 1.903E+02, 9.537E+01, 1.149E+00, 1.863E-01, 1.340E-02, 1.997E+02
 7.700E+02, 1.148E+02, 1.151E+02, 6.171E+01, 1.877E+02, 9.504E+01, 6.318E+01, 1.883E+02, 9.390E+01, 1.208E+00, 1.863E-01, 1.338E-02, 1.996E+02
 7.800E+02, 1.147E+02, 1.162E+02, 6.201E+01, 1.855E+02, 9.670E+01, 6.360E+01, 1.910E+02, 9.407E+01, 1.193E+00, 1.863E-01, 1.336E-02, 2.004E+02
 7.900E+02, 1.147E+02, 1.168E+02, 6.096E+01, 1.864E+02, 9.687E+01, 6.372E+01, 1.923E+02, 9.425E+01, 1.196E+00, 1.864E-01, 1.334E-02, 1.997E+02
 8.000E+02, 1.148E+02, 1.160E+02, 6.152E+01, 1.882E+02, 9.475E+01, 6.359E+01, 1.913E+02, 9.301E+01, 1.126E+00, 1.864E-01, 1.335E-02, 1.994E+02
 8.100E+02, 1.139E+02, 1.161E+02, 6.130E+01, 1.850E+02, 9.559E+01, 6.352E+01, 1.903E+02, 9.459E+01, 1.447E+00, 1.864E-01, 1.335E-02, 2.004E+02
 8.200E+02, 1.152E+02, 1.159E+02, 6.161E+01, 1.884E+02, 9.574E+01, 6.287E+01, 1.914E+02, 9.333E+01, 1.218E+00, 1.863E-01, 1.335E-02, 1.996E+02
 8.300E+02, 1.155E+02, 1.160E+02, 6.108E+01, 1.877E+02, 9.773E+01, 6.295E+01, 1.913E+02, 9.362E+01, 1.299E+00, 1.863E-01, 1.335E-02, 1.999E+02
 8.400E+02, 1.164E+02, 1.156E+02, 6.122E+01, 1.897E+02, 9.820E+01, 6.312E+01, 1.897E+02, 9.403E+01, 1.243E+00, 1.863E-01, 1.337E-02, 2.004E+02
 8.500E+02, 1.150E+02, 1.165E+02, 6.199E+01, 1.864E+02, 9.657E+01, 6.355E+01, 1.905E+02, 9.540E+01, 1.174E+00, 1.863E-01, 1.335E-02, 1.998E+02
 8.600E+02, 1.158E+02, 1.170E+02, 6.213E+01, 1.867E+02, 9.843E+01, 6.351E+01, 1.926E+02, 9.486E+01, 9.890E-01, 1.864E-01, 1.335E-02, 2.002E+02
 8.700E+02, 1.153E+02, 1.164E+02, 6.270E+01, 1.854E+02, 9.783E+01, 6.369E+01, 1.906E+02, 9.488E+01, 1.116E+00, 1.863E-01, 1.336E-02, 2.001E+02
 8.800E+02, 1.153E+02, 1.168E+02, 6.208E+01, 1.883E+02, 9.552E+01, 6.368E+01, 1.913E+02, 9.558E+01, 1.254E+00, 1.863E-01, 1.339E-02, 2.001E+02
 8.900E+02, 1.159E+02, 1.169E+02, 6.222E+01, 1.900E+02, 9.550E+01, 6.399E+01, 1.916E+02, 9.521E+01, 1.151E+00, 1.863E-01, 1.338E-02, 1.997E+02
 9.000E+02, 1.168E+02, 1.177E+02, 6.258E+01, 1.915E+02, 9.637E+01, 6.368E+01, 1.948E+02, 9.478E+01, 9.872E-01, 1.863E-01, 1.337E-02, 1.997E+02
 9.100E+02, 1.170E+02, 1.171E+02, 6.348E+01, 1.912E+02, 9.628E+01, 6.444E+01, 1.938E+02, 9.295E+01, 1.005E+00, 1.863E-01, 1.336E-02, 2.001E+02
 9.200E+02, 1.161E+02, 1.172E+02, 6.143E+01, 1.904E+02, 9.657E+01, 6.407E+01, 1.937E+02, 9.381E+01, 1.393E+00, 1.863E-01, 1.338E-02, 1.996E+02
 9.300E+02, 1.157E+02, 1.177E+02, 6.362E+01, 1.873E+02, 9.628E+01, 6.435E+01, 1.930E+02, 9.569E+01, 1.255E+00, 1.862E-01, 1.341E-02, 2.003E+02
 9.400E+02, 1.155E+02, 1.175E+02, 6.223E+01, 1.870E+02, 9.739E+01, 6.365E+01, 1.917E+02, 9.723E+01, 1.441E+00, 1.862E-01, 1.341E-02, 1.995E+02
 9.500E+02, 1.161E+02, 1.176E+02, 6.218E+01, 1.869E+02, 9.931E+01, 6.386E+01, 1.918E+02, 9.700E+01, 1.132E+00, 1.863E-01, 1.340E-02, 2.003E+02
 9.600E+02, 1.171E+02, 1.176E+02, 6.194E+01, 1.892E+02, 1.002E+02, 6.373E+01, 1.915E+02, 9.759E+01, 1.535E+00, 1.863E-01, 1.336E-02, 1.999E+02
 9.700E+02, 1.175E+02, 1.175E+02, 6.139E+01, 1.896E+02, 1.014E+02, 6.380E+01, 1.913E+02, 9.742E+01, 1.067E+00, 1.863E-01, 1.338E-02, 2.000E+02
 9.800E+02, 1.172E+02, 1.176E+02, 6.115E+01, 1.903E+02, 1.001E+02, 6.389E+01, 1.918E+02, 9.719E+01, 1.387E+00, 1.863E-01, 1.337E-02, 1.999E+02
 9.900E+02, 1.183E+02, 1.192E+02, 6.253E+01, 1.901E+02, 1.024E+02, 6.367E+01, 1.951E+02, 9.891E+01, 1.313E+00, 1.864E-01, 1.333E-02, 2.004E+02
 1.000E+03, 1.188E+02, 1.186E+02, 6.304E+01, 1.925E+02, 1.008E+02, 6.428E+01, 1.940E+02, 9.750E+01, 1.068E+00, 1.864E-01, 1.331E-02, 1.996E+02
 1.010E+03, 1.188E+02, 1.178E+02, 6.327E+01, 1.923E+02, 1.008E+02, 6.460E+01, 1.924E+02, 9.629E+01, 1.376E+00, 1.865E-01, 1.329E-02, 1.999E+02
 1.020E+03, 1.179E+02, 1.193E+02, 6.215E+01, 1.911E+02, 1.003E+02, 6.507E+01, 1.941E+02, 9.873E+01, 1.222E+00, 1.864E-01, 1.330E-02, 2.002E+02
 1.030E+03, 1.177E+02, 1.189E+02, 6.169E+01, 1.906E+02, 1.007E+02, 6.415E+01, 1.951E+02, 9.740E+01, 1.205E+00, 1.864E-01, 1.331E-02, 1.999E+02
 1.040E+03, 1.192E+02, 1.183E+02, 6.354E+01, 1.909E+02, 1.032E+02, 6.443E+01, 1.921E+02, 9.822E+01, 1.655E+00, 1.864E-01, 1.334E-02, 2.000E+02
 1.050E+03, 1.185E+02, 1.199E+02, 6.267E+01, 1.898E+02, 1.030E+02, 6.453E+01, 1.939E+02, 1.013E+02, 1.239E+00, 1.863E-01, 1.337E-02, 2.001E+02
 1.060E+03, 1.183E+02, 1.194E+02, 6.310E+01, 1.895E+02, 1.023E+02, 6.397E+01, 1.936E+02, 1.006E+02, 1.469E+00, 1.863E-01, 1.336E-02, 1.993E+02
 1.070E+03, 1.187E+02, 1.189E+02, 6.358E+01, 1.906E+02, 1.019E+02, 6.338E+01, 1.925E+02, 1.007E+02, 1.257E+00, 1.863E-01, 1.335E-02, 2.003E+02
 1.080E+03, 1.187E+02, 1.190E+02, 6.350E+01, 1.904E+02, 1.020E+02, 6.409E+01, 1.930E+02, 9.988E+01, 1.214E+00, 1.864E-01, 1.335E-02, 2.000E+02
 1.090E+03, 1.185E+02, 1.189E+02, 6.295E+01, 1.899E+02, 1.026E+02, 6.369E+01, 1.946E+02, 9.837E+01, 1.217E+00, 1.864E-01, 1.333E-02, 1.999E+02
 1.100E+03, 1.194E+02, 1.199E+02, 6.228E+01, 1.929E+02, 1.029E+02, 6.522E+01, 1.951E+02, 9.930E+01, 1.407E+00, 1.864E-01, 1.332E-02, 2.000E+02
 1.110E+03, 1.179E+02, 1.197E+02, 6.231E+01, 1.913E+02, 1.002E+02, 6.485E+01, 1.939E+02, 1.004E+02, 1.498E+00, 1.864E-01, 1.332E-02, 1.998E+02
 1.120E+03, 1.193E+02, 1.204E+02, 6.154E+01, 1.931E+02, 1.033E+02, 6.422E+01, 1.959E+02, 1.010E+02, 1.298E+00, 1.864E-01, 1.331E-02, 2.000E+02
 1.130E+03, 1.177E+02, 1.194E+02, 6.232E+01, 1.888E+02, 1.021E+02, 6.439E+01, 1.944E+02, 9.942E+01, 1.368E+00, 1.864E-01, 1.331E-02, 2.002E+02
 1.140E+03, 1.195E+02, 1.203E+02, 6.298E+01, 1.917E+02, 1.037E+02, 6.478E+01, 1.950E+02, 1.011E+02, 1.095E+00, 1.864E-01, 1.330E-02, 1.997E+02
 1.150E+03, 1.201E+02, 1.204E+02, 6.336E+01, 1.938E+02, 1.032E+02, 6.478E+01, 1.964E+02, 9.996E+01, 1.493E+00, 1.864E-01, 1.332E-02, 2.002E+02
 1.160E+03, 1.196E+02, 1.210E+02, 6.294E+01, 1.927E+02, 1.032E+02, 6.490E+01, 1.981E+02, 9.994E+01, 1.368E+00, 1.864E-01, 1.331E-02, 1.996E+02
 1.170E+03, 1.212E+02, 1.199E+02, 6.460E+01, 1.937E+02, 1.054E+02, 6.445E+01, 1.947E+02, 1.005E+02, 1.460E+00, 1.864E-01, 1.331E-02, 2.000E+02
 1.180E+03, 1.197E+02, 1.207E+02, 6.371E+01, 1.921E+02, 1.032E+02, 6.486E+01, 1.955E+02, 1.016E+02, 1.332E+00, 1.864E-01, 1.333E-02, 2.002E+02
 1.190E+03, 1.194E+02, 1.205E+02, 6.364E+01, 1.907E+02, 1.040E+02, 6.391E+01, 1.954E+02, 1.021E+02, 1.564E+00, 1.864E-01, 1.333E-02, 1.998E+02
 1.200E+03, 1.198E+02, 1.200E+02, 6.376E+01, 1.916E+02, 1.040E+02, 6.389E+01, 1.936E+02, 1.024E+02, 1.247E+00, 1.864E-01, 1.334E-02, 2.000E+02
 1.210E+03, 1.198E+02, 1.199E+02, 6.508E+01, 1.912E+02, 1.032E+02, 6.339E+01, 1.945E+02, 1.019E+02, 1.342E+00, 1.864E-01, 1.334E-02, 2.000E+02
 1.220E+03, 1.198E+02, 1.204E+02, 6.337E+01, 1.918E+02, 1.042E+02, 6.363E+01, 1.953E+02, 1.021E+02, 1.413E+00, 1.864E-01, 1.332E-02, 1.998E+02
 1.230E+03, 1.203E+02, 1.202E+02, 6.493E+01, 1.902E+02, 1.059E+02, 6.320E+01, 1.973E+02, 9.993E+01, 1.276E+00, 1.864E-01, 1.332E-02, 2.000E+02
 1.240E+03, 1.222E+02, 1.200E+02, 6.505E+01, 1.959E+02, 1.058E+02, 6.395E+01, 1.942E+02, 1.018E+02, 1.542E+00, 1.865E-01, 1.326E-02, 2.000E+02
 1.250E+03, 1.203E+02, 1.206E+02, 6.417E+01, 1.908E+02, 1.060E+02, 6.511E+01, 1.944E+02, 1.023E+02, 1.403E+00, 1.866E-01, 1.324E-02, 2.000E+02
 1.260E+03, 1.207E+02, 1.213E+02, 6.440E+01, 1.916E+02, 1.062E+02, 6.375E+01, 1.983E+02, 1.018E+02, 1.485E+00, 1.866E-01, 1.320E-02, 1.996E+02
 1.270E+03, 1.215E+02, 1.199E+02, 6.319E+01, 1.949E+02, 1.064E+02, 6.392E+01, 1.943E+02, 1.016E+02, 1.445E+00, 1.868E-01, 1.312E-02, 2.003E+02
 1.280E+03, 1.198E+02, 1.213E+02, 6.327E+01, 1.907E+02, 1.055E+02, 6.495E+01, 1.952E+02, 1.038E+02, 1.532E+00, 1.868E-01, 1.309E-02, 2.001E+02
 1.290E+03, 1.197E+02, 1.211E+02, 6.320E+01, 1.904E+02, 1.055E+02, 6.491E+01, 1.958E+02, 1.027E+02, 1.507E+00, 1.869E-01, 1.305E-02, 1.995E+02
 1.300E+03, 1.214E+02, 1.212E+02, 6.379E+01, 1.935E+02, 1.069E+02, 6.466E+01, 1.962E+02, 1.027E+02, 1.391E+00, 1.869E-01, 1.302E-02, 2.006E+02
 1.310E+03, 1.213E+02, 1.208E+02, 6.305E+01, 1.951E+02, 1.058E+02, 6.436E+01, 1.956E+02, 1.024E+02, 1.449E+00, 1.870E-01, 1.301E-02, 1.997E+02
