s,C,C,C,C,C,C,C,C,Pa,mol/mol,mol/mol,kW
Time,"West_All_TCs","East_All_TCs","West_Bottom_TCs","West_Middle_TCs","West_Upper_TCs","East_Bottom_TCs","East_Middle_TCs","East_Upper_TCs","Pressure","O2","CO2","HRR"
-6.000E+01, 2.600E+01, 2.600E+01, 2.600E+01, 2.600E+01, 2.600E+01, 2.600E+01, 2.600E+01, 2.600E+01,-9.592E-06, 2.095E-01, 3.901E-04, 0.000E+00
-4.998E+01, 2.596E+01, 2.596E+01, 2.596E+01, 2.596E+01, 2.595E+01, 2.596E+01, 2.596E+01, 2.596E+01,-7.204E+01, 2.095E-01, 3.901E-04, 0.000E+00
-3.996E+01, 2.594E+01, 2.596E+01, 2.595E+01, 2.594E+01, 2.594E+01, 2.598E+01, 2.595E+01, 2.595E+01,-7.302E+01, 2.095E-01, 3.901E-04, 0.000E+00
-2.998E+01, 2.594E+01, 2.596E+01, 2.594E+01, 2.594E+01, 2.594E+01, 2.599E+01, 2.595E+01, 2.595E+01,-7.305E+01, 2.095E-01, 3.901E-04, 0.000E+00
-1.996E+01, 2.594E+01, 2.596E+01, 2.594E+01, 2.593E+01, 2.593E+01, 2.600E+01, 2.595E+01, 2.595E+01,-7.308E+01, 2.095E-01, 3.901E-04, 0.000E+00
-9.985E+00, 2.593E+01, 2.597E+01, 2.594E+01, 2.593E+01, 2.593E+01, 2.600E+01, 2.596E+01, 2.595E+01,-7.309E+01, 2.095E-01, 3.901E-04, 0.000E+00
 3.528E-02, 2.593E+01, 2.596E+01, 2.594E+01, 2.594E+01, 2.593E+01, 2.600E+01, 2.596E+01, 2.594E+01,-7.311E+01, 2.095E-01, 3.901E-04, 1.330E-04
 1.001E+01, 2.690E+01, 2.707E+01, 2.646E+01, 2.829E+01, 2.596E+01, 2.670E+01, 2.855E+01, 2.597E+01,-3.382E+01, 2.095E-01, 3.901E-04, 3.256E+01
 2.001E+01, 3.151E+01, 3.124E+01, 2.885E+01, 3.919E+01, 2.649E+01, 2.876E+01, 3.899E+01, 2.598E+01, 2.845E+00, 2.095E-01, 3.901E-04, 9.890E+01
 3.001E+01, 3.981E+01, 4.047E+01, 3.239E+01, 5.876E+01, 2.826E+01, 3.429E+01, 6.124E+01, 2.589E+01, 3.690E+01, 2.095E-01, 3.901E-04, 1.658E+02
 4.002E+01, 5.115E+01, 5.153E+01, 4.086E+01, 8.372E+01, 2.888E+01, 4.262E+01, 8.552E+01, 2.645E+01, 5.338E+01, 2.095E-01, 4.430E-04, 2.004E+02
 5.001E+01, 6.208E+01, 6.315E+01, 5.210E+01, 1.034E+02, 3.068E+01, 5.331E+01, 1.066E+02, 2.956E+01, 2.950E+01, 2.089E-01, 7.486E-04, 1.995E+02
 6.002E+01, 7.273E+01, 7.377E+01, 6.604E+01, 1.203E+02, 3.181E+01, 6.869E+01, 1.210E+02, 3.162E+01, 1.581E+01, 2.086E-01, 9.456E-04, 2.001E+02
 7.000E+01, 8.152E+01, 8.521E+01, 8.060E+01, 1.297E+02, 3.430E+01, 8.041E+01, 1.408E+02, 3.441E+01, 7.646E+00, 2.081E-01, 1.216E-03, 2.001E+02
 8.002E+01, 8.781E+01, 9.164E+01, 9.161E+01, 1.355E+02, 3.633E+01, 9.430E+01, 1.447E+02, 3.594E+01, 3.721E-01, 2.078E-01, 1.365E-03, 2.009E+02
 9.001E+01, 9.624E+01, 9.757E+01, 1.017E+02, 1.490E+02, 3.805E+01, 1.045E+02, 1.499E+02, 3.831E+01,-6.500E+00, 2.075E-01, 1.538E-03, 2.013E+02
 1.000E+02, 1.030E+02, 1.008E+02, 1.109E+02, 1.573E+02, 4.075E+01, 1.132E+02, 1.484E+02, 4.074E+01,-1.883E+01, 2.069E-01, 1.847E-03, 1.972E+02
 1.100E+02, 1.056E+02, 1.061E+02, 1.157E+02, 1.598E+02, 4.121E+01, 1.186E+02, 1.579E+02, 4.186E+01,-2.311E+01, 2.067E-01, 1.975E-03, 2.008E+02
 1.200E+02, 1.083E+02, 1.108E+02, 1.196E+02, 1.625E+02, 4.260E+01, 1.229E+02, 1.652E+02, 4.428E+01,-3.160E+01, 2.062E-01, 2.256E-03, 1.982E+02
 1.300E+02, 1.101E+02, 1.132E+02, 1.214E+02, 1.641E+02, 4.467E+01, 1.240E+02, 1.699E+02, 4.581E+01,-3.994E+01, 2.058E-01, 2.493E-03, 2.015E+02
 1.400E+02, 1.121E+02, 1.153E+02, 1.232E+02, 1.672E+02, 4.570E+01, 1.269E+02, 1.718E+02, 4.709E+01,-4.739E+01, 2.053E-01, 2.740E-03, 1.991E+02
 1.500E+02, 1.144E+02, 1.153E+02, 1.252E+02, 1.704E+02, 4.774E+01, 1.279E+02, 1.705E+02, 4.758E+01,-5.028E+01, 2.048E-01, 3.037E-03, 2.001E+02
 1.600E+02, 1.157E+02, 1.176E+02, 1.254E+02, 1.735E+02, 4.827E+01, 1.309E+02, 1.735E+02, 4.850E+01,-5.114E+01, 2.042E-01, 3.404E-03, 1.991E+02
 1.700E+02, 1.163E+02, 1.187E+02, 1.267E+02, 1.727E+02, 4.948E+01, 1.304E+02, 1.757E+02, 5.007E+01,-5.219E+01, 2.035E-01, 3.793E-03, 2.010E+02
 1.800E+02, 1.174E+02, 1.200E+02, 1.281E+02, 1.739E+02, 5.018E+01, 1.341E+02, 1.758E+02, 5.016E+01,-5.313E+01, 2.030E-01, 4.067E-03, 2.004E+02
 1.900E+02, 1.172E+02, 1.215E+02, 1.302E+02, 1.709E+02, 5.046E+01, 1.330E+02, 1.796E+02, 5.191E+01,-5.908E+01, 2.023E-01, 4.429E-03, 1.995E+02
 2.000E+02, 1.180E+02, 1.223E+02, 1.291E+02, 1.734E+02, 5.157E+01, 1.385E+02, 1.769E+02, 5.167E+01,-5.713E+01, 2.019E-01, 4.658E-03, 1.989E+02
 2.100E+02, 1.197E+02, 1.231E+02, 1.310E+02, 1.760E+02, 5.207E+01, 1.383E+02, 1.789E+02, 5.214E+01,-5.522E+01, 2.011E-01, 5.134E-03, 1.997E+02
 2.200E+02, 1.190E+02, 1.267E+02, 1.314E+02, 1.734E+02, 5.221E+01, 1.416E+02, 1.846E+02, 5.392E+01,-6.064E+01, 2.002E-01, 5.635E-03, 2.002E+02
 2.300E+02, 1.189E+02, 1.253E+02, 1.311E+02, 1.736E+02, 5.202E+01, 1.418E+02, 1.819E+02, 5.226E+01,-5.990E+01, 1.998E-01, 5.842E-03, 1.996E+02
 2.400E+02, 1.190E+02, 1.248E+02, 1.318E+02, 1.729E+02, 5.226E+01, 1.402E+02, 1.808E+02, 5.342E+01,-5.813E+01, 1.991E-01, 6.240E-03, 2.010E+02
 2.500E+02, 1.209E+02, 1.248E+02, 1.335E+02, 1.764E+02, 5.282E+01, 1.409E+02, 1.811E+02, 5.237E+01,-6.087E+01, 1.986E-01, 6.516E-03, 1.973E+02
 2.600E+02, 1.219E+02, 1.242E+02, 1.340E+02, 1.778E+02, 5.379E+01, 1.399E+02, 1.785E+02, 5.418E+01,-5.995E+01, 1.975E-01, 7.101E-03, 2.020E+02
 2.700E+02, 1.222E+02, 1.265E+02, 1.353E+02, 1.780E+02, 5.336E+01, 1.410E+02, 1.835E+02, 5.511E+01,-6.022E+01, 1.965E-01, 7.652E-03, 1.983E+02
 2.800E+02, 1.225E+02, 1.268E+02, 1.346E+02, 1.786E+02, 5.441E+01, 1.437E+02, 1.828E+02, 5.398E+01,-5.416E+01, 1.962E-01, 7.838E-03, 2.007E+02
 2.900E+02, 1.234E+02, 1.290E+02, 1.378E+02, 1.774E+02, 5.505E+01, 1.434E+02, 1.879E+02, 5.584E+01,-5.460E+01, 1.947E-01, 8.681E-03, 2.002E+02
 3.000E+02, 1.233E+02, 1.298E+02, 1.359E+02, 1.800E+02, 5.413E+01, 1.429E+02, 1.908E+02, 5.572E+01,-6.246E+01, 1.942E-01, 8.973E-03, 1.990E+02
 3.100E+02, 1.223E+02, 1.290E+02, 1.345E+02, 1.778E+02, 5.455E+01, 1.426E+02, 1.898E+02, 5.468E+01,-6.241E+01, 1.938E-01, 9.185E-03, 1.980E+02
 3.200E+02, 1.247E+02, 1.303E+02, 1.349E+02, 1.830E+02, 5.615E+01, 1.447E+02, 1.898E+02, 5.641E+01,-6.277E+01, 1.929E-01, 9.680E-03, 2.005E+02
 3.300E+02, 1.247E+02, 1.291E+02, 1.374E+02, 1.817E+02, 5.504E+01, 1.422E+02, 1.885E+02, 5.644E+01,-5.743E+01, 1.918E-01, 1.028E-02, 2.004E+02
 3.400E+02, 1.260E+02, 1.281E+02, 1.392E+02, 1.827E+02, 5.606E+01, 1.432E+02, 1.853E+02, 5.570E+01,-5.843E+01, 1.912E-01, 1.063E-02, 2.003E+02
 3.500E+02, 1.260E+02, 1.314E+02, 1.395E+02, 1.825E+02, 5.595E+01, 1.446E+02, 1.925E+02, 5.702E+01,-5.760E+01, 1.898E-01, 1.143E-02, 1.982E+02
 3.600E+02, 1.270E+02, 1.302E+02, 1.398E+02, 1.858E+02, 5.538E+01, 1.481E+02, 1.859E+02, 5.660E+01,-5.491E+01, 1.892E-01, 1.178E-02, 2.014E+02
 3.700E+02, 1.283E+02, 1.312E+02, 1.393E+02, 1.893E+02, 5.617E+01, 1.496E+02, 1.878E+02, 5.627E+01,-6.377E+01, 1.886E-01, 1.207E-02, 1.983E+02
 3.800E+02, 1.272E+02, 1.319E+02, 1.377E+02, 1.870E+02, 5.684E+01, 1.493E+02, 1.891E+02, 5.744E+01,-5.970E+01, 1.878E-01, 1.254E-02, 2.001E+02
 3.900E+02, 1.266E+02, 1.335E+02, 1.382E+02, 1.860E+02, 5.569E+01, 1.517E+02, 1.922E+02, 5.650E+01,-6.066E+01, 1.871E-01, 1.292E-02, 1.995E+02
 4.000E+02, 1.265E+02, 1.338E+02, 1.392E+02, 1.844E+02, 5.579E+01, 1.499E+02, 1.950E+02, 5.658E+01,-6.132E+01, 1.863E-01, 1.339E-02, 2.001E+02
 4.100E+02, 1.275E+02, 1.321E+02, 1.395E+02, 1.861E+02, 5.685E+01, 1.494E+02, 1.901E+02, 5.687E+01,-6.119E+01, 1.855E-01, 1.380E-02, 2.003E+02
 4.200E+02, 1.289E+02, 1.325E+02, 1.444E+02, 1.859E+02, 5.656E+01, 1.523E+02, 1.889E+02, 5.648E+01,-5.501E+01, 1.848E-01, 1.420E-02, 1.990E+02
 4.300E+02, 1.288E+02, 1.314E+02, 1.421E+02, 1.869E+02, 5.738E+01, 1.464E+02, 1.909E+02, 5.675E+01,-5.361E+01, 1.837E-01, 1.485E-02, 1.992E+02
 4.400E+02, 1.298E+02, 1.341E+02, 1.435E+02, 1.882E+02, 5.758E+01, 1.514E+02, 1.930E+02, 5.788E+01,-5.341E+01, 1.826E-01, 1.543E-02, 2.010E+02
 4.500E+02, 1.305E+02, 1.352E+02, 1.421E+02, 1.911E+02, 5.823E+01, 1.509E+02, 1.973E+02, 5.759E+01,-6.227E+01, 1.817E-01, 1.593E-02, 1.979E+02
 4.600E+02, 1.304E+02, 1.349E+02, 1.429E+02, 1.913E+02, 5.689E+01, 1.524E+02, 1.944E+02, 5.795E+01,-6.012E+01, 1.812E-01, 1.624E-02, 1.988E+02
 4.700E+02, 1.285E+02, 1.362E+02, 1.409E+02, 1.868E+02, 5.800E+01, 1.531E+02, 1.974E+02, 5.807E+01,-6.198E+01, 1.803E-01, 1.673E-02, 1.961E+02
 4.800E+02, 1.299E+02, 1.349E+02, 1.426E+02, 1.892E+02, 5.784E+01, 1.520E+02, 1.959E+02, 5.674E+01,-5.041E+01, 1.800E-01, 1.687E-02, 2.042E+02
 4.900E+02, 1.311E+02, 1.362E+02, 1.434E+02, 1.907E+02, 5.912E+01, 1.528E+02, 1.981E+02, 5.762E+01,-6.161E+01, 1.789E-01, 1.753E-02, 2.000E+02
 5.000E+02, 1.321E+02, 1.351E+02, 1.457E+02, 1.922E+02, 5.833E+01, 1.527E+02, 1.937E+02, 5.886E+01,-6.566E+01, 1.785E-01, 1.774E-02, 1.967E+02
 5.100E+02, 1.314E+02, 1.343E+02, 1.451E+02, 1.901E+02, 5.902E+01, 1.486E+02, 1.963E+02, 5.804E+01,-5.887E+01, 1.775E-01, 1.832E-02, 2.008E+02
 5.200E+02, 1.320E+02, 1.376E+02, 1.461E+02, 1.918E+02, 5.804E+01, 1.545E+02, 1.992E+02, 5.916E+01,-5.628E+01, 1.767E-01, 1.875E-02, 1.991E+02
 5.300E+02, 1.330E+02, 1.378E+02, 1.468E+02, 1.928E+02, 5.946E+01, 1.583E+02, 1.970E+02, 5.823E+01,-5.349E+01, 1.758E-01, 1.926E-02, 1.995E+02
 5.400E+02, 1.337E+02, 1.381E+02, 1.455E+02, 1.960E+02, 5.940E+01, 1.556E+02, 1.989E+02, 5.983E+01,-6.652E+01, 1.745E-01, 1.997E-02, 1.941E+02
 5.500E+02, 1.330E+02, 1.388E+02, 1.461E+02, 1.932E+02, 5.955E+01, 1.546E+02, 2.025E+02, 5.926E+01,-5.928E+01, 1.742E-01, 2.012E-02, 2.037E+02
 5.600E+02, 1.330E+02, 1.394E+02, 1.454E+02, 1.933E+02, 6.026E+01, 1.568E+02, 2.023E+02, 5.918E+01,-6.059E+01, 1.734E-01, 2.061E-02, 1.983E+02
 5.700E+02, 1.325E+02, 1.398E+02, 1.454E+02, 1.925E+02, 5.965E+01, 1.574E+02, 2.024E+02, 5.969E+01,-5.535E+01, 1.726E-01, 2.104E-02, 2.011E+02
 5.800E+02, 1.337E+02, 1.397E+02, 1.472E+02, 1.937E+02, 6.013E+01, 1.561E+02, 2.033E+02, 5.966E+01,-6.733E+01, 1.717E-01, 2.151E-02, 1.969E+02
 5.900E+02, 1.348E+02, 1.386E+02, 1.476E+02, 1.972E+02, 5.950E+01, 1.525E+02, 2.033E+02, 5.993E+01,-6.322E+01, 1.710E-01, 2.193E-02, 2.004E+02
 6.000E+02, 1.354E+02, 1.399E+02, 1.481E+02, 1.981E+02, 5.994E+01, 1.551E+02, 2.056E+02, 5.905E+01,-5.944E+01, 1.703E-01, 2.231E-02, 1.985E+02
 6.100E+02, 1.340E+02, 1.403E+02, 1.478E+02, 1.950E+02, 5.929E+01, 1.572E+02, 2.037E+02, 6.003E+01,-6.315E+01, 1.697E-01, 2.267E-02, 2.001E+02
 6.200E+02, 1.355E+02, 1.402E+02, 1.484E+02, 1.979E+02, 6.030E+01, 1.583E+02, 2.020E+02, 6.029E+01,-5.916E+01, 1.693E-01, 2.289E-02, 2.020E+02
 6.300E+02, 1.355E+02, 1.391E+02, 1.493E+02, 1.971E+02, 6.011E+01, 1.585E+02, 1.993E+02, 5.964E+01,-6.212E+01, 1.687E-01, 2.323E-02, 1.998E+02
 6.400E+02, 1.353E+02, 1.428E+02, 1.517E+02, 1.948E+02, 5.939E+01, 1.624E+02, 2.066E+02, 5.943E+01,-6.005E+01, 1.682E-01, 2.348E-02, 1.947E+02
 6.500E+02, 1.370E+02, 1.406E+02, 1.519E+02, 1.985E+02, 6.054E+01, 1.597E+02, 2.030E+02, 5.895E+01,-5.633E+01, 1.673E-01, 2.398E-02, 2.050E+02
 6.600E+02, 1.369E+02, 1.399E+02, 1.504E+02, 1.992E+02, 6.098E+01, 1.583E+02, 2.013E+02, 6.015E+01,-5.775E+01, 1.668E-01, 2.430E-02, 1.992E+02
 6.700E+02, 1.374E+02, 1.449E+02, 1.509E+02, 1.999E+02, 6.149E+01, 1.593E+02, 2.134E+02, 6.196E+01,-6.529E+01, 1.658E-01, 2.482E-02, 1.965E+02
 6.800E+02, 1.387E+02, 1.393E+02, 1.535E+02, 2.015E+02, 6.102E+01, 1.573E+02, 1.989E+02, 6.184E+01,-6.313E+01, 1.653E-01, 2.513E-02, 1.990E+02
 6.900E+02, 1.384E+02, 1.427E+02, 1.507E+02, 2.022E+02, 6.214E+01, 1.641E+02, 2.019E+02, 6.213E+01,-5.946E+01, 1.646E-01, 2.550E-02, 2.015E+02
 7.000E+02, 1.374E+02, 1.424E+02, 1.507E+02, 1.995E+02, 6.215E+01, 1.633E+02, 2.024E+02, 6.143E+01,-6.632E+01, 1.640E-01, 2.585E-02, 1.961E+02
 7.100E+02, 1.367E+02, 1.453E+02, 1.491E+02, 1.984E+02, 6.251E+01, 1.661E+02, 2.076E+02, 6.216E+01,-5.758E+01, 1.635E-01, 2.613E-02, 2.011E+02
 7.200E+02, 1.375E+02, 1.465E+02, 1.512E+02, 1.990E+02, 6.233E+01, 1.651E+02, 2.122E+02, 6.211E+01,-5.699E+01, 1.628E-01, 2.652E-02, 1.983E+02
 7.300E+02, 1.391E+02, 1.446E+02, 1.521E+02, 2.022E+02, 6.301E+01, 1.622E+02, 2.094E+02, 6.226E+01,-5.921E+01, 1.624E-01, 2.673E-02, 2.040E+02
 7.400E+02, 1.397E+02, 1.441E+02, 1.522E+02, 2.037E+02, 6.303E+01, 1.598E+02, 2.102E+02, 6.233E+01,-6.363E+01, 1.619E-01, 2.700E-02, 2.011E+02
 7.500E+02, 1.390E+02, 1.439E+02, 1.526E+02, 2.014E+02, 6.299E+01, 1.615E+02, 2.080E+02, 6.217E+01,-5.856E+01, 1.608E-01, 2.763E-02, 2.000E+02
 7.600E+02, 1.418E+02, 1.449E+02, 1.555E+02, 2.065E+02, 6.341E+01, 1.643E+02, 2.070E+02, 6.341E+01,-5.663E+01, 1.603E-01, 2.788E-02, 1.970E+02
 7.700E+02, 1.392E+02, 1.464E+02, 1.525E+02, 2.013E+02, 6.394E+01, 1.638E+02, 2.116E+02, 6.371E+01,-6.827E+01, 1.596E-01, 2.831E-02, 1.968E+02
 7.800E+02, 1.398E+02, 1.462E+02, 1.527E+02, 2.011E+02, 6.546E+01, 1.618E+02, 2.127E+02, 6.408E+01,-5.795E+01, 1.591E-01, 2.860E-02, 1.975E+02
 7.900E+02, 1.409E+02, 1.466E+02, 1.544E+02, 2.031E+02, 6.513E+01, 1.619E+02, 2.135E+02, 6.451E+01,-5.145E+01, 1.581E-01, 2.912E-02, 2.011E+02
 8.000E+02, 1.416E+02, 1.467E+02, 1.539E+02, 2.056E+02, 6.545E+01, 1.647E+02, 2.115E+02, 6.375E+01,-5.728E+01, 1.575E-01, 2.945E-02, 2.030E+02
 8.100E+02, 1.422E+02, 1.462E+02, 1.563E+02, 2.052E+02, 6.510E+01, 1.609E+02, 2.126E+02, 6.497E+01,-7.128E+01, 1.571E-01, 2.968E-02, 1.949E+02
 8.200E+02, 1.417E+02, 1.490E+02, 1.554E+02, 2.040E+02, 6.567E+01, 1.645E+02, 2.166E+02, 6.582E+01,-6.367E+01, 1.566E-01, 2.998E-02, 1.982E+02
 8.300E+02, 1.423E+02, 1.464E+02, 1.546E+02, 2.065E+02, 6.590E+01, 1.635E+02, 2.109E+02, 6.471E+01,-5.242E+01, 1.560E-01, 3.028E-02, 2.058E+02
 8.400E+02, 1.441E+02, 1.491E+02, 1.561E+02, 2.097E+02, 6.647E+01, 1.685E+02, 2.124E+02, 6.625E+01,-6.051E+01, 1.554E-01, 3.065E-02, 1.982E+02
 8.500E+02, 1.419E+02, 1.489E+02, 1.554E+02, 2.049E+02, 6.555E+01, 1.662E+02, 2.147E+02, 6.586E+01,-5.965E+01, 1.550E-01, 3.088E-02, 1.999E+02
 8.600E+02, 1.415E+02, 1.484E+02, 1.555E+02, 2.023E+02, 6.677E+01, 1.661E+02, 2.131E+02, 6.601E+01,-6.104E+01, 1.544E-01, 3.122E-02, 1.957E+02
 8.700E+02, 1.424E+02, 1.489E+02, 1.564E+02, 2.030E+02, 6.786E+01, 1.676E+02, 2.126E+02, 6.639E+01,-5.400E+01, 1.536E-01, 3.165E-02, 2.016E+02
 8.800E+02, 1.448E+02, 1.478E+02, 1.588E+02, 2.076E+02, 6.800E+01, 1.679E+02, 2.100E+02, 6.539E+01,-6.944E+01, 1.533E-01, 3.183E-02, 1.999E+02
 8.900E+02, 1.427E+02, 1.503E+02, 1.563E+02, 2.044E+02, 6.719E+01, 1.667E+02, 2.166E+02, 6.768E+01,-6.245E+01, 1.530E-01, 3.199E-02, 2.012E+02
 9.000E+02, 1.452E+02, 1.474E+02, 1.600E+02, 2.079E+02, 6.779E+01, 1.643E+02, 2.099E+02, 6.792E+01,-6.990E+01, 1.525E-01, 3.227E-02, 1.977E+02
 9.100E+02, 1.441E+02, 1.482E+02, 1.567E+02, 2.075E+02, 6.797E+01, 1.688E+02, 2.091E+02, 6.679E+01,-6.294E+01, 1.521E-01, 3.247E-02, 1.945E+02
 9.200E+02, 1.433E+02, 1.487E+02, 1.542E+02, 2.076E+02, 6.817E+01, 1.700E+02, 2.085E+02, 6.758E+01,-5.331E+01, 1.516E-01, 3.275E-02, 2.032E+02
 9.300E+02, 1.436E+02, 1.519E+02, 1.563E+02, 2.053E+02, 6.921E+01, 1.721E+02, 2.150E+02, 6.864E+01,-7.075E+01, 1.512E-01, 3.298E-02, 1.956E+02
 9.400E+02, 1.448E+02, 1.504E+02, 1.575E+02, 2.083E+02, 6.858E+01, 1.721E+02, 2.117E+02, 6.731E+01,-6.901E+01, 1.511E-01, 3.307E-02, 1.969E+02
 9.500E+02, 1.453E+02, 1.498E+02, 1.566E+02, 2.103E+02, 6.905E+01, 1.688E+02, 2.131E+02, 6.753E+01,-6.554E+01, 1.506E-01, 3.331E-02, 2.019E+02
 9.600E+02, 1.452E+02, 1.505E+02, 1.592E+02, 2.079E+02, 6.855E+01, 1.674E+02, 2.166E+02, 6.768E+01,-6.712E+01, 1.504E-01, 3.345E-02, 1.992E+02
 9.700E+02, 1.460E+02, 1.514E+02, 1.585E+02, 2.111E+02, 6.857E+01, 1.675E+02, 2.185E+02, 6.813E+01,-5.438E+01, 1.501E-01, 3.360E-02, 2.010E+02
 9.800E+02, 1.445E+02, 1.529E+02, 1.570E+02, 2.082E+02, 6.833E+01, 1.690E+02, 2.211E+02, 6.862E+01,-7.123E+01, 1.500E-01, 3.365E-02, 1.959E+02
 9.900E+02, 1.445E+02, 1.530E+02, 1.565E+02, 2.090E+02, 6.817E+01, 1.695E+02, 2.220E+02, 6.749E+01,-5.385E+01, 1.494E-01, 3.402E-02, 2.026E+02
 1.000E+03, 1.469E+02, 1.511E+02, 1.590E+02, 2.117E+02, 6.986E+01, 1.702E+02, 2.152E+02, 6.786E+01,-6.525E+01, 1.490E-01, 3.422E-02, 1.966E+02
 1.010E+03, 1.473E+02, 1.542E+02, 1.580E+02, 2.142E+02, 6.984E+01, 1.741E+02, 2.197E+02, 6.897E+01,-5.618E+01, 1.488E-01, 3.432E-02, 2.078E+02
 1.020E+03, 1.474E+02, 1.522E+02, 1.600E+02, 2.128E+02, 6.949E+01, 1.706E+02, 2.172E+02, 6.869E+01,-5.635E+01, 1.485E-01, 3.448E-02, 2.010E+02
 1.030E+03, 1.475E+02, 1.524E+02, 1.612E+02, 2.112E+02, 7.015E+01, 1.723E+02, 2.150E+02, 6.989E+01,-5.871E+01, 1.481E-01, 3.473E-02, 1.983E+02
 1.040E+03, 1.479E+02, 1.505E+02, 1.623E+02, 2.114E+02, 6.995E+01, 1.740E+02, 2.068E+02, 7.074E+01,-6.072E+01, 1.475E-01, 3.506E-02, 1.990E+02
 1.050E+03, 1.473E+02, 1.539E+02, 1.586E+02, 2.132E+02, 7.018E+01, 1.769E+02, 2.139E+02, 7.094E+01,-6.107E+01, 1.473E-01, 3.516E-02, 2.011E+02
 1.060E+03, 1.472E+02, 1.530E+02, 1.599E+02, 2.107E+02, 7.107E+01, 1.735E+02, 2.151E+02, 7.048E+01,-6.420E+01, 1.472E-01, 3.524E-02, 1.983E+02
 1.070E+03, 1.474E+02, 1.547E+02, 1.618E+02, 2.099E+02, 7.063E+01, 1.747E+02, 2.187E+02, 7.062E+01,-5.946E+01, 1.472E-01, 3.524E-02, 1.974E+02
 1.080E+03, 1.485E+02, 1.529E+02, 1.624E+02, 2.113E+02, 7.173E+01, 1.732E+02, 2.162E+02, 6.945E+01,-5.754E+01, 1.470E-01, 3.531E-02, 2.031E+02
 1.090E+03, 1.502E+02, 1.539E+02, 1.642E+02, 2.142E+02, 7.225E+01, 1.735E+02, 2.181E+02, 7.004E+01,-5.738E+01, 1.469E-01, 3.540E-02, 1.996E+02
 1.100E+03, 1.520E+02, 1.522E+02, 1.657E+02, 2.186E+02, 7.183E+01, 1.735E+02, 2.111E+02, 7.187E+01,-6.396E+01, 1.465E-01, 3.559E-02, 1.967E+02
 1.110E+03, 1.494E+02, 1.533E+02, 1.612E+02, 2.158E+02, 7.132E+01, 1.749E+02, 2.142E+02, 7.095E+01,-6.480E+01, 1.466E-01, 3.557E-02, 1.982E+02
 1.120E+03, 1.492E+02, 1.544E+02, 1.605E+02, 2.157E+02, 7.151E+01, 1.770E+02, 2.150E+02, 7.125E+01,-6.411E+01, 1.463E-01, 3.571E-02, 2.015E+02
 1.130E+03, 1.478E+02, 1.547E+02, 1.607E+02, 2.109E+02, 7.169E+01, 1.731E+02, 2.208E+02, 7.013E+01,-5.802E+01, 1.466E-01, 3.557E-02, 1.979E+02
 1.140E+03, 1.500E+02, 1.543E+02, 1.616E+02, 2.151E+02, 7.329E+01, 1.733E+02, 2.183E+02, 7.119E+01,-5.992E+01, 1.462E-01, 3.578E-02, 1.976E+02
 1.150E+03, 1.508E+02, 1.550E+02, 1.644E+02, 2.147E+02, 7.332E+01, 1.757E+02, 2.176E+02, 7.169E+01,-6.422E+01, 1.463E-01, 3.574E-02, 2.007E+02
 1.160E+03, 1.508E+02, 1.545E+02, 1.652E+02, 2.139E+02, 7.330E+01, 1.737E+02, 2.173E+02, 7.242E+01,-5.584E+01, 1.458E-01, 3.601E-02, 2.012E+02
 1.170E+03, 1.519E+02, 1.540E+02, 1.654E+02, 2.169E+02, 7.349E+01, 1.771E+02, 2.121E+02, 7.289E+01,-6.261E+01, 1.456E-01, 3.612E-02, 1.999E+02
 1.180E+03, 1.524E+02, 1.546E+02, 1.659E+02, 2.180E+02, 7.333E+01, 1.791E+02, 2.137E+02, 7.093E+01,-6.409E+01, 1.455E-01, 3.615E-02, 1.973E+02
 1.190E+03, 1.512E+02, 1.547E+02, 1.640E+02, 2.163E+02, 7.323E+01, 1.776E+02, 2.138E+02, 7.272E+01,-5.234E+01, 1.454E-01, 3.622E-02, 2.026E+02
 1.200E+03, 1.498E+02, 1.574E+02, 1.633E+02, 2.123E+02, 7.379E+01, 1.791E+02, 2.208E+02, 7.240E+01,-6.261E+01, 1.455E-01, 3.616E-02, 1.966E+02
 1.210E+03, 1.523E+02, 1.571E+02, 1.656E+02, 2.156E+02, 7.578E+01, 1.772E+02, 2.212E+02, 7.287E+01,-6.922E+01, 1.453E-01, 3.629E-02, 1.941E+02
 1.220E+03, 1.514E+02, 1.570E+02, 1.658E+02, 2.143E+02, 7.399E+01, 1.771E+02, 2.201E+02, 7.375E+01,-5.139E+01, 1.451E-01, 3.639E-02, 2.052E+02
 1.230E+03, 1.522E+02, 1.581E+02, 1.660E+02, 2.164E+02, 7.425E+01, 1.779E+02, 2.234E+02, 7.284E+01,-6.288E+01, 1.453E-01, 3.628E-02, 1.995E+02
 1.240E+03, 1.526E+02, 1.572E+02, 1.662E+02, 2.173E+02, 7.445E+01, 1.761E+02, 2.223E+02, 7.333E+01,-6.306E+01, 1.451E-01, 3.637E-02, 1.988E+02
 1.250E+03, 1.515E+02, 1.587E+02, 1.643E+02, 2.153E+02, 7.501E+01, 1.785E+02, 2.244E+02, 7.329E+01,-5.375E+01, 1.451E-01, 3.639E-02, 2.012E+02
 1.260E+03, 1.518E+02, 1.594E+02, 1.661E+02, 2.142E+02, 7.493E+01, 1.746E+02, 2.292E+02, 7.440E+01,-6.000E+01, 1.449E-01, 3.651E-02, 1.994E+02
 1.270E+03, 1.516E+02, 1.598E+02, 1.666E+02, 2.138E+02, 7.448E+01, 1.769E+02, 2.297E+02, 7.290E+01,-6.267E+01, 1.449E-01, 3.650E-02, 1.994E+02
 1.280E+03, 1.531E+02, 1.582E+02, 1.684E+02, 2.153E+02, 7.559E+01, 1.766E+02, 2.249E+02, 7.323E+01,-6.188E+01, 1.447E-01, 3.664E-02, 1.963E+02
 1.290E+03, 1.543E+02, 1.572E+02, 1.683E+02, 2.183E+02, 7.649E+01, 1.745E+02, 2.223E+02, 7.493E+01,-5.530E+01, 1.446E-01, 3.670E-02, 2.032E+02
 1.300E+03, 1.545E+02, 1.544E+02, 1.684E+02, 2.195E+02, 7.545E+01, 1.744E+02, 2.147E+02, 7.399E+01,-5.332E+01, 1.443E-01, 3.682E-02, 2.001E+02
 1.310E+03, 1.547E+02, 1.587E+02, 1.676E+02, 2.198E+02, 7.678E+01, 1.825E+02, 2.183E+02, 7.520E+01,-6.883E+01, 1.442E-01, 3.691E-02, 1.958E+02
