s,C,C,C,C,C,C,C,C,Pa,mol/mol,mol/mol,kW
Time,"West_All_TCs","East_All_TCs","West_Bottom_TCs","West_Middle_TCs","West_Upper_TCs","East_Bottom_TCs","East_Middle_TCs","East_Upper_TCs","Pressure","O2","CO2","HRR"
-6.000E+01, 2.500E+01, 2.500E+01, 2.500E+01, 2.500E+01, 2.500E+01, 2.500E+01, 2.500E+01, 2.500E+01,-9.627E-06, 2.095E-01, 3.901E-04, 0.000E+00
-4.998E+01, 2.499E+01, 2.499E+01, 2.499E+01, 2.499E+01, 2.499E+01, 2.499E+01, 2.499E+01, 2.499E+01,-1.960E+01, 2.095E-01, 3.901E-04, 0.000E+00
-3.996E+01, 2.498E+01, 2.499E+01, 2.499E+01, 2.498E+01, 2.498E+01, 2.499E+01, 2.499E+01, 2.499E+01,-1.883E+01, 2.095E-01, 3.901E-04, 0.000E+00
-2.994E+01, 2.498E+01, 2.499E+01, 2.498E+01, 2.498E+01, 2.497E+01, 2.500E+01, 2.499E+01, 2.499E+01,-1.884E+01, 2.095E-01, 3.901E-04, 0.000E+00
-1.992E+01, 2.498E+01, 2.500E+01, 2.498E+01, 2.498E+01, 2.497E+01, 2.501E+01, 2.499E+01, 2.499E+01,-1.885E+01, 2.095E-01, 3.901E-04, 0.000E+00
-9.896E+00, 2.498E+01, 2.500E+01, 2.498E+01, 2.498E+01, 2.498E+01, 2.502E+01, 2.499E+01, 2.499E+01,-1.885E+01, 2.095E-01, 3.901E-04, 0.000E+00
 1.301E-02, 2.498E+01, 2.500E+01, 2.498E+01, 2.498E+01, 2.498E+01, 2.502E+01, 2.499E+01, 2.499E+01,-1.886E+01, 2.095E-01, 3.901E-04, 1.736E-04
 1.000E+01, 2.599E+01, 2.615E+01, 2.547E+01, 2.752E+01, 2.499E+01, 2.577E+01, 2.769E+01, 2.500E+01,-1.997E+00, 2.095E-01, 3.901E-04, 3.349E+01
 2.000E+01, 3.031E+01, 3.055E+01, 2.729E+01, 3.842E+01, 2.522E+01, 2.790E+01, 3.872E+01, 2.501E+01, 2.928E+01, 2.095E-01, 3.901E-04, 9.925E+01
 3.000E+01, 3.874E+01, 4.013E+01, 3.078E+01, 5.958E+01, 2.587E+01, 3.215E+01, 6.324E+01, 2.501E+01, 9.945E+01, 2.095E-01, 3.901E-04, 1.658E+02
 4.000E+01, 4.970E+01, 4.997E+01, 3.771E+01, 8.494E+01, 2.645E+01, 4.050E+01, 8.393E+01, 2.549E+01, 1.247E+02, 2.094E-01, 4.474E-04, 1.997E+02
 5.002E+01, 6.016E+01, 6.174E+01, 4.980E+01, 1.029E+02, 2.783E+01, 5.119E+01, 1.066E+02, 2.741E+01, 8.628E+01, 2.091E-01, 6.531E-04, 2.001E+02
 6.002E+01, 7.004E+01, 7.153E+01, 6.390E+01, 1.181E+02, 2.809E+01, 6.348E+01, 1.220E+02, 2.905E+01, 5.880E+01, 2.089E-01, 7.726E-04, 1.990E+02
 7.000E+01, 7.900E+01, 7.937E+01, 7.605E+01, 1.315E+02, 2.947E+01, 7.787E+01, 1.306E+02, 2.965E+01, 4.136E+01, 2.087E-01, 8.865E-04, 2.006E+02
 8.000E+01, 8.685E+01, 8.710E+01, 8.864E+01, 1.409E+02, 3.097E+01, 9.152E+01, 1.389E+02, 3.087E+01, 2.605E+01, 2.085E-01, 9.934E-04, 1.999E+02
 9.000E+01, 9.331E+01, 9.337E+01, 9.931E+01, 1.484E+02, 3.223E+01, 1.021E+02, 1.460E+02, 3.205E+01, 1.776E+01, 2.081E-01, 1.217E-03, 1.997E+02
 1.000E+02, 9.812E+01, 9.955E+01, 1.096E+02, 1.513E+02, 3.343E+01, 1.101E+02, 1.547E+02, 3.381E+01, 1.254E+01, 2.078E-01, 1.364E-03, 1.999E+02
 1.100E+02, 1.046E+02, 1.051E+02, 1.169E+02, 1.623E+02, 3.452E+01, 1.178E+02, 1.631E+02, 3.440E+01, 7.807E+00, 2.076E-01, 1.497E-03, 1.999E+02
 1.200E+02, 1.099E+02, 1.084E+02, 1.247E+02, 1.693E+02, 3.578E+01, 1.255E+02, 1.640E+02, 3.562E+01, 1.366E-01, 2.072E-01, 1.712E-03, 1.983E+02
 1.300E+02, 1.107E+02, 1.120E+02, 1.269E+02, 1.686E+02, 3.664E+01, 1.315E+02, 1.679E+02, 3.653E+01,-7.458E-01, 2.068E-01, 1.897E-03, 2.012E+02
 1.400E+02, 1.140E+02, 1.137E+02, 1.310E+02, 1.735E+02, 3.732E+01, 1.329E+02, 1.711E+02, 3.707E+01,-4.857E+00, 2.066E-01, 2.049E-03, 1.989E+02
 1.500E+02, 1.147E+02, 1.187E+02, 1.337E+02, 1.720E+02, 3.823E+01, 1.359E+02, 1.825E+02, 3.770E+01,-7.378E+00, 2.062E-01, 2.254E-03, 1.997E+02
 1.600E+02, 1.167E+02, 1.225E+02, 1.345E+02, 1.764E+02, 3.904E+01, 1.383E+02, 1.902E+02, 3.885E+01,-8.811E+00, 2.058E-01, 2.507E-03, 1.995E+02
 1.700E+02, 1.184E+02, 1.220E+02, 1.370E+02, 1.785E+02, 3.968E+01, 1.407E+02, 1.863E+02, 3.909E+01,-9.740E+00, 2.055E-01, 2.678E-03, 1.997E+02
 1.800E+02, 1.178E+02, 1.232E+02, 1.357E+02, 1.777E+02, 4.005E+01, 1.407E+02, 1.887E+02, 4.012E+01,-1.083E+01, 2.048E-01, 3.021E-03, 1.998E+02
 1.900E+02, 1.191E+02, 1.234E+02, 1.378E+02, 1.786E+02, 4.079E+01, 1.394E+02, 1.901E+02, 4.067E+01,-1.245E+01, 2.044E-01, 3.241E-03, 1.997E+02
 2.000E+02, 1.202E+02, 1.225E+02, 1.379E+02, 1.813E+02, 4.129E+01, 1.406E+02, 1.861E+02, 4.064E+01,-1.305E+01, 2.042E-01, 3.394E-03, 1.996E+02
 2.100E+02, 1.205E+02, 1.238E+02, 1.379E+02, 1.823E+02, 4.142E+01, 1.412E+02, 1.888E+02, 4.151E+01,-1.220E+01, 2.035E-01, 3.779E-03, 1.997E+02
 2.200E+02, 1.209E+02, 1.236E+02, 1.383E+02, 1.825E+02, 4.175E+01, 1.411E+02, 1.881E+02, 4.178E+01,-1.193E+01, 2.030E-01, 4.047E-03, 1.995E+02
 2.300E+02, 1.215E+02, 1.261E+02, 1.394E+02, 1.833E+02, 4.171E+01, 1.450E+02, 1.914E+02, 4.196E+01,-1.104E+01, 2.028E-01, 4.137E-03, 2.005E+02
 2.400E+02, 1.231E+02, 1.255E+02, 1.412E+02, 1.859E+02, 4.226E+01, 1.437E+02, 1.905E+02, 4.233E+01,-1.335E+01, 2.021E-01, 4.523E-03, 1.993E+02
 2.500E+02, 1.221E+02, 1.257E+02, 1.401E+02, 1.836E+02, 4.252E+01, 1.444E+02, 1.901E+02, 4.259E+01,-1.286E+01, 2.015E-01, 4.870E-03, 1.993E+02
 2.600E+02, 1.238E+02, 1.259E+02, 1.413E+02, 1.870E+02, 4.315E+01, 1.451E+02, 1.899E+02, 4.275E+01,-1.250E+01, 2.013E-01, 4.994E-03, 2.003E+02
 2.700E+02, 1.242E+02, 1.268E+02, 1.409E+02, 1.886E+02, 4.312E+01, 1.471E+02, 1.905E+02, 4.283E+01,-1.318E+01, 2.008E-01, 5.249E-03, 2.003E+02
 2.800E+02, 1.248E+02, 1.275E+02, 1.416E+02, 1.892E+02, 4.349E+01, 1.465E+02, 1.925E+02, 4.327E+01,-1.298E+01, 1.999E-01, 5.756E-03, 1.984E+02
 2.900E+02, 1.251E+02, 1.265E+02, 1.412E+02, 1.910E+02, 4.321E+01, 1.457E+02, 1.907E+02, 4.317E+01,-1.138E+01, 1.997E-01, 5.907E-03, 2.012E+02
 3.000E+02, 1.264E+02, 1.281E+02, 1.428E+02, 1.928E+02, 4.359E+01, 1.475E+02, 1.935E+02, 4.318E+01,-1.241E+01, 1.991E-01, 6.216E-03, 1.979E+02
 3.100E+02, 1.263E+02, 1.274E+02, 1.437E+02, 1.922E+02, 4.309E+01, 1.456E+02, 1.930E+02, 4.357E+01,-1.276E+01, 1.984E-01, 6.621E-03, 2.007E+02
 3.200E+02, 1.263E+02, 1.277E+02, 1.423E+02, 1.929E+02, 4.359E+01, 1.474E+02, 1.924E+02, 4.335E+01,-1.425E+01, 1.983E-01, 6.687E-03, 1.989E+02
 3.300E+02, 1.270E+02, 1.307E+02, 1.443E+02, 1.929E+02, 4.389E+01, 1.479E+02, 2.008E+02, 4.354E+01,-1.076E+01, 1.975E-01, 7.135E-03, 1.999E+02
 3.400E+02, 1.285E+02, 1.288E+02, 1.468E+02, 1.947E+02, 4.392E+01, 1.487E+02, 1.936E+02, 4.403E+01,-1.573E+01, 1.970E-01, 7.399E-03, 1.944E+02
 3.500E+02, 1.274E+02, 1.301E+02, 1.473E+02, 1.906E+02, 4.428E+01, 1.501E+02, 1.960E+02, 4.408E+01,-1.044E+01, 1.964E-01, 7.734E-03, 2.026E+02
 3.600E+02, 1.285E+02, 1.287E+02, 1.478E+02, 1.938E+02, 4.396E+01, 1.495E+02, 1.925E+02, 4.425E+01,-1.178E+01, 1.957E-01, 8.142E-03, 2.012E+02
 3.700E+02, 1.291E+02, 1.288E+02, 1.484E+02, 1.952E+02, 4.373E+01, 1.503E+02, 1.922E+02, 4.397E+01,-1.593E+01, 1.953E-01, 8.331E-03, 1.948E+02
 3.800E+02, 1.281E+02, 1.335E+02, 1.489E+02, 1.918E+02, 4.370E+01, 1.546E+02, 2.015E+02, 4.424E+01,-1.219E+01, 1.947E-01, 8.684E-03, 1.970E+02
 3.900E+02, 1.267E+02, 1.318E+02, 1.470E+02, 1.895E+02, 4.366E+01, 1.517E+02, 1.999E+02, 4.378E+01,-4.286E+01, 1.944E-01, 8.869E-03, 1.720E+02
 4.000E+02, 1.264E+02, 1.295E+02, 1.419E+02, 1.935E+02, 4.387E+01, 1.517E+02, 1.934E+02, 4.355E+01,-1.913E+01, 1.939E-01, 9.127E-03, 1.841E+02
 4.100E+02, 1.226E+02, 1.273E+02, 1.426E+02, 1.813E+02, 4.385E+01, 1.472E+02, 1.908E+02, 4.394E+01,-4.777E+01, 1.930E-01, 9.643E-03, 1.135E+02
 4.200E+02, 1.174E+02, 1.255E+02, 1.366E+02, 1.715E+02, 4.408E+01, 1.456E+02, 1.868E+02, 4.412E+01,-6.248E+01, 1.928E-01, 9.766E-03, 7.644E+01
 4.300E+02, 1.200E+02, 1.222E+02, 1.377E+02, 1.775E+02, 4.492E+01, 1.458E+02, 1.767E+02, 4.422E+01,-6.785E+01, 1.923E-01, 1.002E-02, 1.012E+02
 4.400E+02, 1.218E+02, 1.281E+02, 1.350E+02, 1.848E+02, 4.573E+01, 1.496E+02, 1.895E+02, 4.523E+01, 1.103E+02, 1.916E-01, 1.041E-02, 2.495E+02
 4.500E+02, 1.240E+02, 1.242E+02, 1.423E+02, 1.839E+02, 4.585E+01, 1.444E+02, 1.826E+02, 4.561E+01,-1.084E+02, 1.906E-01, 1.095E-02, 9.301E+01
 4.600E+02, 1.241E+02, 1.313E+02, 1.374E+02, 1.880E+02, 4.699E+01, 1.512E+02, 1.967E+02, 4.613E+01, 7.672E+01, 1.904E-01, 1.108E-02, 1.975E+02
 4.700E+02, 1.225E+02, 1.371E+02, 1.421E+02, 1.788E+02, 4.653E+01, 1.568E+02, 2.078E+02, 4.670E+01,-6.361E+01, 1.890E-01, 1.186E-02, 2.586E+01
 4.800E+02, 1.151E+02, 1.350E+02, 1.322E+02, 1.659E+02, 4.717E+01, 1.560E+02, 2.029E+02, 4.605E+01,-3.749E+01, 1.894E-01, 1.163E-02, 1.266E+01
 4.900E+02, 1.208E+02, 1.219E+02, 1.393E+02, 1.768E+02, 4.633E+01, 1.357E+02, 1.849E+02, 4.519E+01,-2.882E+01, 1.890E-01, 1.190E-02, 2.858E+00
 5.000E+02, 1.134E+02, 1.222E+02, 1.259E+02, 1.685E+02, 4.588E+01, 1.402E+02, 1.792E+02, 4.715E+01,-5.406E+01, 1.887E-01, 1.205E-02, 5.817E-01
 5.100E+02, 1.118E+02, 1.237E+02, 1.274E+02, 1.628E+02, 4.518E+01, 1.359E+02, 1.889E+02, 4.623E+01, 7.625E-01, 1.881E-01, 1.240E-02, 1.866E+00
 5.200E+02, 1.137E+02, 1.210E+02, 1.230E+02, 1.714E+02, 4.674E+01, 1.272E+02, 1.907E+02, 4.510E+01,-4.360E+01, 1.880E-01, 1.245E-02, 7.926E-01
 5.300E+02, 1.094E+02, 1.215E+02, 1.170E+02, 1.642E+02, 4.702E+01, 1.363E+02, 1.824E+02, 4.587E+01,-4.219E+01, 1.876E-01, 1.263E-02, 2.136E+00
 5.400E+02, 1.080E+02, 1.372E+02, 1.172E+02, 1.610E+02, 4.593E+01, 1.393E+02, 2.269E+02, 4.542E+01, 2.120E+00, 1.875E-01, 1.272E-02, 1.631E+00
 5.500E+02, 1.089E+02, 1.301E+02, 1.127E+02, 1.671E+02, 4.676E+01, 1.276E+02, 2.180E+02, 4.476E+01, 1.616E+00, 1.873E-01, 1.280E-02, 3.092E+00
 5.600E+02, 1.102E+02, 1.182E+02, 1.101E+02, 1.741E+02, 4.640E+01, 1.122E+02, 1.970E+02, 4.547E+01,-3.752E+01, 1.868E-01, 1.308E-02, 1.554E+00
 5.700E+02, 1.079E+02, 1.105E+02, 1.093E+02, 1.674E+02, 4.703E+01, 1.062E+02, 1.790E+02, 4.635E+01,-3.603E+01, 1.869E-01, 1.306E-02, 3.295E+00
 5.800E+02, 1.063E+02, 1.371E+02, 1.071E+02, 1.650E+02, 4.680E+01, 1.135E+02, 2.514E+02, 4.622E+01, 1.455E+01, 1.869E-01, 1.306E-02, 1.066E+00
 5.900E+02, 1.087E+02, 1.212E+02, 1.054E+02, 1.734E+02, 4.744E+01, 1.072E+02, 2.108E+02, 4.559E+01, 2.878E+00, 1.870E-01, 1.298E-02, 1.225E-01
 6.000E+02, 1.085E+02, 1.150E+02, 1.050E+02, 1.732E+02, 4.726E+01, 1.020E+02, 1.969E+02, 4.618E+01,-3.540E+01, 1.859E-01, 1.363E-02, 1.677E+00
 6.100E+02, 1.076E+02, 1.249E+02, 1.041E+02, 1.718E+02, 4.698E+01, 1.089E+02, 2.191E+02, 4.674E+01,-9.921E+00, 1.855E-01, 1.384E-02, 6.034E-02
 6.200E+02, 1.069E+02, 1.167E+02, 1.022E+02, 1.700E+02, 4.846E+01, 1.033E+02, 2.002E+02, 4.669E+01,-4.476E+00, 1.859E-01, 1.358E-02, 2.893E-01
 6.300E+02, 1.082E+02, 1.127E+02, 1.018E+02, 1.744E+02, 4.843E+01, 1.011E+02, 1.897E+02, 4.751E+01,-2.297E+01, 1.853E-01, 1.393E-02, 1.472E-01
 6.400E+02, 1.057E+02, 1.111E+02, 1.010E+02, 1.670E+02, 4.911E+01, 9.923E+01, 1.857E+02, 4.828E+01,-3.115E+01, 1.852E-01, 1.398E-02, 6.985E-01
 6.500E+02, 1.032E+02, 1.051E+02, 9.922E+01, 1.615E+02, 4.882E+01, 9.459E+01, 1.713E+02, 4.931E+01,-2.787E+01, 1.848E-01, 1.424E-02, 1.930E+00
 6.600E+02, 1.032E+02, 1.081E+02, 9.808E+01, 1.621E+02, 4.939E+01, 9.240E+01, 1.828E+02, 4.899E+01,-1.514E+01, 1.853E-01, 1.395E-02, 3.460E-01
 6.700E+02, 1.026E+02, 1.047E+02, 9.647E+01, 1.620E+02, 4.948E+01, 9.231E+01, 1.734E+02, 4.829E+01,-2.725E+01, 1.851E-01, 1.406E-02, 1.310E+00
 6.800E+02, 1.011E+02, 1.045E+02, 9.555E+01, 1.584E+02, 4.933E+01, 8.962E+01, 1.749E+02, 4.904E+01,-1.794E+01, 1.842E-01, 1.454E-02, 2.310E-02
 6.900E+02, 1.001E+02, 1.018E+02, 9.285E+01, 1.580E+02, 4.953E+01, 8.624E+01, 1.702E+02, 4.883E+01,-2.442E+01, 1.842E-01, 1.455E-02, 1.764E+00
 7.001E+02, 9.974E+01, 1.025E+02, 9.241E+01, 1.567E+02, 5.015E+01, 8.552E+01, 1.729E+02, 4.891E+01,-1.630E+01, 1.845E-01, 1.439E-02, 7.685E-01
 7.100E+02, 9.914E+01, 1.044E+02, 8.972E+01, 1.576E+02, 5.009E+01, 8.635E+01, 1.778E+02, 4.898E+01,-1.513E+01, 1.846E-01, 1.432E-02, 2.718E-01
 7.200E+02, 9.919E+01, 1.028E+02, 8.792E+01, 1.587E+02, 5.090E+01, 8.603E+01, 1.726E+02, 4.974E+01,-1.606E+01, 1.842E-01, 1.456E-02, 9.350E-01
 7.300E+02, 9.636E+01, 1.026E+02, 8.650E+01, 1.515E+02, 5.106E+01, 8.240E+01, 1.752E+02, 5.025E+01,-1.950E+01, 1.841E-01, 1.463E-02, 3.921E-01
 7.401E+02, 9.758E+01, 1.019E+02, 8.642E+01, 1.542E+02, 5.207E+01, 8.273E+01, 1.722E+02, 5.065E+01,-1.425E+01, 1.842E-01, 1.454E-02, 2.142E-01
 7.500E+02, 9.887E+01, 1.030E+02, 8.620E+01, 1.571E+02, 5.331E+01, 8.317E+01, 1.748E+02, 5.109E+01,-5.425E+00, 1.838E-01, 1.476E-02, 6.446E-02
 7.600E+02, 9.776E+01, 1.034E+02, 8.518E+01, 1.545E+02, 5.358E+01, 8.224E+01, 1.762E+02, 5.190E+01,-1.423E+01, 1.835E-01, 1.495E-02, 7.799E-01
 7.700E+02, 9.662E+01, 9.883E+01, 8.473E+01, 1.505E+02, 5.464E+01, 8.088E+01, 1.629E+02, 5.273E+01,-1.569E+01, 1.829E-01, 1.527E-02, 7.237E-01
 7.800E+02, 9.809E+01, 1.026E+02, 8.446E+01, 1.534E+02, 5.644E+01, 8.109E+01, 1.738E+02, 5.306E+01,-2.430E+00, 1.827E-01, 1.539E-02, 3.761E-02
 7.900E+02, 9.958E+01, 1.070E+02, 8.486E+01, 1.564E+02, 5.750E+01, 8.172E+01, 1.847E+02, 5.473E+01, 1.488E+01, 1.816E-01, 1.601E-02, 6.290E-01
 8.000E+02, 1.007E+02, 1.060E+02, 8.414E+01, 1.584E+02, 5.945E+01, 8.000E+01, 1.824E+02, 5.575E+01,-1.255E+01, 1.812E-01, 1.623E-02, 3.022E-05
 8.100E+02, 1.008E+02, 1.056E+02, 8.405E+01, 1.590E+02, 5.928E+01, 7.999E+01, 1.799E+02, 5.678E+01,-1.038E+01, 1.804E-01, 1.669E-02, 2.593E-05
 8.200E+02, 1.028E+02, 1.141E+02, 8.438E+01, 1.624E+02, 6.153E+01, 8.247E+01, 2.026E+02, 5.728E+01, 4.315E+01, 1.797E-01, 1.709E-02, 1.098E+00
 8.300E+02, 1.086E+02, 1.187E+02, 8.496E+01, 1.789E+02, 6.198E+01, 8.543E+01, 2.113E+02, 5.934E+01, 6.022E+01, 1.798E-01, 1.704E-02, 3.059E+00
 8.400E+02, 1.094E+02, 1.155E+02, 8.646E+01, 1.794E+02, 6.242E+01, 8.404E+01, 2.017E+02, 6.060E+01,-1.749E+01, 1.803E-01, 1.672E-02, 6.144E-01
 8.500E+02, 1.087E+02, 1.162E+02, 8.724E+01, 1.761E+02, 6.272E+01, 8.457E+01, 2.026E+02, 6.136E+01, 4.480E+00, 1.804E-01, 1.669E-02, 8.512E-01
 8.600E+02, 1.152E+02, 1.345E+02, 8.910E+01, 1.891E+02, 6.751E+01, 8.978E+01, 2.517E+02, 6.215E+01, 1.379E+02, 1.803E-01, 1.673E-02, 8.674E+00
 8.700E+02, 1.193E+02, 1.288E+02, 9.155E+01, 1.974E+02, 6.896E+01, 9.099E+01, 2.312E+02, 6.413E+01,-1.542E+01, 1.788E-01, 1.755E-02, 7.379E-01
 8.800E+02, 1.169E+02, 1.297E+02, 9.243E+01, 1.876E+02, 7.074E+01, 9.110E+01, 2.324E+02, 6.572E+01, 1.148E+01, 1.779E-01, 1.807E-02, 3.546E-01
 8.900E+02, 1.224E+02, 1.407E+02, 9.517E+01, 2.023E+02, 6.981E+01, 9.575E+01, 2.598E+02, 6.671E+01, 7.473E+01, 1.765E-01, 1.888E-02, 5.766E+00
 9.000E+02, 1.228E+02, 1.276E+02, 9.755E+01, 1.988E+02, 7.206E+01, 9.670E+01, 2.192E+02, 6.688E+01,-3.783E+01, 1.767E-01, 1.872E-02, 1.560E-01
 9.100E+02, 1.200E+02, 1.241E+02, 9.708E+01, 1.896E+02, 7.321E+01, 9.606E+01, 2.088E+02, 6.747E+01,-3.100E+01, 1.766E-01, 1.882E-02, 7.089E-01
 9.200E+02, 1.154E+02, 1.191E+02, 9.711E+01, 1.773E+02, 7.187E+01, 9.531E+01, 1.943E+02, 6.776E+01,-2.772E+01, 1.755E-01, 1.941E-02, 3.885E-02
 9.300E+02, 1.158E+02, 1.211E+02, 9.598E+01, 1.774E+02, 7.408E+01, 9.473E+01, 1.995E+02, 6.907E+01,-2.155E+01, 1.749E-01, 1.973E-02, 4.272E-01
 9.400E+02, 1.119E+02, 1.192E+02, 9.421E+01, 1.681E+02, 7.350E+01, 9.416E+01, 1.935E+02, 6.990E+01,-2.126E+01, 1.745E-01, 1.997E-02, 1.649E-01
 9.500E+02, 1.102E+02, 1.156E+02, 9.340E+01, 1.639E+02, 7.347E+01, 9.359E+01, 1.829E+02, 7.046E+01,-2.237E+01, 1.746E-01, 1.993E-02, 3.925E-01
 9.600E+02, 1.090E+02, 1.136E+02, 9.181E+01, 1.598E+02, 7.539E+01, 9.302E+01, 1.765E+02, 7.129E+01,-2.248E+01, 1.746E-01, 1.993E-02, 1.322E-01
 9.700E+02, 1.073E+02, 1.113E+02, 9.166E+01, 1.562E+02, 7.414E+01, 9.147E+01, 1.713E+02, 7.114E+01,-1.691E+01, 1.736E-01, 2.048E-02, 1.952E-01
 9.800E+02, 1.075E+02, 1.101E+02, 9.049E+01, 1.565E+02, 7.545E+01, 8.853E+01, 1.705E+02, 7.139E+01,-1.762E+01, 1.736E-01, 2.047E-02, 2.660E-02
 9.900E+02, 1.059E+02, 1.106E+02, 8.967E+01, 1.524E+02, 7.548E+01, 8.608E+01, 1.737E+02, 7.217E+01,-1.643E+01, 1.732E-01, 2.071E-02, 1.366E-01
 1.000E+03, 1.059E+02, 1.093E+02, 8.856E+01, 1.536E+02, 7.561E+01, 8.630E+01, 1.700E+02, 7.174E+01,-1.503E+01, 1.741E-01, 2.018E-02, 2.916E-03
