s,C,C,C,C,C,C,C,C,Pa,mol/mol,mol/mol,kW
Time,"West_All_TCs","East_All_TCs","West_Bottom_TCs","West_Middle_TCs","West_Upper_TCs","East_Bottom_TCs","East_Middle_TCs","East_Upper_TCs","Pressure","O2","CO2","HRR"
-6.000E+01, 2.500E+01, 2.500E+01, 2.500E+01, 2.500E+01, 2.500E+01, 2.500E+01, 2.500E+01, 2.500E+01,-9.627E-06, 2.095E-01, 3.901E-04, 0.000E+00
-4.998E+01, 2.499E+01, 2.499E+01, 2.499E+01, 2.499E+01, 2.499E+01, 2.499E+01, 2.499E+01, 2.499E+01,-1.961E+01, 2.095E-01, 3.901E-04, 0.000E+00
-3.996E+01, 2.498E+01, 2.499E+01, 2.499E+01, 2.498E+01, 2.498E+01, 2.499E+01, 2.499E+01, 2.499E+01,-1.884E+01, 2.095E-01, 3.901E-04, 0.000E+00
-2.994E+01, 2.498E+01, 2.499E+01, 2.498E+01, 2.498E+01, 2.497E+01, 2.501E+01, 2.499E+01, 2.499E+01,-1.885E+01, 2.095E-01, 3.901E-04, 0.000E+00
-1.992E+01, 2.498E+01, 2.500E+01, 2.498E+01, 2.498E+01, 2.497E+01, 2.502E+01, 2.499E+01, 2.499E+01,-1.886E+01, 2.095E-01, 3.901E-04, 0.000E+00
-9.896E+00, 2.498E+01, 2.500E+01, 2.498E+01, 2.498E+01, 2.497E+01, 2.503E+01, 2.499E+01, 2.499E+01,-1.886E+01, 2.095E-01, 3.901E-04, 0.000E+00
 1.301E-02, 2.498E+01, 2.500E+01, 2.498E+01, 2.498E+01, 2.497E+01, 2.503E+01, 2.499E+01, 2.499E+01,-1.887E+01, 2.095E-01, 3.901E-04, 1.764E-04
 1.001E+01, 2.590E+01, 2.621E+01, 2.547E+01, 2.725E+01, 2.499E+01, 2.575E+01, 2.789E+01, 2.500E+01,-2.221E+00, 2.095E-01, 3.901E-04, 3.272E+01
 2.001E+01, 2.979E+01, 3.064E+01, 2.762E+01, 3.664E+01, 2.510E+01, 2.809E+01, 3.880E+01, 2.502E+01, 2.889E+01, 2.095E-01, 3.901E-04, 9.859E+01
 3.002E+01, 3.798E+01, 3.910E+01, 3.119E+01, 5.703E+01, 2.573E+01, 3.284E+01, 5.944E+01, 2.502E+01, 1.021E+02, 2.095E-01, 3.901E-04, 1.659E+02
 4.002E+01, 4.995E+01, 5.020E+01, 3.977E+01, 8.323E+01, 2.685E+01, 4.145E+01, 8.398E+01, 2.516E+01, 1.289E+02, 2.095E-01, 4.044E-04, 2.000E+02
 5.001E+01, 6.054E+01, 6.220E+01, 5.096E+01, 1.028E+02, 2.783E+01, 5.253E+01, 1.068E+02, 2.731E+01, 8.819E+01, 2.090E-01, 6.783E-04, 2.004E+02
 6.001E+01, 6.999E+01, 7.160E+01, 6.498E+01, 1.168E+02, 2.825E+01, 6.582E+01, 1.199E+02, 2.906E+01, 6.087E+01, 2.088E-01, 8.016E-04, 1.997E+02
 7.001E+01, 8.003E+01, 7.967E+01, 7.873E+01, 1.321E+02, 2.929E+01, 7.780E+01, 1.313E+02, 2.989E+01, 4.038E+01, 2.087E-01, 8.692E-04, 2.010E+02
 8.000E+01, 8.827E+01, 8.727E+01, 9.125E+01, 1.428E+02, 3.077E+01, 9.167E+01, 1.395E+02, 3.067E+01, 2.900E+01, 2.085E-01, 9.725E-04, 2.007E+02
 9.000E+01, 9.395E+01, 9.434E+01, 9.958E+01, 1.507E+02, 3.156E+01, 1.021E+02, 1.484E+02, 3.250E+01, 1.908E+01, 2.082E-01, 1.167E-03, 1.999E+02
 1.000E+02, 9.910E+01, 1.005E+02, 1.097E+02, 1.551E+02, 3.249E+01, 1.100E+02, 1.574E+02, 3.413E+01, 1.110E+01, 2.078E-01, 1.369E-03, 1.981E+02
 1.100E+02, 1.051E+02, 1.040E+02, 1.167E+02, 1.642E+02, 3.433E+01, 1.173E+02, 1.599E+02, 3.471E+01, 6.200E+00, 2.076E-01, 1.457E-03, 2.001E+02
 1.200E+02, 1.084E+02, 1.084E+02, 1.218E+02, 1.674E+02, 3.609E+01, 1.253E+02, 1.643E+02, 3.552E+01, 2.239E+00, 2.073E-01, 1.644E-03, 2.011E+02
 1.300E+02, 1.121E+02, 1.116E+02, 1.262E+02, 1.735E+02, 3.667E+01, 1.309E+02, 1.669E+02, 3.692E+01,-2.786E+00, 2.069E-01, 1.879E-03, 2.003E+02
 1.400E+02, 1.134E+02, 1.142E+02, 1.321E+02, 1.709E+02, 3.705E+01, 1.334E+02, 1.715E+02, 3.778E+01,-4.720E+00, 2.067E-01, 1.983E-03, 1.994E+02
 1.500E+02, 1.153E+02, 1.157E+02, 1.354E+02, 1.727E+02, 3.762E+01, 1.362E+02, 1.724E+02, 3.829E+01,-6.933E+00, 2.063E-01, 2.215E-03, 1.993E+02
 1.600E+02, 1.186E+02, 1.176E+02, 1.385E+02, 1.790E+02, 3.832E+01, 1.394E+02, 1.744E+02, 3.891E+01,-9.466E+00, 2.060E-01, 2.366E-03, 2.009E+02
 1.700E+02, 1.190E+02, 1.187E+02, 1.388E+02, 1.793E+02, 3.879E+01, 1.419E+02, 1.737E+02, 4.047E+01,-9.921E+00, 2.054E-01, 2.702E-03, 1.995E+02
 1.800E+02, 1.202E+02, 1.219E+02, 1.393E+02, 1.807E+02, 4.049E+01, 1.449E+02, 1.809E+02, 3.994E+01,-1.388E+01, 2.052E-01, 2.804E-03, 1.987E+02
 1.900E+02, 1.205E+02, 1.215E+02, 1.394E+02, 1.815E+02, 4.079E+01, 1.436E+02, 1.807E+02, 4.024E+01,-1.251E+01, 2.049E-01, 2.993E-03, 2.006E+02
 2.000E+02, 1.190E+02, 1.230E+02, 1.373E+02, 1.793E+02, 4.052E+01, 1.438E+02, 1.842E+02, 4.116E+01,-1.180E+01, 2.043E-01, 3.320E-03, 2.015E+02
 2.100E+02, 1.218E+02, 1.225E+02, 1.405E+02, 1.835E+02, 4.131E+01, 1.438E+02, 1.818E+02, 4.202E+01,-1.390E+01, 2.040E-01, 3.508E-03, 1.983E+02
 2.200E+02, 1.221E+02, 1.227E+02, 1.397E+02, 1.854E+02, 4.129E+01, 1.421E+02, 1.842E+02, 4.182E+01,-1.348E+01, 2.035E-01, 3.749E-03, 1.994E+02
 2.300E+02, 1.223E+02, 1.257E+02, 1.393E+02, 1.850E+02, 4.253E+01, 1.455E+02, 1.899E+02, 4.181E+01,-1.434E+01, 2.031E-01, 3.982E-03, 2.004E+02
 2.400E+02, 1.245E+02, 1.232E+02, 1.413E+02, 1.897E+02, 4.242E+01, 1.416E+02, 1.862E+02, 4.174E+01,-1.283E+01, 2.024E-01, 4.378E-03, 1.982E+02
 2.500E+02, 1.231E+02, 1.262E+02, 1.417E+02, 1.858E+02, 4.190E+01, 1.455E+02, 1.908E+02, 4.245E+01,-1.027E+01, 2.020E-01, 4.580E-03, 2.006E+02
 2.600E+02, 1.253E+02, 1.251E+02, 1.426E+02, 1.909E+02, 4.232E+01, 1.451E+02, 1.879E+02, 4.234E+01,-1.391E+01, 2.016E-01, 4.834E-03, 2.002E+02
 2.700E+02, 1.241E+02, 1.269E+02, 1.437E+02, 1.864E+02, 4.211E+01, 1.459E+02, 1.918E+02, 4.308E+01,-1.183E+01, 2.009E-01, 5.225E-03, 1.999E+02
 2.800E+02, 1.249E+02, 1.270E+02, 1.430E+02, 1.898E+02, 4.198E+01, 1.457E+02, 1.924E+02, 4.307E+01,-1.320E+01, 2.006E-01, 5.369E-03, 1.982E+02
 2.900E+02, 1.263E+02, 1.261E+02, 1.448E+02, 1.910E+02, 4.317E+01, 1.445E+02, 1.908E+02, 4.310E+01,-1.308E+01, 2.003E-01, 5.575E-03, 1.984E+02
 3.000E+02, 1.266E+02, 1.275E+02, 1.470E+02, 1.893E+02, 4.365E+01, 1.462E+02, 1.934E+02, 4.286E+01,-1.384E+01, 1.998E-01, 5.826E-03, 2.005E+02
 3.100E+02, 1.282E+02, 1.280E+02, 1.467E+02, 1.945E+02, 4.319E+01, 1.479E+02, 1.929E+02, 4.323E+01,-1.615E+01, 1.992E-01, 6.164E-03, 1.985E+02
 3.200E+02, 1.276E+02, 1.280E+02, 1.486E+02, 1.909E+02, 4.334E+01, 1.488E+02, 1.920E+02, 4.329E+01,-1.664E+01, 1.988E-01, 6.415E-03, 2.002E+02
 3.300E+02, 1.276E+02, 1.332E+02, 1.477E+02, 1.915E+02, 4.373E+01, 1.494E+02, 2.069E+02, 4.331E+01,-1.345E+01, 1.982E-01, 6.705E-03, 1.971E+02
 3.400E+02, 1.281E+02, 1.313E+02, 1.493E+02, 1.911E+02, 4.389E+01, 1.508E+02, 1.995E+02, 4.358E+01,-1.959E+01, 1.976E-01, 7.054E-03, 1.939E+02
 3.500E+02, 1.281E+02, 1.342E+02, 1.478E+02, 1.929E+02, 4.360E+01, 1.527E+02, 2.070E+02, 4.305E+01,-7.219E+00, 1.974E-01, 7.204E-03, 2.040E+02
 3.600E+02, 1.277E+02, 1.331E+02, 1.486E+02, 1.910E+02, 4.368E+01, 1.527E+02, 2.031E+02, 4.352E+01,-1.241E+01, 1.970E-01, 7.372E-03, 1.980E+02
 3.700E+02, 1.284E+02, 1.337E+02, 1.488E+02, 1.922E+02, 4.412E+01, 1.547E+02, 2.029E+02, 4.358E+01,-1.498E+01, 1.964E-01, 7.742E-03, 1.974E+02
 3.800E+02, 1.293E+02, 1.322E+02, 1.501E+02, 1.942E+02, 4.369E+01, 1.542E+02, 1.989E+02, 4.362E+01,-1.969E+01, 1.960E-01, 7.979E-03, 1.878E+02
 3.900E+02, 1.254E+02, 1.264E+02, 1.457E+02, 1.865E+02, 4.393E+01, 1.512E+02, 1.851E+02, 4.283E+01,-1.153E+02, 1.954E-01, 8.313E-03, 1.106E+02
 4.000E+02, 1.234E+02, 1.303E+02, 1.399E+02, 1.858E+02, 4.449E+01, 1.549E+02, 1.932E+02, 4.283E+01, 2.123E+01, 1.949E-01, 8.572E-03, 1.979E+02
 4.100E+02, 1.221E+02, 1.269E+02, 1.423E+02, 1.801E+02, 4.387E+01, 1.508E+02, 1.861E+02, 4.365E+01,-4.382E+01, 1.941E-01, 9.001E-03, 1.318E+02
 4.200E+02, 1.230E+02, 1.291E+02, 1.409E+02, 1.844E+02, 4.368E+01, 1.506E+02, 1.924E+02, 4.444E+01,-2.596E+01, 1.936E-01, 9.325E-03, 1.515E+02
 4.300E+02, 1.223E+02, 1.368E+02, 1.396E+02, 1.827E+02, 4.439E+01, 1.617E+02, 2.038E+02, 4.485E+01, 1.416E+02, 1.933E-01, 9.469E-03, 1.921E+02
 4.400E+02, 1.237E+02, 1.302E+02, 1.396E+02, 1.869E+02, 4.472E+01, 1.537E+02, 1.925E+02, 4.442E+01,-7.030E+01, 1.922E-01, 1.010E-02, 8.280E+01
 4.500E+02, 1.171E+02, 1.316E+02, 1.349E+02, 1.708E+02, 4.570E+01, 1.522E+02, 1.981E+02, 4.450E+01,-5.083E+01, 1.919E-01, 1.024E-02, 7.826E+00
 4.600E+02, 1.216E+02, 1.275E+02, 1.433E+02, 1.759E+02, 4.550E+01, 1.468E+02, 1.905E+02, 4.497E+01,-3.716E+01, 1.907E-01, 1.094E-02, 3.850E+00
 4.700E+02, 1.140E+02, 1.187E+02, 1.291E+02, 1.677E+02, 4.526E+01, 1.437E+02, 1.667E+02, 4.562E+01,-1.075E+02, 1.906E-01, 1.097E-02, 1.285E+01
 4.800E+02, 1.127E+02, 1.194E+02, 1.272E+02, 1.653E+02, 4.563E+01, 1.394E+02, 1.737E+02, 4.505E+01, 1.681E+01, 1.909E-01, 1.083E-02, 4.034E+01
 4.900E+02, 1.145E+02, 1.262E+02, 1.276E+02, 1.691E+02, 4.666E+01, 1.478E+02, 1.858E+02, 4.506E+01, 9.253E+00, 1.901E-01, 1.125E-02, 1.153E+01
 5.000E+02, 1.143E+02, 1.331E+02, 1.234E+02, 1.742E+02, 4.547E+01, 1.681E+02, 1.864E+02, 4.481E+01,-5.386E+01, 1.902E-01, 1.119E-02, 3.236E+00
 5.100E+02, 1.091E+02, 1.143E+02, 1.200E+02, 1.622E+02, 4.509E+01, 1.290E+02, 1.691E+02, 4.479E+01,-3.810E+01, 1.906E-01, 1.096E-02, 1.925E+00
 5.200E+02, 1.100E+02, 1.189E+02, 1.168E+02, 1.673E+02, 4.574E+01, 1.208E+02, 1.915E+02, 4.457E+01, 1.666E+01, 1.903E-01, 1.113E-02, 3.270E+00
 5.300E+02, 1.089E+02, 1.148E+02, 1.135E+02, 1.681E+02, 4.499E+01, 1.171E+02, 1.822E+02, 4.513E+01,-1.328E+00, 1.894E-01, 1.167E-02, 2.743E+00
 5.400E+02, 1.076E+02, 1.106E+02, 1.114E+02, 1.669E+02, 4.440E+01, 1.134E+02, 1.737E+02, 4.475E+01,-5.370E+01, 1.894E-01, 1.166E-02, 1.509E+00
 5.500E+02, 1.040E+02, 1.433E+02, 1.090E+02, 1.585E+02, 4.457E+01, 1.437E+02, 2.416E+02, 4.456E+01, 1.564E+01, 1.894E-01, 1.162E-02, 9.570E-01
 5.600E+02, 1.065E+02, 1.113E+02, 1.087E+02, 1.655E+02, 4.527E+01, 1.088E+02, 1.802E+02, 4.484E+01,-2.030E+01, 1.889E-01, 1.194E-02, 3.247E+00
 5.700E+02, 1.077E+02, 1.138E+02, 1.082E+02, 1.693E+02, 4.554E+01, 1.031E+02, 1.926E+02, 4.566E+01, 6.852E+00, 1.885E-01, 1.214E-02, 9.039E-01
 5.800E+02, 1.076E+02, 1.125E+02, 1.044E+02, 1.730E+02, 4.546E+01, 1.068E+02, 1.854E+02, 4.522E+01,-4.079E+01, 1.886E-01, 1.210E-02, 7.952E-01
 5.900E+02, 1.054E+02, 1.165E+02, 1.047E+02, 1.662E+02, 4.539E+01, 1.078E+02, 1.962E+02, 4.560E+01,-2.200E+01, 1.884E-01, 1.220E-02, 2.037E+00
 6.000E+02, 1.105E+02, 1.166E+02, 1.087E+02, 1.767E+02, 4.622E+01, 1.026E+02, 2.017E+02, 4.539E+01, 7.174E+01, 1.884E-01, 1.222E-02, 2.200E-02
 6.100E+02, 1.139E+02, 1.278E+02, 1.074E+02, 1.868E+02, 4.736E+01, 1.129E+02, 2.238E+02, 4.676E+01, 1.222E+01, 1.875E-01, 1.270E-02, 1.196E+00
 6.200E+02, 1.108E+02, 1.255E+02, 1.069E+02, 1.783E+02, 4.718E+01, 1.097E+02, 2.191E+02, 4.766E+01,-2.752E+01, 1.868E-01, 1.312E-02, 2.304E+00
 6.300E+02, 1.108E+02, 1.452E+02, 1.067E+02, 1.767E+02, 4.900E+01, 1.070E+02, 2.809E+02, 4.779E+01, 5.635E+01, 1.872E-01, 1.287E-02, 1.519E+00
 6.400E+02, 1.149E+02, 1.265E+02, 1.082E+02, 1.872E+02, 4.935E+01, 1.084E+02, 2.223E+02, 4.882E+01,-5.472E+00, 1.868E-01, 1.311E-02, 3.285E-01
 6.500E+02, 1.135E+02, 1.229E+02, 1.076E+02, 1.828E+02, 5.007E+01, 1.067E+02, 2.122E+02, 4.965E+01,-3.520E+01, 1.864E-01, 1.333E-02, 3.162E-01
 6.600E+02, 1.128E+02, 1.217E+02, 1.073E+02, 1.795E+02, 5.161E+01, 1.037E+02, 2.112E+02, 5.012E+01,-3.770E+01, 1.858E-01, 1.364E-02, 4.414E-02
 6.700E+02, 1.101E+02, 1.136E+02, 1.059E+02, 1.737E+02, 5.089E+01, 9.905E+01, 1.911E+02, 5.054E+01,-2.913E+01, 1.860E-01, 1.354E-02, 2.539E+00
 6.800E+02, 1.105E+02, 1.252E+02, 1.037E+02, 1.762E+02, 5.152E+01, 1.020E+02, 2.231E+02, 5.042E+01, 2.718E+01, 1.861E-01, 1.348E-02, 2.359E-01
 6.900E+02, 1.098E+02, 1.178E+02, 1.022E+02, 1.760E+02, 5.111E+01, 1.012E+02, 2.017E+02, 5.054E+01,-3.149E+01, 1.856E-01, 1.379E-02, 1.990E+00
 7.000E+02, 1.075E+02, 1.132E+02, 1.018E+02, 1.696E+02, 5.114E+01, 9.845E+01, 1.900E+02, 5.115E+01,-2.504E+01, 1.851E-01, 1.407E-02, 5.211E-01
 7.100E+02, 1.060E+02, 1.094E+02, 9.998E+01, 1.656E+02, 5.242E+01, 9.556E+01, 1.813E+02, 5.123E+01,-2.639E+01, 1.851E-01, 1.406E-02, 1.981E+00
 7.200E+02, 1.034E+02, 1.095E+02, 9.851E+01, 1.590E+02, 5.277E+01, 9.307E+01, 1.834E+02, 5.202E+01,-2.181E+01, 1.857E-01, 1.374E-02, 1.414E+00
 7.300E+02, 1.030E+02, 1.046E+02, 9.600E+01, 1.597E+02, 5.319E+01, 9.285E+01, 1.689E+02, 5.218E+01,-1.933E+01, 1.850E-01, 1.411E-02, 1.929E+00
 7.400E+02, 1.014E+02, 1.030E+02, 9.455E+01, 1.552E+02, 5.435E+01, 9.232E+01, 1.639E+02, 5.279E+01,-2.295E+01, 1.847E-01, 1.426E-02, 3.641E+00
 7.500E+02, 9.942E+01, 1.021E+02, 9.338E+01, 1.521E+02, 5.277E+01, 9.003E+01, 1.634E+02, 5.295E+01,-1.833E+01, 1.839E-01, 1.471E-02, 1.460E+00
 7.600E+02, 9.914E+01, 1.036E+02, 9.174E+01, 1.534E+02, 5.232E+01, 8.716E+01, 1.719E+02, 5.179E+01,-1.949E+01, 1.837E-01, 1.484E-02, 3.284E-01
 7.700E+02, 9.910E+01, 1.022E+02, 9.088E+01, 1.540E+02, 5.247E+01, 8.512E+01, 1.689E+02, 5.247E+01,-1.281E+01, 1.833E-01, 1.503E-02, 2.415E-01
 7.800E+02, 9.992E+01, 1.009E+02, 8.994E+01, 1.562E+02, 5.367E+01, 8.287E+01, 1.672E+02, 5.277E+01,-9.225E+00, 1.834E-01, 1.502E-02, 4.623E-01
 7.900E+02, 9.994E+01, 1.028E+02, 8.922E+01, 1.572E+02, 5.344E+01, 8.230E+01, 1.734E+02, 5.284E+01,-1.036E+01, 1.835E-01, 1.492E-02, 6.171E-02
 8.000E+02, 1.007E+02, 1.068E+02, 8.865E+01, 1.585E+02, 5.499E+01, 8.362E+01, 1.833E+02, 5.345E+01,-1.268E+01, 1.832E-01, 1.511E-02, 3.175E-01
 8.100E+02, 1.000E+02, 1.030E+02, 8.810E+01, 1.571E+02, 5.483E+01, 8.175E+01, 1.729E+02, 5.431E+01,-1.205E+01, 1.826E-01, 1.545E-02, 1.079E+00
 8.200E+02, 9.988E+01, 1.039E+02, 8.742E+01, 1.562E+02, 5.599E+01, 8.138E+01, 1.753E+02, 5.485E+01,-1.440E+01, 1.817E-01, 1.593E-02, 3.614E-01
 8.300E+02, 9.919E+01, 1.027E+02, 8.695E+01, 1.539E+02, 5.669E+01, 8.242E+01, 1.692E+02, 5.641E+01,-1.165E+01, 1.815E-01, 1.607E-02, 1.637E-05
 8.400E+02, 9.949E+01, 1.036E+02, 8.621E+01, 1.537E+02, 5.856E+01, 8.235E+01, 1.715E+02, 5.701E+01,-1.480E+01, 1.815E-01, 1.608E-02, 3.128E-01
 8.500E+02, 9.833E+01, 1.012E+02, 8.595E+01, 1.505E+02, 5.853E+01, 8.075E+01, 1.648E+02, 5.793E+01,-1.474E+01, 1.816E-01, 1.600E-02, 6.231E-02
 8.600E+02, 9.833E+01, 1.012E+02, 8.530E+01, 1.499E+02, 5.983E+01, 7.951E+01, 1.658E+02, 5.828E+01,-1.370E+01, 1.816E-01, 1.602E-02, 1.533E-01
 8.700E+02, 9.733E+01, 9.991E+01, 8.457E+01, 1.474E+02, 5.999E+01, 7.798E+01, 1.619E+02, 5.980E+01,-1.515E+01, 1.808E-01, 1.646E-02, 6.067E-02
 8.800E+02, 9.727E+01, 9.935E+01, 8.405E+01, 1.465E+02, 6.128E+01, 7.769E+01, 1.605E+02, 5.987E+01,-1.193E+01, 1.807E-01, 1.651E-02, 3.946E-02
 8.900E+02, 9.649E+01, 1.018E+02, 8.341E+01, 1.443E+02, 6.178E+01, 7.770E+01, 1.669E+02, 6.072E+01,-1.107E+01, 1.804E-01, 1.667E-02, 5.048E-01
 9.000E+02, 9.680E+01, 1.025E+02, 8.319E+01, 1.446E+02, 6.261E+01, 7.819E+01, 1.671E+02, 6.227E+01,-6.109E+00, 1.806E-01, 1.656E-02, 8.164E-02
 9.100E+02, 9.810E+01, 1.025E+02, 8.263E+01, 1.482E+02, 6.348E+01, 7.893E+01, 1.659E+02, 6.254E+01,-9.770E-01, 1.800E-01, 1.688E-02, 4.481E-05
 9.200E+02, 9.922E+01, 1.020E+02, 8.291E+01, 1.487E+02, 6.603E+01, 7.808E+01, 1.633E+02, 6.477E+01,-7.445E+00, 1.800E-01, 1.689E-02, 2.245E-02
 9.300E+02, 1.004E+02, 1.014E+02, 8.255E+01, 1.476E+02, 7.110E+01, 7.732E+01, 1.586E+02, 6.837E+01, 1.963E+00, 1.779E-01, 1.807E-02, 1.565E-03
 9.400E+02, 1.017E+02, 1.043E+02, 8.241E+01, 1.467E+02, 7.597E+01, 7.658E+01, 1.643E+02, 7.187E+01,-4.518E+00, 1.767E-01, 1.874E-02, 7.537E-04
 9.500E+02, 1.035E+02, 1.052E+02, 8.224E+01, 1.486E+02, 7.966E+01, 7.690E+01, 1.644E+02, 7.421E+01, 9.312E-01, 1.756E-01, 1.934E-02, 1.037E-03
 9.600E+02, 1.041E+02, 1.047E+02, 8.235E+01, 1.481E+02, 8.177E+01, 7.626E+01, 1.602E+02, 7.747E+01,-3.453E+00, 1.741E-01, 2.021E-02, 1.471E-03
 9.700E+02, 1.057E+02, 1.067E+02, 8.204E+01, 1.476E+02, 8.751E+01, 7.591E+01, 1.659E+02, 7.818E+01,-3.065E+00, 1.742E-01, 2.014E-02, 2.058E-03
 9.800E+02, 1.067E+02, 1.079E+02, 8.163E+01, 1.468E+02, 9.179E+01, 7.636E+01, 1.628E+02, 8.456E+01, 3.259E+00, 1.718E-01, 2.147E-02, 2.236E-03
 9.900E+02, 1.066E+02, 1.093E+02, 8.135E+01, 1.447E+02, 9.389E+01, 7.654E+01, 1.631E+02, 8.822E+01, 4.799E+00, 1.710E-01, 2.192E-02, 7.158E-03
 1.000E+03, 1.080E+02, 1.091E+02, 8.100E+01, 1.445E+02, 9.838E+01, 7.601E+01, 1.592E+02, 9.196E+01,-5.594E+00, 1.696E-01, 2.269E-02, 5.627E-03
