s,C,C,C,C,C,C,C,C,Pa,mol/mol,mol/mol,kW
Time,West_All_TCs,East_All_TCs,West_Bottom_TCs,West_Middle_TCs,West_Upper_TCs,East_Bottom_TCs,East_Middle_TCs,East_Upper_TCs,Pressure,O2,CO2,HRR
-6.000E+01, 4.100E+01, 4.100E+01, 4.100E+01, 4.100E+01, 4.100E+01, 4.100E+01, 4.100E+01, 4.100E+01,-9.072E-06, 2.095E-01, 3.901E-04, 0.000E+00
-4.999E+01, 4.100E+01, 4.100E+01, 4.100E+01, 4.102E+01, 4.098E+01, 4.100E+01, 4.101E+01, 4.099E+01, 9.896E-06, 2.095E-01, 3.901E-04, 0.000E+00
-3.999E+01, 4.100E+01, 4.100E+01, 4.100E+01, 4.101E+01, 4.099E+01, 4.100E+01, 4.101E+01, 4.099E+01, 1.387E-05, 2.095E-01, 3.901E-04, 0.000E+00
-2.998E+01, 4.100E+01, 4.100E+01, 4.100E+01, 4.101E+01, 4.099E+01, 4.100E+01, 4.100E+01, 4.100E+01, 1.765E-05, 2.095E-01, 3.901E-04, 0.000E+00
-1.997E+01, 4.100E+01, 4.100E+01, 4.100E+01, 4.100E+01, 4.100E+01, 4.100E+01, 4.100E+01, 4.100E+01, 1.850E-05, 2.095E-01, 3.901E-04, 0.000E+00
-9.967E+00, 4.100E+01, 4.100E+01, 4.100E+01, 4.100E+01, 4.100E+01, 4.100E+01, 4.100E+01, 4.100E+01, 1.725E-05, 2.095E-01, 3.901E-04, 0.000E+00
 3.957E-02, 4.100E+01, 4.100E+01, 4.100E+01, 4.100E+01, 4.100E+01, 4.100E+01, 4.100E+01, 4.100E+01, 1.473E-05, 2.095E-01, 3.901E-04, 3.535E-04
 1.003E+01, 4.158E+01, 4.171E+01, 4.129E+01, 4.189E+01, 4.155E+01, 4.137E+01, 4.212E+01, 4.166E+01, 1.433E-03, 2.095E-01, 3.901E-04, 1.650E+01
 2.001E+01, 4.330E+01, 4.346E+01, 4.198E+01, 4.549E+01, 4.244E+01, 4.221E+01, 4.596E+01, 4.222E+01,-3.515E-04, 2.095E-01, 3.901E-04, 4.962E+01
 3.001E+01, 4.737E+01, 4.782E+01, 4.475E+01, 5.509E+01, 4.225E+01, 4.525E+01, 5.614E+01, 4.206E+01, 6.922E-02, 2.095E-01, 3.901E-04, 8.295E+01
 4.002E+01, 5.200E+01, 5.321E+01, 4.627E+01, 6.685E+01, 4.289E+01, 4.836E+01, 6.880E+01, 4.248E+01, 2.224E-01, 2.095E-01, 3.901E-04, 1.000E+02
 5.003E+01, 5.703E+01, 5.785E+01, 5.096E+01, 7.655E+01, 4.356E+01, 5.230E+01, 7.841E+01, 4.283E+01, 2.909E-01, 2.095E-01, 3.974E-04, 1.000E+02
 6.002E+01, 6.133E+01, 6.245E+01, 5.413E+01, 8.357E+01, 4.628E+01, 5.623E+01, 8.588E+01, 4.525E+01, 2.183E-01, 2.089E-01, 7.659E-04, 1.001E+02
 7.001E+01, 6.390E+01, 6.640E+01, 5.673E+01, 8.893E+01, 4.605E+01, 5.883E+01, 9.360E+01, 4.677E+01, 4.095E-01, 2.086E-01, 9.177E-04, 9.999E+01
 8.001E+01, 6.679E+01, 6.855E+01, 5.975E+01, 9.252E+01, 4.809E+01, 6.070E+01, 9.619E+01, 4.875E+01, 4.299E-01, 2.083E-01, 1.070E-03, 1.001E+02
 9.002E+01, 6.876E+01, 7.031E+01, 6.018E+01, 9.549E+01, 5.062E+01, 6.201E+01, 9.863E+01, 5.030E+01, 4.931E-01, 2.081E-01, 1.224E-03, 9.996E+01
 1.000E+02, 7.009E+01, 7.236E+01, 6.146E+01, 9.622E+01, 5.261E+01, 6.293E+01, 1.019E+02, 5.220E+01, 4.957E-01, 2.076E-01, 1.477E-03, 1.001E+02
 1.100E+02, 7.088E+01, 7.382E+01, 6.331E+01, 9.582E+01, 5.351E+01, 6.325E+01, 1.038E+02, 5.436E+01, 4.946E-01, 2.073E-01, 1.646E-03, 9.999E+01
 1.200E+02, 7.261E+01, 7.507E+01, 6.376E+01, 9.856E+01, 5.552E+01, 6.511E+01, 1.044E+02, 5.569E+01, 4.769E-01, 2.069E-01, 1.843E-03, 1.001E+02
 1.300E+02, 7.348E+01, 7.565E+01, 6.356E+01, 1.010E+02, 5.591E+01, 6.630E+01, 1.041E+02, 5.651E+01, 3.174E-01, 2.067E-01, 1.991E-03, 1.001E+02
 1.400E+02, 7.432E+01, 7.688E+01, 6.398E+01, 1.024E+02, 5.657E+01, 6.807E+01, 1.060E+02, 5.655E+01, 4.558E-01, 2.066E-01, 2.047E-03, 1.001E+02
 1.500E+02, 7.442E+01, 7.778E+01, 6.444E+01, 1.015E+02, 5.735E+01, 6.896E+01, 1.063E+02, 5.807E+01, 6.348E-01, 2.060E-01, 2.347E-03, 1.002E+02
 1.600E+02, 7.488E+01, 7.805E+01, 6.393E+01, 1.022E+02, 5.854E+01, 6.934E+01, 1.061E+02, 5.868E+01, 5.660E-01, 2.057E-01, 2.558E-03, 1.002E+02
 1.700E+02, 7.559E+01, 7.809E+01, 6.464E+01, 1.036E+02, 5.849E+01, 6.899E+01, 1.066E+02, 5.873E+01, 5.285E-01, 2.056E-01, 2.616E-03, 1.001E+02
 1.800E+02, 7.609E+01, 7.812E+01, 6.377E+01, 1.047E+02, 5.976E+01, 6.895E+01, 1.061E+02, 5.929E+01, 5.397E-01, 2.052E-01, 2.809E-03, 1.000E+02
 1.900E+02, 7.556E+01, 7.890E+01, 6.424E+01, 1.031E+02, 5.938E+01, 7.027E+01, 1.066E+02, 5.983E+01, 6.081E-01, 2.049E-01, 2.969E-03, 1.001E+02
 2.000E+02, 7.620E+01, 8.003E+01, 6.511E+01, 1.034E+02, 6.008E+01, 7.090E+01, 1.076E+02, 6.156E+01, 5.224E-01, 2.045E-01, 3.194E-03, 9.988E+01
 2.100E+02, 7.665E+01, 8.045E+01, 6.450E+01, 1.047E+02, 6.071E+01, 7.120E+01, 1.087E+02, 6.145E+01, 4.612E-01, 2.045E-01, 3.214E-03, 1.001E+02
 2.200E+02, 7.670E+01, 7.950E+01, 6.451E+01, 1.046E+02, 6.096E+01, 7.139E+01, 1.066E+02, 6.052E+01, 4.669E-01, 2.043E-01, 3.336E-03, 1.003E+02
 2.300E+02, 7.697E+01, 7.984E+01, 6.531E+01, 1.043E+02, 6.128E+01, 7.158E+01, 1.067E+02, 6.123E+01, 4.962E-01, 2.039E-01, 3.558E-03, 9.996E+01
 2.400E+02, 7.752E+01, 7.952E+01, 6.562E+01, 1.056E+02, 6.134E+01, 7.073E+01, 1.068E+02, 6.106E+01, 5.273E-01, 2.038E-01, 3.600E-03, 1.001E+02
 2.500E+02, 7.664E+01, 7.983E+01, 6.511E+01, 1.036E+02, 6.124E+01, 7.134E+01, 1.073E+02, 6.087E+01, 6.153E-01, 2.036E-01, 3.725E-03, 1.000E+02
 2.600E+02, 7.725E+01, 8.050E+01, 6.455E+01, 1.051E+02, 6.212E+01, 7.154E+01, 1.078E+02, 6.214E+01, 5.551E-01, 2.033E-01, 3.875E-03, 9.999E+01
 2.700E+02, 7.761E+01, 8.111E+01, 6.509E+01, 1.069E+02, 6.087E+01, 7.301E+01, 1.080E+02, 6.235E+01, 5.571E-01, 2.031E-01, 3.981E-03, 1.001E+02
 2.800E+02, 7.742E+01, 8.059E+01, 6.442E+01, 1.056E+02, 6.227E+01, 7.168E+01, 1.083E+02, 6.177E+01, 6.307E-01, 2.029E-01, 4.080E-03, 1.003E+02
 2.900E+02, 7.708E+01, 8.082E+01, 6.384E+01, 1.049E+02, 6.249E+01, 7.001E+01, 1.099E+02, 6.261E+01, 6.239E-01, 2.027E-01, 4.242E-03, 9.985E+01
 3.000E+02, 7.766E+01, 8.114E+01, 6.524E+01, 1.049E+02, 6.280E+01, 7.015E+01, 1.101E+02, 6.319E+01, 6.144E-01, 2.025E-01, 4.321E-03, 1.001E+02
 3.100E+02, 7.818E+01, 8.110E+01, 6.522E+01, 1.061E+02, 6.324E+01, 7.041E+01, 1.096E+02, 6.333E+01, 4.884E-01, 2.024E-01, 4.358E-03, 1.002E+02
 3.200E+02, 7.693E+01, 8.175E+01, 6.410E+01, 1.044E+02, 6.229E+01, 7.210E+01, 1.096E+02, 6.353E+01, 6.443E-01, 2.022E-01, 4.473E-03, 9.990E+01
 3.300E+02, 7.738E+01, 8.091E+01, 6.486E+01, 1.043E+02, 6.302E+01, 6.953E+01, 1.100E+02, 6.322E+01, 7.163E-01, 2.022E-01, 4.521E-03, 1.001E+02
 3.400E+02, 7.888E+01, 8.099E+01, 6.599E+01, 1.070E+02, 6.367E+01, 6.878E+01, 1.102E+02, 6.399E+01, 6.254E-01, 2.019E-01, 4.637E-03, 1.001E+02
 3.500E+02, 7.803E+01, 8.071E+01, 6.518E+01, 1.057E+02, 6.319E+01, 6.881E+01, 1.097E+02, 6.362E+01, 6.572E-01, 2.019E-01, 4.686E-03, 9.998E+01
 3.600E+02, 7.839E+01, 8.178E+01, 6.565E+01, 1.047E+02, 6.477E+01, 7.104E+01, 1.107E+02, 6.359E+01, 7.002E-01, 2.018E-01, 4.722E-03, 1.001E+02
 3.700E+02, 7.869E+01, 8.206E+01, 6.498E+01, 1.064E+02, 6.473E+01, 7.143E+01, 1.100E+02, 6.474E+01, 6.348E-01, 2.016E-01, 4.814E-03, 1.002E+02
 3.800E+02, 7.855E+01, 8.149E+01, 6.521E+01, 1.066E+02, 6.383E+01, 7.120E+01, 1.091E+02, 6.419E+01, 6.484E-01, 2.016E-01, 4.850E-03, 1.000E+02
 3.900E+02, 7.891E+01, 8.179E+01, 6.584E+01, 1.061E+02, 6.476E+01, 7.016E+01, 1.105E+02, 6.470E+01, 6.516E-01, 2.014E-01, 4.917E-03, 1.001E+02
 4.000E+02, 7.922E+01, 8.260E+01, 6.537E+01, 1.072E+02, 6.505E+01, 7.092E+01, 1.117E+02, 6.523E+01, 5.980E-01, 2.013E-01, 4.985E-03, 9.999E+01
 4.100E+02, 7.869E+01, 8.164E+01, 6.397E+01, 1.074E+02, 6.467E+01, 6.901E+01, 1.109E+02, 6.506E+01, 6.568E-01, 2.013E-01, 5.011E-03, 9.991E+01
 4.200E+02, 7.898E+01, 8.218E+01, 6.490E+01, 1.070E+02, 6.504E+01, 7.070E+01, 1.105E+02, 6.534E+01, 6.317E-01, 2.012E-01, 5.073E-03, 1.001E+02
 4.300E+02, 7.943E+01, 8.215E+01, 6.528E+01, 1.075E+02, 6.549E+01, 7.079E+01, 1.102E+02, 6.550E+01, 6.645E-01, 2.011E-01, 5.134E-03, 1.001E+02
 4.400E+02, 7.896E+01, 8.260E+01, 6.553E+01, 1.070E+02, 6.435E+01, 7.336E+01, 1.096E+02, 6.487E+01, 6.680E-01, 2.010E-01, 5.161E-03, 9.995E+01
 4.500E+02, 7.885E+01, 8.212E+01, 6.569E+01, 1.059E+02, 6.502E+01, 7.189E+01, 1.101E+02, 6.434E+01, 6.906E-01, 2.010E-01, 5.177E-03, 1.002E+02
 4.600E+02, 7.879E+01, 8.218E+01, 6.541E+01, 1.056E+02, 6.537E+01, 7.081E+01, 1.107E+02, 6.503E+01, 7.876E-01, 2.009E-01, 5.200E-03, 1.001E+02
 4.700E+02, 7.889E+01, 8.241E+01, 6.505E+01, 1.058E+02, 6.581E+01, 7.082E+01, 1.108E+02, 6.560E+01, 7.198E-01, 2.009E-01, 5.227E-03, 1.000E+02
 4.800E+02, 7.970E+01, 8.271E+01, 6.606E+01, 1.075E+02, 6.549E+01, 7.109E+01, 1.111E+02, 6.598E+01, 7.222E-01, 2.008E-01, 5.268E-03, 1.002E+02
 4.900E+02, 8.015E+01, 8.245E+01, 6.540E+01, 1.090E+02, 6.608E+01, 7.126E+01, 1.111E+02, 6.501E+01, 6.550E-01, 2.008E-01, 5.274E-03, 1.001E+02
 5.000E+02, 7.989E+01, 8.326E+01, 6.492E+01, 1.080E+02, 6.674E+01, 7.254E+01, 1.115E+02, 6.580E+01, 6.951E-01, 2.008E-01, 5.301E-03, 9.996E+01
 5.100E+02, 8.014E+01, 8.303E+01, 6.525E+01, 1.090E+02, 6.614E+01, 7.155E+01, 1.117E+02, 6.586E+01, 7.079E-01, 2.007E-01, 5.329E-03, 1.001E+02
 5.200E+02, 8.019E+01, 8.309E+01, 6.579E+01, 1.084E+02, 6.639E+01, 7.155E+01, 1.123E+02, 6.545E+01, 6.908E-01, 2.007E-01, 5.345E-03, 1.001E+02
 5.300E+02, 7.983E+01, 8.317E+01, 6.545E+01, 1.082E+02, 6.578E+01, 7.161E+01, 1.123E+02, 6.556E+01, 6.597E-01, 2.007E-01, 5.355E-03, 9.998E+01
 5.400E+02, 7.989E+01, 8.272E+01, 6.493E+01, 1.084E+02, 6.634E+01, 7.094E+01, 1.119E+02, 6.530E+01, 7.202E-01, 2.006E-01, 5.375E-03, 1.000E+02
 5.500E+02, 7.943E+01, 8.309E+01, 6.451E+01, 1.072E+02, 6.663E+01, 7.060E+01, 1.125E+02, 6.620E+01, 7.390E-01, 2.005E-01, 5.417E-03, 1.002E+02
 5.600E+02, 8.090E+01, 8.318E+01, 6.627E+01, 1.105E+02, 6.593E+01, 7.138E+01, 1.124E+02, 6.572E+01, 5.903E-01, 2.005E-01, 5.424E-03, 1.001E+02
 5.700E+02, 8.070E+01, 8.361E+01, 6.658E+01, 1.099E+02, 6.560E+01, 7.261E+01, 1.119E+02, 6.631E+01, 5.083E-01, 2.005E-01, 5.436E-03, 9.983E+01
 5.800E+02, 8.059E+01, 8.358E+01, 6.714E+01, 1.088E+02, 6.586E+01, 7.207E+01, 1.128E+02, 6.583E+01, 6.629E-01, 2.005E-01, 5.444E-03, 1.001E+02
 5.900E+02, 8.014E+01, 8.423E+01, 6.654E+01, 1.084E+02, 6.547E+01, 7.396E+01, 1.129E+02, 6.580E+01, 5.773E-01, 2.005E-01, 5.461E-03, 1.003E+02
 6.000E+02, 8.080E+01, 8.375E+01, 6.702E+01, 1.095E+02, 6.585E+01, 7.297E+01, 1.130E+02, 6.532E+01, 7.047E-01, 2.005E-01, 5.471E-03, 9.998E+01
 6.100E+02, 8.086E+01, 8.429E+01, 6.665E+01, 1.103E+02, 6.559E+01, 7.359E+01, 1.132E+02, 6.608E+01, 6.134E-01, 2.004E-01, 5.482E-03, 1.001E+02
 6.200E+02, 8.114E+01, 8.378E+01, 6.741E+01, 1.100E+02, 6.597E+01, 7.287E+01, 1.130E+02, 6.544E+01, 6.914E-01, 2.004E-01, 5.488E-03, 1.000E+02
 6.300E+02, 8.080E+01, 8.433E+01, 6.677E+01, 1.099E+02, 6.575E+01, 7.370E+01, 1.135E+02, 6.577E+01, 7.163E-01, 2.004E-01, 5.514E-03, 1.002E+02
 6.400E+02, 8.158E+01, 8.476E+01, 6.787E+01, 1.109E+02, 6.598E+01, 7.311E+01, 1.140E+02, 6.720E+01, 7.516E-01, 2.003E-01, 5.530E-03, 1.001E+02
 6.500E+02, 8.113E+01, 8.402E+01, 6.536E+01, 1.111E+02, 6.689E+01, 7.268E+01, 1.130E+02, 6.636E+01, 5.226E-01, 2.003E-01, 5.531E-03, 1.000E+02
 6.600E+02, 8.114E+01, 8.359E+01, 6.630E+01, 1.103E+02, 6.686E+01, 7.200E+01, 1.125E+02, 6.629E+01, 7.781E-01, 2.003E-01, 5.547E-03, 1.003E+02
 6.700E+02, 8.102E+01, 8.483E+01, 6.609E+01, 1.095E+02, 6.751E+01, 7.265E+01, 1.140E+02, 6.784E+01, 7.872E-01, 2.003E-01, 5.579E-03, 1.001E+02
 6.800E+02, 8.263E+01, 8.508E+01, 6.647E+01, 1.132E+02, 6.824E+01, 7.354E+01, 1.149E+02, 6.676E+01, 7.012E-01, 2.003E-01, 5.571E-03, 1.000E+02
 6.900E+02, 8.168E+01, 8.470E+01, 6.577E+01, 1.114E+02, 6.786E+01, 7.364E+01, 1.139E+02, 6.659E+01, 7.937E-01, 2.003E-01, 5.564E-03, 1.001E+02
 7.000E+02, 8.132E+01, 8.470E+01, 6.554E+01, 1.099E+02, 6.856E+01, 7.239E+01, 1.140E+02, 6.767E+01, 7.271E-01, 2.003E-01, 5.583E-03, 1.001E+02
 7.100E+02, 8.114E+01, 8.485E+01, 6.570E+01, 1.101E+02, 6.764E+01, 7.189E+01, 1.143E+02, 6.836E+01, 7.619E-01, 2.002E-01, 5.598E-03, 1.000E+02
 7.200E+02, 8.173E+01, 8.482E+01, 6.550E+01, 1.118E+02, 6.790E+01, 7.257E+01, 1.146E+02, 6.733E+01, 5.376E-01, 2.002E-01, 5.595E-03, 1.000E+02
 7.300E+02, 8.169E+01, 8.414E+01, 6.594E+01, 1.111E+02, 6.803E+01, 7.275E+01, 1.136E+02, 6.607E+01, 7.221E-01, 2.002E-01, 5.603E-03, 1.002E+02
 7.400E+02, 8.149E+01, 8.541E+01, 6.598E+01, 1.101E+02, 6.836E+01, 7.423E+01, 1.152E+02, 6.677E+01, 7.820E-01, 2.002E-01, 5.627E-03, 9.988E+01
 7.500E+02, 8.180E+01, 8.421E+01, 6.563E+01, 1.117E+02, 6.804E+01, 7.207E+01, 1.130E+02, 6.754E+01, 7.571E-01, 2.002E-01, 5.638E-03, 1.003E+02
 7.600E+02, 8.179E+01, 8.482E+01, 6.615E+01, 1.114E+02, 6.782E+01, 7.251E+01, 1.144E+02, 6.759E+01, 7.494E-01, 2.002E-01, 5.633E-03, 1.002E+02
 7.700E+02, 8.121E+01, 8.424E+01, 6.569E+01, 1.100E+02, 6.797E+01, 7.279E+01, 1.131E+02, 6.686E+01, 8.472E-01, 2.001E-01, 5.644E-03, 1.000E+02
 7.800E+02, 8.144E+01, 8.470E+01, 6.635E+01, 1.097E+02, 6.832E+01, 7.195E+01, 1.139E+02, 6.825E+01, 8.161E-01, 2.001E-01, 5.646E-03, 1.002E+02
 7.900E+02, 8.175E+01, 8.401E+01, 6.596E+01, 1.112E+02, 6.814E+01, 7.077E+01, 1.131E+02, 6.818E+01, 8.269E-01, 2.001E-01, 5.642E-03, 1.000E+02
 8.000E+02, 8.173E+01, 8.453E+01, 6.584E+01, 1.103E+02, 6.904E+01, 7.204E+01, 1.138E+02, 6.779E+01, 7.478E-01, 2.001E-01, 5.650E-03, 9.996E+01
 8.100E+02, 8.206E+01, 8.424E+01, 6.582E+01, 1.110E+02, 6.933E+01, 7.243E+01, 1.125E+02, 6.777E+01, 7.038E-01, 2.001E-01, 5.668E-03, 1.001E+02
 8.200E+02, 8.203E+01, 8.475E+01, 6.648E+01, 1.111E+02, 6.847E+01, 7.255E+01, 1.135E+02, 6.818E+01, 7.611E-01, 2.001E-01, 5.656E-03, 1.002E+02
 8.300E+02, 8.234E+01, 8.504E+01, 6.697E+01, 1.116E+02, 6.848E+01, 7.192E+01, 1.154E+02, 6.776E+01, 6.862E-01, 2.001E-01, 5.650E-03, 1.003E+02
 8.400E+02, 8.265E+01, 8.571E+01, 6.801E+01, 1.112E+02, 6.874E+01, 7.376E+01, 1.152E+02, 6.819E+01, 7.372E-01, 2.001E-01, 5.647E-03, 1.000E+02
 8.500E+02, 8.218E+01, 8.611E+01, 6.661E+01, 1.113E+02, 6.865E+01, 7.486E+01, 1.153E+02, 6.815E+01, 6.982E-01, 2.002E-01, 5.638E-03, 1.001E+02
 8.600E+02, 8.223E+01, 8.567E+01, 6.668E+01, 1.111E+02, 6.891E+01, 7.310E+01, 1.157E+02, 6.824E+01, 8.191E-01, 2.002E-01, 5.635E-03, 1.001E+02
 8.700E+02, 8.228E+01, 8.529E+01, 6.797E+01, 1.102E+02, 6.863E+01, 7.301E+01, 1.149E+02, 6.797E+01, 7.765E-01, 2.001E-01, 5.640E-03, 9.989E+01
 8.800E+02, 8.332E+01, 8.562E+01, 6.837E+01, 1.121E+02, 6.950E+01, 7.513E+01, 1.140E+02, 6.777E+01, 7.807E-01, 2.001E-01, 5.641E-03, 9.998E+01
 8.900E+02, 8.289E+01, 8.504E+01, 6.753E+01, 1.116E+02, 6.952E+01, 7.390E+01, 1.130E+02, 6.825E+01, 7.984E-01, 2.002E-01, 5.631E-03, 1.002E+02
 9.000E+02, 8.232E+01, 8.627E+01, 6.552E+01, 1.114E+02, 7.008E+01, 7.336E+01, 1.165E+02, 6.897E+01, 7.879E-01, 2.002E-01, 5.631E-03, 1.000E+02
 9.100E+02, 8.221E+01, 8.583E+01, 6.654E+01, 1.101E+02, 7.006E+01, 7.336E+01, 1.150E+02, 6.917E+01, 8.014E-01, 2.002E-01, 5.637E-03, 1.002E+02
 9.200E+02, 8.317E+01, 8.585E+01, 6.668E+01, 1.122E+02, 7.061E+01, 7.385E+01, 1.140E+02, 6.966E+01, 7.067E-01, 2.002E-01, 5.638E-03, 1.002E+02
 9.300E+02, 8.277E+01, 8.537E+01, 6.700E+01, 1.117E+02, 6.965E+01, 7.207E+01, 1.143E+02, 6.970E+01, 7.611E-01, 2.002E-01, 5.629E-03, 1.001E+02
 9.400E+02, 8.253E+01, 8.651E+01, 6.572E+01, 1.115E+02, 7.032E+01, 7.617E+01, 1.147E+02, 6.862E+01, 6.982E-01, 2.002E-01, 5.622E-03, 1.000E+02
 9.500E+02, 8.271E+01, 8.467E+01, 6.599E+01, 1.117E+02, 7.046E+01, 7.275E+01, 1.128E+02, 6.850E+01, 8.814E-01, 2.002E-01, 5.622E-03, 1.001E+02
 9.600E+02, 8.317E+01, 8.542E+01, 6.749E+01, 1.117E+02, 7.027E+01, 7.169E+01, 1.155E+02, 6.902E+01, 8.048E-01, 2.002E-01, 5.614E-03, 1.001E+02
 9.700E+02, 8.284E+01, 8.560E+01, 6.810E+01, 1.108E+02, 6.963E+01, 7.232E+01, 1.155E+02, 6.901E+01, 8.563E-01, 2.002E-01, 5.608E-03, 1.001E+02
 9.800E+02, 8.333E+01, 8.565E+01, 6.695E+01, 1.124E+02, 7.062E+01, 7.228E+01, 1.153E+02, 6.942E+01, 7.894E-01, 2.002E-01, 5.592E-03, 1.000E+02
 9.900E+02, 8.307E+01, 8.618E+01, 6.682E+01, 1.120E+02, 7.041E+01, 7.287E+01, 1.156E+02, 7.005E+01, 6.919E-01, 2.002E-01, 5.584E-03, 9.985E+01
 1.000E+03, 8.374E+01, 8.630E+01, 6.737E+01, 1.128E+02, 7.107E+01, 7.397E+01, 1.151E+02, 6.984E+01, 7.274E-01, 2.003E-01, 5.582E-03, 1.002E+02
 1.010E+03, 8.306E+01, 8.656E+01, 6.723E+01, 1.121E+02, 6.982E+01, 7.394E+01, 1.160E+02, 6.975E+01, 8.029E-01, 2.003E-01, 5.579E-03, 1.001E+02
 1.020E+03, 8.334E+01, 8.689E+01, 6.756E+01, 1.132E+02, 6.928E+01, 7.482E+01, 1.160E+02, 6.989E+01, 8.845E-01, 2.003E-01, 5.583E-03, 1.002E+02
 1.030E+03, 8.267E+01, 8.642E+01, 6.588E+01, 1.126E+02, 6.957E+01, 7.341E+01, 1.157E+02, 7.015E+01, 8.135E-01, 2.003E-01, 5.571E-03, 1.000E+02
 1.040E+03, 8.287E+01, 8.644E+01, 6.650E+01, 1.110E+02, 7.108E+01, 7.394E+01, 1.151E+02, 7.025E+01, 8.000E-01, 2.002E-01, 5.584E-03, 1.001E+02
 1.050E+03, 8.371E+01, 8.639E+01, 6.701E+01, 1.122E+02, 7.192E+01, 7.213E+01, 1.163E+02, 7.080E+01, 8.513E-01, 2.002E-01, 5.590E-03, 9.974E+01
 1.060E+03, 8.380E+01, 8.629E+01, 6.697E+01, 1.128E+02, 7.164E+01, 7.321E+01, 1.148E+02, 7.083E+01, 6.184E-01, 2.003E-01, 5.574E-03, 1.001E+02
 1.070E+03, 8.341E+01, 8.687E+01, 6.711E+01, 1.121E+02, 7.103E+01, 7.498E+01, 1.156E+02, 7.000E+01, 8.559E-01, 2.003E-01, 5.576E-03, 1.001E+02
 1.080E+03, 8.321E+01, 8.633E+01, 6.686E+01, 1.112E+02, 7.160E+01, 7.326E+01, 1.152E+02, 7.051E+01, 8.355E-01, 2.003E-01, 5.583E-03, 9.996E+01
 1.090E+03, 8.386E+01, 8.613E+01, 6.738E+01, 1.128E+02, 7.143E+01, 7.197E+01, 1.157E+02, 7.069E+01, 7.273E-01, 2.003E-01, 5.577E-03, 1.001E+02
 1.100E+03, 8.384E+01, 8.638E+01, 6.735E+01, 1.124E+02, 7.175E+01, 7.186E+01, 1.161E+02, 7.115E+01, 7.964E-01, 2.003E-01, 5.579E-03, 9.997E+01
 1.110E+03, 8.357E+01, 8.717E+01, 6.690E+01, 1.119E+02, 7.192E+01, 7.413E+01, 1.167E+02, 7.063E+01, 7.510E-01, 2.003E-01, 5.575E-03, 1.001E+02
 1.120E+03, 8.381E+01, 8.659E+01, 6.655E+01, 1.137E+02, 7.115E+01, 7.295E+01, 1.163E+02, 7.056E+01, 9.315E-01, 2.003E-01, 5.574E-03, 1.002E+02
 1.130E+03, 8.342E+01, 8.648E+01, 6.647E+01, 1.122E+02, 7.157E+01, 7.151E+01, 1.170E+02, 7.088E+01, 8.020E-01, 2.002E-01, 5.586E-03, 1.001E+02
 1.140E+03, 8.383E+01, 8.727E+01, 6.604E+01, 1.126E+02, 7.280E+01, 7.263E+01, 1.174E+02, 7.179E+01, 7.678E-01, 2.002E-01, 5.597E-03, 1.002E+02
 1.150E+03, 8.324E+01, 8.763E+01, 6.656E+01, 1.118E+02, 7.136E+01, 7.412E+01, 1.173E+02, 7.152E+01, 7.511E-01, 2.002E-01, 5.585E-03, 1.001E+02
 1.160E+03, 8.421E+01, 8.718E+01, 6.653E+01, 1.151E+02, 7.099E+01, 7.330E+01, 1.167E+02, 7.159E+01, 6.908E-01, 2.002E-01, 5.589E-03, 1.000E+02
 1.170E+03, 8.358E+01, 8.769E+01, 6.685E+01, 1.132E+02, 7.071E+01, 7.468E+01, 1.167E+02, 7.170E+01, 8.295E-01, 2.002E-01, 5.592E-03, 1.003E+02
 1.180E+03, 8.242E+01, 8.846E+01, 6.686E+01, 1.099E+02, 7.051E+01, 7.430E+01, 1.199E+02, 7.121E+01, 9.389E-01, 2.002E-01, 5.599E-03, 1.000E+02
 1.190E+03, 8.428E+01, 8.747E+01, 6.912E+01, 1.122E+02, 7.157E+01, 7.473E+01, 1.161E+02, 7.153E+01, 8.670E-01, 2.003E-01, 5.584E-03, 1.002E+02
 1.200E+03, 8.468E+01, 8.721E+01, 6.987E+01, 1.126E+02, 7.159E+01, 7.581E+01, 1.148E+02, 7.104E+01, 7.425E-01, 2.003E-01, 5.558E-03, 1.000E+02
 1.210E+03, 8.437E+01, 8.753E+01, 6.840E+01, 1.131E+02, 7.164E+01, 7.550E+01, 1.154E+02, 7.174E+01, 7.415E-01, 2.003E-01, 5.559E-03, 9.998E+01
 1.220E+03, 8.467E+01, 8.767E+01, 6.829E+01, 1.137E+02, 7.205E+01, 7.374E+01, 1.175E+02, 7.179E+01, 8.820E-01, 2.003E-01, 5.575E-03, 9.998E+01
 1.230E+03, 8.462E+01, 8.711E+01, 6.788E+01, 1.136E+02, 7.239E+01, 7.350E+01, 1.168E+02, 7.104E+01, 8.928E-01, 2.003E-01, 5.577E-03, 1.000E+02
 1.240E+03, 8.545E+01, 8.800E+01, 6.819E+01, 1.152E+02, 7.294E+01, 7.519E+01, 1.174E+02, 7.138E+01, 8.559E-01, 2.003E-01, 5.571E-03, 1.001E+02
 1.250E+03, 8.464E+01, 8.772E+01, 6.710E+01, 1.137E+02, 7.308E+01, 7.476E+01, 1.168E+02, 7.165E+01, 8.229E-01, 2.003E-01, 5.577E-03, 9.994E+01
 1.260E+03, 8.536E+01, 8.817E+01, 6.793E+01, 1.154E+02, 7.279E+01, 7.511E+01, 1.182E+02, 7.124E+01, 8.639E-01, 2.003E-01, 5.582E-03, 1.000E+02
 1.270E+03, 8.505E+01, 8.770E+01, 6.807E+01, 1.146E+02, 7.251E+01, 7.319E+01, 1.183E+02, 7.158E+01, 9.247E-01, 2.003E-01, 5.573E-03, 9.994E+01
 1.280E+03, 8.640E+01, 8.787E+01, 6.914E+01, 1.161E+02, 7.400E+01, 7.386E+01, 1.175E+02, 7.224E+01, 8.058E-01, 2.003E-01, 5.571E-03, 1.001E+02
 1.290E+03, 8.404E+01, 8.741E+01, 6.742E+01, 1.130E+02, 7.171E+01, 7.444E+01, 1.156E+02, 7.224E+01, 8.521E-01, 2.003E-01, 5.567E-03, 9.992E+01
 1.300E+03, 8.449E+01, 8.718E+01, 6.732E+01, 1.134E+02, 7.278E+01, 7.420E+01, 1.154E+02, 7.188E+01, 8.544E-01, 2.003E-01, 5.557E-03, 1.001E+02
 1.310E+03, 8.464E+01, 8.758E+01, 6.868E+01, 1.126E+02, 7.263E+01, 7.443E+01, 1.157E+02, 7.263E+01, 8.136E-01, 2.003E-01, 5.563E-03, 9.998E+01
