s,C,C,C,C,C,C,C,C,Pa,mol/mol,mol/mol,kW
Time,"West_All_TCs","East_All_TCs","West_Bottom_TCs","West_Middle_TCs","West_Upper_TCs","East_Bottom_TCs","East_Middle_TCs","East_Upper_TCs","Pressure","O2","CO2","HRR"
-6.000E+01, 2.600E+01, 2.600E+01, 2.600E+01, 2.600E+01, 2.600E+01, 2.600E+01, 2.600E+01, 2.600E+01,-9.592E-06, 2.095E-01, 3.901E-04, 0.000E+00
-4.999E+01, 2.593E+01, 2.594E+01, 2.593E+01, 2.593E+01, 2.593E+01, 2.594E+01, 2.593E+01, 2.594E+01,-1.207E+02, 2.095E-01, 3.901E-04, 0.000E+00
-3.995E+01, 2.590E+01, 2.593E+01, 2.591E+01, 2.590E+01, 2.590E+01, 2.595E+01, 2.591E+01, 2.592E+01,-1.244E+02, 2.095E-01, 3.901E-04, 0.000E+00
-2.995E+01, 2.590E+01, 2.592E+01, 2.590E+01, 2.589E+01, 2.590E+01, 2.596E+01, 2.591E+01, 2.591E+01,-1.245E+02, 2.095E-01, 3.901E-04, 0.000E+00
-1.999E+01, 2.590E+01, 2.593E+01, 2.590E+01, 2.589E+01, 2.590E+01, 2.596E+01, 2.591E+01, 2.591E+01,-1.245E+02, 2.095E-01, 3.901E-04, 0.000E+00
-9.932E+00, 2.590E+01, 2.593E+01, 2.590E+01, 2.590E+01, 2.589E+01, 2.596E+01, 2.592E+01, 2.591E+01,-1.245E+02, 2.095E-01, 3.901E-04, 0.000E+00
 1.666E-02, 2.590E+01, 2.593E+01, 2.591E+01, 2.591E+01, 2.589E+01, 2.596E+01, 2.593E+01, 2.591E+01,-1.245E+02, 2.095E-01, 3.901E-04, 1.759E-04
 1.001E+01, 2.726E+01, 2.732E+01, 2.658E+01, 2.924E+01, 2.595E+01, 2.684E+01, 2.916E+01, 2.596E+01,-6.271E+01, 2.095E-01, 3.901E-04, 4.054E+01
 2.001E+01, 3.265E+01, 3.240E+01, 2.916E+01, 4.225E+01, 2.654E+01, 2.963E+01, 4.163E+01, 2.593E+01, 2.319E-01, 2.095E-01, 3.901E-04, 1.238E+02
 3.002E+01, 4.364E+01, 4.385E+01, 3.421E+01, 6.852E+01, 2.819E+01, 3.642E+01, 6.933E+01, 2.580E+01, 4.287E+01, 2.095E-01, 3.901E-04, 2.062E+02
 4.000E+01, 5.758E+01, 5.945E+01, 4.624E+01, 9.622E+01, 3.027E+01, 4.794E+01, 1.027E+02, 2.776E+01, 5.954E+01, 2.092E-01, 5.582E-04, 2.502E+02
 5.000E+01, 7.204E+01, 7.184E+01, 6.085E+01, 1.232E+02, 3.209E+01, 6.431E+01, 1.201E+02, 3.115E+01, 2.898E+01, 2.087E-01, 8.711E-04, 2.508E+02
 6.002E+01, 8.455E+01, 8.554E+01, 7.830E+01, 1.407E+02, 3.463E+01, 8.025E+01, 1.422E+02, 3.417E+01, 1.080E+01, 2.082E-01, 1.115E-03, 2.501E+02
 7.001E+01, 9.602E+01, 9.609E+01, 9.565E+01, 1.541E+02, 3.827E+01, 9.502E+01, 1.555E+02, 3.776E+01,-3.419E+00, 2.077E-01, 1.442E-03, 2.501E+02
 8.001E+01, 1.056E+02, 1.045E+02, 1.073E+02, 1.678E+02, 4.166E+01, 1.081E+02, 1.647E+02, 4.084E+01,-1.861E+01, 2.072E-01, 1.698E-03, 2.499E+02
 9.000E+01, 1.124E+02, 1.112E+02, 1.187E+02, 1.757E+02, 4.273E+01, 1.213E+02, 1.683E+02, 4.407E+01,-3.003E+01, 2.066E-01, 2.019E-03, 2.496E+02
 1.000E+02, 1.173E+02, 1.160E+02, 1.266E+02, 1.786E+02, 4.665E+01, 1.290E+02, 1.723E+02, 4.674E+01,-4.902E+01, 2.061E-01, 2.309E-03, 2.487E+02
 1.100E+02, 1.189E+02, 1.217E+02, 1.294E+02, 1.791E+02, 4.832E+01, 1.332E+02, 1.824E+02, 4.937E+01,-5.175E+01, 2.055E-01, 2.646E-03, 2.511E+02
 1.200E+02, 1.211E+02, 1.273E+02, 1.323E+02, 1.798E+02, 5.100E+01, 1.389E+02, 1.911E+02, 5.175E+01,-7.321E+01, 2.046E-01, 3.173E-03, 2.486E+02
 1.300E+02, 1.238E+02, 1.270E+02, 1.350E+02, 1.836E+02, 5.287E+01, 1.367E+02, 1.913E+02, 5.302E+01,-7.664E+01, 2.041E-01, 3.427E-03, 2.506E+02
 1.400E+02, 1.256E+02, 1.293E+02, 1.358E+02, 1.875E+02, 5.362E+01, 1.415E+02, 1.908E+02, 5.577E+01,-7.742E+01, 2.031E-01, 3.964E-03, 2.506E+02
 1.500E+02, 1.287E+02, 1.310E+02, 1.389E+02, 1.899E+02, 5.717E+01, 1.406E+02, 1.955E+02, 5.667E+01,-9.141E+01, 2.021E-01, 4.538E-03, 2.487E+02
 1.600E+02, 1.300E+02, 1.349E+02, 1.390E+02, 1.914E+02, 5.960E+01, 1.481E+02, 1.981E+02, 5.857E+01,-9.354E+01, 2.012E-01, 5.042E-03, 2.498E+02
 1.700E+02, 1.316E+02, 1.379E+02, 1.415E+02, 1.936E+02, 5.963E+01, 1.521E+02, 2.010E+02, 6.058E+01,-9.834E+01, 2.001E-01, 5.667E-03, 2.505E+02
 1.800E+02, 1.313E+02, 1.358E+02, 1.409E+02, 1.921E+02, 6.083E+01, 1.525E+02, 1.956E+02, 5.943E+01,-9.942E+01, 1.995E-01, 5.975E-03, 2.508E+02
 1.900E+02, 1.312E+02, 1.398E+02, 1.411E+02, 1.923E+02, 6.005E+01, 1.592E+02, 1.985E+02, 6.175E+01,-1.039E+02, 1.983E-01, 6.701E-03, 2.497E+02
 2.000E+02, 1.322E+02, 1.365E+02, 1.401E+02, 1.945E+02, 6.183E+01, 1.504E+02, 1.977E+02, 6.131E+01,-9.985E+01, 1.976E-01, 7.048E-03, 2.482E+02
 2.100E+02, 1.328E+02, 1.394E+02, 1.404E+02, 1.949E+02, 6.326E+01, 1.551E+02, 2.013E+02, 6.182E+01,-9.563E+01, 1.967E-01, 7.559E-03, 2.505E+02
 2.200E+02, 1.352E+02, 1.413E+02, 1.438E+02, 1.974E+02, 6.424E+01, 1.546E+02, 2.066E+02, 6.255E+01,-1.049E+02, 1.954E-01, 8.270E-03, 2.458E+02
 2.300E+02, 1.360E+02, 1.391E+02, 1.459E+02, 1.979E+02, 6.427E+01, 1.532E+02, 1.997E+02, 6.453E+01,-9.954E+01, 1.940E-01, 9.083E-03, 2.539E+02
 2.400E+02, 1.369E+02, 1.401E+02, 1.472E+02, 1.980E+02, 6.552E+01, 1.579E+02, 1.993E+02, 6.315E+01,-9.520E+01, 1.928E-01, 9.747E-03, 2.463E+02
 2.500E+02, 1.374E+02, 1.448E+02, 1.471E+02, 2.002E+02, 6.486E+01, 1.584E+02, 2.101E+02, 6.583E+01,-9.216E+01, 1.910E-01, 1.077E-02, 2.533E+02
 2.600E+02, 1.366E+02, 1.441E+02, 1.468E+02, 1.978E+02, 6.512E+01, 1.597E+02, 2.069E+02, 6.574E+01,-1.095E+02, 1.903E-01, 1.114E-02, 2.473E+02
 2.700E+02, 1.375E+02, 1.428E+02, 1.460E+02, 2.003E+02, 6.631E+01, 1.583E+02, 2.060E+02, 6.406E+01,-1.018E+02, 1.899E-01, 1.138E-02, 2.486E+02
 2.800E+02, 1.387E+02, 1.450E+02, 1.482E+02, 2.017E+02, 6.620E+01, 1.592E+02, 2.095E+02, 6.630E+01,-9.888E+01, 1.881E-01, 1.235E-02, 2.532E+02
 2.900E+02, 1.385E+02, 1.444E+02, 1.484E+02, 2.008E+02, 6.636E+01, 1.622E+02, 2.040E+02, 6.710E+01,-1.086E+02, 1.865E-01, 1.328E-02, 2.463E+02
 3.000E+02, 1.400E+02, 1.463E+02, 1.502E+02, 2.029E+02, 6.706E+01, 1.607E+02, 2.110E+02, 6.706E+01,-9.014E+01, 1.857E-01, 1.373E-02, 2.509E+02
 3.100E+02, 1.400E+02, 1.461E+02, 1.485E+02, 2.050E+02, 6.664E+01, 1.614E+02, 2.093E+02, 6.758E+01,-1.100E+02, 1.847E-01, 1.427E-02, 2.484E+02
 3.200E+02, 1.393E+02, 1.466E+02, 1.478E+02, 2.019E+02, 6.813E+01, 1.607E+02, 2.130E+02, 6.618E+01,-9.979E+01, 1.835E-01, 1.494E-02, 2.507E+02
 3.300E+02, 1.406E+02, 1.464E+02, 1.509E+02, 2.043E+02, 6.654E+01, 1.614E+02, 2.114E+02, 6.638E+01,-1.042E+02, 1.821E-01, 1.575E-02, 2.490E+02
 3.400E+02, 1.399E+02, 1.496E+02, 1.505E+02, 2.036E+02, 6.554E+01, 1.677E+02, 2.141E+02, 6.694E+01,-1.066E+02, 1.812E-01, 1.621E-02, 2.500E+02
 3.500E+02, 1.411E+02, 1.464E+02, 1.518E+02, 2.049E+02, 6.645E+01, 1.614E+02, 2.119E+02, 6.595E+01,-9.231E+01, 1.805E-01, 1.661E-02, 2.517E+02
 3.600E+02, 1.429E+02, 1.510E+02, 1.535E+02, 2.077E+02, 6.736E+01, 1.659E+02, 2.197E+02, 6.737E+01,-9.783E+01, 1.790E-01, 1.745E-02, 2.457E+02
 3.700E+02, 1.436E+02, 1.502E+02, 1.552E+02, 2.085E+02, 6.725E+01, 1.660E+02, 2.166E+02, 6.806E+01,-1.063E+02, 1.776E-01, 1.827E-02, 2.485E+02
 3.800E+02, 1.416E+02, 1.496E+02, 1.516E+02, 2.066E+02, 6.666E+01, 1.645E+02, 2.175E+02, 6.686E+01,-1.031E+02, 1.768E-01, 1.870E-02, 2.500E+02
 3.900E+02, 1.429E+02, 1.468E+02, 1.539E+02, 2.088E+02, 6.594E+01, 1.618E+02, 2.131E+02, 6.540E+01,-8.550E+01, 1.761E-01, 1.909E-02, 2.555E+02
 4.000E+02, 1.451E+02, 1.520E+02, 1.558E+02, 2.129E+02, 6.662E+01, 1.702E+02, 2.170E+02, 6.871E+01,-1.016E+02, 1.743E-01, 2.009E-02, 2.449E+02
 4.100E+02, 1.442E+02, 1.517E+02, 1.557E+02, 2.089E+02, 6.801E+01, 1.715E+02, 2.171E+02, 6.649E+01,-9.202E+01, 1.739E-01, 2.029E-02, 2.503E+02
 4.200E+02, 1.454E+02, 1.497E+02, 1.565E+02, 2.110E+02, 6.875E+01, 1.660E+02, 2.151E+02, 6.788E+01,-1.030E+02, 1.727E-01, 2.096E-02, 2.484E+02
 4.300E+02, 1.468E+02, 1.514E+02, 1.601E+02, 2.117E+02, 6.850E+01, 1.687E+02, 2.168E+02, 6.888E+01,-1.016E+02, 1.716E-01, 2.157E-02, 2.505E+02
 4.400E+02, 1.468E+02, 1.509E+02, 1.557E+02, 2.146E+02, 6.993E+01, 1.709E+02, 2.150E+02, 6.689E+01,-1.016E+02, 1.709E-01, 2.196E-02, 2.497E+02
 4.500E+02, 1.474E+02, 1.504E+02, 1.554E+02, 2.172E+02, 6.964E+01, 1.668E+02, 2.158E+02, 6.856E+01,-1.041E+02, 1.701E-01, 2.241E-02, 2.450E+02
 4.600E+02, 1.467E+02, 1.517E+02, 1.580E+02, 2.145E+02, 6.760E+01, 1.716E+02, 2.160E+02, 6.748E+01,-9.773E+01, 1.690E-01, 2.303E-02, 2.517E+02
 4.700E+02, 1.466E+02, 1.525E+02, 1.587E+02, 2.127E+02, 6.844E+01, 1.737E+02, 2.162E+02, 6.746E+01,-9.262E+01, 1.687E-01, 2.322E-02, 2.517E+02
 4.800E+02, 1.475E+02, 1.565E+02, 1.617E+02, 2.126E+02, 6.812E+01, 1.754E+02, 2.239E+02, 7.038E+01,-1.018E+02, 1.673E-01, 2.398E-02, 2.451E+02
 4.900E+02, 1.478E+02, 1.552E+02, 1.589E+02, 2.151E+02, 6.956E+01, 1.735E+02, 2.228E+02, 6.929E+01,-9.499E+01, 1.669E-01, 2.420E-02, 2.538E+02
 5.000E+02, 1.473E+02, 1.543E+02, 1.605E+02, 2.118E+02, 6.964E+01, 1.664E+02, 2.271E+02, 6.943E+01,-9.528E+01, 1.659E-01, 2.480E-02, 2.455E+02
 5.100E+02, 1.483E+02, 1.554E+02, 1.602E+02, 2.160E+02, 6.874E+01, 1.703E+02, 2.240E+02, 7.197E+01,-9.410E+01, 1.649E-01, 2.532E-02, 2.505E+02
 5.200E+02, 1.494E+02, 1.577E+02, 1.595E+02, 2.184E+02, 7.022E+01, 1.788E+02, 2.259E+02, 6.838E+01,-9.993E+01, 1.644E-01, 2.564E-02, 2.487E+02
 5.300E+02, 1.509E+02, 1.555E+02, 1.621E+02, 2.193E+02, 7.130E+01, 1.729E+02, 2.233E+02, 7.036E+01,-9.503E+01, 1.633E-01, 2.624E-02, 2.517E+02
 5.400E+02, 1.509E+02, 1.571E+02, 1.628E+02, 2.183E+02, 7.170E+01, 1.763E+02, 2.246E+02, 7.056E+01,-9.663E+01, 1.628E-01, 2.652E-02, 2.455E+02
 5.500E+02, 1.522E+02, 1.557E+02, 1.620E+02, 2.225E+02, 7.220E+01, 1.729E+02, 2.231E+02, 7.111E+01,-9.840E+01, 1.619E-01, 2.701E-02, 2.501E+02
 5.600E+02, 1.491E+02, 1.581E+02, 1.595E+02, 2.159E+02, 7.189E+01, 1.757E+02, 2.273E+02, 7.133E+01,-9.896E+01, 1.613E-01, 2.733E-02, 2.483E+02
 5.700E+02, 1.515E+02, 1.582E+02, 1.645E+02, 2.186E+02, 7.132E+01, 1.773E+02, 2.252E+02, 7.207E+01,-1.046E+02, 1.605E-01, 2.780E-02, 2.511E+02
 5.800E+02, 1.514E+02, 1.568E+02, 1.632E+02, 2.184E+02, 7.267E+01, 1.731E+02, 2.268E+02, 7.057E+01,-8.739E+01, 1.599E-01, 2.814E-02, 2.514E+02
 5.900E+02, 1.539E+02, 1.568E+02, 1.670E+02, 2.216E+02, 7.310E+01, 1.755E+02, 2.227E+02, 7.208E+01,-9.258E+01, 1.592E-01, 2.853E-02, 2.500E+02
 6.000E+02, 1.528E+02, 1.618E+02, 1.632E+02, 2.225E+02, 7.253E+01, 1.835E+02, 2.288E+02, 7.295E+01,-9.659E+01, 1.585E-01, 2.890E-02, 2.478E+02
 6.100E+02, 1.541E+02, 1.586E+02, 1.650E+02, 2.252E+02, 7.220E+01, 1.808E+02, 2.231E+02, 7.183E+01,-9.372E+01, 1.579E-01, 2.924E-02, 2.496E+02
 6.200E+02, 1.533E+02, 1.590E+02, 1.656E+02, 2.209E+02, 7.330E+01, 1.788E+02, 2.251E+02, 7.327E+01,-1.075E+02, 1.574E-01, 2.952E-02, 2.489E+02
 6.300E+02, 1.533E+02, 1.588E+02, 1.667E+02, 2.194E+02, 7.367E+01, 1.826E+02, 2.215E+02, 7.226E+01,-1.046E+02, 1.570E-01, 2.972E-02, 2.451E+02
 6.400E+02, 1.535E+02, 1.581E+02, 1.669E+02, 2.205E+02, 7.311E+01, 1.779E+02, 2.224E+02, 7.416E+01,-8.495E+01, 1.563E-01, 3.015E-02, 2.532E+02
 6.500E+02, 1.550E+02, 1.618E+02, 1.682E+02, 2.239E+02, 7.287E+01, 1.836E+02, 2.288E+02, 7.316E+01,-1.047E+02, 1.561E-01, 3.027E-02, 2.481E+02
 6.600E+02, 1.547E+02, 1.631E+02, 1.662E+02, 2.235E+02, 7.422E+01, 1.809E+02, 2.370E+02, 7.129E+01,-8.623E+01, 1.560E-01, 3.031E-02, 2.506E+02
 6.700E+02, 1.549E+02, 1.629E+02, 1.677E+02, 2.231E+02, 7.400E+01, 1.818E+02, 2.336E+02, 7.333E+01,-1.003E+02, 1.548E-01, 3.097E-02, 2.469E+02
 6.800E+02, 1.565E+02, 1.633E+02, 1.642E+02, 2.303E+02, 7.509E+01, 1.861E+02, 2.291E+02, 7.485E+01,-9.200E+01, 1.543E-01, 3.125E-02, 2.547E+02
 6.900E+02, 1.560E+02, 1.612E+02, 1.668E+02, 2.246E+02, 7.653E+01, 1.822E+02, 2.269E+02, 7.443E+01,-8.685E+01, 1.539E-01, 3.148E-02, 2.483E+02
 7.000E+02, 1.576E+02, 1.640E+02, 1.707E+02, 2.247E+02, 7.751E+01, 1.820E+02, 2.349E+02, 7.494E+01,-9.485E+01, 1.532E-01, 3.189E-02, 2.494E+02
 7.100E+02, 1.572E+02, 1.638E+02, 1.679E+02, 2.276E+02, 7.621E+01, 1.835E+02, 2.335E+02, 7.450E+01,-9.457E+01, 1.529E-01, 3.203E-02, 2.500E+02
 7.200E+02, 1.553E+02, 1.639E+02, 1.680E+02, 2.214E+02, 7.645E+01, 1.821E+02, 2.348E+02, 7.484E+01,-1.071E+02, 1.525E-01, 3.228E-02, 2.467E+02
 7.300E+02, 1.580E+02, 1.634E+02, 1.692E+02, 2.279E+02, 7.700E+01, 1.846E+02, 2.292E+02, 7.647E+01,-9.653E+01, 1.522E-01, 3.245E-02, 2.515E+02
 7.400E+02, 1.577E+02, 1.633E+02, 1.693E+02, 2.268E+02, 7.706E+01, 1.848E+02, 2.285E+02, 7.662E+01,-1.031E+02, 1.518E-01, 3.266E-02, 2.461E+02
 7.500E+02, 1.573E+02, 1.663E+02, 1.738E+02, 2.212E+02, 7.684E+01, 1.858E+02, 2.375E+02, 7.550E+01,-9.291E+01, 1.516E-01, 3.276E-02, 2.521E+02
 7.600E+02, 1.574E+02, 1.636E+02, 1.702E+02, 2.250E+02, 7.715E+01, 1.840E+02, 2.319E+02, 7.494E+01,-9.917E+01, 1.513E-01, 3.294E-02, 2.476E+02
 7.700E+02, 1.564E+02, 1.674E+02, 1.677E+02, 2.242E+02, 7.730E+01, 1.862E+02, 2.405E+02, 7.544E+01,-9.510E+01, 1.511E-01, 3.306E-02, 2.497E+02
 7.800E+02, 1.569E+02, 1.680E+02, 1.675E+02, 2.255E+02, 7.775E+01, 1.871E+02, 2.408E+02, 7.621E+01,-9.831E+01, 1.509E-01, 3.318E-02, 2.494E+02
 7.900E+02, 1.586E+02, 1.684E+02, 1.701E+02, 2.276E+02, 7.799E+01, 1.857E+02, 2.414E+02, 7.820E+01,-9.188E+01, 1.505E-01, 3.336E-02, 2.486E+02
 8.000E+02, 1.590E+02, 1.673E+02, 1.702E+02, 2.286E+02, 7.820E+01, 1.876E+02, 2.386E+02, 7.580E+01,-1.023E+02, 1.505E-01, 3.340E-02, 2.512E+02
 8.100E+02, 1.613E+02, 1.676E+02, 1.722E+02, 2.333E+02, 7.847E+01, 1.864E+02, 2.397E+02, 7.680E+01,-9.195E+01, 1.500E-01, 3.365E-02, 2.522E+02
 8.200E+02, 1.592E+02, 1.693E+02, 1.709E+02, 2.286E+02, 7.810E+01, 1.871E+02, 2.433E+02, 7.736E+01,-9.285E+01, 1.498E-01, 3.377E-02, 2.483E+02
 8.300E+02, 1.576E+02, 1.691E+02, 1.708E+02, 2.243E+02, 7.767E+01, 1.840E+02, 2.466E+02, 7.660E+01,-9.511E+01, 1.499E-01, 3.374E-02, 2.503E+02
 8.400E+02, 1.606E+02, 1.683E+02, 1.740E+02, 2.281E+02, 7.981E+01, 1.865E+02, 2.427E+02, 7.568E+01,-8.934E+01, 1.496E-01, 3.388E-02, 2.464E+02
 8.500E+02, 1.628E+02, 1.688E+02, 1.760E+02, 2.317E+02, 8.076E+01, 1.911E+02, 2.375E+02, 7.788E+01,-1.112E+02, 1.492E-01, 3.412E-02, 2.462E+02
 8.600E+02, 1.599E+02, 1.686E+02, 1.750E+02, 2.261E+02, 7.854E+01, 1.908E+02, 2.373E+02, 7.784E+01,-8.084E+01, 1.491E-01, 3.417E-02, 2.517E+02
 8.700E+02, 1.630E+02, 1.722E+02, 1.773E+02, 2.312E+02, 8.043E+01, 1.946E+02, 2.425E+02, 7.941E+01,-8.808E+01, 1.489E-01, 3.426E-02, 2.547E+02
 8.800E+02, 1.642E+02, 1.702E+02, 1.756E+02, 2.355E+02, 8.157E+01, 1.901E+02, 2.408E+02, 7.969E+01,-1.036E+02, 1.484E-01, 3.454E-02, 2.466E+02
 8.900E+02, 1.616E+02, 1.697E+02, 1.723E+02, 2.318E+02, 8.058E+01, 1.886E+02, 2.428E+02, 7.771E+01,-9.408E+01, 1.482E-01, 3.466E-02, 2.515E+02
 9.000E+02, 1.628E+02, 1.705E+02, 1.727E+02, 2.343E+02, 8.131E+01, 1.931E+02, 2.381E+02, 8.016E+01,-1.024E+02, 1.478E-01, 3.487E-02, 2.478E+02
 9.100E+02, 1.621E+02, 1.684E+02, 1.740E+02, 2.327E+02, 7.961E+01, 1.903E+02, 2.352E+02, 7.977E+01,-9.478E+01, 1.480E-01, 3.479E-02, 2.507E+02
 9.200E+02, 1.619E+02, 1.705E+02, 1.760E+02, 2.283E+02, 8.145E+01, 1.902E+02, 2.416E+02, 7.954E+01,-9.110E+01, 1.476E-01, 3.499E-02, 2.497E+02
 9.300E+02, 1.640E+02, 1.713E+02, 1.772E+02, 2.333E+02, 8.145E+01, 1.925E+02, 2.416E+02, 7.978E+01,-9.260E+01, 1.475E-01, 3.506E-02, 2.498E+02
 9.400E+02, 1.634E+02, 1.725E+02, 1.753E+02, 2.337E+02, 8.116E+01, 1.889E+02, 2.481E+02, 8.035E+01,-1.012E+02, 1.473E-01, 3.516E-02, 2.466E+02
 9.500E+02, 1.652E+02, 1.726E+02, 1.786E+02, 2.353E+02, 8.173E+01, 1.885E+02, 2.500E+02, 7.930E+01,-8.708E+01, 1.471E-01, 3.526E-02, 2.548E+02
 9.600E+02, 1.650E+02, 1.724E+02, 1.759E+02, 2.368E+02, 8.245E+01, 1.959E+02, 2.410E+02, 8.036E+01,-9.451E+01, 1.470E-01, 3.535E-02, 2.472E+02
 9.700E+02, 1.668E+02, 1.680E+02, 1.779E+02, 2.384E+02, 8.394E+01, 1.846E+02, 2.385E+02, 8.081E+01,-9.308E+01, 1.468E-01, 3.545E-02, 2.496E+02
 9.800E+02, 1.649E+02, 1.706E+02, 1.781E+02, 2.351E+02, 8.163E+01, 1.917E+02, 2.390E+02, 8.106E+01,-9.675E+01, 1.468E-01, 3.545E-02, 2.474E+02
 9.900E+02, 1.648E+02, 1.719E+02, 1.758E+02, 2.353E+02, 8.330E+01, 1.960E+02, 2.383E+02, 8.139E+01,-9.926E+01, 1.466E-01, 3.558E-02, 2.496E+02
 1.000E+03, 1.660E+02, 1.716E+02, 1.779E+02, 2.374E+02, 8.277E+01, 1.938E+02, 2.392E+02, 8.191E+01,-9.243E+01, 1.466E-01, 3.558E-02, 2.498E+02
 1.010E+03, 1.677E+02, 1.724E+02, 1.798E+02, 2.391E+02, 8.426E+01, 1.945E+02, 2.406E+02, 8.217E+01,-9.394E+01, 1.466E-01, 3.555E-02, 2.504E+02
 1.020E+03, 1.669E+02, 1.712E+02, 1.774E+02, 2.405E+02, 8.295E+01, 1.955E+02, 2.362E+02, 8.201E+01,-9.641E+01, 1.463E-01, 3.572E-02, 2.510E+02
 1.030E+03, 1.673E+02, 1.743E+02, 1.816E+02, 2.367E+02, 8.366E+01, 1.950E+02, 2.473E+02, 8.057E+01,-9.057E+01, 1.462E-01, 3.576E-02, 2.456E+02
 1.040E+03, 1.663E+02, 1.740E+02, 1.783E+02, 2.372E+02, 8.325E+01, 1.949E+02, 2.430E+02, 8.395E+01,-1.001E+02, 1.460E-01, 3.587E-02, 2.457E+02
 1.050E+03, 1.662E+02, 1.748E+02, 1.793E+02, 2.343E+02, 8.497E+01, 1.952E+02, 2.464E+02, 8.273E+01,-8.785E+01, 1.462E-01, 3.576E-02, 2.546E+02
 1.060E+03, 1.686E+02, 1.737E+02, 1.810E+02, 2.402E+02, 8.459E+01, 1.953E+02, 2.439E+02, 8.178E+01,-9.884E+01, 1.461E-01, 3.586E-02, 2.497E+02
 1.070E+03, 1.693E+02, 1.717E+02, 1.837E+02, 2.389E+02, 8.515E+01, 1.905E+02, 2.411E+02, 8.344E+01,-8.820E+01, 1.458E-01, 3.602E-02, 2.462E+02
 1.080E+03, 1.695E+02, 1.750E+02, 1.827E+02, 2.404E+02, 8.544E+01, 1.953E+02, 2.449E+02, 8.464E+01,-9.649E+01, 1.455E-01, 3.617E-02, 2.501E+02
 1.090E+03, 1.669E+02, 1.753E+02, 1.771E+02, 2.380E+02, 8.552E+01, 1.979E+02, 2.440E+02, 8.391E+01,-9.521E+01, 1.455E-01, 3.615E-02, 2.518E+02
 1.100E+03, 1.688E+02, 1.723E+02, 1.814E+02, 2.387E+02, 8.619E+01, 1.934E+02, 2.405E+02, 8.303E+01,-9.143E+01, 1.457E-01, 3.609E-02, 2.461E+02
 1.110E+03, 1.696E+02, 1.750E+02, 1.812E+02, 2.415E+02, 8.614E+01, 1.998E+02, 2.403E+02, 8.482E+01,-9.766E+01, 1.454E-01, 3.623E-02, 2.469E+02
 1.120E+03, 1.696E+02, 1.739E+02, 1.831E+02, 2.397E+02, 8.601E+01, 1.946E+02, 2.414E+02, 8.574E+01,-8.979E+01, 1.453E-01, 3.631E-02, 2.524E+02
 1.130E+03, 1.697E+02, 1.765E+02, 1.816E+02, 2.410E+02, 8.636E+01, 1.978E+02, 2.453E+02, 8.624E+01,-9.747E+01, 1.453E-01, 3.627E-02, 2.475E+02
 1.140E+03, 1.685E+02, 1.805E+02, 1.814E+02, 2.369E+02, 8.725E+01, 2.037E+02, 2.541E+02, 8.365E+01,-9.402E+01, 1.454E-01, 3.626E-02, 2.501E+02
 1.150E+03, 1.708E+02, 1.780E+02, 1.835E+02, 2.399E+02, 8.904E+01, 1.974E+02, 2.506E+02, 8.598E+01,-8.635E+01, 1.452E-01, 3.634E-02, 2.511E+02
 1.160E+03, 1.730E+02, 1.772E+02, 1.835E+02, 2.470E+02, 8.857E+01, 2.004E+02, 2.446E+02, 8.655E+01,-9.726E+01, 1.454E-01, 3.625E-02, 2.493E+02
 1.170E+03, 1.697E+02, 1.751E+02, 1.819E+02, 2.396E+02, 8.765E+01, 1.948E+02, 2.445E+02, 8.597E+01,-8.988E+01, 1.453E-01, 3.630E-02, 2.501E+02
 1.180E+03, 1.729E+02, 1.761E+02, 1.847E+02, 2.448E+02, 8.923E+01, 1.941E+02, 2.461E+02, 8.798E+01,-9.436E+01, 1.452E-01, 3.634E-02, 2.474E+02
 1.190E+03, 1.715E+02, 1.761E+02, 1.832E+02, 2.424E+02, 8.880E+01, 2.009E+02, 2.419E+02, 8.547E+01,-1.034E+02, 1.452E-01, 3.633E-02, 2.483E+02
 1.200E+03, 1.716E+02, 1.795E+02, 1.830E+02, 2.427E+02, 8.906E+01, 1.993E+02, 2.519E+02, 8.734E+01,-9.758E+01, 1.452E-01, 3.632E-02, 2.477E+02
 1.210E+03, 1.722E+02, 1.779E+02, 1.837E+02, 2.435E+02, 8.959E+01, 2.015E+02, 2.455E+02, 8.667E+01,-9.913E+01, 1.453E-01, 3.626E-02, 2.526E+02
 1.220E+03, 1.722E+02, 1.799E+02, 1.860E+02, 2.419E+02, 8.859E+01, 2.019E+02, 2.515E+02, 8.626E+01,-8.788E+01, 1.450E-01, 3.644E-02, 2.490E+02
 1.230E+03, 1.736E+02, 1.797E+02, 1.872E+02, 2.430E+02, 9.057E+01, 2.006E+02, 2.507E+02, 8.789E+01,-9.487E+01, 1.451E-01, 3.642E-02, 2.495E+02
 1.240E+03, 1.717E+02, 1.795E+02, 1.825E+02, 2.442E+02, 8.848E+01, 1.994E+02, 2.510E+02, 8.815E+01,-9.984E+01, 1.452E-01, 3.637E-02, 2.508E+02
 1.250E+03, 1.705E+02, 1.776E+02, 1.828E+02, 2.400E+02, 8.884E+01, 1.951E+02, 2.494E+02, 8.831E+01,-8.888E+01, 1.451E-01, 3.640E-02, 2.490E+02
 1.260E+03, 1.742E+02, 1.784E+02, 1.835E+02, 2.489E+02, 9.019E+01, 2.020E+02, 2.464E+02, 8.679E+01,-1.057E+02, 1.451E-01, 3.640E-02, 2.481E+02
 1.270E+03, 1.726E+02, 1.784E+02, 1.839E+02, 2.456E+02, 8.816E+01, 2.031E+02, 2.461E+02, 8.616E+01,-8.697E+01, 1.452E-01, 3.636E-02, 2.502E+02
 1.280E+03, 1.732E+02, 1.816E+02, 1.856E+02, 2.438E+02, 9.017E+01, 2.040E+02, 2.529E+02, 8.794E+01,-9.604E+01, 1.447E-01, 3.661E-02, 2.497E+02
 1.290E+03, 1.749E+02, 1.800E+02, 1.846E+02, 2.497E+02, 9.051E+01, 2.034E+02, 2.493E+02, 8.717E+01,-9.606E+01, 1.448E-01, 3.656E-02, 2.511E+02
 1.300E+03, 1.738E+02, 1.831E+02, 1.841E+02, 2.472E+02, 9.011E+01, 2.048E+02, 2.565E+02, 8.801E+01,-9.328E+01, 1.448E-01, 3.655E-02, 2.459E+02
 1.310E+03, 1.741E+02, 1.792E+02, 1.847E+02, 2.457E+02, 9.202E+01, 1.978E+02, 2.526E+02, 8.714E+01,-9.464E+01, 1.450E-01, 3.646E-02, 2.525E+02
