s,C,C,C,C,C,C,C,C,Pa,mol/mol,mol/mol,kW
Time,"West_All_TCs","East_All_TCs","West_Bottom_TCs","West_Middle_TCs","West_Upper_TCs","East_Bottom_TCs","East_Middle_TCs","East_Upper_TCs","Pressure","O2","CO2","HRR"
-6.000E+01, 2.300E+01, 2.300E+01, 2.300E+01, 2.300E+01, 2.300E+01, 2.300E+01, 2.300E+01, 2.300E+01,-9.697E-06, 2.095E-01, 3.901E-04, 0.000E+00
-4.999E+01, 2.300E+01, 2.300E+01, 2.300E+01, 2.300E+01, 2.300E+01, 2.300E+01, 2.301E+01, 2.300E+01,-5.674E-03, 2.095E-01, 3.901E-04, 0.000E+00
-3.999E+01, 2.300E+01, 2.300E+01, 2.300E+01, 2.300E+01, 2.300E+01, 2.300E+01, 2.301E+01, 2.300E+01,-5.652E-03, 2.095E-01, 3.901E-04, 0.000E+00
-2.998E+01, 2.300E+01, 2.300E+01, 2.300E+01, 2.300E+01, 2.300E+01, 2.300E+01, 2.300E+01, 2.300E+01,-5.651E-03, 2.095E-01, 3.901E-04, 0.000E+00
-1.997E+01, 2.300E+01, 2.300E+01, 2.300E+01, 2.300E+01, 2.300E+01, 2.300E+01, 2.300E+01, 2.300E+01,-5.568E-03, 2.095E-01, 3.901E-04, 0.000E+00
-9.967E+00, 2.300E+01, 2.300E+01, 2.300E+01, 2.300E+01, 2.300E+01, 2.300E+01, 2.300E+01, 2.300E+01,-5.642E-03, 2.095E-01, 3.901E-04, 0.000E+00
 3.957E-02, 2.300E+01, 2.300E+01, 2.300E+01, 2.300E+01, 2.300E+01, 2.300E+01, 2.300E+01, 2.300E+01,-5.662E-03, 2.095E-01, 3.901E-04, 7.025E-04
 1.003E+01, 2.395E+01, 2.426E+01, 2.347E+01, 2.535E+01, 2.303E+01, 2.373E+01, 2.602E+01, 2.303E+01, 1.635E+01, 2.095E-01, 3.901E-04, 3.318E+01
 2.001E+01, 2.846E+01, 2.910E+01, 2.565E+01, 3.562E+01, 2.412E+01, 2.606E+01, 3.719E+01, 2.406E+01, 8.856E+01, 2.095E-01, 3.901E-04, 9.948E+01
 3.001E+01, 3.722E+01, 3.844E+01, 2.775E+01, 5.943E+01, 2.449E+01, 2.896E+01, 6.237E+01, 2.399E+01, 1.939E+02, 2.095E-01, 3.901E-04, 1.658E+02
 4.000E+01, 4.901E+01, 4.954E+01, 3.270E+01, 8.931E+01, 2.502E+01, 3.413E+01, 9.037E+01, 2.414E+01, 2.265E+02, 2.095E-01, 3.901E-04, 2.002E+02
 5.000E+01, 6.054E+01, 6.130E+01, 3.989E+01, 1.156E+02, 2.613E+01, 4.157E+01, 1.177E+02, 2.464E+01, 1.681E+02, 2.094E-01, 4.471E-04, 2.004E+02
 6.002E+01, 6.951E+01, 7.046E+01, 4.910E+01, 1.328E+02, 2.657E+01, 5.046E+01, 1.354E+02, 2.556E+01, 1.251E+02, 2.092E-01, 6.006E-04, 1.998E+02
 7.001E+01, 7.744E+01, 7.829E+01, 5.865E+01, 1.471E+02, 2.657E+01, 6.081E+01, 1.475E+02, 2.655E+01, 9.458E+01, 2.091E-01, 6.493E-04, 2.005E+02
 8.001E+01, 8.506E+01, 8.565E+01, 6.955E+01, 1.589E+02, 2.672E+01, 7.187E+01, 1.577E+02, 2.736E+01, 7.307E+01, 2.090E-01, 6.987E-04, 2.001E+02
 9.001E+01, 9.072E+01, 9.124E+01, 7.657E+01, 1.675E+02, 2.808E+01, 7.986E+01, 1.658E+02, 2.803E+01, 5.596E+01, 2.089E-01, 7.426E-04, 2.001E+02
 1.000E+02, 9.627E+01, 9.537E+01, 8.469E+01, 1.752E+02, 2.891E+01, 8.766E+01, 1.703E+02, 2.811E+01, 4.396E+01, 2.088E-01, 8.234E-04, 1.998E+02
 1.100E+02, 9.944E+01, 1.009E+02, 9.248E+01, 1.757E+02, 3.012E+01, 9.334E+01, 1.811E+02, 2.834E+01, 3.511E+01, 2.087E-01, 8.492E-04, 2.003E+02
 1.200E+02, 1.033E+02, 1.048E+02, 9.915E+01, 1.808E+02, 2.995E+01, 9.869E+01, 1.864E+02, 2.939E+01, 2.964E+01, 2.084E-01, 1.036E-03, 2.004E+02
 1.300E+02, 1.094E+02, 1.079E+02, 1.050E+02, 1.934E+02, 2.989E+01, 1.056E+02, 1.879E+02, 3.007E+01, 2.622E+01, 2.082E-01, 1.140E-03, 2.001E+02
 1.400E+02, 1.119E+02, 1.094E+02, 1.085E+02, 1.967E+02, 3.037E+01, 1.096E+02, 1.882E+02, 3.037E+01, 2.324E+01, 2.081E-01, 1.186E-03, 2.000E+02
 1.500E+02, 1.131E+02, 1.113E+02, 1.116E+02, 1.962E+02, 3.135E+01, 1.121E+02, 1.911E+02, 3.085E+01, 2.046E+01, 2.080E-01, 1.239E-03, 1.996E+02
 1.600E+02, 1.152E+02, 1.143E+02, 1.139E+02, 2.002E+02, 3.151E+01, 1.143E+02, 1.975E+02, 3.108E+01, 1.874E+01, 2.078E-01, 1.352E-03, 1.999E+02
 1.700E+02, 1.164E+02, 1.155E+02, 1.159E+02, 2.013E+02, 3.191E+01, 1.183E+02, 1.967E+02, 3.142E+01, 1.766E+01, 2.074E-01, 1.568E-03, 2.003E+02
 1.800E+02, 1.191E+02, 1.171E+02, 1.192E+02, 2.057E+02, 3.249E+01, 1.202E+02, 1.991E+02, 3.198E+01, 1.722E+01, 2.073E-01, 1.618E-03, 2.000E+02
 1.900E+02, 1.209E+02, 1.186E+02, 1.234E+02, 2.060E+02, 3.317E+01, 1.237E+02, 1.999E+02, 3.229E+01, 1.642E+01, 2.070E-01, 1.805E-03, 2.001E+02
 2.000E+02, 1.219E+02, 1.193E+02, 1.248E+02, 2.081E+02, 3.267E+01, 1.246E+02, 2.006E+02, 3.266E+01, 1.596E+01, 2.068E-01, 1.920E-03, 2.001E+02
 2.100E+02, 1.220E+02, 1.208E+02, 1.258E+02, 2.075E+02, 3.280E+01, 1.266E+02, 2.030E+02, 3.281E+01, 1.564E+01, 2.066E-01, 2.047E-03, 1.996E+02
 2.200E+02, 1.237E+02, 1.215E+02, 1.280E+02, 2.095E+02, 3.362E+01, 1.287E+02, 2.031E+02, 3.289E+01, 1.527E+01, 2.064E-01, 2.121E-03, 2.005E+02
 2.300E+02, 1.244E+02, 1.233E+02, 1.278E+02, 2.113E+02, 3.397E+01, 1.303E+02, 2.064E+02, 3.319E+01, 1.537E+01, 2.060E-01, 2.391E-03, 2.004E+02
 2.400E+02, 1.247E+02, 1.244E+02, 1.306E+02, 2.093E+02, 3.409E+01, 1.326E+02, 2.070E+02, 3.364E+01, 1.496E+01, 2.057E-01, 2.515E-03, 2.000E+02
 2.500E+02, 1.246E+02, 1.257E+02, 1.330E+02, 2.068E+02, 3.381E+01, 1.339E+02, 2.089E+02, 3.418E+01, 1.496E+01, 2.053E-01, 2.737E-03, 2.000E+02
 2.600E+02, 1.275E+02, 1.263E+02, 1.346E+02, 2.137E+02, 3.403E+01, 1.362E+02, 2.090E+02, 3.377E+01, 1.448E+01, 2.053E-01, 2.760E-03, 2.000E+02
 2.700E+02, 1.289E+02, 1.257E+02, 1.377E+02, 2.146E+02, 3.441E+01, 1.364E+02, 2.069E+02, 3.373E+01, 1.478E+01, 2.050E-01, 2.923E-03, 2.003E+02
 2.800E+02, 1.292E+02, 1.274E+02, 1.383E+02, 2.146E+02, 3.482E+01, 1.387E+02, 2.092E+02, 3.441E+01, 1.444E+01, 2.044E-01, 3.254E-03, 2.002E+02
 2.900E+02, 1.298E+02, 1.282E+02, 1.382E+02, 2.164E+02, 3.489E+01, 1.401E+02, 2.099E+02, 3.447E+01, 1.421E+01, 2.042E-01, 3.376E-03, 2.004E+02
 3.000E+02, 1.292E+02, 1.292E+02, 1.399E+02, 2.129E+02, 3.480E+01, 1.395E+02, 2.134E+02, 3.462E+01, 1.440E+01, 2.038E-01, 3.581E-03, 2.000E+02
 3.100E+02, 1.306E+02, 1.295E+02, 1.414E+02, 2.152E+02, 3.522E+01, 1.424E+02, 2.117E+02, 3.437E+01, 1.399E+01, 2.038E-01, 3.615E-03, 1.999E+02
 3.200E+02, 1.310E+02, 1.291E+02, 1.424E+02, 2.149E+02, 3.565E+01, 1.436E+02, 2.089E+02, 3.468E+01, 1.477E+01, 2.031E-01, 3.964E-03, 1.997E+02
 3.300E+02, 1.300E+02, 1.317E+02, 1.455E+02, 2.088E+02, 3.562E+01, 1.463E+02, 2.137E+02, 3.508E+01, 1.444E+01, 2.026E-01, 4.272E-03, 2.001E+02
 3.400E+02, 1.301E+02, 1.343E+02, 1.452E+02, 2.097E+02, 3.550E+01, 1.465E+02, 2.209E+02, 3.538E+01, 1.440E+01, 2.023E-01, 4.415E-03, 2.000E+02
 3.500E+02, 1.309E+02, 1.362E+02, 1.436E+02, 2.134E+02, 3.570E+01, 1.471E+02, 2.260E+02, 3.548E+01, 1.419E+01, 2.022E-01, 4.507E-03, 2.001E+02
 3.600E+02, 1.317E+02, 1.361E+02, 1.454E+02, 2.139E+02, 3.567E+01, 1.476E+02, 2.253E+02, 3.556E+01, 1.327E+01, 2.018E-01, 4.712E-03, 1.993E+02
 3.700E+02, 1.315E+02, 1.370E+02, 1.475E+02, 2.108E+02, 3.613E+01, 1.476E+02, 2.278E+02, 3.547E+01, 1.362E+01, 2.014E-01, 4.949E-03, 1.998E+02
 3.800E+02, 1.332E+02, 1.340E+02, 1.481E+02, 2.155E+02, 3.590E+01, 1.475E+02, 2.191E+02, 3.535E+01, 1.054E+01, 2.008E-01, 5.293E-03, 1.958E+02
 3.900E+02, 1.334E+02, 1.318E+02, 1.496E+02, 2.145E+02, 3.596E+01, 1.456E+02, 2.145E+02, 3.540E+01,-1.805E+00, 2.006E-01, 5.410E-03, 1.650E+02
 4.000E+02, 1.299E+02, 1.293E+02, 1.459E+02, 2.076E+02, 3.615E+01, 1.460E+02, 2.063E+02, 3.568E+01,-5.559E-01, 2.001E-01, 5.661E-03, 1.498E+02
 4.100E+02, 1.269E+02, 1.275E+02, 1.409E+02, 2.035E+02, 3.634E+01, 1.411E+02, 2.057E+02, 3.574E+01, 2.875E+00, 1.999E-01, 5.801E-03, 1.419E+02
 4.200E+02, 1.238E+02, 1.266E+02, 1.402E+02, 1.948E+02, 3.651E+01, 1.416E+02, 2.026E+02, 3.565E+01,-1.841E+01, 1.996E-01, 5.969E-03, 9.966E+01
 4.300E+02, 1.216E+02, 1.223E+02, 1.362E+02, 1.916E+02, 3.687E+01, 1.372E+02, 1.938E+02, 3.600E+01, 1.295E+01, 1.990E-01, 6.261E-03, 1.318E+02
 4.400E+02, 1.226E+02, 1.229E+02, 1.344E+02, 1.959E+02, 3.745E+01, 1.364E+02, 1.963E+02, 3.602E+01, 1.755E+01, 1.985E-01, 6.565E-03, 1.508E+02
 4.500E+02, 1.210E+02, 1.227E+02, 1.337E+02, 1.927E+02, 3.660E+01, 1.348E+02, 1.971E+02, 3.607E+01,-2.915E+00, 1.979E-01, 6.869E-03, 1.029E+02
 4.600E+02, 1.205E+02, 1.220E+02, 1.317E+02, 1.924E+02, 3.727E+01, 1.339E+02, 1.949E+02, 3.726E+01,-1.474E-01, 1.969E-01, 7.445E-03, 8.750E+01
 4.700E+02, 1.161E+02, 1.183E+02, 1.280E+02, 1.823E+02, 3.814E+01, 1.302E+02, 1.877E+02, 3.695E+01,-2.385E+01, 1.967E-01, 7.585E-03, 2.426E+01
 4.800E+02, 1.091E+02, 1.108E+02, 1.226E+02, 1.668E+02, 3.795E+01, 1.248E+02, 1.707E+02, 3.700E+01,-2.961E+01, 1.962E-01, 7.831E-03, 2.111E+00
 4.901E+02, 1.035E+02, 1.091E+02, 1.186E+02, 1.551E+02, 3.688E+01, 1.201E+02, 1.701E+02, 3.717E+01,-4.573E+00, 1.956E-01, 8.173E-03, 1.034E+01
 5.000E+02, 1.002E+02, 1.044E+02, 1.150E+02, 1.486E+02, 3.697E+01, 1.144E+02, 1.614E+02, 3.750E+01,-6.863E+00, 1.960E-01, 7.960E-03, 3.495E+00
 5.100E+02, 9.817E+01, 1.043E+02, 1.106E+02, 1.462E+02, 3.768E+01, 1.109E+02, 1.649E+02, 3.707E+01,-5.939E-01, 1.957E-01, 8.123E-03, 8.674E-01
 5.200E+02, 9.831E+01, 9.896E+01, 1.060E+02, 1.504E+02, 3.852E+01, 1.068E+02, 1.537E+02, 3.635E+01, 6.744E+00, 1.958E-01, 8.090E-03, 5.513E-01
 5.300E+02, 9.891E+01, 9.951E+01, 1.029E+02, 1.531E+02, 4.079E+01, 1.023E+02, 1.579E+02, 3.833E+01, 7.992E+00, 1.939E-01, 9.137E-03, 4.745E-01
 5.401E+02, 9.658E+01, 9.834E+01, 9.920E+01, 1.490E+02, 4.158E+01, 9.891E+01, 1.569E+02, 3.916E+01, 2.505E+00, 1.941E-01, 9.031E-03, 3.243E-01
 5.501E+02, 9.500E+01, 9.862E+01, 9.459E+01, 1.493E+02, 4.107E+01, 9.660E+01, 1.599E+02, 3.938E+01,-4.677E-01, 1.942E-01, 8.953E-03, 9.356E-02
 5.601E+02, 9.511E+01, 9.662E+01, 9.250E+01, 1.511E+02, 4.169E+01, 9.358E+01, 1.565E+02, 3.983E+01, 7.497E+00, 1.939E-01, 9.136E-03, 2.557E-01
 5.700E+02, 9.815E+01, 9.406E+01, 9.051E+01, 1.615E+02, 4.244E+01, 9.194E+01, 1.504E+02, 3.981E+01, 9.665E+00, 1.934E-01, 9.421E-03, 1.681E-01
 5.800E+02, 1.006E+02, 9.333E+01, 8.884E+01, 1.655E+02, 4.756E+01, 8.916E+01, 1.490E+02, 4.182E+01, 3.244E+01, 1.923E-01, 1.002E-02, 7.280E-01
 5.900E+02, 1.061E+02, 9.454E+01, 8.891E+01, 1.785E+02, 5.077E+01, 8.618E+01, 1.522E+02, 4.522E+01, 5.021E+01, 1.915E-01, 1.048E-02, 9.678E-01
 6.000E+02, 1.062E+02, 1.052E+02, 8.787E+01, 1.797E+02, 5.105E+01, 8.590E+01, 1.801E+02, 4.947E+01, 2.679E+01, 1.907E-01, 1.092E-02, 8.905E-01
 6.100E+02, 1.034E+02, 1.052E+02, 8.689E+01, 1.715E+02, 5.198E+01, 8.654E+01, 1.784E+02, 5.050E+01, 2.713E+01, 1.901E-01, 1.127E-02, 1.934E-01
 6.200E+02, 1.017E+02, 1.016E+02, 8.592E+01, 1.652E+02, 5.398E+01, 8.568E+01, 1.660E+02, 5.314E+01, 2.635E+00, 1.895E-01, 1.160E-02, 1.884E-01
 6.300E+02, 1.003E+02, 1.004E+02, 8.458E+01, 1.600E+02, 5.625E+01, 8.506E+01, 1.627E+02, 5.350E+01, 5.887E+00, 1.893E-01, 1.169E-02, 1.309E-02
 6.401E+02, 9.659E+01, 9.914E+01, 8.433E+01, 1.498E+02, 5.565E+01, 8.420E+01, 1.614E+02, 5.184E+01,-1.858E+00, 1.895E-01, 1.159E-02, 3.617E-02
 6.500E+02, 9.619E+01, 9.948E+01, 8.294E+01, 1.495E+02, 5.612E+01, 8.360E+01, 1.621E+02, 5.272E+01, 5.985E+00, 1.886E-01, 1.210E-02, 3.319E-02
 6.600E+02, 9.375E+01, 9.782E+01, 8.242E+01, 1.452E+02, 5.364E+01, 8.238E+01, 1.585E+02, 5.254E+01,-1.821E+00, 1.877E-01, 1.257E-02, 2.395E+00
 6.700E+02, 9.131E+01, 9.755E+01, 8.100E+01, 1.411E+02, 5.184E+01, 8.120E+01, 1.608E+02, 5.060E+01, 3.221E+00, 1.881E-01, 1.238E-02, 2.126E+00
 6.800E+02, 9.339E+01, 9.188E+01, 7.975E+01, 1.473E+02, 5.317E+01, 7.982E+01, 1.478E+02, 4.803E+01, 1.719E+00, 1.875E-01, 1.271E-02, 1.182E-01
 6.900E+02, 9.317E+01, 9.086E+01, 8.086E+01, 1.444E+02, 5.424E+01, 7.830E+01, 1.436E+02, 5.072E+01, 4.791E+00, 1.857E-01, 1.374E-02, 1.019E-02
 7.001E+02, 9.231E+01, 8.975E+01, 7.942E+01, 1.426E+02, 5.495E+01, 7.787E+01, 1.389E+02, 5.247E+01, 7.661E+00, 1.855E-01, 1.385E-02, 3.580E-06
 7.100E+02, 9.683E+01, 8.872E+01, 7.891E+01, 1.523E+02, 5.925E+01, 7.753E+01, 1.355E+02, 5.315E+01, 2.451E+01, 1.852E-01, 1.400E-02, 1.209E-02
 7.200E+02, 9.905E+01, 9.093E+01, 7.886E+01, 1.573E+02, 6.100E+01, 7.711E+01, 1.389E+02, 5.675E+01, 2.052E+01, 1.843E-01, 1.448E-02, 1.283E-01
 7.300E+02, 9.669E+01, 9.355E+01, 7.796E+01, 1.516E+02, 6.052E+01, 7.642E+01, 1.454E+02, 5.879E+01, 1.302E+01, 1.835E-01, 1.495E-02, 1.107E-05
 7.400E+02, 9.512E+01, 9.284E+01, 7.755E+01, 1.467E+02, 6.115E+01, 7.655E+01, 1.420E+02, 5.998E+01, 8.652E+00, 1.827E-01, 1.540E-02, 1.662E-05
 7.500E+02, 9.226E+01, 9.215E+01, 7.638E+01, 1.388E+02, 6.164E+01, 7.544E+01, 1.398E+02, 6.121E+01, 5.324E+00, 1.822E-01, 1.564E-02, 3.630E-07
 7.600E+02, 9.328E+01, 8.895E+01, 7.520E+01, 1.408E+02, 6.382E+01, 7.504E+01, 1.334E+02, 5.846E+01, 6.587E+00, 1.825E-01, 1.552E-02, 5.440E-06
 7.700E+02, 9.196E+01, 8.963E+01, 7.519E+01, 1.350E+02, 6.574E+01, 7.423E+01, 1.330E+02, 6.167E+01, 7.669E+00, 1.802E-01, 1.680E-02, 2.426E-05
 7.800E+02, 9.195E+01, 8.907E+01, 7.501E+01, 1.355E+02, 6.533E+01, 7.311E+01, 1.311E+02, 6.305E+01, 1.081E+01, 1.797E-01, 1.706E-02, 4.409E-05
 7.900E+02, 9.238E+01, 8.819E+01, 7.462E+01, 1.379E+02, 6.464E+01, 7.279E+01, 1.298E+02, 6.197E+01, 6.937E+00, 1.794E-01, 1.724E-02, 5.384E-06
 8.000E+02, 9.421E+01, 8.783E+01, 7.430E+01, 1.399E+02, 6.840E+01, 7.274E+01, 1.280E+02, 6.270E+01, 1.372E+01, 1.783E-01, 1.787E-02, 4.879E-05
 8.100E+02, 9.275E+01, 8.945E+01, 7.398E+01, 1.381E+02, 6.614E+01, 7.205E+01, 1.321E+02, 6.423E+01, 8.145E+00, 1.773E-01, 1.842E-02, 7.700E-06
 8.200E+02, 9.253E+01, 8.840E+01, 7.332E+01, 1.370E+02, 6.730E+01, 7.173E+01, 1.291E+02, 6.431E+01, 9.225E+00, 1.767E-01, 1.875E-02, 3.346E-05
 8.300E+02, 9.237E+01, 8.797E+01, 7.333E+01, 1.354E+02, 6.838E+01, 7.141E+01, 1.280E+02, 6.446E+01, 1.501E+01, 1.756E-01, 1.938E-02, 8.152E-06
 8.400E+02, 9.233E+01, 8.974E+01, 7.266E+01, 1.365E+02, 6.783E+01, 7.136E+01, 1.320E+02, 6.588E+01, 7.242E+00, 1.749E-01, 1.977E-02, 2.497E-05
 8.500E+02, 9.233E+01, 8.749E+01, 7.228E+01, 1.355E+02, 6.922E+01, 7.009E+01, 1.276E+02, 6.481E+01, 1.005E+01, 1.749E-01, 1.977E-02, 7.580E-06
 8.600E+02, 9.256E+01, 8.741E+01, 7.215E+01, 1.358E+02, 6.977E+01, 6.965E+01, 1.259E+02, 6.673E+01, 9.038E+00, 1.729E-01, 2.085E-02, 1.543E-05
 8.700E+02, 9.163E+01, 8.896E+01, 7.161E+01, 1.345E+02, 6.878E+01, 6.976E+01, 1.283E+02, 6.885E+01, 9.208E+00, 1.727E-01, 2.100E-02, 4.896E-06
 8.800E+02, 9.208E+01, 8.690E+01, 7.096E+01, 1.340E+02, 7.125E+01, 6.915E+01, 1.243E+02, 6.721E+01, 1.115E+01, 1.724E-01, 2.113E-02, 1.539E-05
 8.900E+02, 9.144E+01, 8.740E+01, 7.118E+01, 1.313E+02, 7.183E+01, 6.843E+01, 1.266E+02, 6.717E+01, 8.946E+00, 1.715E-01, 2.167E-02, 6.538E-05
 9.000E+02, 9.243E+01, 8.635E+01, 7.022E+01, 1.335E+02, 7.362E+01, 6.863E+01, 1.220E+02, 6.846E+01, 8.854E+00, 1.704E-01, 2.225E-02, 3.019E-05
 9.100E+02, 8.999E+01, 8.757E+01, 7.013E+01, 1.284E+02, 7.145E+01, 6.846E+01, 1.249E+02, 6.933E+01, 8.237E+00, 1.695E-01, 2.276E-02, 2.038E-05
 9.200E+02, 9.098E+01, 8.611E+01, 7.001E+01, 1.297E+02, 7.325E+01, 6.816E+01, 1.212E+02, 6.894E+01, 9.846E+00, 1.688E-01, 2.313E-02, 2.961E-05
 9.300E+02, 9.054E+01, 8.612E+01, 6.966E+01, 1.274E+02, 7.456E+01, 6.809E+01, 1.208E+02, 6.949E+01, 1.017E+01, 1.680E-01, 2.360E-02, 7.584E-05
 9.400E+02, 8.939E+01, 8.673E+01, 6.926E+01, 1.249E+02, 7.398E+01, 6.759E+01, 1.225E+02, 7.008E+01, 1.021E+01, 1.670E-01, 2.414E-02, 4.668E-05
 9.500E+02, 8.627E+01, 8.799E+01, 6.938E+01, 1.183E+02, 7.116E+01, 6.684E+01, 1.264E+02, 7.076E+01, 2.007E+00, 1.666E-01, 2.440E-02, 1.150E-06
 9.600E+02, 8.509E+01, 8.644E+01, 6.840E+01, 1.155E+02, 7.134E+01, 6.742E+01, 1.238E+02, 6.810E+01, 4.609E+00, 1.670E-01, 2.416E-02, 1.098E-06
 9.700E+02, 8.751E+01, 8.354E+01, 6.695E+01, 1.213E+02, 7.429E+01, 6.706E+01, 1.168E+02, 6.678E+01, 8.756E+00, 1.660E-01, 2.474E-02, 9.296E-05
 9.800E+02, 8.447E+01, 8.646E+01, 6.729E+01, 1.168E+02, 6.936E+01, 6.587E+01, 1.229E+02, 7.065E+01, 5.046E+00, 1.644E-01, 2.562E-02, 3.385E-05
 9.900E+02, 8.413E+01, 8.331E+01, 6.676E+01, 1.159E+02, 6.971E+01, 6.566E+01, 1.180E+02, 6.630E+01, 6.880E+00, 1.646E-01, 2.551E-02, 1.854E-05
 1.000E+03, 8.495E+01, 8.311E+01, 6.686E+01, 1.168E+02, 7.121E+01, 6.542E+01, 1.169E+02, 6.699E+01, 7.996E+00, 1.634E-01, 2.615E-02, 5.961E-06
