s,C,C,C,C,C,C,C,C,Pa,mol/mol,mol/mol,kW
Time,"West_All_TCs","East_All_TCs","West_Bottom_TCs","West_Middle_TCs","West_Upper_TCs","East_Bottom_TCs","East_Middle_TCs","East_Upper_TCs","Pressure","O2","CO2","HRR"
-6.000E+01, 2.300E+01, 2.300E+01, 2.300E+01, 2.300E+01, 2.300E+01, 2.300E+01, 2.300E+01, 2.300E+01,-9.697E-06, 2.095E-01, 3.901E-04, 0.000E+00
-4.998E+01, 2.300E+01, 2.300E+01, 2.300E+01, 2.300E+01, 2.300E+01, 2.300E+01, 2.300E+01, 2.300E+01, 9.435E-03, 2.095E-01, 3.901E-04, 0.000E+00
-3.996E+01, 2.300E+01, 2.300E+01, 2.300E+01, 2.300E+01, 2.300E+01, 2.300E+01, 2.300E+01, 2.300E+01, 8.944E-03, 2.095E-01, 3.901E-04, 0.000E+00
-2.994E+01, 2.300E+01, 2.300E+01, 2.300E+01, 2.300E+01, 2.300E+01, 2.300E+01, 2.300E+01, 2.300E+01, 9.165E-03, 2.095E-01, 3.901E-04, 0.000E+00
-1.992E+01, 2.300E+01, 2.300E+01, 2.300E+01, 2.300E+01, 2.300E+01, 2.300E+01, 2.300E+01, 2.300E+01, 9.403E-03, 2.095E-01, 3.901E-04, 0.000E+00
-9.896E+00, 2.300E+01, 2.300E+01, 2.300E+01, 2.300E+01, 2.300E+01, 2.300E+01, 2.300E+01, 2.300E+01, 8.932E-03, 2.095E-01, 3.901E-04, 0.000E+00
 1.301E-02, 2.300E+01, 2.300E+01, 2.300E+01, 2.300E+01, 2.300E+01, 2.300E+01, 2.300E+01, 2.300E+01, 9.288E-03, 2.095E-01, 3.901E-04, 1.755E-04
 1.001E+01, 2.422E+01, 2.457E+01, 2.358E+01, 2.607E+01, 2.301E+01, 2.390E+01, 2.680E+01, 2.301E+01, 1.810E+01, 2.095E-01, 3.901E-04, 3.779E+01
 2.001E+01, 2.915E+01, 2.975E+01, 2.530E+01, 3.905E+01, 2.308E+01, 2.569E+01, 4.053E+01, 2.305E+01, 8.325E+01, 2.095E-01, 3.901E-04, 9.902E+01
 3.000E+01, 3.736E+01, 3.880E+01, 2.711E+01, 6.142E+01, 2.356E+01, 2.861E+01, 6.470E+01, 2.310E+01, 1.830E+02, 2.095E-01, 3.901E-04, 1.657E+02
 4.000E+01, 4.834E+01, 4.937E+01, 3.170E+01, 8.929E+01, 2.403E+01, 3.379E+01, 9.125E+01, 2.308E+01, 2.105E+02, 2.095E-01, 3.901E-04, 1.993E+02
 5.000E+01, 5.861E+01, 6.008E+01, 3.890E+01, 1.124E+02, 2.457E+01, 4.063E+01, 1.160E+02, 2.364E+01, 1.594E+02, 2.094E-01, 4.736E-04, 2.011E+02
 6.001E+01, 6.796E+01, 6.953E+01, 4.769E+01, 1.315E+02, 2.470E+01, 4.974E+01, 1.343E+02, 2.461E+01, 1.134E+02, 2.091E-01, 6.122E-04, 1.996E+02
 7.001E+01, 7.553E+01, 7.739E+01, 5.774E+01, 1.443E+02, 2.460E+01, 5.794E+01, 1.493E+02, 2.499E+01, 8.469E+01, 2.091E-01, 6.522E-04, 2.002E+02
 8.002E+01, 8.225E+01, 8.292E+01, 6.606E+01, 1.554E+02, 2.529E+01, 6.784E+01, 1.557E+02, 2.524E+01, 6.383E+01, 2.089E-01, 7.304E-04, 1.993E+02
 9.000E+01, 8.742E+01, 8.852E+01, 7.579E+01, 1.606E+02, 2.583E+01, 7.641E+01, 1.639E+02, 2.530E+01, 4.954E+01, 2.088E-01, 8.040E-04, 2.000E+02
 1.000E+02, 9.290E+01, 9.246E+01, 8.211E+01, 1.701E+02, 2.648E+01, 8.449E+01, 1.674E+02, 2.549E+01, 4.050E+01, 2.087E-01, 8.401E-04, 1.996E+02
 1.100E+02, 9.709E+01, 9.740E+01, 8.849E+01, 1.763E+02, 2.647E+01, 9.061E+01, 1.756E+02, 2.597E+01, 3.214E+01, 2.085E-01, 9.870E-04, 1.993E+02
 1.200E+02, 9.883E+01, 1.009E+02, 9.518E+01, 1.744E+02, 2.691E+01, 9.590E+01, 1.804E+02, 2.631E+01, 2.740E+01, 2.083E-01, 1.080E-03, 2.002E+02
 1.300E+02, 1.042E+02, 1.031E+02, 9.941E+01, 1.861E+02, 2.724E+01, 1.001E+02, 1.826E+02, 2.672E+01, 2.544E+01, 2.081E-01, 1.171E-03, 1.994E+02
 1.400E+02, 1.068E+02, 1.039E+02, 1.039E+02, 1.889E+02, 2.747E+01, 1.044E+02, 1.803E+02, 2.689E+01, 2.385E+01, 2.080E-01, 1.263E-03, 2.001E+02
 1.500E+02, 1.078E+02, 1.067E+02, 1.074E+02, 1.886E+02, 2.756E+01, 1.092E+02, 1.841E+02, 2.687E+01, 2.018E+01, 2.078E-01, 1.390E-03, 1.989E+02
 1.600E+02, 1.088E+02, 1.084E+02, 1.093E+02, 1.893E+02, 2.779E+01, 1.110E+02, 1.873E+02, 2.685E+01, 1.900E+01, 2.077E-01, 1.446E-03, 1.999E+02
 1.700E+02, 1.114E+02, 1.106E+02, 1.122E+02, 1.939E+02, 2.808E+01, 1.131E+02, 1.912E+02, 2.733E+01, 1.768E+01, 2.074E-01, 1.607E-03, 2.009E+02
 1.800E+02, 1.133E+02, 1.130E+02, 1.154E+02, 1.964E+02, 2.798E+01, 1.168E+02, 1.948E+02, 2.730E+01, 1.693E+01, 2.072E-01, 1.725E-03, 1.987E+02
 1.900E+02, 1.147E+02, 1.133E+02, 1.193E+02, 1.966E+02, 2.831E+01, 1.197E+02, 1.926E+02, 2.764E+01, 1.565E+01, 2.068E-01, 1.915E-03, 1.997E+02
 2.000E+02, 1.141E+02, 1.147E+02, 1.212E+02, 1.926E+02, 2.850E+01, 1.210E+02, 1.955E+02, 2.762E+01, 1.409E+01, 2.069E-01, 1.859E-03, 1.991E+02
 2.100E+02, 1.161E+02, 1.158E+02, 1.216E+02, 1.982E+02, 2.845E+01, 1.222E+02, 1.973E+02, 2.778E+01, 1.721E+01, 2.064E-01, 2.138E-03, 2.003E+02
 2.200E+02, 1.188E+02, 1.167E+02, 1.242E+02, 2.036E+02, 2.864E+01, 1.235E+02, 1.984E+02, 2.804E+01, 1.421E+01, 2.062E-01, 2.233E-03, 1.997E+02
 2.300E+02, 1.198E+02, 1.174E+02, 1.247E+02, 2.058E+02, 2.873E+01, 1.259E+02, 1.980E+02, 2.811E+01, 1.647E+01, 2.060E-01, 2.355E-03, 2.007E+02
 2.400E+02, 1.191E+02, 1.183E+02, 1.275E+02, 2.010E+02, 2.893E+01, 1.267E+02, 2.000E+02, 2.811E+01, 1.300E+01, 2.056E-01, 2.598E-03, 1.985E+02
 2.500E+02, 1.193E+02, 1.206E+02, 1.275E+02, 2.014E+02, 2.909E+01, 1.287E+02, 2.049E+02, 2.813E+01, 1.303E+01, 2.053E-01, 2.749E-03, 1.997E+02
 2.600E+02, 1.213E+02, 1.207E+02, 1.303E+02, 2.048E+02, 2.872E+01, 1.303E+02, 2.035E+02, 2.835E+01, 1.494E+01, 2.051E-01, 2.884E-03, 2.001E+02
 2.700E+02, 1.227E+02, 1.204E+02, 1.315E+02, 2.073E+02, 2.916E+01, 1.314E+02, 2.018E+02, 2.818E+01, 1.286E+01, 2.046E-01, 3.154E-03, 1.995E+02
 2.800E+02, 1.222E+02, 1.217E+02, 1.318E+02, 2.056E+02, 2.918E+01, 1.319E+02, 2.046E+02, 2.842E+01, 1.215E+01, 2.046E-01, 3.146E-03, 1.995E+02
 2.900E+02, 1.241E+02, 1.231E+02, 1.332E+02, 2.100E+02, 2.899E+01, 1.321E+02, 2.084E+02, 2.884E+01, 1.251E+01, 2.039E-01, 3.549E-03, 1.999E+02
 3.000E+02, 1.244E+02, 1.226E+02, 1.333E+02, 2.104E+02, 2.956E+01, 1.345E+02, 2.046E+02, 2.874E+01, 1.439E+01, 2.040E-01, 3.476E-03, 2.008E+02
 3.100E+02, 1.247E+02, 1.236E+02, 1.348E+02, 2.099E+02, 2.929E+01, 1.348E+02, 2.073E+02, 2.869E+01, 1.214E+01, 2.036E-01, 3.695E-03, 1.988E+02
 3.200E+02, 1.235E+02, 1.247E+02, 1.355E+02, 2.058E+02, 2.929E+01, 1.371E+02, 2.085E+02, 2.850E+01, 1.151E+01, 2.032E-01, 3.959E-03, 1.997E+02
 3.300E+02, 1.259E+02, 1.248E+02, 1.391E+02, 2.086E+02, 2.996E+01, 1.363E+02, 2.098E+02, 2.844E+01, 1.214E+01, 2.028E-01, 4.134E-03, 1.984E+02
 3.400E+02, 1.282E+02, 1.256E+02, 1.375E+02, 2.176E+02, 2.963E+01, 1.377E+02, 2.102E+02, 2.895E+01, 1.351E+01, 2.027E-01, 4.223E-03, 1.976E+02
 3.500E+02, 1.272E+02, 1.240E+02, 1.374E+02, 2.149E+02, 2.951E+01, 1.375E+02, 2.055E+02, 2.904E+01, 1.020E+01, 2.022E-01, 4.491E-03, 1.927E+02
 3.600E+02, 1.267E+02, 1.237E+02, 1.375E+02, 2.130E+02, 2.961E+01, 1.380E+02, 2.040E+02, 2.900E+01, 9.713E+00, 2.017E-01, 4.760E-03, 1.891E+02
 3.700E+02, 1.261E+02, 1.237E+02, 1.386E+02, 2.099E+02, 2.982E+01, 1.388E+02, 2.033E+02, 2.890E+01, 8.874E+00, 2.014E-01, 4.953E-03, 1.873E+02
 3.800E+02, 1.250E+02, 1.255E+02, 1.383E+02, 2.070E+02, 2.974E+01, 1.382E+02, 2.092E+02, 2.908E+01, 8.319E+00, 2.011E-01, 5.112E-03, 1.838E+02
 3.900E+02, 1.241E+02, 1.239E+02, 1.379E+02, 2.043E+02, 3.022E+01, 1.372E+02, 2.052E+02, 2.922E+01,-6.239E+00, 2.010E-01, 5.143E-03, 1.483E+02
 4.000E+02, 1.204E+02, 1.193E+02, 1.330E+02, 1.974E+02, 3.060E+01, 1.340E+02, 1.949E+02, 2.908E+01,-2.453E+01, 2.008E-01, 5.260E-03, 9.929E+01
 4.100E+02, 1.178E+02, 1.157E+02, 1.298E+02, 1.924E+02, 3.115E+01, 1.319E+02, 1.857E+02, 2.967E+01, 3.993E+00, 2.004E-01, 5.473E-03, 1.245E+02
 4.200E+02, 1.154E+02, 1.156E+02, 1.267E+02, 1.875E+02, 3.200E+01, 1.286E+02, 1.881E+02, 2.998E+01, 2.504E+00, 1.997E-01, 5.901E-03, 1.057E+02
 4.300E+02, 1.078E+02, 1.077E+02, 1.208E+02, 1.704E+02, 3.232E+01, 1.225E+02, 1.696E+02, 3.100E+01,-4.142E+01, 1.988E-01, 6.406E-03, 6.309E+00
 4.400E+02, 1.020E+02, 1.024E+02, 1.150E+02, 1.584E+02, 3.260E+01, 1.190E+02, 1.570E+02, 3.136E+01,-1.450E+01, 1.983E-01, 6.683E-03, 1.756E+01
 4.500E+02, 9.949E+01, 1.001E+02, 1.118E+02, 1.535E+02, 3.323E+01, 1.192E+02, 1.495E+02, 3.167E+01,-5.671E+00, 1.986E-01, 6.494E-03, 7.943E+00
 4.601E+02, 1.013E+02, 9.698E+01, 1.074E+02, 1.622E+02, 3.432E+01, 1.115E+02, 1.478E+02, 3.165E+01, 2.718E+01, 1.982E-01, 6.733E-03, 4.130E+01
 4.701E+02, 1.031E+02, 9.568E+01, 1.056E+02, 1.706E+02, 3.325E+01, 1.043E+02, 1.502E+02, 3.254E+01, 2.369E+00, 1.982E-01, 6.753E-03, 1.286E-02
 4.800E+02, 9.688E+01, 9.615E+01, 1.002E+02, 1.567E+02, 3.374E+01, 1.012E+02, 1.544E+02, 3.284E+01,-3.005E+00, 1.981E-01, 6.808E-03, 0.000E+00
 4.900E+02, 9.615E+01, 9.202E+01, 9.617E+01, 1.575E+02, 3.480E+01, 9.667E+01, 1.468E+02, 3.258E+01,-5.556E-01, 1.981E-01, 6.771E-03, 3.794E-02
 5.000E+02, 9.339E+01, 9.218E+01, 9.418E+01, 1.522E+02, 3.378E+01, 9.249E+01, 1.511E+02, 3.296E+01, 1.076E+01, 1.978E-01, 6.947E-03, 4.280E-03
 5.100E+02, 9.647E+01, 9.155E+01, 9.175E+01, 1.638E+02, 3.383E+01, 9.077E+01, 1.505E+02, 3.335E+01, 7.250E+00, 1.976E-01, 7.076E-03, 8.309E-02
 5.200E+02, 9.442E+01, 9.213E+01, 8.995E+01, 1.590E+02, 3.428E+01, 8.831E+01, 1.545E+02, 3.359E+01, 4.159E+00, 1.971E-01, 7.371E-03, 8.809E-02
 5.300E+02, 9.175E+01, 9.034E+01, 8.800E+01, 1.522E+02, 3.501E+01, 8.666E+01, 1.506E+02, 3.376E+01, 4.820E+00, 1.974E-01, 7.204E-03, 2.318E-07
 5.400E+02, 9.119E+01, 8.848E+01, 8.563E+01, 1.521E+02, 3.585E+01, 8.567E+01, 1.456E+02, 3.413E+01, 2.515E+00, 1.975E-01, 7.111E-03, 1.278E-08
 5.500E+02, 9.396E+01, 8.911E+01, 8.433E+01, 1.601E+02, 3.740E+01, 8.446E+01, 1.477E+02, 3.519E+01, 2.115E+01, 1.974E-01, 7.188E-03, 1.589E-05
 5.600E+02, 1.028E+02, 9.342E+01, 8.413E+01, 1.867E+02, 3.763E+01, 8.398E+01, 1.598E+02, 3.645E+01, 6.695E+01, 1.969E-01, 7.471E-03, 4.457E-02
 5.700E+02, 1.010E+02, 9.498E+01, 8.413E+01, 1.799E+02, 3.904E+01, 8.326E+01, 1.636E+02, 3.809E+01, 8.012E+00, 1.967E-01, 7.559E-03, 3.217E-02
 5.800E+02, 9.838E+01, 9.295E+01, 8.426E+01, 1.706E+02, 4.028E+01, 8.212E+01, 1.582E+02, 3.856E+01, 2.688E+00, 1.967E-01, 7.591E-03, 1.525E-08
 5.900E+02, 9.465E+01, 9.219E+01, 8.292E+01, 1.606E+02, 4.046E+01, 8.199E+01, 1.560E+02, 3.856E+01,-1.453E+00, 1.968E-01, 7.516E-03, 2.831E-08
 6.000E+02, 9.500E+01, 9.056E+01, 8.185E+01, 1.621E+02, 4.100E+01, 8.265E+01, 1.504E+02, 3.867E+01, 1.153E+01, 1.966E-01, 7.642E-03, 1.033E-07
 6.100E+02, 9.411E+01, 9.060E+01, 8.213E+01, 1.597E+02, 4.051E+01, 8.118E+01, 1.516E+02, 3.905E+01, 1.046E+01, 1.962E-01, 7.845E-03, 1.474E-02
 6.200E+02, 9.715E+01, 8.996E+01, 8.170E+01, 1.674E+02, 4.234E+01, 8.066E+01, 1.494E+02, 3.986E+01, 1.912E+01, 1.958E-01, 8.064E-03, 3.452E-07
 6.300E+02, 9.557E+01, 9.023E+01, 8.230E+01, 1.615E+02, 4.295E+01, 7.954E+01, 1.501E+02, 4.103E+01, 2.286E+00, 1.958E-01, 8.074E-03, 1.505E-02
 6.400E+02, 9.272E+01, 8.940E+01, 8.107E+01, 1.530E+02, 4.406E+01, 7.986E+01, 1.472E+02, 4.112E+01, 9.107E+00, 1.960E-01, 7.983E-03, 9.200E-07
 6.500E+02, 9.265E+01, 8.879E+01, 7.984E+01, 1.551E+02, 4.299E+01, 8.008E+01, 1.444E+02, 4.192E+01, 2.625E+00, 1.955E-01, 8.254E-03, 0.000E+00
 6.600E+02, 9.295E+01, 8.694E+01, 7.899E+01, 1.563E+02, 4.360E+01, 7.938E+01, 1.399E+02, 4.158E+01, 1.148E+01, 1.952E-01, 8.378E-03, 4.543E-07
 6.700E+02, 9.179E+01, 8.657E+01, 7.886E+01, 1.511E+02, 4.543E+01, 7.833E+01, 1.394E+02, 4.203E+01, 5.824E+00, 1.952E-01, 8.385E-03, 8.505E-06
 6.800E+02, 9.214E+01, 8.724E+01, 7.790E+01, 1.534E+02, 4.508E+01, 7.752E+01, 1.410E+02, 4.319E+01, 1.409E+01, 1.954E-01, 8.302E-03, 5.564E-07
 6.900E+02, 9.325E+01, 8.832E+01, 7.802E+01, 1.544E+02, 4.728E+01, 7.682E+01, 1.437E+02, 4.447E+01, 1.283E+01, 1.954E-01, 8.278E-03, 5.922E-07
 7.000E+02, 9.202E+01, 8.700E+01, 7.719E+01, 1.516E+02, 4.731E+01, 7.660E+01, 1.396E+02, 4.475E+01, 1.988E+00, 1.955E-01, 8.258E-03, 7.242E-07
 7.100E+02, 8.917E+01, 8.627E+01, 7.662E+01, 1.438E+02, 4.705E+01, 7.624E+01, 1.379E+02, 4.463E+01, 7.522E+00, 1.955E-01, 8.221E-03, 5.953E-07
 7.200E+02, 9.146E+01, 8.660E+01, 7.641E+01, 1.502E+02, 4.773E+01, 7.597E+01, 1.387E+02, 4.515E+01, 1.422E+01, 1.953E-01, 8.357E-03, 1.695E-06
 7.300E+02, 9.104E+01, 8.604E+01, 7.598E+01, 1.477E+02, 4.946E+01, 7.507E+01, 1.370E+02, 4.602E+01, 1.105E+01, 1.950E-01, 8.492E-03, 1.413E-06
 7.401E+02, 9.272E+01, 8.709E+01, 7.495E+01, 1.527E+02, 5.056E+01, 7.464E+01, 1.395E+02, 4.714E+01, 1.923E+01, 1.948E-01, 8.603E-03, 1.744E-06
 7.500E+02, 9.299E+01, 8.690E+01, 7.530E+01, 1.510E+02, 5.272E+01, 7.319E+01, 1.387E+02, 4.881E+01, 2.003E+01, 1.950E-01, 8.515E-03, 4.215E-05
 7.600E+02, 9.412E+01, 8.746E+01, 7.517E+01, 1.540E+02, 5.324E+01, 7.312E+01, 1.390E+02, 5.027E+01, 1.342E+01, 1.951E-01, 8.435E-03, 8.836E-06
 7.700E+02, 9.081E+01, 8.722E+01, 7.507E+01, 1.435E+02, 5.383E+01, 7.323E+01, 1.377E+02, 5.071E+01, 3.858E+00, 1.950E-01, 8.492E-03, 2.554E-06
 7.800E+02, 9.025E+01, 8.590E+01, 7.437E+01, 1.416E+02, 5.481E+01, 7.329E+01, 1.330E+02, 5.139E+01, 9.465E+00, 1.944E-01, 8.867E-03, 1.540E-06
 7.900E+02, 9.038E+01, 8.550E+01, 7.449E+01, 1.418E+02, 5.482E+01, 7.237E+01, 1.324E+02, 5.174E+01, 1.299E+01, 1.943E-01, 8.899E-03, 5.798E-07
 8.000E+02, 9.131E+01, 8.548E+01, 7.437E+01, 1.432E+02, 5.635E+01, 7.180E+01, 1.323E+02, 5.234E+01, 1.059E+01, 1.943E-01, 8.915E-03, 1.131E-05
 8.100E+02, 9.113E+01, 8.550E+01, 7.376E+01, 1.442E+02, 5.540E+01, 7.164E+01, 1.314E+02, 5.346E+01, 1.188E+01, 1.942E-01, 8.965E-03, 6.714E-06
 8.201E+02, 9.003E+01, 8.483E+01, 7.390E+01, 1.388E+02, 5.743E+01, 7.123E+01, 1.293E+02, 5.398E+01, 4.155E+00, 1.943E-01, 8.925E-03, 2.794E-06
 8.300E+02, 8.943E+01, 8.420E+01, 7.258E+01, 1.372E+02, 5.845E+01, 7.095E+01, 1.275E+02, 5.412E+01, 4.966E+00, 1.939E-01, 9.110E-03, 5.301E-06
 8.400E+02, 9.059E+01, 8.405E+01, 7.294E+01, 1.387E+02, 6.015E+01, 7.057E+01, 1.269E+02, 5.465E+01, 1.189E+01, 1.938E-01, 9.185E-03, 3.413E-06
 8.500E+02, 8.931E+01, 8.427E+01, 7.266E+01, 1.364E+02, 5.884E+01, 7.027E+01, 1.269E+02, 5.563E+01, 1.185E+01, 1.935E-01, 9.359E-03, 1.315E-05
 8.600E+02, 9.164E+01, 8.515E+01, 7.242E+01, 1.414E+02, 6.106E+01, 6.990E+01, 1.286E+02, 5.698E+01, 2.649E+01, 1.937E-01, 9.247E-03, 1.608E-05
 8.700E+02, 9.251E+01, 8.518E+01, 7.284E+01, 1.430E+02, 6.168E+01, 6.894E+01, 1.284E+02, 5.823E+01, 1.223E+01, 1.937E-01, 9.265E-03, 1.322E-05
 8.800E+02, 9.087E+01, 8.565E+01, 7.215E+01, 1.382E+02, 6.226E+01, 6.932E+01, 1.285E+02, 5.917E+01, 9.534E+00, 1.934E-01, 9.430E-03, 1.756E-05
 8.900E+02, 9.026E+01, 8.515E+01, 7.187E+01, 1.358E+02, 6.306E+01, 6.889E+01, 1.270E+02, 5.959E+01, 6.213E+00, 1.931E-01, 9.594E-03, 1.022E-05
 9.000E+02, 8.936E+01, 8.388E+01, 7.173E+01, 1.332E+02, 6.318E+01, 6.829E+01, 1.239E+02, 5.946E+01, 8.094E+00, 1.925E-01, 9.889E-03, 5.516E-06
 9.100E+02, 8.793E+01, 8.366E+01, 7.131E+01, 1.303E+02, 6.221E+01, 6.777E+01, 1.236E+02, 5.962E+01, 7.617E+00, 1.926E-01, 9.844E-03, 2.881E-06
 9.200E+02, 8.931E+01, 8.313E+01, 7.041E+01, 1.336E+02, 6.394E+01, 6.736E+01, 1.216E+02, 6.047E+01, 1.179E+01, 1.929E-01, 9.688E-03, 9.130E-06
 9.300E+02, 8.851E+01, 8.293E+01, 7.059E+01, 1.316E+02, 6.333E+01, 6.714E+01, 1.204E+02, 6.128E+01, 7.858E+00, 1.925E-01, 9.939E-03, 4.768E-06
 9.400E+02, 8.896E+01, 8.322E+01, 6.995E+01, 1.317E+02, 6.518E+01, 6.722E+01, 1.218E+02, 6.068E+01, 1.611E+01, 1.925E-01, 9.893E-03, 1.538E-06
 9.500E+02, 9.085E+01, 8.421E+01, 6.929E+01, 1.354E+02, 6.786E+01, 6.722E+01, 1.234E+02, 6.197E+01, 1.400E+01, 1.922E-01, 1.010E-02, 4.665E-05
 9.600E+02, 8.771E+01, 8.479E+01, 6.927E+01, 1.289E+02, 6.494E+01, 6.683E+01, 1.247E+02, 6.285E+01, 5.467E+00, 1.921E-01, 1.012E-02, 4.729E-06
 9.700E+02, 8.799E+01, 8.316E+01, 6.846E+01, 1.286E+02, 6.695E+01, 6.673E+01, 1.206E+02, 6.216E+01, 6.823E+00, 1.924E-01, 9.985E-03, 5.701E-06
 9.800E+02, 8.855E+01, 8.283E+01, 6.845E+01, 1.302E+02, 6.702E+01, 6.625E+01, 1.195E+02, 6.276E+01, 1.246E+01, 1.923E-01, 1.002E-02, 1.311E-05
 9.900E+02, 8.798E+01, 8.379E+01, 6.825E+01, 1.281E+02, 6.763E+01, 6.616E+01, 1.208E+02, 6.445E+01, 1.006E+01, 1.922E-01, 1.011E-02, 1.870E-05
 1.000E+03, 8.807E+01, 8.245E+01, 6.754E+01, 1.275E+02, 6.922E+01, 6.598E+01, 1.172E+02, 6.412E+01, 8.135E+00, 1.923E-01, 1.001E-02, 2.365E-05
