s,C,C,C,C,C,C,C,C,Pa,mol/mol,mol/mol,kW
Time,"West_All_TCs","East_All_TCs","West_Bottom_TCs","West_Middle_TCs","West_Upper_TCs","East_Bottom_TCs","East_Middle_TCs","East_Upper_TCs","Pressure","O2","CO2","HRR"
-6.000E+01, 2.500E+01, 2.500E+01, 2.500E+01, 2.500E+01, 2.500E+01, 2.500E+01, 2.500E+01, 2.500E+01,-9.627E-06, 2.095E-01, 3.901E-04, 0.000E+00
-4.999E+01, 2.500E+01, 2.500E+01, 2.500E+01, 2.500E+01, 2.500E+01, 2.500E+01, 2.500E+01, 2.500E+01,-6.978E-04, 2.095E-01, 3.901E-04, 0.000E+00
-3.999E+01, 2.500E+01, 2.500E+01, 2.500E+01, 2.500E+01, 2.500E+01, 2.500E+01, 2.500E+01, 2.500E+01,-3.428E-05, 2.095E-01, 3.901E-04, 0.000E+00
-2.998E+01, 2.500E+01, 2.500E+01, 2.500E+01, 2.500E+01, 2.500E+01, 2.500E+01, 2.500E+01, 2.500E+01,-3.015E-05, 2.095E-01, 3.901E-04, 0.000E+00
-1.997E+01, 2.500E+01, 2.500E+01, 2.500E+01, 2.500E+01, 2.500E+01, 2.500E+01, 2.500E+01, 2.500E+01,-3.122E-05, 2.095E-01, 3.901E-04, 0.000E+00
-9.967E+00, 2.500E+01, 2.500E+01, 2.500E+01, 2.500E+01, 2.500E+01, 2.500E+01, 2.500E+01, 2.500E+01,-3.287E-05, 2.095E-01, 3.901E-04, 0.000E+00
 3.957E-02, 2.500E+01, 2.500E+01, 2.500E+01, 2.500E+01, 2.500E+01, 2.500E+01, 2.500E+01, 2.500E+01,-3.151E-05, 2.095E-01, 3.901E-04, 3.536E-04
 1.001E+01, 2.530E+01, 2.552E+01, 2.523E+01, 2.508E+01, 2.557E+01, 2.537E+01, 2.510E+01, 2.607E+01, 4.591E+00, 2.094E-01, 4.507E-04, 1.642E+01
 2.002E+01, 2.694E+01, 2.703E+01, 2.581E+01, 2.533E+01, 2.967E+01, 2.638E+01, 2.541E+01, 2.931E+01, 2.508E+01, 2.091E-01, 6.235E-04, 4.962E+01
 3.002E+01, 3.114E+01, 3.153E+01, 2.664E+01, 2.886E+01, 3.793E+01, 2.776E+01, 2.792E+01, 3.890E+01, 6.114E+01, 2.082E-01, 1.165E-03, 8.304E+01
 4.001E+01, 3.680E+01, 3.699E+01, 2.755E+01, 3.364E+01, 4.922E+01, 2.870E+01, 3.346E+01, 4.881E+01, 8.132E+01, 2.071E-01, 1.750E-03, 1.001E+02
 5.002E+01, 4.234E+01, 4.284E+01, 2.916E+01, 4.221E+01, 5.565E+01, 2.993E+01, 4.244E+01, 5.616E+01, 7.203E+01, 2.064E-01, 2.170E-03, 1.002E+02
 6.002E+01, 4.876E+01, 4.969E+01, 3.110E+01, 5.200E+01, 6.318E+01, 3.246E+01, 5.152E+01, 6.508E+01, 6.099E+01, 2.054E-01, 2.720E-03, 1.002E+02
 7.001E+01, 5.363E+01, 5.418E+01, 3.525E+01, 5.673E+01, 6.889E+01, 3.660E+01, 5.693E+01, 6.901E+01, 5.372E+01, 2.048E-01, 3.035E-03, 1.002E+02
 8.002E+01, 5.909E+01, 5.932E+01, 3.947E+01, 6.383E+01, 7.397E+01, 4.106E+01, 6.308E+01, 7.381E+01, 4.625E+01, 2.041E-01, 3.412E-03, 1.006E+02
 9.002E+01, 6.372E+01, 6.428E+01, 4.508E+01, 6.927E+01, 7.682E+01, 4.625E+01, 6.804E+01, 7.854E+01, 3.906E+01, 2.037E-01, 3.642E-03, 1.005E+02
 1.000E+02, 6.838E+01, 6.851E+01, 4.952E+01, 7.480E+01, 8.081E+01, 5.122E+01, 7.203E+01, 8.228E+01, 3.301E+01, 2.030E-01, 4.051E-03, 1.003E+02
 1.100E+02, 7.211E+01, 7.191E+01, 5.490E+01, 7.606E+01, 8.535E+01, 5.560E+01, 7.535E+01, 8.480E+01, 2.842E+01, 2.022E-01, 4.492E-03, 1.006E+02
 1.200E+02, 7.493E+01, 7.572E+01, 5.863E+01, 7.965E+01, 8.651E+01, 6.015E+01, 7.827E+01, 8.874E+01, 2.349E+01, 2.019E-01, 4.654E-03, 1.001E+02
 1.300E+02, 7.843E+01, 7.862E+01, 6.285E+01, 8.292E+01, 8.954E+01, 6.286E+01, 8.178E+01, 9.121E+01, 2.058E+01, 2.013E-01, 4.995E-03, 1.007E+02
 1.400E+02, 8.129E+01, 8.175E+01, 6.549E+01, 8.626E+01, 9.213E+01, 6.718E+01, 8.470E+01, 9.337E+01, 1.784E+01, 2.006E-01, 5.370E-03, 1.005E+02
 1.500E+02, 8.345E+01, 8.450E+01, 6.832E+01, 8.764E+01, 9.440E+01, 6.889E+01, 8.900E+01, 9.562E+01, 1.565E+01, 1.998E-01, 5.808E-03, 1.007E+02
 1.600E+02, 8.560E+01, 8.588E+01, 7.077E+01, 8.999E+01, 9.605E+01, 7.168E+01, 8.924E+01, 9.671E+01, 1.364E+01, 1.995E-01, 6.016E-03, 1.005E+02
 1.700E+02, 8.774E+01, 8.742E+01, 7.336E+01, 9.127E+01, 9.860E+01, 7.368E+01, 9.058E+01, 9.799E+01, 1.257E+01, 1.989E-01, 6.344E-03, 1.007E+02
 1.800E+02, 8.889E+01, 8.919E+01, 7.461E+01, 9.248E+01, 9.959E+01, 7.541E+01, 9.279E+01, 9.937E+01, 1.141E+01, 1.982E-01, 6.724E-03, 1.005E+02
 1.900E+02, 9.150E+01, 9.097E+01, 7.629E+01, 9.474E+01, 1.035E+02, 7.752E+01, 9.386E+01, 1.015E+02, 1.026E+01, 1.978E-01, 6.945E-03, 1.004E+02
 2.000E+02, 9.237E+01, 9.246E+01, 7.754E+01, 9.603E+01, 1.035E+02, 7.868E+01, 9.522E+01, 1.035E+02, 1.011E+01, 1.969E-01, 7.466E-03, 1.005E+02
 2.100E+02, 9.345E+01, 9.416E+01, 7.913E+01, 9.669E+01, 1.045E+02, 8.046E+01, 9.651E+01, 1.055E+02, 9.638E+00, 1.965E-01, 7.695E-03, 1.007E+02
 2.200E+02, 9.460E+01, 9.428E+01, 8.078E+01, 9.839E+01, 1.046E+02, 8.065E+01, 9.588E+01, 1.063E+02, 9.384E+00, 1.955E-01, 8.254E-03, 1.007E+02
 2.300E+02, 9.554E+01, 9.615E+01, 8.156E+01, 9.936E+01, 1.057E+02, 8.264E+01, 9.938E+01, 1.064E+02, 9.104E+00, 1.948E-01, 8.644E-03, 1.005E+02
 2.400E+02, 9.624E+01, 9.681E+01, 8.252E+01, 9.966E+01, 1.065E+02, 8.347E+01, 9.984E+01, 1.071E+02, 9.477E+00, 1.942E-01, 8.952E-03, 1.008E+02
 2.500E+02, 9.672E+01, 9.705E+01, 8.390E+01, 9.921E+01, 1.071E+02, 8.385E+01, 9.884E+01, 1.085E+02, 8.793E+00, 1.935E-01, 9.351E-03, 1.003E+02
 2.600E+02, 9.717E+01, 9.753E+01, 8.315E+01, 1.003E+02, 1.081E+02, 8.516E+01, 9.951E+01, 1.079E+02, 8.868E+00, 1.928E-01, 9.746E-03, 1.008E+02
 2.700E+02, 9.825E+01, 9.865E+01, 8.636E+01, 9.962E+01, 1.088E+02, 8.503E+01, 1.015E+02, 1.094E+02, 8.969E+00, 1.923E-01, 1.003E-02, 1.009E+02
 2.800E+02, 9.926E+01, 9.876E+01, 8.671E+01, 1.026E+02, 1.085E+02, 8.571E+01, 1.010E+02, 1.095E+02, 9.176E+00, 1.915E-01, 1.046E-02, 1.014E+02
 2.900E+02, 9.929E+01, 9.935E+01, 8.601E+01, 1.035E+02, 1.083E+02, 8.558E+01, 1.024E+02, 1.101E+02, 8.716E+00, 1.910E-01, 1.077E-02, 1.006E+02
 3.000E+02, 1.006E+02, 1.003E+02, 8.721E+01, 1.051E+02, 1.095E+02, 8.552E+01, 1.028E+02, 1.126E+02, 8.852E+00, 1.901E-01, 1.125E-02, 1.001E+02
 3.100E+02, 9.983E+01, 9.959E+01, 8.617E+01, 1.031E+02, 1.102E+02, 8.603E+01, 1.022E+02, 1.106E+02, 8.794E+00, 1.900E-01, 1.132E-02, 1.008E+02
 3.200E+02, 1.008E+02, 1.004E+02, 8.725E+01, 1.046E+02, 1.105E+02, 8.714E+01, 1.027E+02, 1.112E+02, 8.982E+00, 1.888E-01, 1.199E-02, 1.007E+02
 3.300E+02, 1.017E+02, 1.003E+02, 8.849E+01, 1.066E+02, 1.102E+02, 8.829E+01, 1.012E+02, 1.113E+02, 8.738E+00, 1.882E-01, 1.234E-02, 1.006E+02
 3.400E+02, 1.016E+02, 1.027E+02, 8.793E+01, 1.065E+02, 1.103E+02, 8.961E+01, 1.049E+02, 1.136E+02, 8.805E+00, 1.872E-01, 1.288E-02, 1.007E+02
 3.500E+02, 1.021E+02, 1.012E+02, 9.045E+01, 1.057E+02, 1.101E+02, 8.713E+01, 1.032E+02, 1.132E+02, 8.879E+00, 1.868E-01, 1.310E-02, 1.010E+02
 3.600E+02, 1.017E+02, 1.009E+02, 8.770E+01, 1.063E+02, 1.112E+02, 8.858E+01, 1.007E+02, 1.135E+02, 9.013E+00, 1.856E-01, 1.376E-02, 1.011E+02
 3.700E+02, 1.010E+02, 1.017E+02, 8.793E+01, 1.053E+02, 1.097E+02, 8.809E+01, 1.032E+02, 1.137E+02, 8.722E+00, 1.852E-01, 1.399E-02, 1.011E+02
 3.800E+02, 1.026E+02, 1.012E+02, 9.162E+01, 1.059E+02, 1.101E+02, 8.840E+01, 1.027E+02, 1.125E+02, 8.927E+00, 1.849E-01, 1.417E-02, 1.015E+02
 3.900E+02, 1.032E+02, 1.017E+02, 8.996E+01, 1.077E+02, 1.120E+02, 8.874E+01, 1.023E+02, 1.141E+02, 9.085E+00, 1.837E-01, 1.483E-02, 1.006E+02
 4.000E+02, 1.036E+02, 1.026E+02, 9.008E+01, 1.086E+02, 1.121E+02, 8.918E+01, 1.047E+02, 1.140E+02, 8.911E+00, 1.835E-01, 1.495E-02, 1.005E+02
 4.100E+02, 1.027E+02, 1.016E+02, 8.857E+01, 1.072E+02, 1.123E+02, 8.832E+01, 1.032E+02, 1.132E+02, 8.981E+00, 1.827E-01, 1.537E-02, 1.005E+02
 4.200E+02, 1.033E+02, 1.012E+02, 9.158E+01, 1.065E+02, 1.118E+02, 8.785E+01, 1.019E+02, 1.139E+02, 9.146E+00, 1.818E-01, 1.587E-02, 1.009E+02
 4.300E+02, 1.034E+02, 1.018E+02, 8.997E+01, 1.079E+02, 1.123E+02, 8.826E+01, 1.032E+02, 1.141E+02, 9.081E+00, 1.810E-01, 1.633E-02, 1.010E+02
 4.400E+02, 1.041E+02, 1.024E+02, 9.174E+01, 1.070E+02, 1.135E+02, 8.848E+01, 1.042E+02, 1.145E+02, 8.982E+00, 1.807E-01, 1.652E-02, 1.009E+02
 4.500E+02, 1.047E+02, 1.023E+02, 9.142E+01, 1.075E+02, 1.151E+02, 8.891E+01, 1.050E+02, 1.128E+02, 9.226E+00, 1.803E-01, 1.674E-02, 1.006E+02
 4.600E+02, 1.052E+02, 1.024E+02, 9.442E+01, 1.087E+02, 1.125E+02, 9.003E+01, 1.047E+02, 1.126E+02, 8.993E+00, 1.795E-01, 1.716E-02, 1.005E+02
 4.700E+02, 1.039E+02, 1.023E+02, 9.192E+01, 1.076E+02, 1.123E+02, 8.965E+01, 1.039E+02, 1.134E+02, 8.908E+00, 1.786E-01, 1.770E-02, 1.002E+02
 4.800E+02, 1.029E+02, 1.020E+02, 9.084E+01, 1.055E+02, 1.124E+02, 9.027E+01, 1.040E+02, 1.117E+02, 9.149E+00, 1.781E-01, 1.797E-02, 1.006E+02
 4.900E+02, 1.025E+02, 1.027E+02, 9.014E+01, 1.042E+02, 1.132E+02, 9.210E+01, 1.052E+02, 1.107E+02, 9.048E+00, 1.774E-01, 1.836E-02, 1.011E+02
 5.000E+02, 1.032E+02, 1.018E+02, 9.010E+01, 1.054E+02, 1.140E+02, 9.114E+01, 1.042E+02, 1.101E+02, 9.115E+00, 1.767E-01, 1.874E-02, 1.005E+02
 5.100E+02, 1.038E+02, 1.044E+02, 9.103E+01, 1.068E+02, 1.136E+02, 9.235E+01, 1.063E+02, 1.146E+02, 8.862E+00, 1.755E-01, 1.939E-02, 1.006E+02
 5.200E+02, 1.040E+02, 1.047E+02, 9.097E+01, 1.058E+02, 1.153E+02, 9.094E+01, 1.076E+02, 1.155E+02, 9.172E+00, 1.750E-01, 1.970E-02, 1.011E+02
 5.300E+02, 1.045E+02, 1.053E+02, 9.088E+01, 1.065E+02, 1.162E+02, 9.162E+01, 1.087E+02, 1.155E+02, 8.990E+00, 1.745E-01, 1.998E-02, 1.005E+02
 5.400E+02, 1.050E+02, 1.052E+02, 9.053E+01, 1.063E+02, 1.183E+02, 9.192E+01, 1.084E+02, 1.153E+02, 9.050E+00, 1.737E-01, 2.043E-02, 1.009E+02
 5.500E+02, 1.048E+02, 1.053E+02, 9.070E+01, 1.065E+02, 1.171E+02, 9.198E+01, 1.090E+02, 1.150E+02, 8.882E+00, 1.726E-01, 2.104E-02, 1.004E+02
 5.600E+02, 1.048E+02, 1.051E+02, 9.091E+01, 1.070E+02, 1.164E+02, 9.214E+01, 1.082E+02, 1.149E+02, 9.117E+00, 1.721E-01, 2.134E-02, 1.012E+02
 5.700E+02, 1.052E+02, 1.060E+02, 9.078E+01, 1.068E+02, 1.180E+02, 9.238E+01, 1.097E+02, 1.158E+02, 9.148E+00, 1.712E-01, 2.182E-02, 1.007E+02
 5.800E+02, 1.054E+02, 1.052E+02, 9.087E+01, 1.060E+02, 1.192E+02, 9.340E+01, 1.083E+02, 1.139E+02, 9.220E+00, 1.708E-01, 2.204E-02, 1.008E+02
 5.900E+02, 1.057E+02, 1.056E+02, 9.113E+01, 1.069E+02, 1.192E+02, 9.342E+01, 1.083E+02, 1.151E+02, 9.309E+00, 1.698E-01, 2.259E-02, 1.006E+02
 6.000E+02, 1.052E+02, 1.053E+02, 9.089E+01, 1.070E+02, 1.177E+02, 9.392E+01, 1.088E+02, 1.131E+02, 8.982E+00, 1.698E-01, 2.261E-02, 1.002E+02
 6.100E+02, 1.048E+02, 1.076E+02, 9.060E+01, 1.070E+02, 1.169E+02, 9.910E+01, 1.099E+02, 1.136E+02, 9.519E+00, 1.689E-01, 2.308E-02, 1.009E+02
 6.200E+02, 1.036E+02, 1.070E+02, 9.092E+01, 1.057E+02, 1.140E+02, 9.696E+01, 1.090E+02, 1.150E+02, 9.217E+00, 1.682E-01, 2.350E-02, 1.003E+02
 6.300E+02, 1.038E+02, 1.084E+02, 9.150E+01, 1.067E+02, 1.133E+02, 9.603E+01, 1.115E+02, 1.177E+02, 9.369E+00, 1.671E-01, 2.410E-02, 1.010E+02
 6.400E+02, 1.040E+02, 1.073E+02, 9.209E+01, 1.059E+02, 1.140E+02, 9.445E+01, 1.106E+02, 1.169E+02, 9.128E+00, 1.662E-01, 2.462E-02, 1.004E+02
 6.500E+02, 1.052E+02, 1.068E+02, 9.392E+01, 1.078E+02, 1.139E+02, 9.432E+01, 1.089E+02, 1.172E+02, 9.129E+00, 1.657E-01, 2.491E-02, 1.005E+02
 6.600E+02, 1.048E+02, 1.082E+02, 9.278E+01, 1.073E+02, 1.144E+02, 9.558E+01, 1.121E+02, 1.170E+02, 9.291E+00, 1.653E-01, 2.511E-02, 1.005E+02
 6.700E+02, 1.050E+02, 1.083E+02, 9.175E+01, 1.075E+02, 1.156E+02, 9.473E+01, 1.102E+02, 1.199E+02, 9.053E+00, 1.641E-01, 2.581E-02, 1.000E+02
 6.800E+02, 1.062E+02, 1.074E+02, 9.318E+01, 1.090E+02, 1.165E+02, 9.305E+01, 1.111E+02, 1.181E+02, 9.354E+00, 1.635E-01, 2.609E-02, 1.006E+02
 6.900E+02, 1.056E+02, 1.079E+02, 9.210E+01, 1.080E+02, 1.167E+02, 9.413E+01, 1.126E+02, 1.170E+02, 9.272E+00, 1.632E-01, 2.630E-02, 1.007E+02
 7.000E+02, 1.059E+02, 1.071E+02, 9.208E+01, 1.077E+02, 1.180E+02, 9.390E+01, 1.095E+02, 1.178E+02, 9.267E+00, 1.620E-01, 2.695E-02, 1.010E+02
 7.100E+02, 1.072E+02, 1.065E+02, 9.214E+01, 1.097E+02, 1.199E+02, 9.444E+01, 1.097E+02, 1.153E+02, 9.202E+00, 1.617E-01, 2.712E-02, 1.006E+02
 7.200E+02, 1.075E+02, 1.062E+02, 9.161E+01, 1.106E+02, 1.203E+02, 9.601E+01, 1.096E+02, 1.130E+02, 9.405E+00, 1.611E-01, 2.746E-02, 1.009E+02
 7.300E+02, 1.068E+02, 1.063E+02, 9.262E+01, 1.100E+02, 1.178E+02, 9.479E+01, 1.099E+02, 1.143E+02, 9.414E+00, 1.604E-01, 2.787E-02, 1.006E+02
 7.400E+02, 1.066E+02, 1.064E+02, 9.274E+01, 1.085E+02, 1.184E+02, 9.386E+01, 1.093E+02, 1.161E+02, 9.357E+00, 1.594E-01, 2.842E-02, 1.005E+02
 7.500E+02, 1.067E+02, 1.067E+02, 9.438E+01, 1.087E+02, 1.170E+02, 9.501E+01, 1.085E+02, 1.165E+02, 9.384E+00, 1.586E-01, 2.884E-02, 1.000E+02
 7.600E+02, 1.058E+02, 1.083E+02, 9.429E+01, 1.073E+02, 1.158E+02, 9.616E+01, 1.104E+02, 1.184E+02, 9.521E+00, 1.581E-01, 2.916E-02, 9.990E+01
 7.700E+02, 1.059E+02, 1.077E+02, 9.464E+01, 1.074E+02, 1.155E+02, 9.343E+01, 1.109E+02, 1.188E+02, 9.420E+00, 1.575E-01, 2.946E-02, 1.004E+02
 7.800E+02, 1.069E+02, 1.102E+02, 9.407E+01, 1.100E+02, 1.165E+02, 9.743E+01, 1.138E+02, 1.193E+02, 9.431E+00, 1.569E-01, 2.978E-02, 1.008E+02
 7.900E+02, 1.062E+02, 1.113E+02, 9.349E+01, 1.089E+02, 1.161E+02, 9.520E+01, 1.126E+02, 1.261E+02, 9.550E+00, 1.556E-01, 3.055E-02, 1.004E+02
 8.000E+02, 1.076E+02, 1.074E+02, 9.499E+01, 1.112E+02, 1.165E+02, 9.386E+01, 1.095E+02, 1.189E+02, 9.233E+00, 1.549E-01, 3.091E-02, 1.006E+02
 8.100E+02, 1.081E+02, 1.090E+02, 9.395E+01, 1.122E+02, 1.182E+02, 9.526E+01, 1.124E+02, 1.194E+02, 9.373E+00, 1.543E-01, 3.126E-02, 1.003E+02
 8.200E+02, 1.091E+02, 1.092E+02, 9.588E+01, 1.124E+02, 1.191E+02, 9.550E+01, 1.107E+02, 1.214E+02, 9.449E+00, 1.534E-01, 3.174E-02, 1.005E+02
 8.300E+02, 1.094E+02, 1.099E+02, 9.603E+01, 1.128E+02, 1.193E+02, 9.525E+01, 1.125E+02, 1.220E+02, 9.571E+00, 1.525E-01, 3.224E-02, 1.009E+02
 8.400E+02, 1.086E+02, 1.086E+02, 9.496E+01, 1.125E+02, 1.184E+02, 9.453E+01, 1.102E+02, 1.211E+02, 9.537E+00, 1.522E-01, 3.241E-02, 1.007E+02
 8.500E+02, 1.081E+02, 1.091E+02, 9.470E+01, 1.114E+02, 1.181E+02, 9.521E+01, 1.105E+02, 1.215E+02, 9.437E+00, 1.514E-01, 3.289E-02, 1.007E+02
 8.600E+02, 1.091E+02, 1.083E+02, 9.500E+01, 1.121E+02, 1.201E+02, 9.510E+01, 1.097E+02, 1.200E+02, 9.570E+00, 1.508E-01, 3.322E-02, 1.009E+02
 8.700E+02, 1.081E+02, 1.093E+02, 9.538E+01, 1.108E+02, 1.180E+02, 9.688E+01, 1.086E+02, 1.225E+02, 9.511E+00, 1.502E-01, 3.352E-02, 9.997E+01
 8.800E+02, 1.066E+02, 1.102E+02, 9.674E+01, 1.094E+02, 1.135E+02, 9.518E+01, 1.135E+02, 1.221E+02, 1.007E+01, 1.494E-01, 3.397E-02, 1.010E+02
 8.900E+02, 1.107E+02, 1.079E+02, 1.037E+02, 1.118E+02, 1.165E+02, 9.682E+01, 1.082E+02, 1.186E+02, 9.407E+00, 1.489E-01, 3.430E-02, 1.006E+02
 9.000E+02, 1.109E+02, 1.068E+02, 1.015E+02, 1.109E+02, 1.205E+02, 9.617E+01, 1.070E+02, 1.172E+02, 9.578E+00, 1.481E-01, 3.472E-02, 1.005E+02
 9.100E+02, 1.101E+02, 1.075E+02, 9.983E+01, 1.130E+02, 1.176E+02, 9.615E+01, 1.085E+02, 1.180E+02, 9.676E+00, 1.474E-01, 3.509E-02, 1.007E+02
 9.200E+02, 1.099E+02, 1.075E+02, 9.668E+01, 1.130E+02, 1.199E+02, 9.576E+01, 1.091E+02, 1.176E+02, 9.531E+00, 1.469E-01, 3.540E-02, 1.003E+02
 9.300E+02, 1.094E+02, 1.078E+02, 9.543E+01, 1.129E+02, 1.198E+02, 9.585E+01, 1.097E+02, 1.180E+02, 9.633E+00, 1.461E-01, 3.582E-02, 1.006E+02
 9.400E+02, 1.114E+02, 1.081E+02, 9.739E+01, 1.156E+02, 1.211E+02, 9.637E+01, 1.108E+02, 1.172E+02, 9.678E+00, 1.455E-01, 3.616E-02, 1.005E+02
 9.500E+02, 1.099E+02, 1.076E+02, 9.553E+01, 1.142E+02, 1.201E+02, 9.550E+01, 1.100E+02, 1.174E+02, 9.825E+00, 1.446E-01, 3.670E-02, 1.008E+02
 9.600E+02, 1.097E+02, 1.092E+02, 9.544E+01, 1.124E+02, 1.213E+02, 9.748E+01, 1.111E+02, 1.190E+02, 9.757E+00, 1.437E-01, 3.716E-02, 1.010E+02
 9.700E+02, 1.107E+02, 1.106E+02, 9.745E+01, 1.139E+02, 1.207E+02, 9.764E+01, 1.145E+02, 1.196E+02, 9.502E+00, 1.431E-01, 3.751E-02, 1.006E+02
 9.800E+02, 1.109E+02, 1.096E+02, 9.708E+01, 1.129E+02, 1.227E+02, 9.753E+01, 1.132E+02, 1.181E+02, 9.603E+00, 1.426E-01, 3.782E-02, 1.003E+02
 9.900E+02, 1.105E+02, 1.111E+02, 9.666E+01, 1.129E+02, 1.220E+02, 9.916E+01, 1.146E+02, 1.197E+02, 9.886E+00, 1.414E-01, 3.844E-02, 1.010E+02
 1.000E+03, 1.112E+02, 1.107E+02, 9.756E+01, 1.139E+02, 1.222E+02, 9.690E+01, 1.141E+02, 1.212E+02, 9.528E+00, 1.406E-01, 3.891E-02, 1.002E+02
 1.010E+03, 1.106E+02, 1.102E+02, 9.596E+01, 1.136E+02, 1.223E+02, 9.762E+01, 1.141E+02, 1.188E+02, 9.717E+00, 1.399E-01, 3.928E-02, 1.006E+02
 1.020E+03, 1.105E+02, 1.114E+02, 9.541E+01, 1.124E+02, 1.238E+02, 9.954E+01, 1.140E+02, 1.208E+02, 9.811E+00, 1.389E-01, 3.985E-02, 1.009E+02
 1.030E+03, 1.110E+02, 1.103E+02, 9.665E+01, 1.126E+02, 1.239E+02, 9.813E+01, 1.139E+02, 1.189E+02, 9.191E+00, 1.386E-01, 4.004E-02, 9.661E+01
 1.040E+03, 1.105E+02, 1.091E+02, 9.606E+01, 1.116E+02, 1.239E+02, 9.816E+01, 1.119E+02, 1.173E+02, 6.290E+00, 1.378E-01, 4.048E-02, 8.651E+01
 1.050E+03, 1.085E+02, 1.089E+02, 9.444E+01, 1.093E+02, 1.216E+02, 9.788E+01, 1.119E+02, 1.168E+02, 8.922E+00, 1.375E-01, 4.062E-02, 9.175E+01
 1.060E+03, 1.063E+02, 1.076E+02, 9.328E+01, 1.079E+02, 1.177E+02, 9.681E+01, 1.111E+02, 1.148E+02, 7.211E+00, 1.372E-01, 4.079E-02, 8.248E+01
 1.070E+03, 1.055E+02, 1.080E+02, 9.409E+01, 1.071E+02, 1.155E+02, 9.860E+01, 1.095E+02, 1.160E+02, 7.810E+00, 1.369E-01, 4.093E-02, 8.579E+01
 1.080E+03, 1.044E+02, 1.062E+02, 9.323E+01, 1.068E+02, 1.130E+02, 9.594E+01, 1.085E+02, 1.141E+02,-5.783E+00, 1.366E-01, 4.111E-02, 7.132E+01
 1.090E+03, 1.029E+02, 1.039E+02, 9.085E+01, 1.056E+02, 1.122E+02, 9.344E+01, 1.067E+02, 1.116E+02,-3.415E+00, 1.362E-01, 4.131E-02, 6.179E+01
 1.100E+03, 1.021E+02, 1.023E+02, 9.143E+01, 1.044E+02, 1.106E+02, 9.217E+01, 1.040E+02, 1.108E+02, 6.686E+00, 1.361E-01, 4.138E-02, 6.826E+01
 1.110E+03, 9.913E+01, 1.018E+02, 9.093E+01, 1.015E+02, 1.050E+02, 9.263E+01, 1.027E+02, 1.100E+02,-1.886E+00, 1.362E-01, 4.128E-02, 4.826E+01
 1.120E+03, 9.726E+01, 1.069E+02, 8.955E+01, 9.969E+01, 1.026E+02, 1.090E+02, 1.035E+02, 1.083E+02,-1.336E-01, 1.363E-01, 4.121E-02, 2.385E+01
 1.130E+03, 9.590E+01, 1.195E+02, 8.958E+01, 9.817E+01, 9.994E+01, 1.387E+02, 1.133E+02, 1.065E+02, 1.059E+00, 1.365E-01, 4.102E-02, 7.059E-01
 1.140E+03, 9.574E+01, 1.153E+02, 9.225E+01, 9.653E+01, 9.843E+01, 1.231E+02, 1.163E+02, 1.066E+02, 7.635E+00, 1.365E-01, 4.103E-02, 2.705E+01
 1.150E+03, 9.552E+01, 9.980E+01, 9.226E+01, 9.606E+01, 9.825E+01, 9.493E+01, 1.012E+02, 1.032E+02,-2.140E-01, 1.368E-01, 4.088E-02, 3.494E+01
 1.160E+03, 9.322E+01, 9.864E+01, 8.805E+01, 9.504E+01, 9.656E+01, 9.445E+01, 9.857E+01, 1.029E+02, 6.262E+00, 1.370E-01, 4.067E-02, 3.263E+01
 1.170E+03, 9.221E+01, 1.007E+02, 8.876E+01, 9.279E+01, 9.509E+01, 9.820E+01, 9.955E+01, 1.042E+02, 7.289E+00, 1.370E-01, 4.076E-02, 3.829E+00
 1.180E+03, 9.280E+01, 9.239E+01, 8.846E+01, 9.366E+01, 9.630E+01, 8.611E+01, 9.257E+01, 9.849E+01, 1.292E+00, 1.374E-01, 4.049E-02, 0.000E+00
 1.190E+03, 9.050E+01, 9.088E+01, 8.572E+01, 9.179E+01, 9.400E+01, 8.656E+01, 9.102E+01, 9.508E+01, 1.290E+00, 1.373E-01, 4.052E-02, 0.000E+00
 1.200E+03, 8.758E+01, 9.521E+01, 8.146E+01, 8.950E+01, 9.177E+01, 9.427E+01, 9.476E+01, 9.661E+01, 2.918E+00, 1.376E-01, 4.032E-02, 5.904E-01
 1.210E+03, 8.627E+01, 8.651E+01, 8.199E+01, 8.765E+01, 8.918E+01, 8.105E+01, 8.682E+01, 9.167E+01, 4.921E+00, 1.373E-01, 4.037E-02, 0.000E+00
 1.220E+03, 8.618E+01, 8.507E+01, 8.304E+01, 8.664E+01, 8.887E+01, 7.843E+01, 8.530E+01, 9.148E+01, 3.751E+00, 1.372E-01, 4.047E-02, 0.000E+00
 1.230E+03, 8.544E+01, 8.425E+01, 8.199E+01, 8.640E+01, 8.792E+01, 7.820E+01, 8.456E+01, 8.998E+01, 4.188E+00, 1.373E-01, 4.043E-02, 0.000E+00
 1.240E+03, 8.351E+01, 8.305E+01, 7.950E+01, 8.472E+01, 8.630E+01, 7.751E+01, 8.320E+01, 8.843E+01, 3.600E+00, 1.378E-01, 4.020E-02, 0.000E+00
 1.250E+03, 8.296E+01, 8.095E+01, 7.955E+01, 8.374E+01, 8.561E+01, 7.440E+01, 8.142E+01, 8.703E+01, 4.981E+00, 1.376E-01, 4.025E-02, 0.000E+00
 1.260E+03, 8.109E+01, 7.975E+01, 7.596E+01, 8.314E+01, 8.415E+01, 7.284E+01, 8.047E+01, 8.593E+01, 3.033E+00, 1.374E-01, 4.024E-02, 0.000E+00
 1.270E+03, 7.971E+01, 7.910E+01, 7.458E+01, 8.177E+01, 8.277E+01, 7.329E+01, 7.970E+01, 8.430E+01, 5.187E+00, 1.377E-01, 4.014E-02, 0.000E+00
 1.280E+03, 7.778E+01, 7.842E+01, 7.194E+01, 8.021E+01, 8.119E+01, 7.258E+01, 7.935E+01, 8.333E+01, 4.619E+00, 1.375E-01, 4.020E-02, 0.000E+00
 1.290E+03, 7.804E+01, 7.660E+01, 7.362E+01, 7.956E+01, 8.094E+01, 6.936E+01, 7.812E+01, 8.231E+01, 4.672E+00, 1.374E-01, 4.018E-02, 0.000E+00
 1.300E+03, 7.711E+01, 7.588E+01, 7.228E+01, 7.867E+01, 8.037E+01, 6.932E+01, 7.653E+01, 8.178E+01, 4.598E+00, 1.374E-01, 4.017E-02, 0.000E+00
 1.310E+03, 7.604E+01, 7.528E+01, 7.117E+01, 7.765E+01, 7.929E+01, 6.982E+01, 7.540E+01, 8.061E+01, 4.239E+00, 1.377E-01, 4.005E-02, 0.000E+00
