s,C,C,C,C,C,C,C,C,Pa,mol/mol,mol/mol,kW
Time,"West_All_TCs","East_All_TCs","West_Bottom_TCs","West_Middle_TCs","West_Upper_TCs","East_Bottom_TCs","East_Middle_TCs","East_Upper_TCs","Pressure","O2","CO2","HRR"
-6.000E+01, 3.100E+01, 3.100E+01, 3.100E+01, 3.100E+01, 3.100E+01, 3.100E+01, 3.100E+01, 3.100E+01,-9.418E-06, 2.095E-01, 3.901E-04, 0.000E+00
-4.998E+01, 3.100E+01, 3.100E+01, 3.100E+01, 3.100E+01, 3.100E+01, 3.100E+01, 3.100E+01, 3.100E+01,-6.167E-04, 2.095E-01, 3.901E-04, 0.000E+00
-3.996E+01, 3.100E+01, 3.100E+01, 3.100E+01, 3.100E+01, 3.100E+01, 3.100E+01, 3.100E+01, 3.100E+01,-2.926E-05, 2.095E-01, 3.901E-04, 0.000E+00
-2.998E+01, 3.100E+01, 3.100E+01, 3.100E+01, 3.100E+01, 3.100E+01, 3.100E+01, 3.100E+01, 3.100E+01,-2.718E-05, 2.095E-01, 3.901E-04, 0.000E+00
-1.996E+01, 3.100E+01, 3.100E+01, 3.100E+01, 3.100E+01, 3.100E+01, 3.100E+01, 3.100E+01, 3.100E+01,-2.832E-05, 2.095E-01, 3.901E-04, 0.000E+00
-9.985E+00, 3.100E+01, 3.100E+01, 3.100E+01, 3.100E+01, 3.100E+01, 3.100E+01, 3.100E+01, 3.100E+01,-2.987E-05, 2.095E-01, 3.901E-04, 0.000E+00
 3.528E-02, 3.100E+01, 3.100E+01, 3.100E+01, 3.100E+01, 3.100E+01, 3.100E+01, 3.100E+01, 3.100E+01,-3.032E-05, 2.095E-01, 3.901E-04, 1.319E-04
 1.001E+01, 3.176E+01, 3.218E+01, 3.147E+01, 3.116E+01, 3.265E+01, 3.180E+01, 3.121E+01, 3.352E+01, 1.485E+01, 2.093E-01, 5.093E-04, 3.259E+01
 2.001E+01, 3.488E+01, 3.568E+01, 3.265E+01, 3.317E+01, 3.881E+01, 3.379E+01, 3.294E+01, 4.030E+01, 8.458E+01, 2.086E-01, 9.013E-04, 9.911E+01
 3.001E+01, 4.378E+01, 4.460E+01, 3.438E+01, 4.212E+01, 5.485E+01, 3.640E+01, 4.077E+01, 5.662E+01, 2.018E+02, 2.069E-01, 1.879E-03, 1.652E+02
 4.001E+01, 5.486E+01, 5.722E+01, 3.944E+01, 5.381E+01, 7.132E+01, 4.129E+01, 5.652E+01, 7.384E+01, 2.618E+02, 2.051E-01, 2.866E-03, 1.993E+02
 5.001E+01, 6.776E+01, 6.934E+01, 4.516E+01, 7.231E+01, 8.580E+01, 4.859E+01, 7.309E+01, 8.632E+01, 2.173E+02, 2.034E-01, 3.798E-03, 2.000E+02
 6.001E+01, 7.914E+01, 7.981E+01, 5.689E+01, 8.420E+01, 9.634E+01, 5.693E+01, 8.247E+01, 1.000E+02, 1.719E+02, 2.022E-01, 4.500E-03, 2.006E+02
 7.002E+01, 8.941E+01, 9.191E+01, 6.675E+01, 9.525E+01, 1.062E+02, 6.785E+01, 9.561E+01, 1.123E+02, 1.310E+02, 2.003E-01, 5.547E-03, 1.988E+02
 8.002E+01, 9.987E+01, 1.002E+02, 7.804E+01, 1.053E+02, 1.162E+02, 7.844E+01, 1.032E+02, 1.190E+02, 9.883E+01, 1.994E-01, 6.076E-03, 2.006E+02
 9.001E+01, 1.066E+02, 1.094E+02, 8.667E+01, 1.119E+02, 1.212E+02, 8.707E+01, 1.129E+02, 1.282E+02, 7.473E+01, 1.978E-01, 6.932E-03, 1.998E+02
 1.000E+02, 1.129E+02, 1.156E+02, 9.258E+01, 1.191E+02, 1.271E+02, 9.563E+01, 1.168E+02, 1.343E+02, 5.355E+01, 1.965E-01, 7.675E-03, 2.003E+02
 1.100E+02, 1.200E+02, 1.203E+02, 1.006E+02, 1.236E+02, 1.358E+02, 1.000E+02, 1.221E+02, 1.388E+02, 4.068E+01, 1.956E-01, 8.170E-03, 1.997E+02
 1.200E+02, 1.244E+02, 1.248E+02, 1.036E+02, 1.267E+02, 1.429E+02, 1.057E+02, 1.290E+02, 1.397E+02, 3.098E+01, 1.944E-01, 8.874E-03, 2.009E+02
 1.300E+02, 1.281E+02, 1.283E+02, 1.086E+02, 1.312E+02, 1.445E+02, 1.107E+02, 1.303E+02, 1.438E+02, 2.676E+01, 1.928E-01, 9.744E-03, 1.987E+02
 1.400E+02, 1.311E+02, 1.317E+02, 1.137E+02, 1.327E+02, 1.471E+02, 1.140E+02, 1.363E+02, 1.449E+02, 2.248E+01, 1.911E-01, 1.068E-02, 1.992E+02
 1.500E+02, 1.329E+02, 1.322E+02, 1.158E+02, 1.355E+02, 1.474E+02, 1.141E+02, 1.358E+02, 1.467E+02, 1.926E+01, 1.902E-01, 1.122E-02, 1.989E+02
 1.600E+02, 1.365E+02, 1.340E+02, 1.167E+02, 1.426E+02, 1.503E+02, 1.161E+02, 1.356E+02, 1.503E+02, 2.163E+01, 1.887E-01, 1.201E-02, 2.007E+02
 1.700E+02, 1.377E+02, 1.358E+02, 1.165E+02, 1.431E+02, 1.535E+02, 1.163E+02, 1.395E+02, 1.516E+02, 1.703E+01, 1.873E-01, 1.283E-02, 1.961E+02
 1.800E+02, 1.392E+02, 1.373E+02, 1.196E+02, 1.452E+02, 1.528E+02, 1.214E+02, 1.409E+02, 1.494E+02, 1.726E+01, 1.858E-01, 1.368E-02, 2.010E+02
 1.900E+02, 1.379E+02, 1.377E+02, 1.199E+02, 1.424E+02, 1.515E+02, 1.207E+02, 1.395E+02, 1.529E+02, 1.591E+01, 1.838E-01, 1.480E-02, 1.989E+02
 2.000E+02, 1.381E+02, 1.399E+02, 1.200E+02, 1.432E+02, 1.510E+02, 1.217E+02, 1.444E+02, 1.535E+02, 1.509E+01, 1.827E-01, 1.537E-02, 1.984E+02
 2.100E+02, 1.389E+02, 1.413E+02, 1.212E+02, 1.410E+02, 1.544E+02, 1.237E+02, 1.457E+02, 1.546E+02, 1.477E+01, 1.804E-01, 1.667E-02, 1.990E+02
 2.200E+02, 1.393E+02, 1.411E+02, 1.225E+02, 1.429E+02, 1.523E+02, 1.234E+02, 1.429E+02, 1.570E+02, 1.443E+01, 1.787E-01, 1.763E-02, 2.003E+02
 2.300E+02, 1.399E+02, 1.420E+02, 1.218E+02, 1.426E+02, 1.553E+02, 1.235E+02, 1.445E+02, 1.581E+02, 1.332E+01, 1.774E-01, 1.837E-02, 1.978E+02
 2.400E+02, 1.408E+02, 1.427E+02, 1.229E+02, 1.439E+02, 1.557E+02, 1.235E+02, 1.449E+02, 1.598E+02, 1.508E+01, 1.755E-01, 1.942E-02, 2.000E+02
 2.500E+02, 1.409E+02, 1.435E+02, 1.229E+02, 1.438E+02, 1.562E+02, 1.258E+02, 1.469E+02, 1.580E+02, 1.272E+01, 1.742E-01, 2.013E-02, 1.981E+02
 2.600E+02, 1.419E+02, 1.432E+02, 1.243E+02, 1.441E+02, 1.573E+02, 1.248E+02, 1.463E+02, 1.583E+02, 1.399E+01, 1.726E-01, 2.101E-02, 1.989E+02
 2.700E+02, 1.414E+02, 1.452E+02, 1.240E+02, 1.449E+02, 1.554E+02, 1.266E+02, 1.499E+02, 1.589E+02, 1.361E+01, 1.713E-01, 2.177E-02, 1.978E+02
 2.800E+02, 1.432E+02, 1.440E+02, 1.249E+02, 1.454E+02, 1.594E+02, 1.263E+02, 1.477E+02, 1.580E+02, 1.595E+01, 1.697E-01, 2.266E-02, 1.997E+02
 2.900E+02, 1.428E+02, 1.431E+02, 1.250E+02, 1.457E+02, 1.578E+02, 1.255E+02, 1.453E+02, 1.586E+02, 1.322E+01, 1.680E-01, 2.362E-02, 1.993E+02
 3.000E+02, 1.437E+02, 1.462E+02, 1.269E+02, 1.464E+02, 1.578E+02, 1.270E+02, 1.483E+02, 1.634E+02, 1.316E+01, 1.661E-01, 2.465E-02, 1.970E+02
 3.100E+02, 1.452E+02, 1.453E+02, 1.265E+02, 1.487E+02, 1.603E+02, 1.265E+02, 1.474E+02, 1.619E+02, 1.394E+01, 1.647E-01, 2.544E-02, 1.987E+02
 3.200E+02, 1.451E+02, 1.449E+02, 1.263E+02, 1.500E+02, 1.592E+02, 1.266E+02, 1.465E+02, 1.614E+02, 1.402E+01, 1.634E-01, 2.619E-02, 1.991E+02
 3.300E+02, 1.471E+02, 1.452E+02, 1.295E+02, 1.498E+02, 1.622E+02, 1.269E+02, 1.463E+02, 1.625E+02, 1.240E+01, 1.615E-01, 2.723E-02, 1.984E+02
 3.400E+02, 1.458E+02, 1.450E+02, 1.273E+02, 1.494E+02, 1.607E+02, 1.266E+02, 1.466E+02, 1.618E+02, 1.521E+01, 1.610E-01, 2.749E-02, 1.980E+02
 3.500E+02, 1.468E+02, 1.456E+02, 1.269E+02, 1.506E+02, 1.628E+02, 1.278E+02, 1.473E+02, 1.616E+02, 1.389E+01, 1.595E-01, 2.838E-02, 1.984E+02
 3.600E+02, 1.466E+02, 1.463E+02, 1.284E+02, 1.524E+02, 1.589E+02, 1.292E+02, 1.477E+02, 1.621E+02, 1.358E+01, 1.576E-01, 2.939E-02, 1.991E+02
 3.700E+02, 1.470E+02, 1.459E+02, 1.294E+02, 1.508E+02, 1.608E+02, 1.274E+02, 1.472E+02, 1.632E+02, 1.483E+01, 1.557E-01, 3.049E-02, 1.968E+02
 3.800E+02, 1.478E+02, 1.474E+02, 1.279E+02, 1.543E+02, 1.612E+02, 1.281E+02, 1.504E+02, 1.638E+02, 1.405E+01, 1.545E-01, 3.116E-02, 1.987E+02
 3.900E+02, 1.482E+02, 1.476E+02, 1.316E+02, 1.540E+02, 1.591E+02, 1.288E+02, 1.496E+02, 1.644E+02, 1.572E+01, 1.533E-01, 3.181E-02, 1.979E+02
 4.000E+02, 1.496E+02, 1.463E+02, 1.363E+02, 1.525E+02, 1.601E+02, 1.272E+02, 1.483E+02, 1.634E+02, 1.289E+01, 1.521E-01, 3.249E-02, 1.966E+02
 4.100E+02, 1.508E+02, 1.470E+02, 1.350E+02, 1.543E+02, 1.632E+02, 1.270E+02, 1.470E+02, 1.671E+02, 1.509E+01, 1.501E-01, 3.358E-02, 1.992E+02
 4.200E+02, 1.462E+02, 1.478E+02, 1.296E+02, 1.489E+02, 1.602E+02, 1.279E+02, 1.497E+02, 1.659E+02, 1.567E+01, 1.489E-01, 3.426E-02, 1.983E+02
 4.300E+02, 1.470E+02, 1.477E+02, 1.318E+02, 1.490E+02, 1.601E+02, 1.260E+02, 1.500E+02, 1.672E+02, 1.221E+01, 1.468E-01, 3.543E-02, 1.958E+02
 4.400E+02, 1.464E+02, 1.475E+02, 1.298E+02, 1.474E+02, 1.620E+02, 1.264E+02, 1.510E+02, 1.651E+02, 1.459E+01, 1.453E-01, 3.631E-02, 1.983E+02
 4.500E+02, 1.465E+02, 1.482E+02, 1.306E+02, 1.486E+02, 1.603E+02, 1.281E+02, 1.500E+02, 1.666E+02, 1.158E+01, 1.436E-01, 3.726E-02, 1.947E+02
 4.600E+02, 1.508E+02, 1.490E+02, 1.334E+02, 1.560E+02, 1.629E+02, 1.292E+02, 1.484E+02, 1.694E+02, 1.623E+01, 1.426E-01, 3.780E-02, 2.004E+02
 4.700E+02, 1.491E+02, 1.502E+02, 1.325E+02, 1.538E+02, 1.610E+02, 1.297E+02, 1.506E+02, 1.702E+02, 1.485E+01, 1.401E-01, 3.917E-02, 1.974E+02
 4.800E+02, 1.483E+02, 1.536E+02, 1.338E+02, 1.534E+02, 1.578E+02, 1.293E+02, 1.535E+02, 1.781E+02, 1.894E+01, 1.390E-01, 3.983E-02, 1.954E+02
 4.900E+02, 1.509E+02, 1.541E+02, 1.421E+02, 1.543E+02, 1.564E+02, 1.280E+02, 1.608E+02, 1.737E+02, 1.685E+01, 1.379E-01, 4.043E-02, 1.928E+02
 5.000E+02, 1.514E+02, 1.629E+02, 1.442E+02, 1.529E+02, 1.570E+02, 1.246E+02, 1.721E+02, 1.920E+02, 1.844E+01, 1.355E-01, 4.176E-02, 1.949E+02
 5.100E+02, 1.500E+02, 1.900E+02, 1.420E+02, 1.520E+02, 1.560E+02, 1.824E+02, 2.041E+02, 1.835E+02, 7.639E+00, 1.347E-01, 4.218E-02, 1.370E+02
 5.200E+02, 1.516E+02, 1.650E+02, 1.414E+02, 1.522E+02, 1.611E+02, 1.449E+02, 1.728E+02, 1.773E+02, 3.100E+01, 1.348E-01, 4.215E-02, 1.569E+02
 5.300E+02, 1.488E+02, 1.642E+02, 1.348E+02, 1.522E+02, 1.595E+02, 1.477E+02, 1.648E+02, 1.801E+02, 1.052E+01, 1.332E-01, 4.297E-02, 1.665E+02
 5.400E+02, 1.480E+02, 1.881E+02, 1.362E+02, 1.504E+02, 1.573E+02, 1.832E+02, 1.900E+02, 1.911E+02, 2.799E+01, 1.329E-01, 4.313E-02, 1.558E+02
 5.500E+02, 1.462E+02, 1.558E+02, 1.348E+02, 1.502E+02, 1.535E+02, 1.354E+02, 1.585E+02, 1.734E+02,-2.996E+01, 1.329E-01, 4.311E-02, 1.043E+02
 5.600E+02, 1.404E+02, 1.802E+02, 1.283E+02, 1.447E+02, 1.481E+02, 1.651E+02, 1.919E+02, 1.835E+02, 1.809E+01, 1.321E-01, 4.353E-02, 9.793E+01
 5.700E+02, 1.402E+02, 1.829E+02, 1.329E+02, 1.408E+02, 1.468E+02, 1.780E+02, 1.950E+02, 1.757E+02, 4.163E+01, 1.321E-01, 4.348E-02, 1.067E+02
 5.800E+02, 1.385E+02, 1.591E+02, 1.289E+02, 1.419E+02, 1.449E+02, 1.454E+02, 1.672E+02, 1.647E+02,-9.565E+00, 1.317E-01, 4.363E-02, 1.132E+02
 5.900E+02, 1.373E+02, 1.396E+02, 1.289E+02, 1.372E+02, 1.458E+02, 1.308E+02, 1.395E+02, 1.485E+02, 2.188E+01, 1.322E-01, 4.339E-02, 5.418E+01
 6.000E+02, 1.331E+02, 1.676E+02, 1.248E+02, 1.344E+02, 1.400E+02, 1.816E+02, 1.640E+02, 1.571E+02,-1.821E+01, 1.332E-01, 4.280E-02, 4.717E+00
 6.100E+02, 1.314E+02, 1.371E+02, 1.255E+02, 1.317E+02, 1.370E+02, 1.334E+02, 1.365E+02, 1.414E+02,-4.339E+00, 1.331E-01, 4.285E-02, 1.225E+01
 6.200E+02, 1.268E+02, 1.283E+02, 1.176E+02, 1.293E+02, 1.334E+02, 1.167E+02, 1.281E+02, 1.400E+02,-3.850E+00, 1.329E-01, 4.289E-02, 0.000E+00
 6.300E+02, 1.270E+02, 1.230E+02, 1.212E+02, 1.279E+02, 1.319E+02, 1.137E+02, 1.229E+02, 1.325E+02,-8.131E+00, 1.331E-01, 4.275E-02, 0.000E+00
 6.400E+02, 1.190E+02, 1.327E+02, 1.082E+02, 1.218E+02, 1.271E+02, 1.451E+02, 1.249E+02, 1.279E+02,-1.983E+00, 1.338E-01, 4.238E-02, 3.415E-01
 6.500E+02, 1.160E+02, 1.247E+02, 1.079E+02, 1.182E+02, 1.221E+02, 1.231E+02, 1.217E+02, 1.292E+02, 2.221E-01, 1.334E-01, 4.247E-02, 0.000E+00
 6.600E+02, 1.179E+02, 1.144E+02, 1.122E+02, 1.190E+02, 1.224E+02, 1.040E+02, 1.149E+02, 1.242E+02,-6.157E+00, 1.332E-01, 4.250E-02, 0.000E+00
 6.700E+02, 1.143E+02, 1.267E+02, 1.060E+02, 1.175E+02, 1.194E+02, 1.331E+02, 1.261E+02, 1.209E+02,-4.172E-01, 1.338E-01, 4.223E-02, 2.862E-01
 6.800E+02, 1.096E+02, 1.155E+02, 1.027E+02, 1.120E+02, 1.143E+02, 1.104E+02, 1.166E+02, 1.196E+02,-2.957E-01, 1.340E-01, 4.202E-02, 0.000E+00
 6.900E+02, 1.086E+02, 1.083E+02, 1.035E+02, 1.103E+02, 1.122E+02, 1.009E+02, 1.094E+02, 1.147E+02, 3.428E+00, 1.335E-01, 4.224E-02, 0.000E+00
 7.000E+02, 1.061E+02, 1.048E+02, 1.006E+02, 1.073E+02, 1.102E+02, 9.491E+01, 1.061E+02, 1.135E+02,-1.854E+00, 1.334E-01, 4.213E-02, 0.000E+00
 7.100E+02, 1.045E+02, 1.031E+02, 9.930E+01, 1.052E+02, 1.090E+02, 9.492E+01, 1.029E+02, 1.116E+02, 2.713E+00, 1.335E-01, 4.218E-02, 0.000E+00
 7.200E+02, 1.020E+02, 1.003E+02, 9.584E+01, 1.042E+02, 1.060E+02, 9.126E+01, 1.004E+02, 1.092E+02, 3.405E+00, 1.338E-01, 4.196E-02, 0.000E+00
 7.300E+02, 1.007E+02, 9.953E+01, 9.404E+01, 1.027E+02, 1.053E+02, 9.243E+01, 9.948E+01, 1.067E+02, 4.529E+00, 1.334E-01, 4.207E-02, 0.000E+00
 7.400E+02, 9.818E+01, 9.730E+01, 9.213E+01, 1.002E+02, 1.022E+02, 8.949E+01, 9.760E+01, 1.048E+02, 4.505E+00, 1.335E-01, 4.207E-02, 0.000E+00
 7.500E+02, 9.820E+01, 9.645E+01, 9.355E+01, 9.896E+01, 1.021E+02, 8.982E+01, 9.637E+01, 1.032E+02, 4.284E+00, 1.334E-01, 4.194E-02, 0.000E+00
 7.600E+02, 9.545E+01, 9.646E+01, 8.866E+01, 9.760E+01, 1.001E+02, 8.850E+01, 9.656E+01, 1.043E+02, 4.830E+00, 1.332E-01, 4.190E-02, 0.000E+00
 7.700E+02, 9.400E+01, 9.279E+01, 8.860E+01, 9.576E+01, 9.765E+01, 8.588E+01, 9.325E+01, 9.924E+01, 4.031E+00, 1.332E-01, 4.186E-02, 0.000E+00
 7.800E+02, 9.332E+01, 9.088E+01, 8.874E+01, 9.515E+01, 9.608E+01, 8.425E+01, 9.067E+01, 9.772E+01, 4.230E+00, 1.329E-01, 4.175E-02, 0.000E+00
 7.900E+02, 9.145E+01, 9.016E+01, 8.784E+01, 9.244E+01, 9.405E+01, 8.433E+01, 9.042E+01, 9.572E+01, 3.564E+00, 1.330E-01, 4.170E-02, 0.000E+00
 8.000E+02, 9.041E+01, 8.912E+01, 8.769E+01, 9.072E+01, 9.283E+01, 8.200E+01, 9.009E+01, 9.526E+01, 4.026E+00, 1.329E-01, 4.181E-02, 0.000E+00
 8.100E+02, 8.942E+01, 8.898E+01, 8.682E+01, 9.005E+01, 9.139E+01, 8.327E+01, 8.968E+01, 9.398E+01, 4.014E+00, 1.327E-01, 4.169E-02, 0.000E+00
 8.200E+02, 8.879E+01, 8.770E+01, 8.618E+01, 8.940E+01, 9.079E+01, 8.239E+01, 8.770E+01, 9.302E+01, 4.182E+00, 1.328E-01, 4.171E-02, 0.000E+00
 8.300E+02, 8.740E+01, 8.658E+01, 8.470E+01, 8.804E+01, 8.947E+01, 8.190E+01, 8.608E+01, 9.175E+01, 3.619E+00, 1.326E-01, 4.170E-02, 0.000E+00
 8.400E+02, 8.617E+01, 8.596E+01, 8.218E+01, 8.718E+01, 8.917E+01, 8.132E+01, 8.552E+01, 9.104E+01, 5.261E+00, 1.325E-01, 4.160E-02, 0.000E+00
 8.500E+02, 8.543E+01, 8.558E+01, 8.154E+01, 8.656E+01, 8.819E+01, 8.048E+01, 8.559E+01, 9.068E+01, 3.828E+00, 1.325E-01, 4.164E-02, 0.000E+00
 8.600E+02, 8.503E+01, 8.463E+01, 8.219E+01, 8.569E+01, 8.723E+01, 7.963E+01, 8.483E+01, 8.943E+01, 4.366E+00, 1.326E-01, 4.157E-02, 0.000E+00
 8.700E+02, 8.440E+01, 8.338E+01, 8.100E+01, 8.512E+01, 8.707E+01, 7.855E+01, 8.355E+01, 8.804E+01, 4.486E+00, 1.322E-01, 4.149E-02, 0.000E+00
 8.800E+02, 8.309E+01, 8.319E+01, 7.963E+01, 8.413E+01, 8.550E+01, 7.902E+01, 8.243E+01, 8.812E+01, 5.069E+00, 1.324E-01, 4.150E-02, 0.000E+00
 8.900E+02, 8.239E+01, 8.203E+01, 7.929E+01, 8.329E+01, 8.460E+01, 7.747E+01, 8.188E+01, 8.674E+01, 3.609E+00, 1.322E-01, 4.142E-02, 0.000E+00
 9.000E+02, 8.212E+01, 8.073E+01, 7.944E+01, 8.274E+01, 8.419E+01, 7.590E+01, 8.064E+01, 8.566E+01, 4.690E+00, 1.321E-01, 4.137E-02, 0.000E+00
 9.100E+02, 8.148E+01, 8.055E+01, 7.840E+01, 8.217E+01, 8.388E+01, 7.604E+01, 8.015E+01, 8.545E+01, 5.893E+00, 1.319E-01, 4.139E-02, 0.000E+00
 9.200E+02, 8.063E+01, 7.990E+01, 7.744E+01, 8.154E+01, 8.292E+01, 7.580E+01, 7.955E+01, 8.436E+01, 5.934E+00, 1.320E-01, 4.137E-02, 0.000E+00
 9.300E+02, 8.081E+01, 7.946E+01, 7.873E+01, 8.100E+01, 8.270E+01, 7.519E+01, 7.889E+01, 8.430E+01, 5.702E+00, 1.321E-01, 4.134E-02, 0.000E+00
 9.400E+02, 8.024E+01, 7.923E+01, 7.737E+01, 8.077E+01, 8.259E+01, 7.542E+01, 7.807E+01, 8.421E+01, 6.064E+00, 1.316E-01, 4.123E-02, 0.000E+00
 9.500E+02, 7.990E+01, 7.911E+01, 7.742E+01, 8.040E+01, 8.188E+01, 7.586E+01, 7.753E+01, 8.394E+01, 7.070E+00, 1.319E-01, 4.132E-02, 0.000E+00
 9.600E+02, 7.947E+01, 7.898E+01, 7.680E+01, 8.012E+01, 8.150E+01, 7.525E+01, 7.797E+01, 8.373E+01, 6.255E+00, 1.319E-01, 4.129E-02, 0.000E+00
 9.700E+02, 7.921E+01, 7.824E+01, 7.666E+01, 7.998E+01, 8.099E+01, 7.344E+01, 7.811E+01, 8.316E+01, 4.603E+00, 1.316E-01, 4.122E-02, 0.000E+00
 9.800E+02, 7.845E+01, 7.784E+01, 7.464E+01, 7.975E+01, 8.095E+01, 7.380E+01, 7.717E+01, 8.254E+01, 5.975E+00, 1.315E-01, 4.114E-02, 0.000E+00
 9.900E+02, 7.860E+01, 7.764E+01, 7.567E+01, 7.944E+01, 8.070E+01, 7.400E+01, 7.683E+01, 8.210E+01, 6.766E+00, 1.314E-01, 4.116E-02, 0.000E+00
 1.000E+03, 7.817E+01, 7.744E+01, 7.590E+01, 7.861E+01, 8.000E+01, 7.391E+01, 7.637E+01, 8.205E+01, 7.053E+00, 1.315E-01, 4.116E-02, 0.000E+00
