s,C,C,C,C,C,C,C,C,Pa,mol/mol,mol/mol,kW
Time,"West_All_TCs","East_All_TCs","West_Bottom_TCs","West_Middle_TCs","West_Upper_TCs","East_Bottom_TCs","East_Middle_TCs","East_Upper_TCs","Pressure","O2","CO2","HRR"
-6.000E+01, 2.800E+01, 2.800E+01, 2.800E+01, 2.800E+01, 2.800E+01, 2.800E+01, 2.800E+01, 2.800E+01,-9.522E-06, 2.095E-01, 3.901E-04, 0.000E+00
-4.992E+01, 2.749E+01, 2.753E+01, 2.796E+01, 2.595E+01, 2.856E+01, 2.783E+01, 2.490E+01, 2.986E+01,-6.282E+01, 2.095E-01, 3.901E-04, 0.000E+00
-3.993E+01, 2.774E+01, 2.774E+01, 2.646E+01, 2.635E+01, 3.040E+01, 2.589E+01, 2.466E+01, 3.267E+01,-6.557E+01, 2.095E-01, 3.901E-04, 0.000E+00
-2.995E+01, 2.753E+01, 2.763E+01, 2.486E+01, 2.507E+01, 3.264E+01, 2.524E+01, 2.576E+01, 3.188E+01,-6.471E+01, 2.095E-01, 3.901E-04, 0.000E+00
-1.997E+01, 2.791E+01, 2.815E+01, 2.484E+01, 2.673E+01, 3.216E+01, 2.540E+01, 2.637E+01, 3.267E+01,-6.455E+01, 2.095E-01, 3.901E-04, 0.000E+00
-9.994E+00, 2.786E+01, 2.827E+01, 2.500E+01, 2.664E+01, 3.194E+01, 2.554E+01, 2.744E+01, 3.184E+01,-6.435E+01, 2.095E-01, 3.901E-04, 0.000E+00
 4.850E-02, 2.754E+01, 2.837E+01, 2.519E+01, 2.615E+01, 3.130E+01, 2.620E+01, 2.727E+01, 3.166E+01,-6.393E+01, 2.095E-01, 3.901E-04, 5.454E-04
 1.000E+01, 2.838E+01, 2.947E+01, 2.585E+01, 2.751E+01, 3.178E+01, 2.714E+01, 2.871E+01, 3.254E+01,-2.706E+01, 2.095E-01, 3.901E-04, 3.255E+01
 2.000E+01, 3.256E+01, 3.349E+01, 2.782E+01, 3.651E+01, 3.337E+01, 2.911E+01, 3.806E+01, 3.330E+01, 6.255E+00, 2.095E-01, 3.901E-04, 9.934E+01
 3.000E+01, 4.223E+01, 4.274E+01, 3.102E+01, 6.082E+01, 3.485E+01, 3.227E+01, 6.312E+01, 3.284E+01, 4.700E+01, 2.095E-01, 3.901E-04, 1.659E+02
 4.002E+01, 5.492E+01, 5.465E+01, 3.765E+01, 9.147E+01, 3.563E+01, 3.967E+01, 9.150E+01, 3.276E+01, 6.055E+01, 2.095E-01, 4.213E-04, 2.000E+02
 5.001E+01, 6.588E+01, 6.693E+01, 4.739E+01, 1.130E+02, 3.725E+01, 4.936E+01, 1.161E+02, 3.537E+01, 3.379E+01, 2.088E-01, 8.147E-04, 2.000E+02
 6.000E+01, 7.600E+01, 7.668E+01, 5.816E+01, 1.309E+02, 3.889E+01, 5.938E+01, 1.322E+02, 3.843E+01, 1.730E+01, 2.084E-01, 1.037E-03, 2.004E+02
 7.002E+01, 8.464E+01, 8.519E+01, 6.945E+01, 1.438E+02, 4.066E+01, 7.097E+01, 1.444E+02, 4.020E+01, 9.521E+00, 2.080E-01, 1.260E-03, 2.002E+02
 8.001E+01, 9.324E+01, 9.420E+01, 8.076E+01, 1.564E+02, 4.257E+01, 8.082E+01, 1.599E+02, 4.190E+01, 2.970E+00, 2.077E-01, 1.438E-03, 2.003E+02
 9.001E+01, 1.012E+02, 1.007E+02, 8.929E+01, 1.683E+02, 4.591E+01, 9.176E+01, 1.654E+02, 4.486E+01,-3.615E+00, 2.070E-01, 1.816E-03, 1.999E+02
 1.000E+02, 1.063E+02, 1.061E+02, 9.739E+01, 1.729E+02, 4.862E+01, 1.004E+02, 1.702E+02, 4.761E+01,-1.134E+01, 2.062E-01, 2.234E-03, 2.006E+02
 1.100E+02, 1.098E+02, 1.102E+02, 1.034E+02, 1.766E+02, 4.938E+01, 1.067E+02, 1.749E+02, 4.889E+01,-1.419E+01, 2.059E-01, 2.419E-03, 1.996E+02
 1.200E+02, 1.144E+02, 1.130E+02, 1.108E+02, 1.800E+02, 5.244E+01, 1.122E+02, 1.760E+02, 5.084E+01,-2.103E+01, 2.051E-01, 2.868E-03, 2.006E+02
 1.300E+02, 1.160E+02, 1.176E+02, 1.146E+02, 1.803E+02, 5.320E+01, 1.187E+02, 1.811E+02, 5.295E+01,-2.558E+01, 2.041E-01, 3.424E-03, 1.998E+02
 1.400E+02, 1.197E+02, 1.203E+02, 1.188E+02, 1.849E+02, 5.553E+01, 1.219E+02, 1.846E+02, 5.431E+01,-3.326E+01, 2.034E-01, 3.839E-03, 2.005E+02
 1.500E+02, 1.195E+02, 1.214E+02, 1.216E+02, 1.811E+02, 5.587E+01, 1.223E+02, 1.862E+02, 5.580E+01,-3.041E+01, 2.028E-01, 4.132E-03, 1.999E+02
 1.600E+02, 1.221E+02, 1.242E+02, 1.232E+02, 1.852E+02, 5.792E+01, 1.283E+02, 1.876E+02, 5.659E+01,-3.476E+01, 2.023E-01, 4.457E-03, 2.001E+02
 1.700E+02, 1.221E+02, 1.256E+02, 1.249E+02, 1.822E+02, 5.920E+01, 1.304E+02, 1.874E+02, 5.893E+01,-3.858E+01, 2.009E-01, 5.209E-03, 2.001E+02
 1.800E+02, 1.237E+02, 1.285E+02, 1.265E+02, 1.843E+02, 6.030E+01, 1.367E+02, 1.896E+02, 5.908E+01,-4.108E+01, 1.999E-01, 5.801E-03, 2.003E+02
 1.900E+02, 1.249E+02, 1.276E+02, 1.301E+02, 1.844E+02, 6.031E+01, 1.319E+02, 1.912E+02, 5.980E+01,-4.183E+01, 1.994E-01, 6.060E-03, 2.003E+02
 2.000E+02, 1.259E+02, 1.301E+02, 1.303E+02, 1.856E+02, 6.159E+01, 1.333E+02, 1.964E+02, 6.066E+01,-4.526E+01, 1.985E-01, 6.542E-03, 2.002E+02
 2.100E+02, 1.264E+02, 1.304E+02, 1.322E+02, 1.852E+02, 6.166E+01, 1.354E+02, 1.943E+02, 6.140E+01,-4.727E+01, 1.974E-01, 7.173E-03, 2.003E+02
 2.200E+02, 1.281E+02, 1.308E+02, 1.336E+02, 1.882E+02, 6.241E+01, 1.367E+02, 1.952E+02, 6.066E+01,-4.744E+01, 1.970E-01, 7.380E-03, 2.002E+02
 2.300E+02, 1.289E+02, 1.314E+02, 1.346E+02, 1.899E+02, 6.214E+01, 1.368E+02, 1.967E+02, 6.081E+01,-4.326E+01, 1.960E-01, 7.970E-03, 2.003E+02
 2.400E+02, 1.301E+02, 1.325E+02, 1.361E+02, 1.900E+02, 6.417E+01, 1.406E+02, 1.966E+02, 6.044E+01,-4.883E+01, 1.948E-01, 8.652E-03, 2.000E+02
 2.500E+02, 1.287E+02, 1.337E+02, 1.357E+02, 1.864E+02, 6.396E+01, 1.429E+02, 1.960E+02, 6.220E+01,-5.177E+01, 1.940E-01, 9.094E-03, 1.998E+02
 2.600E+02, 1.292E+02, 1.352E+02, 1.363E+02, 1.879E+02, 6.342E+01, 1.449E+02, 1.977E+02, 6.309E+01,-5.378E+01, 1.932E-01, 9.513E-03, 1.998E+02
 2.700E+02, 1.301E+02, 1.343E+02, 1.375E+02, 1.888E+02, 6.385E+01, 1.433E+02, 1.967E+02, 6.295E+01,-4.781E+01, 1.923E-01, 1.001E-02, 2.004E+02
 2.800E+02, 1.314E+02, 1.349E+02, 1.375E+02, 1.915E+02, 6.523E+01, 1.407E+02, 2.020E+02, 6.194E+01,-5.006E+01, 1.916E-01, 1.044E-02, 1.995E+02
 2.900E+02, 1.331E+02, 1.347E+02, 1.396E+02, 1.942E+02, 6.559E+01, 1.407E+02, 1.997E+02, 6.378E+01,-4.855E+01, 1.901E-01, 1.124E-02, 2.003E+02
 3.000E+02, 1.327E+02, 1.365E+02, 1.401E+02, 1.920E+02, 6.616E+01, 1.420E+02, 2.027E+02, 6.484E+01,-4.646E+01, 1.893E-01, 1.168E-02, 1.995E+02
 3.100E+02, 1.341E+02, 1.366E+02, 1.416E+02, 1.944E+02, 6.641E+01, 1.424E+02, 2.036E+02, 6.389E+01,-4.734E+01, 1.882E-01, 1.231E-02, 2.003E+02
 3.200E+02, 1.340E+02, 1.390E+02, 1.424E+02, 1.931E+02, 6.637E+01, 1.481E+02, 2.038E+02, 6.522E+01,-4.916E+01, 1.870E-01, 1.298E-02, 2.004E+02
 3.300E+02, 1.333E+02, 1.374E+02, 1.417E+02, 1.901E+02, 6.807E+01, 1.508E+02, 1.973E+02, 6.407E+01,-5.674E+01, 1.863E-01, 1.340E-02, 2.002E+02
 3.400E+02, 1.327E+02, 1.394E+02, 1.409E+02, 1.901E+02, 6.697E+01, 1.508E+02, 2.010E+02, 6.628E+01,-4.704E+01, 1.850E-01, 1.411E-02, 2.003E+02
 3.500E+02, 1.339E+02, 1.394E+02, 1.416E+02, 1.926E+02, 6.741E+01, 1.524E+02, 2.004E+02, 6.534E+01,-5.637E+01, 1.844E-01, 1.446E-02, 2.002E+02
 3.600E+02, 1.342E+02, 1.402E+02, 1.415E+02, 1.926E+02, 6.860E+01, 1.519E+02, 2.033E+02, 6.553E+01,-4.945E+01, 1.832E-01, 1.510E-02, 2.004E+02
 3.700E+02, 1.359E+02, 1.392E+02, 1.435E+02, 1.966E+02, 6.759E+01, 1.482E+02, 2.044E+02, 6.509E+01,-5.134E+01, 1.826E-01, 1.542E-02, 1.997E+02
 3.800E+02, 1.365E+02, 1.390E+02, 1.447E+02, 1.961E+02, 6.878E+01, 1.481E+02, 2.024E+02, 6.650E+01,-5.298E+01, 1.814E-01, 1.610E-02, 2.003E+02
 3.900E+02, 1.376E+02, 1.391E+02, 1.443E+02, 1.992E+02, 6.917E+01, 1.463E+02, 2.039E+02, 6.721E+01,-5.152E+01, 1.801E-01, 1.683E-02, 2.003E+02
 4.000E+02, 1.375E+02, 1.394E+02, 1.453E+02, 2.000E+02, 6.730E+01, 1.474E+02, 2.047E+02, 6.606E+01,-5.094E+01, 1.799E-01, 1.695E-02, 2.001E+02
 4.100E+02, 1.387E+02, 1.398E+02, 1.460E+02, 2.010E+02, 6.920E+01, 1.479E+02, 2.058E+02, 6.583E+01,-4.984E+01, 1.789E-01, 1.750E-02, 2.001E+02
 4.200E+02, 1.373E+02, 1.422E+02, 1.451E+02, 1.981E+02, 6.880E+01, 1.506E+02, 2.086E+02, 6.734E+01,-4.737E+01, 1.777E-01, 1.819E-02, 1.997E+02
 4.300E+02, 1.386E+02, 1.422E+02, 1.461E+02, 1.997E+02, 6.993E+01, 1.526E+02, 2.067E+02, 6.749E+01,-5.201E+01, 1.767E-01, 1.875E-02, 2.006E+02
 4.400E+02, 1.372E+02, 1.413E+02, 1.447E+02, 1.982E+02, 6.868E+01, 1.491E+02, 2.068E+02, 6.789E+01,-5.101E+01, 1.755E-01, 1.939E-02, 1.999E+02
 4.500E+02, 1.359E+02, 1.419E+02, 1.439E+02, 1.938E+02, 7.007E+01, 1.523E+02, 2.060E+02, 6.742E+01,-4.968E+01, 1.751E-01, 1.963E-02, 2.001E+02
 4.600E+02, 1.386E+02, 1.434E+02, 1.454E+02, 2.004E+02, 6.993E+01, 1.575E+02, 2.044E+02, 6.836E+01,-5.115E+01, 1.739E-01, 2.028E-02, 1.997E+02
 4.700E+02, 1.392E+02, 1.435E+02, 1.457E+02, 2.012E+02, 7.077E+01, 1.556E+02, 2.072E+02, 6.760E+01,-5.188E+01, 1.732E-01, 2.072E-02, 2.008E+02
 4.800E+02, 1.397E+02, 1.431E+02, 1.476E+02, 2.011E+02, 7.045E+01, 1.498E+02, 2.113E+02, 6.809E+01,-5.042E+01, 1.724E-01, 2.116E-02, 1.997E+02
 4.900E+02, 1.402E+02, 1.435E+02, 1.478E+02, 2.030E+02, 6.970E+01, 1.525E+02, 2.095E+02, 6.843E+01,-5.006E+01, 1.714E-01, 2.172E-02, 2.004E+02
 5.000E+02, 1.394E+02, 1.448E+02, 1.476E+02, 2.006E+02, 7.008E+01, 1.550E+02, 2.102E+02, 6.917E+01,-5.090E+01, 1.707E-01, 2.212E-02, 1.996E+02
 5.100E+02, 1.400E+02, 1.459E+02, 1.470E+02, 2.024E+02, 7.049E+01, 1.580E+02, 2.111E+02, 6.845E+01,-5.162E+01, 1.700E-01, 2.251E-02, 2.008E+02
 5.200E+02, 1.405E+02, 1.454E+02, 1.483E+02, 2.021E+02, 7.098E+01, 1.590E+02, 2.094E+02, 6.785E+01,-4.774E+01, 1.693E-01, 2.289E-02, 2.003E+02
 5.300E+02, 1.408E+02, 1.437E+02, 1.485E+02, 2.028E+02, 7.115E+01, 1.522E+02, 2.090E+02, 6.996E+01,-5.352E+01, 1.684E-01, 2.341E-02, 2.000E+02
 5.400E+02, 1.401E+02, 1.447E+02, 1.481E+02, 2.023E+02, 7.007E+01, 1.518E+02, 2.134E+02, 6.887E+01,-4.813E+01, 1.678E-01, 2.373E-02, 2.005E+02
 5.500E+02, 1.413E+02, 1.453E+02, 1.490E+02, 2.033E+02, 7.172E+01, 1.551E+02, 2.127E+02, 6.824E+01,-4.964E+01, 1.673E-01, 2.402E-02, 1.997E+02
 5.600E+02, 1.421E+02, 1.472E+02, 1.491E+02, 2.043E+02, 7.288E+01, 1.578E+02, 2.136E+02, 7.015E+01,-5.264E+01, 1.661E-01, 2.465E-02, 2.003E+02
 5.700E+02, 1.438E+02, 1.473E+02, 1.526E+02, 2.070E+02, 7.176E+01, 1.571E+02, 2.146E+02, 7.012E+01,-4.714E+01, 1.656E-01, 2.494E-02, 2.004E+02
 5.800E+02, 1.445E+02, 1.450E+02, 1.528E+02, 2.075E+02, 7.317E+01, 1.552E+02, 2.099E+02, 6.984E+01,-5.308E+01, 1.649E-01, 2.536E-02, 2.005E+02
 5.900E+02, 1.429E+02, 1.467E+02, 1.515E+02, 2.064E+02, 7.083E+01, 1.593E+02, 2.111E+02, 6.970E+01,-4.942E+01, 1.643E-01, 2.570E-02, 1.998E+02
 6.000E+02, 1.420E+02, 1.487E+02, 1.500E+02, 2.042E+02, 7.203E+01, 1.595E+02, 2.151E+02, 7.134E+01,-4.726E+01, 1.633E-01, 2.623E-02, 1.998E+02
 6.100E+02, 1.422E+02, 1.482E+02, 1.506E+02, 2.045E+02, 7.170E+01, 1.616E+02, 2.122E+02, 7.074E+01,-5.318E+01, 1.626E-01, 2.660E-02, 1.999E+02
 6.200E+02, 1.444E+02, 1.480E+02, 1.500E+02, 2.083E+02, 7.484E+01, 1.607E+02, 2.131E+02, 7.005E+01,-5.306E+01, 1.622E-01, 2.685E-02, 2.002E+02
 6.300E+02, 1.444E+02, 1.476E+02, 1.535E+02, 2.066E+02, 7.307E+01, 1.603E+02, 2.113E+02, 7.118E+01,-5.088E+01, 1.612E-01, 2.739E-02, 1.997E+02
 6.400E+02, 1.462E+02, 1.492E+02, 1.533E+02, 2.107E+02, 7.467E+01, 1.599E+02, 2.152E+02, 7.237E+01,-4.968E+01, 1.609E-01, 2.758E-02, 2.004E+02
 6.500E+02, 1.464E+02, 1.479E+02, 1.548E+02, 2.110E+02, 7.343E+01, 1.584E+02, 2.152E+02, 7.023E+01,-5.088E+01, 1.604E-01, 2.784E-02, 1.998E+02
 6.600E+02, 1.463E+02, 1.504E+02, 1.543E+02, 2.095E+02, 7.507E+01, 1.639E+02, 2.152E+02, 7.209E+01,-5.474E+01, 1.595E-01, 2.834E-02, 2.003E+02
 6.700E+02, 1.464E+02, 1.501E+02, 1.546E+02, 2.113E+02, 7.321E+01, 1.661E+02, 2.132E+02, 7.098E+01,-5.216E+01, 1.593E-01, 2.845E-02, 2.004E+02
 6.800E+02, 1.456E+02, 1.510E+02, 1.531E+02, 2.094E+02, 7.416E+01, 1.675E+02, 2.140E+02, 7.156E+01,-4.916E+01, 1.586E-01, 2.885E-02, 2.003E+02
 6.900E+02, 1.455E+02, 1.511E+02, 1.535E+02, 2.092E+02, 7.392E+01, 1.665E+02, 2.150E+02, 7.181E+01,-4.799E+01, 1.580E-01, 2.922E-02, 1.998E+02
 7.000E+02, 1.450E+02, 1.523E+02, 1.530E+02, 2.078E+02, 7.431E+01, 1.665E+02, 2.172E+02, 7.314E+01,-4.743E+01, 1.573E-01, 2.960E-02, 2.002E+02
 7.100E+02, 1.455E+02, 1.518E+02, 1.536E+02, 2.080E+02, 7.488E+01, 1.639E+02, 2.187E+02, 7.288E+01,-5.219E+01, 1.572E-01, 2.965E-02, 1.997E+02
 7.200E+02, 1.462E+02, 1.509E+02, 1.541E+02, 2.094E+02, 7.502E+01, 1.641E+02, 2.171E+02, 7.160E+01,-5.193E+01, 1.568E-01, 2.985E-02, 2.002E+02
 7.300E+02, 1.484E+02, 1.520E+02, 1.561E+02, 2.131E+02, 7.607E+01, 1.622E+02, 2.198E+02, 7.407E+01,-5.122E+01, 1.558E-01, 3.041E-02, 1.998E+02
 7.400E+02, 1.475E+02, 1.515E+02, 1.554E+02, 2.124E+02, 7.477E+01, 1.642E+02, 2.177E+02, 7.255E+01,-5.461E+01, 1.556E-01, 3.055E-02, 2.003E+02
 7.500E+02, 1.477E+02, 1.538E+02, 1.543E+02, 2.141E+02, 7.483E+01, 1.686E+02, 2.190E+02, 7.374E+01,-5.216E+01, 1.551E-01, 3.082E-02, 2.001E+02
 7.600E+02, 1.467E+02, 1.505E+02, 1.544E+02, 2.105E+02, 7.529E+01, 1.612E+02, 2.180E+02, 7.238E+01,-4.869E+01, 1.549E-01, 3.090E-02, 1.998E+02
 7.700E+02, 1.470E+02, 1.535E+02, 1.537E+02, 2.111E+02, 7.616E+01, 1.664E+02, 2.204E+02, 7.359E+01,-4.976E+01, 1.541E-01, 3.135E-02, 2.000E+02
 7.800E+02, 1.481E+02, 1.533E+02, 1.557E+02, 2.122E+02, 7.647E+01, 1.666E+02, 2.190E+02, 7.429E+01,-4.785E+01, 1.536E-01, 3.167E-02, 1.999E+02
 7.900E+02, 1.509E+02, 1.532E+02, 1.590E+02, 2.149E+02, 7.867E+01, 1.638E+02, 2.215E+02, 7.421E+01,-5.474E+01, 1.531E-01, 3.192E-02, 2.004E+02
 8.000E+02, 1.492E+02, 1.529E+02, 1.591E+02, 2.114E+02, 7.722E+01, 1.610E+02, 2.229E+02, 7.477E+01,-5.105E+01, 1.529E-01, 3.204E-02, 1.998E+02
 8.100E+02, 1.506E+02, 1.539E+02, 1.579E+02, 2.165E+02, 7.743E+01, 1.627E+02, 2.240E+02, 7.506E+01,-5.391E+01, 1.526E-01, 3.223E-02, 1.998E+02
 8.200E+02, 1.506E+02, 1.538E+02, 1.585E+02, 2.161E+02, 7.726E+01, 1.663E+02, 2.202E+02, 7.470E+01,-4.925E+01, 1.521E-01, 3.248E-02, 2.003E+02
 8.300E+02, 1.491E+02, 1.546E+02, 1.561E+02, 2.130E+02, 7.823E+01, 1.678E+02, 2.209E+02, 7.492E+01,-5.237E+01, 1.515E-01, 3.281E-02, 1.998E+02
 8.400E+02, 1.494E+02, 1.529E+02, 1.564E+02, 2.147E+02, 7.712E+01, 1.626E+02, 2.219E+02, 7.423E+01,-5.201E+01, 1.513E-01, 3.293E-02, 2.000E+02
 8.500E+02, 1.497E+02, 1.540E+02, 1.565E+02, 2.145E+02, 7.799E+01, 1.647E+02, 2.219E+02, 7.542E+01,-4.970E+01, 1.510E-01, 3.313E-02, 2.007E+02
 8.600E+02, 1.501E+02, 1.546E+02, 1.575E+02, 2.145E+02, 7.828E+01, 1.671E+02, 2.209E+02, 7.570E+01,-5.145E+01, 1.506E-01, 3.334E-02, 1.999E+02
 8.700E+02, 1.508E+02, 1.553E+02, 1.593E+02, 2.150E+02, 7.793E+01, 1.642E+02, 2.256E+02, 7.603E+01,-4.864E+01, 1.501E-01, 3.358E-02, 2.002E+02
 8.800E+02, 1.530E+02, 1.532E+02, 1.604E+02, 2.180E+02, 8.056E+01, 1.600E+02, 2.255E+02, 7.397E+01,-4.907E+01, 1.502E-01, 3.356E-02, 1.999E+02
 8.900E+02, 1.526E+02, 1.575E+02, 1.611E+02, 2.170E+02, 7.959E+01, 1.696E+02, 2.253E+02, 7.776E+01,-5.217E+01, 1.492E-01, 3.409E-02, 2.002E+02
 9.000E+02, 1.528E+02, 1.555E+02, 1.603E+02, 2.182E+02, 7.976E+01, 1.657E+02, 2.235E+02, 7.715E+01,-4.992E+01, 1.493E-01, 3.406E-02, 2.003E+02
 9.100E+02, 1.508E+02, 1.584E+02, 1.585E+02, 2.136E+02, 8.039E+01, 1.742E+02, 2.246E+02, 7.628E+01,-5.240E+01, 1.490E-01, 3.421E-02, 2.000E+02
 9.200E+02, 1.511E+02, 1.566E+02, 1.589E+02, 2.133E+02, 8.114E+01, 1.692E+02, 2.238E+02, 7.694E+01,-4.859E+01, 1.486E-01, 3.442E-02, 1.999E+02
 9.300E+02, 1.527E+02, 1.569E+02, 1.601E+02, 2.168E+02, 8.124E+01, 1.676E+02, 2.256E+02, 7.747E+01,-4.753E+01, 1.483E-01, 3.461E-02, 2.005E+02
 9.400E+02, 1.543E+02, 1.587E+02, 1.608E+02, 2.207E+02, 8.145E+01, 1.687E+02, 2.273E+02, 8.011E+01,-5.309E+01, 1.477E-01, 3.494E-02, 2.000E+02
 9.500E+02, 1.537E+02, 1.557E+02, 1.620E+02, 2.189E+02, 8.004E+01, 1.677E+02, 2.213E+02, 7.824E+01,-5.080E+01, 1.476E-01, 3.499E-02, 1.999E+02
 9.600E+02, 1.539E+02, 1.564E+02, 1.622E+02, 2.181E+02, 8.128E+01, 1.640E+02, 2.277E+02, 7.742E+01,-5.224E+01, 1.474E-01, 3.511E-02, 1.999E+02
 9.700E+02, 1.555E+02, 1.585E+02, 1.624E+02, 2.225E+02, 8.146E+01, 1.721E+02, 2.242E+02, 7.914E+01,-5.281E+01, 1.468E-01, 3.544E-02, 2.004E+02
 9.800E+02, 1.550E+02, 1.592E+02, 1.621E+02, 2.215E+02, 8.151E+01, 1.763E+02, 2.226E+02, 7.863E+01,-5.036E+01, 1.467E-01, 3.548E-02, 2.007E+02
 9.900E+02, 1.546E+02, 1.580E+02, 1.621E+02, 2.203E+02, 8.137E+01, 1.674E+02, 2.279E+02, 7.879E+01,-4.847E+01, 1.464E-01, 3.566E-02, 1.999E+02
 1.000E+03, 1.546E+02, 1.584E+02, 1.622E+02, 2.194E+02, 8.217E+01, 1.729E+02, 2.242E+02, 7.818E+01,-5.020E+01, 1.461E-01, 3.582E-02, 2.002E+02
 1.010E+03, 1.540E+02, 1.608E+02, 1.612E+02, 2.177E+02, 8.314E+01, 1.747E+02, 2.275E+02, 8.010E+01,-5.228E+01, 1.459E-01, 3.595E-02, 1.998E+02
 1.020E+03, 1.554E+02, 1.596E+02, 1.633E+02, 2.191E+02, 8.382E+01, 1.688E+02, 2.293E+02, 8.073E+01,-5.270E+01, 1.457E-01, 3.609E-02, 2.006E+02
 1.030E+03, 1.555E+02, 1.584E+02, 1.644E+02, 2.199E+02, 8.215E+01, 1.688E+02, 2.271E+02, 7.927E+01,-4.934E+01, 1.455E-01, 3.618E-02, 1.998E+02
 1.040E+03, 1.574E+02, 1.599E+02, 1.650E+02, 2.225E+02, 8.475E+01, 1.700E+02, 2.295E+02, 8.021E+01,-5.122E+01, 1.453E-01, 3.630E-02, 2.005E+02
 1.050E+03, 1.571E+02, 1.597E+02, 1.633E+02, 2.232E+02, 8.476E+01, 1.710E+02, 2.272E+02, 8.087E+01,-5.377E+01, 1.450E-01, 3.646E-02, 1.994E+02
 1.060E+03, 1.555E+02, 1.598E+02, 1.631E+02, 2.191E+02, 8.419E+01, 1.709E+02, 2.275E+02, 8.083E+01,-5.416E+01, 1.447E-01, 3.660E-02, 1.997E+02
 1.070E+03, 1.554E+02, 1.624E+02, 1.627E+02, 2.199E+02, 8.356E+01, 1.785E+02, 2.291E+02, 7.958E+01,-4.790E+01, 1.446E-01, 3.667E-02, 2.001E+02
 1.080E+03, 1.560E+02, 1.627E+02, 1.630E+02, 2.203E+02, 8.477E+01, 1.789E+02, 2.290E+02, 8.015E+01,-5.028E+01, 1.445E-01, 3.675E-02, 2.002E+02
 1.090E+03, 1.568E+02, 1.621E+02, 1.635E+02, 2.206E+02, 8.636E+01, 1.744E+02, 2.313E+02, 8.062E+01,-5.255E+01, 1.442E-01, 3.689E-02, 2.000E+02
 1.100E+03, 1.582E+02, 1.611E+02, 1.645E+02, 2.245E+02, 8.554E+01, 1.748E+02, 2.258E+02, 8.282E+01,-5.239E+01, 1.439E-01, 3.706E-02, 2.003E+02
 1.110E+03, 1.573E+02, 1.630E+02, 1.647E+02, 2.232E+02, 8.404E+01, 1.749E+02, 2.337E+02, 8.036E+01,-4.718E+01, 1.439E-01, 3.708E-02, 1.997E+02
 1.120E+03, 1.591E+02, 1.623E+02, 1.673E+02, 2.244E+02, 8.576E+01, 1.749E+02, 2.299E+02, 8.187E+01,-5.327E+01, 1.437E-01, 3.721E-02, 1.999E+02
 1.130E+03, 1.569E+02, 1.627E+02, 1.657E+02, 2.199E+02, 8.503E+01, 1.730E+02, 2.329E+02, 8.218E+01,-4.874E+01, 1.436E-01, 3.726E-02, 2.005E+02
 1.140E+03, 1.574E+02, 1.631E+02, 1.652E+02, 2.208E+02, 8.611E+01, 1.730E+02, 2.327E+02, 8.353E+01,-5.096E+01, 1.434E-01, 3.737E-02, 1.999E+02
 1.150E+03, 1.571E+02, 1.637E+02, 1.636E+02, 2.212E+02, 8.659E+01, 1.770E+02, 2.310E+02, 8.302E+01,-5.317E+01, 1.431E-01, 3.752E-02, 2.000E+02
 1.160E+03, 1.583E+02, 1.617E+02, 1.651E+02, 2.232E+02, 8.658E+01, 1.734E+02, 2.297E+02, 8.214E+01,-5.120E+01, 1.431E-01, 3.753E-02, 2.004E+02
 1.170E+03, 1.596E+02, 1.622E+02, 1.668E+02, 2.243E+02, 8.755E+01, 1.730E+02, 2.314E+02, 8.218E+01,-5.362E+01, 1.429E-01, 3.761E-02, 1.997E+02
 1.180E+03, 1.598E+02, 1.628E+02, 1.673E+02, 2.250E+02, 8.714E+01, 1.752E+02, 2.300E+02, 8.327E+01,-4.960E+01, 1.427E-01, 3.772E-02, 2.005E+02
 1.190E+03, 1.611E+02, 1.644E+02, 1.676E+02, 2.295E+02, 8.618E+01, 1.796E+02, 2.311E+02, 8.258E+01,-5.190E+01, 1.427E-01, 3.775E-02, 1.996E+02
 1.200E+03, 1.613E+02, 1.631E+02, 1.681E+02, 2.290E+02, 8.679E+01, 1.743E+02, 2.319E+02, 8.306E+01,-5.556E+01, 1.424E-01, 3.789E-02, 1.998E+02
 1.210E+03, 1.600E+02, 1.642E+02, 1.664E+02, 2.264E+02, 8.710E+01, 1.783E+02, 2.317E+02, 8.256E+01,-5.158E+01, 1.424E-01, 3.791E-02, 2.006E+02
 1.220E+03, 1.603E+02, 1.642E+02, 1.667E+02, 2.278E+02, 8.625E+01, 1.758E+02, 2.331E+02, 8.376E+01,-4.914E+01, 1.422E-01, 3.800E-02, 2.000E+02
 1.230E+03, 1.588E+02, 1.649E+02, 1.668E+02, 2.230E+02, 8.665E+01, 1.792E+02, 2.316E+02, 8.382E+01,-4.839E+01, 1.422E-01, 3.801E-02, 1.996E+02
 1.240E+03, 1.589E+02, 1.638E+02, 1.658E+02, 2.233E+02, 8.752E+01, 1.737E+02, 2.332E+02, 8.448E+01,-5.100E+01, 1.420E-01, 3.812E-02, 2.005E+02
 1.250E+03, 1.587E+02, 1.645E+02, 1.664E+02, 2.219E+02, 8.771E+01, 1.746E+02, 2.344E+02, 8.434E+01,-5.272E+01, 1.418E-01, 3.823E-02, 2.000E+02
 1.260E+03, 1.603E+02, 1.668E+02, 1.665E+02, 2.269E+02, 8.762E+01, 1.829E+02, 2.333E+02, 8.427E+01,-5.292E+01, 1.418E-01, 3.822E-02, 1.999E+02
 1.270E+03, 1.618E+02, 1.662E+02, 1.695E+02, 2.265E+02, 8.926E+01, 1.815E+02, 2.335E+02, 8.346E+01,-5.454E+01, 1.419E-01, 3.818E-02, 1.997E+02
 1.280E+03, 1.627E+02, 1.639E+02, 1.705E+02, 2.273E+02, 9.023E+01, 1.743E+02, 2.332E+02, 8.415E+01,-4.721E+01, 1.418E-01, 3.826E-02, 2.009E+02
 1.290E+03, 1.626E+02, 1.654E+02, 1.694E+02, 2.300E+02, 8.833E+01, 1.775E+02, 2.336E+02, 8.491E+01,-5.343E+01, 1.417E-01, 3.832E-02, 1.998E+02
 1.300E+03, 1.618E+02, 1.650E+02, 1.690E+02, 2.286E+02, 8.795E+01, 1.777E+02, 2.322E+02, 8.504E+01,-5.165E+01, 1.415E-01, 3.842E-02, 1.998E+02
 1.310E+03, 1.619E+02, 1.669E+02, 1.694E+02, 2.273E+02, 8.901E+01, 1.807E+02, 2.346E+02, 8.538E+01,-4.770E+01, 1.415E-01, 3.842E-02, 2.003E+02
