s,C,C,C,C,C,C,C,C,Pa,mol/mol,mol/mol,kW
Time,"West_All_TCs","East_All_TCs","West_Bottom_TCs","West_Middle_TCs","West_Upper_TCs","East_Bottom_TCs","East_Middle_TCs","East_Upper_TCs","Pressure","O2","CO2","HRR"
-6.000E+01, 2.100E+01, 2.100E+01, 2.100E+01, 2.100E+01, 2.100E+01, 2.100E+01, 2.100E+01, 2.100E+01,-9.768E-06, 2.095E-01, 3.901E-04, 0.000E+00
-4.998E+01, 2.100E+01, 2.100E+01, 2.100E+01, 2.100E+01, 2.100E+01, 2.100E+01, 2.100E+01, 2.100E+01,-6.475E-04, 2.095E-01, 3.901E-04, 0.000E+00
-3.996E+01, 2.100E+01, 2.100E+01, 2.100E+01, 2.100E+01, 2.100E+01, 2.100E+01, 2.100E+01, 2.100E+01,-3.225E-05, 2.095E-01, 3.901E-04, 0.000E+00
-2.994E+01, 2.100E+01, 2.100E+01, 2.100E+01, 2.100E+01, 2.100E+01, 2.100E+01, 2.100E+01, 2.100E+01,-3.042E-05, 2.095E-01, 3.901E-04, 0.000E+00
-1.992E+01, 2.100E+01, 2.100E+01, 2.100E+01, 2.100E+01, 2.100E+01, 2.100E+01, 2.100E+01, 2.100E+01,-3.202E-05, 2.095E-01, 3.901E-04, 0.000E+00
-9.896E+00, 2.100E+01, 2.100E+01, 2.100E+01, 2.100E+01, 2.100E+01, 2.100E+01, 2.100E+01, 2.100E+01,-3.395E-05, 2.095E-01, 3.901E-04, 0.000E+00
 1.301E-02, 2.100E+01, 2.100E+01, 2.100E+01, 2.100E+01, 2.100E+01, 2.100E+01, 2.100E+01, 2.100E+01,-3.351E-05, 2.095E-01, 3.901E-04, 2.637E-04
 1.000E+01, 2.240E+01, 2.273E+01, 2.177E+01, 2.129E+01, 2.416E+01, 2.224E+01, 2.137E+01, 2.458E+01, 3.107E+01, 2.092E-01, 5.867E-04, 4.932E+01
 2.001E+01, 2.809E+01, 2.930E+01, 2.360E+01, 2.588E+01, 3.480E+01, 2.535E+01, 2.588E+01, 3.666E+01, 1.779E+02, 2.080E-01, 1.234E-03, 1.488E+02
 3.001E+01, 4.104E+01, 4.263E+01, 2.636E+01, 4.070E+01, 5.605E+01, 2.913E+01, 3.940E+01, 5.935E+01, 4.307E+02, 2.056E-01, 2.619E-03, 2.499E+02
 4.001E+01, 5.973E+01, 6.066E+01, 3.581E+01, 6.369E+01, 7.970E+01, 3.734E+01, 6.290E+01, 8.173E+01, 5.627E+02, 2.033E-01, 3.904E-03, 3.007E+02
 5.001E+01, 7.815E+01, 8.080E+01, 4.706E+01, 8.662E+01, 1.008E+02, 5.072E+01, 8.571E+01, 1.060E+02, 4.503E+02, 2.003E-01, 5.563E-03, 3.005E+02
 6.001E+01, 9.775E+01, 9.860E+01, 6.491E+01, 1.076E+02, 1.208E+02, 6.937E+01, 1.032E+02, 1.232E+02, 3.312E+02, 1.982E-01, 6.733E-03, 3.004E+02
 7.001E+01, 1.121E+02, 1.141E+02, 8.032E+01, 1.200E+02, 1.359E+02, 8.300E+01, 1.196E+02, 1.398E+02, 2.344E+02, 1.963E-01, 7.811E-03, 3.011E+02
 8.001E+01, 1.245E+02, 1.268E+02, 9.621E+01, 1.288E+02, 1.486E+02, 9.719E+01, 1.318E+02, 1.514E+02, 1.525E+02, 1.936E-01, 9.278E-03, 3.004E+02
 9.000E+01, 1.351E+02, 1.350E+02, 1.056E+02, 1.409E+02, 1.588E+02, 1.079E+02, 1.392E+02, 1.581E+02, 1.024E+02, 1.918E-01, 1.033E-02, 2.996E+02
 1.000E+02, 1.433E+02, 1.440E+02, 1.153E+02, 1.493E+02, 1.653E+02, 1.166E+02, 1.473E+02, 1.682E+02, 7.016E+01, 1.892E-01, 1.178E-02, 2.995E+02
 1.100E+02, 1.506E+02, 1.530E+02, 1.213E+02, 1.577E+02, 1.729E+02, 1.246E+02, 1.546E+02, 1.797E+02, 4.721E+01, 1.860E-01, 1.353E-02, 3.007E+02
 1.200E+02, 1.574E+02, 1.572E+02, 1.319E+02, 1.646E+02, 1.756E+02, 1.305E+02, 1.614E+02, 1.798E+02, 3.277E+01, 1.847E-01, 1.429E-02, 3.002E+02
 1.300E+02, 1.564E+02, 1.623E+02, 1.293E+02, 1.639E+02, 1.759E+02, 1.350E+02, 1.678E+02, 1.843E+02, 2.505E+01, 1.822E-01, 1.569E-02, 3.003E+02
 1.400E+02, 1.614E+02, 1.637E+02, 1.340E+02, 1.667E+02, 1.836E+02, 1.348E+02, 1.709E+02, 1.855E+02, 2.245E+01, 1.802E-01, 1.676E-02, 2.988E+02
 1.500E+02, 1.650E+02, 1.665E+02, 1.357E+02, 1.700E+02, 1.893E+02, 1.373E+02, 1.748E+02, 1.874E+02, 2.004E+01, 1.771E-01, 1.851E-02, 2.992E+02
 1.600E+02, 1.662E+02, 1.653E+02, 1.392E+02, 1.720E+02, 1.874E+02, 1.384E+02, 1.690E+02, 1.887E+02, 2.030E+01, 1.746E-01, 1.990E-02, 3.000E+02
 1.700E+02, 1.664E+02, 1.648E+02, 1.405E+02, 1.736E+02, 1.851E+02, 1.375E+02, 1.682E+02, 1.886E+02, 2.022E+01, 1.722E-01, 2.123E-02, 3.003E+02
 1.800E+02, 1.677E+02, 1.675E+02, 1.463E+02, 1.746E+02, 1.822E+02, 1.413E+02, 1.722E+02, 1.891E+02, 1.897E+01, 1.702E-01, 2.235E-02, 2.984E+02
 1.900E+02, 1.674E+02, 1.667E+02, 1.460E+02, 1.708E+02, 1.853E+02, 1.405E+02, 1.689E+02, 1.906E+02, 1.937E+01, 1.679E-01, 2.365E-02, 3.008E+02
 2.000E+02, 1.683E+02, 1.697E+02, 1.497E+02, 1.713E+02, 1.839E+02, 1.439E+02, 1.742E+02, 1.909E+02, 1.705E+01, 1.655E-01, 2.498E-02, 2.986E+02
 2.100E+02, 1.692E+02, 1.694E+02, 1.522E+02, 1.722E+02, 1.833E+02, 1.406E+02, 1.717E+02, 1.961E+02, 1.756E+01, 1.628E-01, 2.648E-02, 2.999E+02
 2.200E+02, 1.687E+02, 1.696E+02, 1.506E+02, 1.726E+02, 1.829E+02, 1.408E+02, 1.721E+02, 1.958E+02, 1.576E+01, 1.610E-01, 2.749E-02, 2.992E+02
 2.300E+02, 1.677E+02, 1.693E+02, 1.445E+02, 1.692E+02, 1.893E+02, 1.413E+02, 1.727E+02, 1.939E+02, 1.791E+01, 1.579E-01, 2.924E-02, 2.982E+02
 2.400E+02, 1.699E+02, 1.691E+02, 1.442E+02, 1.716E+02, 1.938E+02, 1.425E+02, 1.733E+02, 1.916E+02, 1.694E+01, 1.554E-01, 3.062E-02, 2.980E+02
 2.500E+02, 1.717E+02, 1.688E+02, 1.468E+02, 1.751E+02, 1.932E+02, 1.462E+02, 1.720E+02, 1.882E+02, 1.746E+01, 1.537E-01, 3.160E-02, 2.981E+02
 2.600E+02, 1.718E+02, 1.712E+02, 1.471E+02, 1.763E+02, 1.921E+02, 1.478E+02, 1.758E+02, 1.900E+02, 1.782E+01, 1.512E-01, 3.301E-02, 2.997E+02
 2.700E+02, 1.716E+02, 1.729E+02, 1.435E+02, 1.730E+02, 1.984E+02, 1.570E+02, 1.758E+02, 1.859E+02, 1.660E+01, 1.483E-01, 3.459E-02, 2.983E+02
 2.800E+02, 1.715E+02, 1.733E+02, 1.438E+02, 1.724E+02, 1.982E+02, 1.552E+02, 1.764E+02, 1.883E+02, 1.578E+01, 1.461E-01, 3.583E-02, 2.975E+02
 2.900E+02, 1.729E+02, 1.728E+02, 1.458E+02, 1.767E+02, 1.963E+02, 1.515E+02, 1.756E+02, 1.912E+02, 1.749E+01, 1.427E-01, 3.772E-02, 2.978E+02
 3.000E+02, 1.705E+02, 1.746E+02, 1.473E+02, 1.741E+02, 1.899E+02, 1.519E+02, 1.749E+02, 1.969E+02, 1.875E+01, 1.394E-01, 3.957E-02, 2.993E+02
 3.100E+02, 1.725E+02, 1.737E+02, 1.486E+02, 1.750E+02, 1.939E+02, 1.500E+02, 1.752E+02, 1.960E+02, 1.913E+01, 1.372E-01, 4.080E-02, 2.980E+02
 3.200E+02, 1.745E+02, 1.740E+02, 1.503E+02, 1.793E+02, 1.939E+02, 1.474E+02, 1.784E+02, 1.961E+02, 1.605E+01, 1.346E-01, 4.228E-02, 2.951E+02
 3.300E+02, 1.747E+02, 1.757E+02, 1.538E+02, 1.791E+02, 1.912E+02, 1.484E+02, 1.766E+02, 2.020E+02, 2.049E+01, 1.318E-01, 4.381E-02, 3.023E+02
 3.400E+02, 1.759E+02, 1.745E+02, 1.536E+02, 1.807E+02, 1.934E+02, 1.477E+02, 1.769E+02, 1.987E+02,-4.117E+00, 1.304E-01, 4.462E-02, 2.687E+02
 3.500E+02, 1.690E+02, 1.903E+02, 1.520E+02, 1.720E+02, 1.829E+02, 1.558E+02, 2.112E+02, 2.038E+02,-3.484E-01, 1.281E-01, 4.585E-02, 2.497E+02
 3.600E+02, 1.679E+02, 2.043E+02, 1.555E+02, 1.711E+02, 1.773E+02, 1.874E+02, 2.152E+02, 2.103E+02,-2.656E+01, 1.268E-01, 4.655E-02, 1.921E+02
 3.700E+02, 1.606E+02, 2.082E+02, 1.432E+02, 1.665E+02, 1.722E+02, 2.090E+02, 2.175E+02, 1.981E+02, 3.050E+01, 1.272E-01, 4.623E-02, 1.619E+02
 3.800E+02, 1.605E+02, 1.677E+02, 1.431E+02, 1.667E+02, 1.717E+02, 1.514E+02, 1.680E+02, 1.835E+02,-2.891E+01, 1.273E-01, 4.617E-02, 1.754E+02
 3.900E+02, 1.564E+02, 1.791E+02, 1.413E+02, 1.603E+02, 1.675E+02, 1.762E+02, 1.734E+02, 1.877E+02, 3.818E+01, 1.269E-01, 4.633E-02, 5.636E+01
 4.000E+02, 1.549E+02, 1.799E+02, 1.418E+02, 1.594E+02, 1.634E+02, 1.563E+02, 1.830E+02, 2.004E+02, 4.051E+01, 1.265E-01, 4.658E-02, 8.621E+01
 4.100E+02, 1.516E+02, 1.780E+02, 1.383E+02, 1.547E+02, 1.618E+02, 1.558E+02, 1.894E+02, 1.887E+02, 6.126E-01, 1.261E-01, 4.664E-02, 1.478E+02
 4.200E+02, 1.471E+02, 1.901E+02, 1.362E+02, 1.512E+02, 1.538E+02, 2.243E+02, 1.739E+02, 1.720E+02,-1.327E+01, 1.277E-01, 4.568E-02, 4.563E+01
 4.300E+02, 1.484E+02, 1.494E+02, 1.387E+02, 1.508E+02, 1.555E+02, 1.412E+02, 1.468E+02, 1.601E+02,-1.598E+01, 1.274E-01, 4.594E-02, 6.633E-03
 4.400E+02, 1.407E+02, 1.565E+02, 1.308E+02, 1.433E+02, 1.479E+02, 1.592E+02, 1.583E+02, 1.520E+02,-2.897E+01, 1.284E-01, 4.523E-02, 1.461E+01
 4.500E+02, 1.327E+02, 1.347E+02, 1.272E+02, 1.336E+02, 1.371E+02, 1.244E+02, 1.351E+02, 1.446E+02, 5.989E+00, 1.299E-01, 4.430E-02, 7.152E+00
 4.600E+02, 1.322E+02, 1.389E+02, 1.256E+02, 1.333E+02, 1.377E+02, 1.341E+02, 1.377E+02, 1.449E+02, 6.423E+00, 1.280E-01, 4.521E-02, 7.266E+00
 4.700E+02, 1.267E+02, 1.271E+02, 1.189E+02, 1.277E+02, 1.337E+02, 1.157E+02, 1.271E+02, 1.384E+02,-1.163E+01, 1.292E-01, 4.469E-02, 0.000E+00
 4.800E+02, 1.209E+02, 1.216E+02, 1.104E+02, 1.243E+02, 1.280E+02, 1.121E+02, 1.234E+02, 1.293E+02,-5.633E+00, 1.294E-01, 4.454E-02, 0.000E+00
 4.900E+02, 1.195E+02, 1.160E+02, 1.133E+02, 1.220E+02, 1.231E+02, 1.044E+02, 1.179E+02, 1.256E+02,-6.577E+00, 1.291E-01, 4.445E-02, 0.000E+00
 5.000E+02, 1.153E+02, 1.129E+02, 1.100E+02, 1.163E+02, 1.195E+02, 1.010E+02, 1.136E+02, 1.240E+02,-5.806E+00, 1.291E-01, 4.424E-02, 0.000E+00
 5.100E+02, 1.114E+02, 1.108E+02, 1.040E+02, 1.138E+02, 1.165E+02, 9.914E+01, 1.115E+02, 1.217E+02, 5.034E+00, 1.292E-01, 4.418E-02, 0.000E+00
 5.200E+02, 1.107E+02, 1.086E+02, 1.040E+02, 1.128E+02, 1.152E+02, 9.903E+01, 1.095E+02, 1.171E+02, 2.328E+00, 1.290E-01, 4.426E-02, 0.000E+00
 5.300E+02, 1.061E+02, 1.052E+02, 9.584E+01, 1.097E+02, 1.127E+02, 9.492E+01, 1.059E+02, 1.149E+02, 5.968E-01, 1.295E-01, 4.406E-02, 0.000E+00
 5.400E+02, 1.051E+02, 1.032E+02, 9.892E+01, 1.069E+02, 1.096E+02, 9.380E+01, 1.044E+02, 1.115E+02, 3.124E+00, 1.292E-01, 4.393E-02, 0.000E+00
 5.500E+02, 1.035E+02, 9.980E+01, 9.814E+01, 1.047E+02, 1.076E+02, 8.914E+01, 1.013E+02, 1.090E+02, 1.356E+00, 1.290E-01, 4.408E-02, 0.000E+00
 5.600E+02, 1.004E+02, 9.969E+01, 9.321E+01, 1.029E+02, 1.051E+02, 9.192E+01, 1.000E+02, 1.072E+02, 3.376E+00, 1.291E-01, 4.388E-02, 0.000E+00
 5.700E+02, 9.789E+01, 9.715E+01, 9.093E+01, 1.005E+02, 1.023E+02, 8.911E+01, 9.681E+01, 1.055E+02, 6.221E+00, 1.285E-01, 4.387E-02, 0.000E+00
 5.800E+02, 9.693E+01, 9.688E+01, 9.109E+01, 9.838E+01, 1.013E+02, 9.003E+01, 9.746E+01, 1.031E+02, 2.543E+00, 1.284E-01, 4.395E-02, 0.000E+00
 5.900E+02, 9.501E+01, 9.737E+01, 8.912E+01, 9.685E+01, 9.906E+01, 9.137E+01, 9.700E+01, 1.037E+02, 4.694E+00, 1.289E-01, 4.359E-02, 0.000E+00
 6.000E+02, 9.339E+01, 9.346E+01, 8.980E+01, 9.427E+01, 9.611E+01, 8.645E+01, 9.367E+01, 1.002E+02, 4.769E+00, 1.283E-01, 4.366E-02, 0.000E+00
