s,C,C,C,C,C,C,C,C,Pa,mol/mol,mol/mol,kW
Time,"West_All_TCs","East_All_TCs","West_Bottom_TCs","West_Middle_TCs","West_Upper_TCs","East_Bottom_TCs","East_Middle_TCs","East_Upper_TCs","Pressure","O2","CO2","HRR"
-6.000E+01, 2.600E+01, 2.600E+01, 2.600E+01, 2.600E+01, 2.600E+01, 2.600E+01, 2.600E+01, 2.600E+01,-9.592E-06, 2.095E-01, 3.901E-04, 0.000E+00
-4.998E+01, 2.595E+01, 2.596E+01, 2.596E+01, 2.595E+01, 2.595E+01, 2.596E+01, 2.596E+01, 2.596E+01,-7.634E+01, 2.095E-01, 3.901E-04, 0.000E+00
-3.996E+01, 2.594E+01, 2.596E+01, 2.594E+01, 2.594E+01, 2.593E+01, 2.597E+01, 2.595E+01, 2.595E+01,-7.790E+01, 2.095E-01, 3.901E-04, 0.000E+00
-2.998E+01, 2.593E+01, 2.596E+01, 2.594E+01, 2.593E+01, 2.593E+01, 2.599E+01, 2.595E+01, 2.594E+01,-7.792E+01, 2.095E-01, 3.901E-04, 0.000E+00
-1.996E+01, 2.593E+01, 2.596E+01, 2.594E+01, 2.593E+01, 2.593E+01, 2.599E+01, 2.595E+01, 2.594E+01,-7.795E+01, 2.095E-01, 3.901E-04, 0.000E+00
-9.985E+00, 2.593E+01, 2.596E+01, 2.594E+01, 2.593E+01, 2.593E+01, 2.599E+01, 2.595E+01, 2.595E+01,-7.796E+01, 2.095E-01, 3.901E-04, 0.000E+00
 3.528E-02, 2.593E+01, 2.596E+01, 2.594E+01, 2.593E+01, 2.592E+01, 2.599E+01, 2.595E+01, 2.594E+01,-7.795E+01, 2.095E-01, 3.901E-04, 1.332E-04
 1.001E+01, 2.699E+01, 2.734E+01, 2.647E+01, 2.853E+01, 2.597E+01, 2.670E+01, 2.934E+01, 2.597E+01,-3.610E+01, 2.095E-01, 3.901E-04, 3.254E+01
 2.001E+01, 3.121E+01, 3.074E+01, 2.834E+01, 3.901E+01, 2.628E+01, 2.868E+01, 3.755E+01, 2.599E+01, 4.195E+00, 2.095E-01, 3.901E-04, 9.850E+01
 3.001E+01, 3.938E+01, 3.978E+01, 3.267E+01, 5.809E+01, 2.738E+01, 3.382E+01, 5.955E+01, 2.596E+01, 4.218E+01, 2.095E-01, 3.906E-04, 1.660E+02
 4.000E+01, 5.075E+01, 5.180E+01, 4.026E+01, 8.383E+01, 2.817E+01, 4.229E+01, 8.639E+01, 2.672E+01, 6.035E+01, 2.093E-01, 5.099E-04, 1.991E+02
 5.001E+01, 6.226E+01, 6.323E+01, 5.229E+01, 1.043E+02, 3.024E+01, 5.358E+01, 1.064E+02, 2.973E+01, 3.524E+01, 2.089E-01, 7.713E-04, 2.017E+02
 6.001E+01, 7.233E+01, 7.368E+01, 6.518E+01, 1.200E+02, 3.179E+01, 6.739E+01, 1.221E+02, 3.156E+01, 1.798E+01, 2.086E-01, 9.083E-04, 1.999E+02
 7.000E+01, 8.171E+01, 8.355E+01, 7.914E+01, 1.319E+02, 3.406E+01, 7.921E+01, 1.372E+02, 3.418E+01, 6.860E+00, 2.082E-01, 1.146E-03, 1.998E+02
 8.001E+01, 8.904E+01, 9.012E+01, 8.989E+01, 1.416E+02, 3.564E+01, 9.144E+01, 1.433E+02, 3.557E+01,-1.205E+00, 2.079E-01, 1.299E-03, 1.997E+02
 9.001E+01, 9.542E+01, 9.650E+01, 9.932E+01, 1.495E+02, 3.747E+01, 1.019E+02, 1.496E+02, 3.794E+01,-7.603E+00, 2.075E-01, 1.523E-03, 2.010E+02
 1.000E+02, 1.010E+02, 1.020E+02, 1.088E+02, 1.544E+02, 3.973E+01, 1.092E+02, 1.567E+02, 4.007E+01,-1.670E+01, 2.070E-01, 1.788E-03, 1.997E+02
 1.100E+02, 1.050E+02, 1.050E+02, 1.155E+02, 1.589E+02, 4.072E+01, 1.174E+02, 1.566E+02, 4.110E+01,-2.450E+01, 2.067E-01, 1.954E-03, 1.991E+02
 1.200E+02, 1.083E+02, 1.087E+02, 1.188E+02, 1.632E+02, 4.286E+01, 1.225E+02, 1.607E+02, 4.281E+01,-3.387E+01, 2.062E-01, 2.263E-03, 2.010E+02
 1.300E+02, 1.111E+02, 1.146E+02, 1.242E+02, 1.650E+02, 4.392E+01, 1.242E+02, 1.748E+02, 4.489E+01,-3.551E+01, 2.059E-01, 2.455E-03, 2.002E+02
 1.400E+02, 1.129E+02, 1.172E+02, 1.252E+02, 1.679E+02, 4.560E+01, 1.279E+02, 1.771E+02, 4.658E+01,-4.590E+01, 2.054E-01, 2.719E-03, 1.986E+02
 1.500E+02, 1.139E+02, 1.194E+02, 1.273E+02, 1.669E+02, 4.753E+01, 1.320E+02, 1.778E+02, 4.834E+01,-4.973E+01, 2.047E-01, 3.124E-03, 1.995E+02
 1.600E+02, 1.170E+02, 1.189E+02, 1.287E+02, 1.734E+02, 4.893E+01, 1.326E+02, 1.749E+02, 4.935E+01,-5.859E+01, 2.037E-01, 3.632E-03, 2.003E+02
 1.700E+02, 1.168E+02, 1.191E+02, 1.300E+02, 1.717E+02, 4.878E+01, 1.336E+02, 1.742E+02, 4.954E+01,-6.137E+01, 2.036E-01, 3.713E-03, 1.990E+02
 1.800E+02, 1.174E+02, 1.197E+02, 1.304E+02, 1.721E+02, 4.966E+01, 1.344E+02, 1.743E+02, 5.035E+01,-5.610E+01, 2.031E-01, 4.004E-03, 2.006E+02
 1.900E+02, 1.173E+02, 1.218E+02, 1.285E+02, 1.719E+02, 5.157E+01, 1.335E+02, 1.803E+02, 5.139E+01,-5.479E+01, 2.024E-01, 4.362E-03, 1.989E+02
 2.000E+02, 1.183E+02, 1.229E+02, 1.303E+02, 1.726E+02, 5.186E+01, 1.364E+02, 1.793E+02, 5.287E+01,-6.508E+01, 2.014E-01, 4.919E-03, 2.004E+02
 2.100E+02, 1.191E+02, 1.230E+02, 1.308E+02, 1.740E+02, 5.254E+01, 1.384E+02, 1.791E+02, 5.139E+01,-5.868E+01, 2.011E-01, 5.090E-03, 2.006E+02
 2.200E+02, 1.203E+02, 1.240E+02, 1.314E+02, 1.757E+02, 5.390E+01, 1.376E+02, 1.817E+02, 5.261E+01,-6.512E+01, 2.004E-01, 5.483E-03, 1.987E+02
 2.300E+02, 1.208E+02, 1.239E+02, 1.324E+02, 1.765E+02, 5.351E+01, 1.370E+02, 1.802E+02, 5.447E+01,-6.337E+01, 1.993E-01, 6.118E-03, 1.997E+02
 2.400E+02, 1.212E+02, 1.239E+02, 1.319E+02, 1.778E+02, 5.402E+01, 1.376E+02, 1.802E+02, 5.395E+01,-6.514E+01, 1.986E-01, 6.483E-03, 2.003E+02
 2.500E+02, 1.223E+02, 1.273E+02, 1.326E+02, 1.793E+02, 5.512E+01, 1.405E+02, 1.870E+02, 5.428E+01,-6.340E+01, 1.982E-01, 6.753E-03, 1.999E+02
 2.600E+02, 1.224E+02, 1.251E+02, 1.354E+02, 1.780E+02, 5.392E+01, 1.355E+02, 1.846E+02, 5.501E+01,-6.230E+01, 1.974E-01, 7.178E-03, 2.001E+02
 2.700E+02, 1.220E+02, 1.263E+02, 1.349E+02, 1.765E+02, 5.464E+01, 1.431E+02, 1.822E+02, 5.375E+01,-6.439E+01, 1.969E-01, 7.479E-03, 1.983E+02
 2.800E+02, 1.235E+02, 1.281E+02, 1.334E+02, 1.829E+02, 5.428E+01, 1.440E+02, 1.850E+02, 5.527E+01,-6.134E+01, 1.959E-01, 8.000E-03, 1.998E+02
 2.900E+02, 1.235E+02, 1.269E+02, 1.348E+02, 1.808E+02, 5.477E+01, 1.409E+02, 1.846E+02, 5.527E+01,-6.510E+01, 1.952E-01, 8.378E-03, 1.993E+02
 3.000E+02, 1.213E+02, 1.275E+02, 1.329E+02, 1.763E+02, 5.459E+01, 1.432E+02, 1.847E+02, 5.457E+01,-6.576E+01, 1.948E-01, 8.608E-03, 1.993E+02
 3.100E+02, 1.241E+02, 1.263E+02, 1.360E+02, 1.811E+02, 5.509E+01, 1.442E+02, 1.803E+02, 5.452E+01,-6.066E+01, 1.941E-01, 8.996E-03, 2.013E+02
 3.200E+02, 1.250E+02, 1.279E+02, 1.353E+02, 1.833E+02, 5.630E+01, 1.463E+02, 1.822E+02, 5.525E+01,-6.796E+01, 1.931E-01, 9.593E-03, 1.991E+02
 3.300E+02, 1.250E+02, 1.302E+02, 1.365E+02, 1.836E+02, 5.484E+01, 1.482E+02, 1.868E+02, 5.576E+01,-6.315E+01, 1.922E-01, 1.009E-02, 2.007E+02
 3.400E+02, 1.246E+02, 1.281E+02, 1.385E+02, 1.810E+02, 5.438E+01, 1.422E+02, 1.870E+02, 5.510E+01,-6.135E+01, 1.916E-01, 1.040E-02, 1.985E+02
 3.500E+02, 1.262E+02, 1.276E+02, 1.397E+02, 1.831E+02, 5.576E+01, 1.446E+02, 1.821E+02, 5.596E+01,-6.223E+01, 1.904E-01, 1.106E-02, 2.002E+02
 3.600E+02, 1.261E+02, 1.301E+02, 1.392E+02, 1.828E+02, 5.611E+01, 1.487E+02, 1.862E+02, 5.526E+01,-6.391E+01, 1.897E-01, 1.148E-02, 1.992E+02
 3.700E+02, 1.260E+02, 1.326E+02, 1.396E+02, 1.833E+02, 5.514E+01, 1.503E+02, 1.908E+02, 5.666E+01,-6.864E+01, 1.888E-01, 1.200E-02, 1.998E+02
 3.800E+02, 1.252E+02, 1.313E+02, 1.383E+02, 1.818E+02, 5.570E+01, 1.486E+02, 1.900E+02, 5.527E+01,-6.807E+01, 1.884E-01, 1.220E-02, 1.991E+02
 3.900E+02, 1.257E+02, 1.328E+02, 1.380E+02, 1.839E+02, 5.512E+01, 1.472E+02, 1.953E+02, 5.584E+01,-6.306E+01, 1.877E-01, 1.261E-02, 1.989E+02
 4.000E+02, 1.271E+02, 1.312E+02, 1.401E+02, 1.858E+02, 5.552E+01, 1.497E+02, 1.881E+02, 5.585E+01,-6.411E+01, 1.868E-01, 1.309E-02, 1.998E+02
 4.100E+02, 1.271E+02, 1.327E+02, 1.391E+02, 1.860E+02, 5.619E+01, 1.535E+02, 1.888E+02, 5.579E+01,-6.539E+01, 1.857E-01, 1.369E-02, 2.010E+02
 4.200E+02, 1.289E+02, 1.307E+02, 1.437E+02, 1.874E+02, 5.564E+01, 1.446E+02, 1.915E+02, 5.601E+01,-6.082E+01, 1.848E-01, 1.423E-02, 1.980E+02
 4.300E+02, 1.286E+02, 1.314E+02, 1.420E+02, 1.877E+02, 5.625E+01, 1.475E+02, 1.896E+02, 5.695E+01,-6.208E+01, 1.839E-01, 1.473E-02, 1.988E+02
 4.400E+02, 1.298E+02, 1.347E+02, 1.445E+02, 1.886E+02, 5.636E+01, 1.526E+02, 1.939E+02, 5.749E+01,-5.691E+01, 1.833E-01, 1.507E-02, 2.011E+02
 4.500E+02, 1.295E+02, 1.351E+02, 1.428E+02, 1.884E+02, 5.717E+01, 1.521E+02, 1.973E+02, 5.596E+01,-7.196E+01, 1.823E-01, 1.560E-02, 1.963E+02
 4.600E+02, 1.302E+02, 1.351E+02, 1.429E+02, 1.909E+02, 5.673E+01, 1.508E+02, 1.967E+02, 5.776E+01,-7.079E+01, 1.817E-01, 1.595E-02, 1.974E+02
 4.700E+02, 1.298E+02, 1.348E+02, 1.432E+02, 1.896E+02, 5.681E+01, 1.510E+02, 1.971E+02, 5.630E+01,-5.891E+01, 1.812E-01, 1.622E-02, 2.024E+02
 4.800E+02, 1.322E+02, 1.350E+02, 1.433E+02, 1.956E+02, 5.774E+01, 1.544E+02, 1.927E+02, 5.791E+01,-6.604E+01, 1.796E-01, 1.714E-02, 1.982E+02
 4.900E+02, 1.311E+02, 1.359E+02, 1.429E+02, 1.930E+02, 5.753E+01, 1.532E+02, 1.967E+02, 5.790E+01,-6.055E+01, 1.791E-01, 1.739E-02, 1.983E+02
 5.000E+02, 1.319E+02, 1.344E+02, 1.447E+02, 1.939E+02, 5.719E+01, 1.509E+02, 1.949E+02, 5.730E+01,-6.068E+01, 1.783E-01, 1.784E-02, 2.028E+02
 5.100E+02, 1.321E+02, 1.361E+02, 1.459E+02, 1.913E+02, 5.916E+01, 1.555E+02, 1.957E+02, 5.692E+01,-6.816E+01, 1.780E-01, 1.802E-02, 1.955E+02
 5.200E+02, 1.324E+02, 1.364E+02, 1.450E+02, 1.941E+02, 5.827E+01, 1.545E+02, 1.955E+02, 5.903E+01,-5.415E+01, 1.765E-01, 1.888E-02, 2.032E+02
 5.300E+02, 1.323E+02, 1.368E+02, 1.452E+02, 1.935E+02, 5.828E+01, 1.537E+02, 1.995E+02, 5.724E+01,-6.868E+01, 1.760E-01, 1.911E-02, 1.963E+02
 5.400E+02, 1.334E+02, 1.395E+02, 1.457E+02, 1.960E+02, 5.839E+01, 1.533E+02, 2.059E+02, 5.932E+01,-6.363E+01, 1.751E-01, 1.962E-02, 2.000E+02
 5.500E+02, 1.329E+02, 1.384E+02, 1.455E+02, 1.951E+02, 5.832E+01, 1.540E+02, 2.021E+02, 5.909E+01,-6.574E+01, 1.748E-01, 1.983E-02, 2.001E+02
 5.600E+02, 1.340E+02, 1.382E+02, 1.480E+02, 1.947E+02, 5.930E+01, 1.608E+02, 1.957E+02, 5.830E+01,-6.026E+01, 1.737E-01, 2.044E-02, 1.995E+02
 5.700E+02, 1.345E+02, 1.387E+02, 1.500E+02, 1.938E+02, 5.969E+01, 1.557E+02, 2.012E+02, 5.934E+01,-6.212E+01, 1.730E-01, 2.083E-02, 2.006E+02
 5.800E+02, 1.360E+02, 1.372E+02, 1.520E+02, 1.971E+02, 5.898E+01, 1.551E+02, 1.973E+02, 5.931E+01,-6.028E+01, 1.722E-01, 2.125E-02, 2.008E+02
 5.900E+02, 1.357E+02, 1.389E+02, 1.492E+02, 1.995E+02, 5.850E+01, 1.614E+02, 1.965E+02, 5.881E+01,-6.821E+01, 1.715E-01, 2.164E-02, 1.964E+02
 6.000E+02, 1.344E+02, 1.403E+02, 1.471E+02, 1.972E+02, 5.888E+01, 1.623E+02, 1.993E+02, 5.942E+01,-6.631E+01, 1.710E-01, 2.194E-02, 1.990E+02
 6.100E+02, 1.325E+02, 1.400E+02, 1.459E+02, 1.931E+02, 5.841E+01, 1.571E+02, 2.040E+02, 5.875E+01,-6.032E+01, 1.703E-01, 2.229E-02, 2.022E+02
 6.200E+02, 1.363E+02, 1.385E+02, 1.499E+02, 1.997E+02, 5.925E+01, 1.572E+02, 2.002E+02, 5.819E+01,-6.658E+01, 1.697E-01, 2.267E-02, 1.970E+02
 6.300E+02, 1.348E+02, 1.406E+02, 1.498E+02, 1.952E+02, 5.951E+01, 1.610E+02, 2.003E+02, 6.064E+01,-6.965E+01, 1.691E-01, 2.300E-02, 1.990E+02
 6.400E+02, 1.356E+02, 1.400E+02, 1.497E+02, 1.980E+02, 5.921E+01, 1.595E+02, 2.022E+02, 5.823E+01,-6.335E+01, 1.688E-01, 2.316E-02, 2.010E+02
 6.500E+02, 1.369E+02, 1.397E+02, 1.525E+02, 1.976E+02, 6.059E+01, 1.594E+02, 2.004E+02, 5.917E+01,-5.507E+01, 1.672E-01, 2.405E-02, 1.991E+02
 6.600E+02, 1.373E+02, 1.394E+02, 1.513E+02, 2.002E+02, 6.039E+01, 1.570E+02, 1.996E+02, 6.155E+01,-5.774E+01, 1.659E-01, 2.476E-02, 1.992E+02
 6.700E+02, 1.386E+02, 1.389E+02, 1.548E+02, 1.998E+02, 6.118E+01, 1.599E+02, 1.966E+02, 6.022E+01,-6.559E+01, 1.660E-01, 2.472E-02, 1.989E+02
 6.800E+02, 1.380E+02, 1.438E+02, 1.527E+02, 1.998E+02, 6.143E+01, 1.638E+02, 2.075E+02, 6.008E+01,-6.502E+01, 1.653E-01, 2.512E-02, 1.936E+02
 6.900E+02, 1.382E+02, 1.424E+02, 1.530E+02, 1.991E+02, 6.248E+01, 1.620E+02, 2.035E+02, 6.182E+01,-5.996E+01, 1.647E-01, 2.543E-02, 2.013E+02
 7.000E+02, 1.380E+02, 1.429E+02, 1.505E+02, 1.990E+02, 6.436E+01, 1.633E+02, 2.043E+02, 6.121E+01,-6.393E+01, 1.641E-01, 2.579E-02, 2.017E+02
 7.100E+02, 1.390E+02, 1.443E+02, 1.524E+02, 1.998E+02, 6.473E+01, 1.626E+02, 2.073E+02, 6.301E+01,-7.336E+01, 1.631E-01, 2.636E-02, 1.965E+02
 7.200E+02, 1.398E+02, 1.432E+02, 1.535E+02, 2.030E+02, 6.309E+01, 1.592E+02, 2.083E+02, 6.207E+01,-6.029E+01, 1.627E-01, 2.657E-02, 2.086E+02
 7.300E+02, 1.406E+02, 1.435E+02, 1.549E+02, 2.040E+02, 6.297E+01, 1.634E+02, 2.047E+02, 6.232E+01,-7.381E+01, 1.623E-01, 2.679E-02, 1.922E+02
 7.400E+02, 1.394E+02, 1.445E+02, 1.534E+02, 2.015E+02, 6.318E+01, 1.649E+02, 2.060E+02, 6.249E+01,-6.671E+01, 1.613E-01, 2.733E-02, 2.021E+02
 7.500E+02, 1.377E+02, 1.459E+02, 1.539E+02, 1.979E+02, 6.142E+01, 1.628E+02, 2.134E+02, 6.154E+01,-6.585E+01, 1.612E-01, 2.742E-02, 1.935E+02
 7.600E+02, 1.385E+02, 1.427E+02, 1.541E+02, 1.998E+02, 6.163E+01, 1.612E+02, 2.041E+02, 6.287E+01,-6.704E+01, 1.605E-01, 2.780E-02, 1.949E+02
 7.700E+02, 1.409E+02, 1.419E+02, 1.572E+02, 2.026E+02, 6.292E+01, 1.608E+02, 2.030E+02, 6.195E+01,-5.352E+01, 1.600E-01, 2.808E-02, 2.105E+02
 7.800E+02, 1.413E+02, 1.451E+02, 1.556E+02, 2.047E+02, 6.380E+01, 1.671E+02, 2.071E+02, 6.123E+01,-5.974E+01, 1.598E-01, 2.819E-02, 2.006E+02
 7.900E+02, 1.413E+02, 1.444E+02, 1.566E+02, 2.030E+02, 6.426E+01, 1.658E+02, 2.040E+02, 6.336E+01,-6.364E+01, 1.589E-01, 2.867E-02, 1.983E+02
 8.000E+02, 1.410E+02, 1.448E+02, 1.579E+02, 2.018E+02, 6.316E+01, 1.675E+02, 2.039E+02, 6.306E+01,-6.756E+01, 1.584E-01, 2.895E-02, 1.930E+02
 8.100E+02, 1.404E+02, 1.476E+02, 1.552E+02, 2.014E+02, 6.457E+01, 1.677E+02, 2.115E+02, 6.358E+01,-6.268E+01, 1.579E-01, 2.926E-02, 2.023E+02
 8.200E+02, 1.422E+02, 1.457E+02, 1.570E+02, 2.041E+02, 6.536E+01, 1.671E+02, 2.062E+02, 6.389E+01,-8.404E+01, 1.572E-01, 2.962E-02, 1.927E+02
 8.300E+02, 1.404E+02, 1.470E+02, 1.555E+02, 2.023E+02, 6.355E+01, 1.672E+02, 2.098E+02, 6.383E+01,-4.883E+01, 1.565E-01, 3.004E-02, 2.072E+02
 8.400E+02, 1.428E+02, 1.471E+02, 1.585E+02, 2.056E+02, 6.426E+01, 1.661E+02, 2.108E+02, 6.431E+01,-7.828E+01, 1.563E-01, 3.014E-02, 1.918E+02
 8.500E+02, 1.442E+02, 1.476E+02, 1.582E+02, 2.104E+02, 6.389E+01, 1.645E+02, 2.138E+02, 6.462E+01,-5.756E+01, 1.561E-01, 3.028E-02, 2.082E+02
 8.600E+02, 1.439E+02, 1.469E+02, 1.589E+02, 2.087E+02, 6.420E+01, 1.651E+02, 2.114E+02, 6.430E+01,-6.780E+01, 1.553E-01, 3.070E-02, 1.950E+02
 8.700E+02, 1.440E+02, 1.469E+02, 1.607E+02, 2.070E+02, 6.443E+01, 1.672E+02, 2.082E+02, 6.519E+01,-5.257E+01, 1.551E-01, 3.083E-02, 2.027E+02
 8.800E+02, 1.427E+02, 1.486E+02, 1.562E+02, 2.074E+02, 6.463E+01, 1.695E+02, 2.120E+02, 6.440E+01,-7.639E+01, 1.546E-01, 3.111E-02, 1.902E+02
 8.900E+02, 1.433E+02, 1.494E+02, 1.572E+02, 2.070E+02, 6.576E+01, 1.665E+02, 2.167E+02, 6.495E+01,-5.438E+01, 1.542E-01, 3.133E-02, 2.051E+02
 9.000E+02, 1.450E+02, 1.522E+02, 1.605E+02, 2.083E+02, 6.627E+01, 1.699E+02, 2.210E+02, 6.564E+01,-7.843E+01, 1.537E-01, 3.158E-02, 1.898E+02
 9.100E+02, 1.445E+02, 1.511E+02, 1.576E+02, 2.092E+02, 6.683E+01, 1.722E+02, 2.153E+02, 6.600E+01,-4.980E+01, 1.533E-01, 3.184E-02, 2.103E+02
 9.200E+02, 1.445E+02, 1.496E+02, 1.585E+02, 2.093E+02, 6.575E+01, 1.663E+02, 2.170E+02, 6.551E+01,-6.817E+01, 1.526E-01, 3.222E-02, 1.977E+02
 9.300E+02, 1.460E+02, 1.506E+02, 1.612E+02, 2.108E+02, 6.613E+01, 1.665E+02, 2.199E+02, 6.536E+01,-5.671E+01, 1.524E-01, 3.235E-02, 2.009E+02
 9.400E+02, 1.454E+02, 1.484E+02, 1.592E+02, 2.110E+02, 6.599E+01, 1.699E+02, 2.103E+02, 6.508E+01,-6.345E+01, 1.521E-01, 3.246E-02, 1.953E+02
 9.500E+02, 1.444E+02, 1.508E+02, 1.585E+02, 2.093E+02, 6.552E+01, 1.711E+02, 2.146E+02, 6.672E+01,-6.535E+01, 1.516E-01, 3.276E-02, 1.999E+02
 9.600E+02, 1.453E+02, 1.507E+02, 1.611E+02, 2.083E+02, 6.660E+01, 1.711E+02, 2.146E+02, 6.644E+01,-7.311E+01, 1.513E-01, 3.295E-02, 1.918E+02
 9.700E+02, 1.460E+02, 1.514E+02, 1.609E+02, 2.104E+02, 6.658E+01, 1.731E+02, 2.164E+02, 6.468E+01,-5.063E+01, 1.512E-01, 3.301E-02, 2.003E+02
 9.800E+02, 1.463E+02, 1.529E+02, 1.628E+02, 2.090E+02, 6.718E+01, 1.746E+02, 2.172E+02, 6.670E+01,-6.295E+01, 1.506E-01, 3.330E-02, 1.961E+02
 9.900E+02, 1.466E+02, 1.503E+02, 1.621E+02, 2.102E+02, 6.738E+01, 1.717E+02, 2.137E+02, 6.560E+01,-6.580E+01, 1.505E-01, 3.337E-02, 1.972E+02
 1.000E+03, 1.462E+02, 1.537E+02, 1.590E+02, 2.121E+02, 6.760E+01, 1.716E+02, 2.221E+02, 6.724E+01,-5.256E+01, 1.499E-01, 3.371E-02, 2.020E+02
 1.010E+03, 1.470E+02, 1.542E+02, 1.614E+02, 2.113E+02, 6.820E+01, 1.706E+02, 2.244E+02, 6.752E+01,-6.432E+01, 1.495E-01, 3.391E-02, 1.895E+02
 1.020E+03, 1.488E+02, 1.535E+02, 1.622E+02, 2.143E+02, 7.006E+01, 1.713E+02, 2.212E+02, 6.786E+01,-3.936E+01, 1.491E-01, 3.418E-02, 2.169E+02
 1.030E+03, 1.502E+02, 1.517E+02, 1.656E+02, 2.155E+02, 6.962E+01, 1.717E+02, 2.138E+02, 6.968E+01,-7.853E+01, 1.484E-01, 3.453E-02, 1.869E+02
 1.040E+03, 1.488E+02, 1.532E+02, 1.620E+02, 2.141E+02, 7.030E+01, 1.781E+02, 2.131E+02, 6.849E+01,-7.734E+01, 1.483E-01, 3.463E-02, 1.940E+02
 1.050E+03, 1.509E+02, 1.509E+02, 1.634E+02, 2.193E+02, 6.982E+01, 1.737E+02, 2.100E+02, 6.909E+01,-6.629E+01, 1.480E-01, 3.478E-02, 2.036E+02
 1.060E+03, 1.482E+02, 1.526E+02, 1.664E+02, 2.089E+02, 6.936E+01, 1.767E+02, 2.123E+02, 6.873E+01,-6.046E+01, 1.478E-01, 3.492E-02, 2.007E+02
 1.070E+03, 1.496E+02, 1.524E+02, 1.643E+02, 2.147E+02, 6.984E+01, 1.723E+02, 2.175E+02, 6.725E+01,-6.160E+01, 1.477E-01, 3.494E-02, 1.986E+02
 1.080E+03, 1.472E+02, 1.531E+02, 1.612E+02, 2.104E+02, 7.014E+01, 1.729E+02, 2.181E+02, 6.847E+01,-7.392E+01, 1.473E-01, 3.517E-02, 1.937E+02
 1.090E+03, 1.485E+02, 1.551E+02, 1.642E+02, 2.115E+02, 6.981E+01, 1.782E+02, 2.176E+02, 6.948E+01,-5.817E+01, 1.469E-01, 3.539E-02, 1.945E+02
 1.100E+03, 1.528E+02, 1.522E+02, 1.677E+02, 2.197E+02, 7.108E+01, 1.728E+02, 2.166E+02, 6.740E+01,-4.378E+01, 1.469E-01, 3.537E-02, 2.120E+02
 1.110E+03, 1.515E+02, 1.529E+02, 1.670E+02, 2.173E+02, 7.031E+01, 1.737E+02, 2.149E+02, 7.005E+01,-7.358E+01, 1.461E-01, 3.582E-02, 1.877E+02
 1.120E+03, 1.507E+02, 1.556E+02, 1.658E+02, 2.170E+02, 6.920E+01, 1.798E+02, 2.174E+02, 6.946E+01,-5.793E+01, 1.461E-01, 3.581E-02, 1.998E+02
 1.130E+03, 1.505E+02, 1.565E+02, 1.659E+02, 2.157E+02, 7.004E+01, 1.832E+02, 2.160E+02, 7.029E+01,-5.743E+01, 1.460E-01, 3.592E-02, 2.042E+02
 1.140E+03, 1.500E+02, 1.569E+02, 1.656E+02, 2.144E+02, 7.003E+01, 1.817E+02, 2.194E+02, 6.945E+01,-7.486E+01, 1.458E-01, 3.603E-02, 1.927E+02
 1.150E+03, 1.502E+02, 1.586E+02, 1.643E+02, 2.153E+02, 7.116E+01, 1.816E+02, 2.265E+02, 6.763E+01,-7.222E+01, 1.458E-01, 3.602E-02, 1.968E+02
 1.160E+03, 1.526E+02, 1.566E+02, 1.676E+02, 2.202E+02, 7.009E+01, 1.742E+02, 2.258E+02, 6.973E+01,-5.543E+01, 1.456E-01, 3.614E-02, 2.051E+02
 1.170E+03, 1.522E+02, 1.579E+02, 1.673E+02, 2.180E+02, 7.140E+01, 1.754E+02, 2.273E+02, 7.096E+01,-6.782E+01, 1.454E-01, 3.624E-02, 1.956E+02
 1.180E+03, 1.498E+02, 1.572E+02, 1.651E+02, 2.145E+02, 6.998E+01, 1.794E+02, 2.223E+02, 7.009E+01,-6.119E+01, 1.453E-01, 3.630E-02, 2.036E+02
 1.190E+03, 1.502E+02, 1.527E+02, 1.646E+02, 2.150E+02, 7.115E+01, 1.734E+02, 2.160E+02, 6.872E+01,-7.648E+01, 1.452E-01, 3.634E-02, 1.943E+02
 1.200E+03, 1.518E+02, 1.567E+02, 1.693E+02, 2.148E+02, 7.150E+01, 1.814E+02, 2.188E+02, 6.976E+01,-5.120E+01, 1.448E-01, 3.657E-02, 1.984E+02
 1.210E+03, 1.529E+02, 1.569E+02, 1.700E+02, 2.178E+02, 7.093E+01, 1.849E+02, 2.163E+02, 6.953E+01,-6.743E+01, 1.448E-01, 3.656E-02, 1.970E+02
 1.220E+03, 1.500E+02, 1.570E+02, 1.682E+02, 2.105E+02, 7.114E+01, 1.809E+02, 2.196E+02, 7.039E+01,-6.435E+01, 1.446E-01, 3.666E-02, 1.986E+02
 1.230E+03, 1.525E+02, 1.600E+02, 1.701E+02, 2.162E+02, 7.105E+01, 1.840E+02, 2.242E+02, 7.180E+01,-6.164E+01, 1.445E-01, 3.674E-02, 1.987E+02
 1.240E+03, 1.518E+02, 1.574E+02, 1.677E+02, 2.158E+02, 7.208E+01, 1.804E+02, 2.214E+02, 7.029E+01,-7.244E+01, 1.443E-01, 3.686E-02, 1.930E+02
 1.250E+03, 1.525E+02, 1.567E+02, 1.672E+02, 2.171E+02, 7.329E+01, 1.796E+02, 2.189E+02, 7.166E+01,-5.839E+01, 1.438E-01, 3.713E-02, 2.018E+02
 1.260E+03, 1.541E+02, 1.584E+02, 1.689E+02, 2.202E+02, 7.325E+01, 1.800E+02, 2.229E+02, 7.245E+01,-5.957E+01, 1.441E-01, 3.698E-02, 2.045E+02
 1.270E+03, 1.547E+02, 1.571E+02, 1.712E+02, 2.191E+02, 7.373E+01, 1.775E+02, 2.219E+02, 7.205E+01,-5.740E+01, 1.437E-01, 3.720E-02, 1.997E+02
 1.280E+03, 1.566E+02, 1.560E+02, 1.732E+02, 2.227E+02, 7.374E+01, 1.793E+02, 2.152E+02, 7.363E+01,-6.198E+01, 1.432E-01, 3.745E-02, 1.972E+02
 1.290E+03, 1.555E+02, 1.594E+02, 1.712E+02, 2.217E+02, 7.357E+01, 1.835E+02, 2.225E+02, 7.215E+01,-7.538E+01, 1.434E-01, 3.735E-02, 1.950E+02
 1.300E+03, 1.542E+02, 1.585E+02, 1.675E+02, 2.215E+02, 7.365E+01, 1.836E+02, 2.196E+02, 7.212E+01,-7.045E+01, 1.432E-01, 3.744E-02, 1.962E+02
 1.310E+03, 1.544E+02, 1.585E+02, 1.673E+02, 2.216E+02, 7.435E+01, 1.793E+02, 2.231E+02, 7.309E+01,-7.618E+01, 1.430E-01, 3.755E-02, 1.932E+02
