s,C,C,C,C,C,C,C,C,Pa,mol/mol,mol/mol,kW
Time,"West_All_TCs","East_All_TCs","West_Bottom_TCs","West_Middle_TCs","West_Upper_TCs","East_Bottom_TCs","East_Middle_TCs","East_Upper_TCs","Pressure","O2","CO2","HRR"
-6.000E+01, 3.700E+01, 3.700E+01, 3.700E+01, 3.700E+01, 3.700E+01, 3.700E+01, 3.700E+01, 3.700E+01,-9.210E-06, 2.095E-01, 3.901E-04, 0.000E+00
-4.998E+01, 3.700E+01, 3.700E+01, 3.700E+01, 3.700E+01, 3.700E+01, 3.700E+01, 3.700E+01, 3.700E+01,-5.482E-03, 2.095E-01, 3.901E-04, 0.000E+00
-3.996E+01, 3.700E+01, 3.700E+01, 3.700E+01, 3.700E+01, 3.700E+01, 3.700E+01, 3.700E+01, 3.700E+01,-5.185E-03, 2.095E-01, 3.901E-04, 0.000E+00
-2.994E+01, 3.700E+01, 3.700E+01, 3.700E+01, 3.700E+01, 3.700E+01, 3.700E+01, 3.700E+01, 3.700E+01,-5.369E-03, 2.095E-01, 3.901E-04, 0.000E+00
-1.992E+01, 3.700E+01, 3.700E+01, 3.700E+01, 3.700E+01, 3.700E+01, 3.700E+01, 3.700E+01, 3.700E+01,-5.433E-03, 2.095E-01, 3.901E-04, 0.000E+00
-9.896E+00, 3.700E+01, 3.700E+01, 3.700E+01, 3.700E+01, 3.700E+01, 3.700E+01, 3.700E+01, 3.700E+01,-5.296E-03, 2.095E-01, 3.901E-04, 0.000E+00
 1.301E-02, 3.700E+01, 3.700E+01, 3.700E+01, 3.700E+01, 3.700E+01, 3.700E+01, 3.700E+01, 3.700E+01,-5.353E-03, 2.095E-01, 3.901E-04, 1.759E-04
 1.002E+01, 3.816E+01, 3.849E+01, 3.738E+01, 4.008E+01, 3.701E+01, 3.762E+01, 4.083E+01, 3.701E+01, 1.461E+01, 2.095E-01, 3.901E-04, 3.236E+01
 2.002E+01, 4.361E+01, 4.390E+01, 3.924E+01, 5.449E+01, 3.711E+01, 3.933E+01, 5.531E+01, 3.705E+01, 8.168E+01, 2.095E-01, 3.901E-04, 9.874E+01
 3.000E+01, 5.236E+01, 5.264E+01, 4.120E+01, 7.825E+01, 3.764E+01, 4.199E+01, 7.884E+01, 3.710E+01, 1.735E+02, 2.095E-01, 3.901E-04, 1.648E+02
 4.000E+01, 6.332E+01, 6.495E+01, 4.490E+01, 1.072E+02, 3.787E+01, 4.716E+01, 1.106E+02, 3.710E+01, 1.964E+02, 2.095E-01, 3.916E-04, 1.997E+02
 5.000E+01, 7.482E+01, 7.523E+01, 5.186E+01, 1.342E+02, 3.842E+01, 5.370E+01, 1.346E+02, 3.740E+01, 1.358E+02, 2.094E-01, 4.461E-04, 2.015E+02
 6.001E+01, 8.302E+01, 8.626E+01, 5.995E+01, 1.502E+02, 3.896E+01, 6.166E+01, 1.586E+02, 3.851E+01, 9.371E+01, 2.092E-01, 5.871E-04, 2.004E+02
 7.001E+01, 8.913E+01, 9.289E+01, 6.824E+01, 1.604E+02, 3.874E+01, 7.006E+01, 1.696E+02, 3.901E+01, 6.533E+01, 2.090E-01, 6.700E-04, 2.001E+02
 8.000E+01, 9.615E+01, 9.791E+01, 7.654E+01, 1.729E+02, 3.897E+01, 7.829E+01, 1.761E+02, 3.935E+01, 4.756E+01, 2.089E-01, 7.385E-04, 2.007E+02
 9.002E+01, 1.012E+02, 1.036E+02, 8.273E+01, 1.815E+02, 3.943E+01, 8.435E+01, 1.871E+02, 3.925E+01, 3.652E+01, 2.089E-01, 7.687E-04, 1.997E+02
 1.000E+02, 1.051E+02, 1.072E+02, 8.843E+01, 1.863E+02, 4.051E+01, 9.119E+01, 1.911E+02, 3.941E+01, 2.924E+01, 2.088E-01, 8.330E-04, 1.988E+02
 1.100E+02, 1.073E+02, 1.110E+02, 9.379E+01, 1.878E+02, 4.041E+01, 9.556E+01, 1.975E+02, 4.003E+01, 2.584E+01, 2.084E-01, 1.006E-03, 2.013E+02
 1.200E+02, 1.106E+02, 1.144E+02, 9.883E+01, 1.928E+02, 4.028E+01, 9.949E+01, 2.034E+02, 4.047E+01, 2.222E+01, 2.081E-01, 1.180E-03, 1.984E+02
 1.300E+02, 1.138E+02, 1.147E+02, 1.014E+02, 1.990E+02, 4.090E+01, 1.039E+02, 1.999E+02, 4.024E+01, 1.982E+01, 2.081E-01, 1.209E-03, 2.003E+02
 1.400E+02, 1.168E+02, 1.162E+02, 1.054E+02, 2.036E+02, 4.130E+01, 1.063E+02, 2.020E+02, 4.025E+01, 1.889E+01, 2.080E-01, 1.249E-03, 1.996E+02
 1.500E+02, 1.186E+02, 1.182E+02, 1.079E+02, 2.062E+02, 4.164E+01, 1.101E+02, 2.036E+02, 4.085E+01, 1.786E+01, 2.076E-01, 1.492E-03, 1.993E+02
 1.600E+02, 1.180E+02, 1.208E+02, 1.109E+02, 2.014E+02, 4.162E+01, 1.122E+02, 2.094E+02, 4.083E+01, 1.658E+01, 2.074E-01, 1.578E-03, 2.006E+02
 1.700E+02, 1.206E+02, 1.213E+02, 1.129E+02, 2.072E+02, 4.173E+01, 1.141E+02, 2.091E+02, 4.079E+01, 1.488E+01, 2.072E-01, 1.690E-03, 1.994E+02
 1.800E+02, 1.227E+02, 1.228E+02, 1.159E+02, 2.106E+02, 4.171E+01, 1.172E+02, 2.105E+02, 4.081E+01, 1.552E+01, 2.070E-01, 1.796E-03, 2.001E+02
 1.900E+02, 1.242E+02, 1.236E+02, 1.175E+02, 2.131E+02, 4.189E+01, 1.196E+02, 2.101E+02, 4.103E+01, 1.462E+01, 2.066E-01, 2.016E-03, 1.993E+02
 2.000E+02, 1.252E+02, 1.242E+02, 1.198E+02, 2.136E+02, 4.209E+01, 1.211E+02, 2.106E+02, 4.104E+01, 1.475E+01, 2.064E-01, 2.124E-03, 2.004E+02
 2.100E+02, 1.259E+02, 1.267E+02, 1.233E+02, 2.126E+02, 4.185E+01, 1.227E+02, 2.161E+02, 4.120E+01, 1.418E+01, 2.063E-01, 2.200E-03, 1.998E+02
 2.200E+02, 1.269E+02, 1.294E+02, 1.252E+02, 2.134E+02, 4.203E+01, 1.248E+02, 2.222E+02, 4.127E+01, 1.241E+01, 2.061E-01, 2.338E-03, 1.991E+02
 2.300E+02, 1.253E+02, 1.318E+02, 1.250E+02, 2.089E+02, 4.208E+01, 1.262E+02, 2.278E+02, 4.140E+01, 1.253E+01, 2.058E-01, 2.496E-03, 1.987E+02
 2.400E+02, 1.276E+02, 1.298E+02, 1.241E+02, 2.169E+02, 4.192E+01, 1.279E+02, 2.200E+02, 4.155E+01, 1.332E+01, 2.053E-01, 2.738E-03, 2.011E+02
 2.500E+02, 1.304E+02, 1.294E+02, 1.285E+02, 2.208E+02, 4.185E+01, 1.274E+02, 2.198E+02, 4.104E+01, 1.237E+01, 2.053E-01, 2.778E-03, 1.991E+02
 2.600E+02, 1.307E+02, 1.298E+02, 1.281E+02, 2.221E+02, 4.180E+01, 1.278E+02, 2.206E+02, 4.100E+01, 1.197E+01, 2.052E-01, 2.798E-03, 1.987E+02
 2.700E+02, 1.304E+02, 1.307E+02, 1.293E+02, 2.197E+02, 4.216E+01, 1.295E+02, 2.209E+02, 4.151E+01, 1.145E+01, 2.045E-01, 3.211E-03, 1.976E+02
 2.800E+02, 1.297E+02, 1.320E+02, 1.307E+02, 2.167E+02, 4.179E+01, 1.312E+02, 2.235E+02, 4.147E+01, 1.232E+01, 2.042E-01, 3.386E-03, 1.990E+02
 2.900E+02, 1.308E+02, 1.327E+02, 1.323E+02, 2.181E+02, 4.194E+01, 1.317E+02, 2.251E+02, 4.114E+01, 1.103E+01, 2.039E-01, 3.523E-03, 1.932E+02
 3.000E+02, 1.304E+02, 1.311E+02, 1.327E+02, 2.164E+02, 4.210E+01, 1.328E+02, 2.192E+02, 4.114E+01, 7.753E+00, 2.039E-01, 3.562E-03, 1.822E+02
 3.100E+02, 1.306E+02, 1.303E+02, 1.317E+02, 2.174E+02, 4.253E+01, 1.330E+02, 2.166E+02, 4.146E+01, 1.141E+01, 2.036E-01, 3.696E-03, 1.824E+02
 3.200E+02, 1.304E+02, 1.312E+02, 1.318E+02, 2.172E+02, 4.239E+01, 1.327E+02, 2.189E+02, 4.209E+01, 1.400E+01, 2.022E-01, 4.491E-03, 1.809E+02
 3.300E+02, 1.285E+02, 1.317E+02, 1.322E+02, 2.106E+02, 4.275E+01, 1.336E+02, 2.193E+02, 4.207E+01, 1.092E+01, 2.025E-01, 4.321E-03, 1.802E+02
 3.400E+02, 1.307E+02, 1.330E+02, 1.327E+02, 2.162E+02, 4.306E+01, 1.345E+02, 2.225E+02, 4.189E+01, 9.602E+00, 2.024E-01, 4.387E-03, 1.750E+02
 3.500E+02, 1.306E+02, 1.318E+02, 1.329E+02, 2.161E+02, 4.272E+01, 1.350E+02, 2.183E+02, 4.192E+01, 1.263E+01, 2.020E-01, 4.623E-03, 1.748E+02
 3.600E+02, 1.299E+02, 1.310E+02, 1.322E+02, 2.144E+02, 4.321E+01, 1.336E+02, 2.175E+02, 4.193E+01, 3.697E+00, 2.022E-01, 4.501E-03, 1.546E+02
 3.700E+02, 1.300E+02, 1.308E+02, 1.331E+02, 2.140E+02, 4.300E+01, 1.346E+02, 2.157E+02, 4.222E+01, 1.106E+01, 2.018E-01, 4.726E-03, 1.693E+02
 3.800E+02, 1.307E+02, 1.309E+02, 1.324E+02, 2.167E+02, 4.313E+01, 1.348E+02, 2.152E+02, 4.266E+01, 1.762E+01, 2.012E-01, 5.032E-03, 1.748E+02
 3.900E+02, 1.306E+02, 1.317E+02, 1.340E+02, 2.140E+02, 4.377E+01, 1.348E+02, 2.173E+02, 4.299E+01, 3.921E+00, 2.010E-01, 5.169E-03, 1.567E+02
 4.000E+02, 1.291E+02, 1.308E+02, 1.352E+02, 2.083E+02, 4.378E+01, 1.352E+02, 2.136E+02, 4.359E+01, 1.005E+01, 2.009E-01, 5.193E-03, 1.446E+02
 4.100E+02, 1.260E+02, 1.289E+02, 1.323E+02, 2.015E+02, 4.438E+01, 1.352E+02, 2.081E+02, 4.344E+01,-4.732E+00, 2.005E-01, 5.419E-03, 1.101E+02
 4.200E+02, 1.244E+02, 1.265E+02, 1.326E+02, 1.954E+02, 4.503E+01, 1.318E+02, 2.045E+02, 4.336E+01, 1.017E+01, 2.003E-01, 5.552E-03, 1.120E+02
 4.301E+02, 1.216E+02, 1.232E+02, 1.298E+02, 1.895E+02, 4.560E+01, 1.303E+02, 1.952E+02, 4.420E+01,-1.373E+01, 2.002E-01, 5.627E-03, 6.032E+01
 4.401E+02, 1.164E+02, 1.183E+02, 1.261E+02, 1.776E+02, 4.553E+01, 1.274E+02, 1.825E+02, 4.496E+01,-1.883E+01, 1.998E-01, 5.842E-03, 1.566E+01
 4.500E+02, 1.142E+02, 1.147E+02, 1.241E+02, 1.723E+02, 4.603E+01, 1.233E+02, 1.760E+02, 4.469E+01, 3.871E+00, 1.998E-01, 5.826E-03, 5.135E+01
 4.600E+02, 1.097E+02, 1.140E+02, 1.188E+02, 1.641E+02, 4.598E+01, 1.197E+02, 1.776E+02, 4.463E+01,-3.395E+00, 1.994E-01, 6.057E-03, 1.607E+01
 4.700E+02, 1.071E+02, 1.129E+02, 1.159E+02, 1.595E+02, 4.597E+01, 1.167E+02, 1.775E+02, 4.448E+01,-2.399E-01, 1.989E-01, 6.338E-03, 2.006E+01
 4.800E+02, 1.055E+02, 1.086E+02, 1.132E+02, 1.570E+02, 4.632E+01, 1.137E+02, 1.676E+02, 4.453E+01,-5.050E+00, 1.990E-01, 6.287E-03, 7.171E+00
 4.901E+02, 1.051E+02, 1.052E+02, 1.097E+02, 1.596E+02, 4.594E+01, 1.100E+02, 1.603E+02, 4.530E+01,-9.555E-01, 1.989E-01, 6.332E-03, 9.983E-01
 5.000E+02, 1.033E+02, 1.038E+02, 1.066E+02, 1.560E+02, 4.737E+01, 1.072E+02, 1.581E+02, 4.594E+01,-1.129E+00, 1.986E-01, 6.503E-03, 3.390E-02
 5.100E+02, 1.008E+02, 1.014E+02, 1.040E+02, 1.510E+02, 4.733E+01, 1.035E+02, 1.547E+02, 4.590E+01,-9.405E-01, 1.984E-01, 6.633E-03, 1.625E-02
 5.200E+02, 1.045E+02, 9.898E+01, 1.005E+02, 1.641E+02, 4.890E+01, 1.017E+02, 1.485E+02, 4.671E+01, 8.992E+00, 1.982E-01, 6.729E-03, 1.280E-02
 5.301E+02, 1.006E+02, 9.990E+01, 9.913E+01, 1.538E+02, 4.881E+01, 9.809E+01, 1.539E+02, 4.771E+01,-1.322E+00, 1.981E-01, 6.803E-03, 5.990E-08
 5.401E+02, 1.033E+02, 9.776E+01, 9.638E+01, 1.634E+02, 5.015E+01, 9.625E+01, 1.486E+02, 4.845E+01, 1.606E+01, 1.983E-01, 6.701E-03, 5.601E-07
 5.500E+02, 1.040E+02, 9.868E+01, 9.522E+01, 1.650E+02, 5.186E+01, 9.490E+01, 1.513E+02, 4.987E+01, 1.308E+01, 1.983E-01, 6.684E-03, 2.231E-07
 5.601E+02, 1.033E+02, 9.904E+01, 9.436E+01, 1.628E+02, 5.264E+01, 9.339E+01, 1.526E+02, 5.113E+01, 7.264E+00, 1.980E-01, 6.841E-03, 8.315E-07
 5.700E+02, 1.013E+02, 9.780E+01, 9.186E+01, 1.579E+02, 5.421E+01, 9.299E+01, 1.488E+02, 5.158E+01, 4.994E+00, 1.980E-01, 6.844E-03, 4.703E-06
 5.800E+02, 1.011E+02, 9.722E+01, 9.098E+01, 1.575E+02, 5.494E+01, 9.147E+01, 1.470E+02, 5.319E+01, 5.338E+00, 1.977E-01, 6.988E-03, 4.611E-02
 5.900E+02, 1.026E+02, 9.707E+01, 8.993E+01, 1.608E+02, 5.706E+01, 9.019E+01, 1.461E+02, 5.488E+01, 9.676E+00, 1.973E-01, 7.219E-03, 2.059E-02
 6.000E+02, 1.002E+02, 9.634E+01, 8.952E+01, 1.539E+02, 5.708E+01, 8.938E+01, 1.448E+02, 5.484E+01, 5.064E+00, 1.971E-01, 7.372E-03, 1.356E-05
 6.100E+02, 9.863E+01, 9.634E+01, 8.824E+01, 1.499E+02, 5.776E+01, 8.884E+01, 1.442E+02, 5.602E+01, 6.780E+00, 1.970E-01, 7.424E-03, 5.548E-06
 6.200E+02, 1.001E+02, 9.564E+01, 8.735E+01, 1.534E+02, 5.964E+01, 8.763E+01, 1.422E+02, 5.708E+01, 9.461E+00, 1.967E-01, 7.574E-03, 5.837E-06
 6.301E+02, 9.913E+01, 9.535E+01, 8.712E+01, 1.505E+02, 5.971E+01, 8.663E+01, 1.415E+02, 5.789E+01, 5.740E+00, 1.966E-01, 7.609E-03, 1.376E-06
 6.400E+02, 9.945E+01, 9.373E+01, 8.629E+01, 1.515E+02, 6.060E+01, 8.576E+01, 1.372E+02, 5.823E+01, 7.879E+00, 1.966E-01, 7.641E-03, 1.559E-06
 6.500E+02, 9.677E+01, 9.401E+01, 8.552E+01, 1.444E+02, 6.036E+01, 8.524E+01, 1.376E+02, 5.916E+01, 4.033E+00, 1.964E-01, 7.742E-03, 2.712E-07
 6.600E+02, 9.853E+01, 9.275E+01, 8.471E+01, 1.497E+02, 6.120E+01, 8.450E+01, 1.346E+02, 5.917E+01, 9.073E+00, 1.964E-01, 7.709E-03, 5.482E-06
 6.700E+02, 9.740E+01, 9.283E+01, 8.391E+01, 1.471E+02, 6.118E+01, 8.371E+01, 1.340E+02, 6.074E+01, 6.547E+00, 1.965E-01, 7.666E-03, 3.742E-06
 6.800E+02, 9.663E+01, 9.295E+01, 8.326E+01, 1.421E+02, 6.450E+01, 8.295E+01, 1.339E+02, 6.201E+01, 9.726E+00, 1.964E-01, 7.730E-03, 1.979E-05
 6.900E+02, 9.653E+01, 9.252E+01, 8.235E+01, 1.423E+02, 6.495E+01, 8.226E+01, 1.321E+02, 6.324E+01, 5.254E+00, 1.964E-01, 7.760E-03, 9.272E-06
 7.000E+02, 9.607E+01, 9.160E+01, 8.205E+01, 1.380E+02, 6.814E+01, 8.130E+01, 1.292E+02, 6.431E+01, 1.021E+01, 1.959E-01, 8.016E-03, 3.704E-05
 7.100E+02, 9.557E+01, 9.164E+01, 8.162E+01, 1.377E+02, 6.741E+01, 8.085E+01, 1.287E+02, 6.538E+01, 4.571E+00, 1.953E-01, 8.329E-03, 2.078E-05
 7.200E+02, 9.503E+01, 9.058E+01, 8.147E+01, 1.343E+02, 6.937E+01, 8.028E+01, 1.263E+02, 6.515E+01, 8.428E+00, 1.956E-01, 8.164E-03, 1.327E-05
 7.300E+02, 9.422E+01, 9.059E+01, 8.085E+01, 1.331E+02, 6.875E+01, 8.009E+01, 1.252E+02, 6.646E+01, 6.598E+00, 1.950E-01, 8.493E-03, 2.238E-05
 7.400E+02, 9.446E+01, 9.054E+01, 8.017E+01, 1.328E+02, 7.046E+01, 7.955E+01, 1.246E+02, 6.742E+01, 8.743E+00, 1.950E-01, 8.516E-03, 6.856E-05
 7.500E+02, 9.531E+01, 9.067E+01, 7.971E+01, 1.337E+02, 7.255E+01, 7.889E+01, 1.236E+02, 6.956E+01, 1.151E+01, 1.947E-01, 8.662E-03, 1.734E-04
 7.600E+02, 9.508E+01, 9.075E+01, 7.976E+01, 1.323E+02, 7.318E+01, 7.837E+01, 1.232E+02, 7.066E+01, 8.916E+00, 1.944E-01, 8.830E-03, 5.403E-05
 7.700E+02, 9.531E+01, 9.079E+01, 7.894E+01, 1.315E+02, 7.553E+01, 7.810E+01, 1.226E+02, 7.168E+01, 5.826E+00, 1.946E-01, 8.716E-03, 3.848E-06
 7.800E+02, 9.649E+01, 9.034E+01, 7.860E+01, 1.331E+02, 7.778E+01, 7.756E+01, 1.206E+02, 7.291E+01, 1.163E+01, 1.949E-01, 8.584E-03, 2.015E-04
 7.900E+02, 9.609E+01, 9.108E+01, 7.821E+01, 1.327E+02, 7.731E+01, 7.713E+01, 1.219E+02, 7.419E+01, 1.049E+01, 1.943E-01, 8.935E-03, 3.605E-05
 8.000E+02, 9.562E+01, 9.085E+01, 7.775E+01, 1.294E+02, 7.970E+01, 7.685E+01, 1.205E+02, 7.520E+01, 7.366E+00, 1.937E-01, 9.217E-03, 1.474E-04
 8.100E+02, 9.676E+01, 9.122E+01, 7.730E+01, 1.299E+02, 8.304E+01, 7.664E+01, 1.189E+02, 7.813E+01, 1.205E+01, 1.928E-01, 9.727E-03, 1.879E-04
 8.200E+02, 9.666E+01, 9.169E+01, 7.745E+01, 1.284E+02, 8.408E+01, 7.618E+01, 1.189E+02, 7.999E+01, 1.007E+01, 1.928E-01, 9.720E-03, 3.912E-04
 8.300E+02, 9.728E+01, 9.250E+01, 7.698E+01, 1.265E+02, 8.831E+01, 7.584E+01, 1.174E+02, 8.425E+01, 1.834E+01, 1.921E-01, 1.015E-02, 9.213E-04
 8.400E+02, 9.995E+01, 9.359E+01, 7.686E+01, 1.270E+02, 9.603E+01, 7.573E+01, 1.167E+02, 8.830E+01, 1.666E+01, 1.911E-01, 1.071E-02, 9.751E-04
 8.500E+02, 9.990E+01, 9.414E+01, 7.667E+01, 1.272E+02, 9.581E+01, 7.524E+01, 1.167E+02, 9.044E+01, 1.878E+01, 1.895E-01, 1.158E-02, 1.364E-03
 8.600E+02, 9.994E+01, 9.455E+01, 7.603E+01, 1.268E+02, 9.694E+01, 7.505E+01, 1.162E+02, 9.237E+01, 8.629E+00, 1.893E-01, 1.170E-02, 1.286E-04
 8.700E+02, 1.007E+02, 9.495E+01, 7.569E+01, 1.239E+02, 1.026E+02, 7.483E+01, 1.147E+02, 9.536E+01, 1.907E+01, 1.887E-01, 1.206E-02, 1.946E-03
 8.800E+02, 1.012E+02, 9.613E+01, 7.540E+01, 1.244E+02, 1.037E+02, 7.442E+01, 1.141E+02, 9.987E+01, 1.925E+01, 1.870E-01, 1.296E-02, 2.171E-03
 8.900E+02, 1.029E+02, 9.654E+01, 7.526E+01, 1.233E+02, 1.101E+02, 7.362E+01, 1.141E+02, 1.019E+02, 2.092E+01, 1.872E-01, 1.287E-02, 3.690E-03
 9.000E+02, 1.033E+02, 9.686E+01, 7.472E+01, 1.231E+02, 1.120E+02, 7.359E+01, 1.142E+02, 1.028E+02, 1.704E+01, 1.859E-01, 1.360E-02, 6.360E-03
 9.100E+02, 1.040E+02, 9.871E+01, 7.435E+01, 1.220E+02, 1.157E+02, 7.304E+01, 1.140E+02, 1.091E+02, 3.058E+01, 1.845E-01, 1.441E-02, 4.762E-03
 9.200E+02, 1.055E+02, 9.963E+01, 7.424E+01, 1.220E+02, 1.204E+02, 7.261E+01, 1.149E+02, 1.114E+02, 2.099E+01, 1.842E-01, 1.455E-02, 1.291E-02
 9.300E+02, 1.067E+02, 1.006E+02, 7.377E+01, 1.210E+02, 1.252E+02, 7.255E+01, 1.133E+02, 1.160E+02, 2.925E+01, 1.832E-01, 1.509E-02, 8.866E-03
 9.400E+02, 1.074E+02, 1.017E+02, 7.348E+01, 1.194E+02, 1.293E+02, 7.220E+01, 1.130E+02, 1.199E+02, 3.446E+01, 1.820E-01, 1.581E-02, 2.431E-02
 9.500E+02, 1.104E+02, 1.031E+02, 7.341E+01, 1.189E+02, 1.389E+02, 7.171E+01, 1.126E+02, 1.250E+02, 3.653E+01, 1.807E-01, 1.652E-02, 1.998E-02
 9.600E+02, 1.105E+02, 1.041E+02, 7.282E+01, 1.185E+02, 1.401E+02, 7.143E+01, 1.133E+02, 1.277E+02, 2.242E+01, 1.787E-01, 1.762E-02, 2.385E-02
 9.700E+02, 1.128E+02, 1.054E+02, 7.264E+01, 1.209E+02, 1.447E+02, 7.096E+01, 1.128E+02, 1.325E+02, 3.375E+01, 1.773E-01, 1.840E-02, 9.771E-02
 9.800E+02, 1.147E+02, 1.068E+02, 7.249E+01, 1.181E+02, 1.537E+02, 7.079E+01, 1.130E+02, 1.366E+02, 3.919E+01, 1.760E-01, 1.912E-02, 2.242E-01
 9.900E+02, 1.153E+02, 1.082E+02, 7.201E+01, 1.191E+02, 1.547E+02, 7.103E+01, 1.132E+02, 1.403E+02, 4.206E+01, 1.744E-01, 2.005E-02, 2.749E-01
 1.000E+03, 1.163E+02, 1.093E+02, 7.211E+01, 1.179E+02, 1.589E+02, 7.033E+01, 1.150E+02, 1.427E+02, 2.875E+01, 1.723E-01, 2.119E-02, 1.166E-01
 1.010E+03, 1.169E+02, 1.096E+02, 7.201E+01, 1.178E+02, 1.610E+02, 7.024E+01, 1.143E+02, 1.441E+02, 3.490E+01, 1.703E-01, 2.230E-02, 6.652E-02
 1.020E+03, 1.195E+02, 1.114E+02, 7.192E+01, 1.189E+02, 1.677E+02, 7.012E+01, 1.159E+02, 1.482E+02, 4.081E+01, 1.701E-01, 2.245E-02, 1.026E-01
 1.030E+03, 1.230E+02, 1.132E+02, 7.195E+01, 1.189E+02, 1.782E+02, 7.013E+01, 1.159E+02, 1.535E+02, 4.556E+01, 1.700E-01, 2.247E-02, 2.531E-01
 1.040E+03, 1.204E+02, 1.138E+02, 7.184E+01, 1.183E+02, 1.712E+02, 7.033E+01, 1.139E+02, 1.571E+02, 2.984E+01, 1.679E-01, 2.364E-02, 4.017E-02
 1.050E+03, 1.263E+02, 1.163E+02, 7.200E+01, 1.234E+02, 1.836E+02, 7.031E+01, 1.173E+02, 1.613E+02, 5.194E+01, 1.668E-01, 2.430E-02, 6.076E-01
 1.060E+03, 1.251E+02, 1.172E+02, 7.228E+01, 1.224E+02, 1.806E+02, 7.027E+01, 1.196E+02, 1.619E+02, 2.731E+01, 1.670E-01, 2.419E-02, 6.424E-02
 1.070E+03, 1.277E+02, 1.184E+02, 7.241E+01, 1.217E+02, 1.891E+02, 7.035E+01, 1.188E+02, 1.660E+02, 2.596E+01, 1.649E-01, 2.536E-02, 1.985E-01
 1.080E+03, 1.258E+02, 1.184E+02, 7.261E+01, 1.213E+02, 1.835E+02, 6.994E+01, 1.174E+02, 1.679E+02, 3.357E+01, 1.623E-01, 2.680E-02, 7.564E-02
 1.090E+03, 1.308E+02, 1.201E+02, 7.249E+01, 1.264E+02, 1.935E+02, 7.039E+01, 1.189E+02, 1.709E+02, 4.910E+01, 1.612E-01, 2.743E-02, 2.743E+00
 1.100E+03, 1.364E+02, 1.242E+02, 7.244E+01, 1.319E+02, 2.050E+02, 7.071E+01, 1.246E+02, 1.774E+02, 6.671E+01, 1.575E-01, 2.944E-02, 3.346E+00
 1.110E+03, 1.381E+02, 1.258E+02, 7.280E+01, 1.407E+02, 2.006E+02, 7.067E+01, 1.271E+02, 1.794E+02, 5.492E+01, 1.554E-01, 3.063E-02, 2.641E+00
 1.120E+03, 1.370E+02, 1.258E+02, 7.329E+01, 1.337E+02, 2.039E+02, 7.060E+01, 1.287E+02, 1.781E+02, 3.522E+01, 1.545E-01, 3.114E-02, 4.675E-01
 1.130E+03, 1.353E+02, 1.289E+02, 7.346E+01, 1.303E+02, 2.022E+02, 7.073E+01, 1.318E+02, 1.842E+02, 1.983E+01, 1.522E-01, 3.245E-02, 3.436E+00
 1.140E+03, 1.331E+02, 1.293E+02, 7.341E+01, 1.302E+02, 1.958E+02, 7.173E+01, 1.374E+02, 1.789E+02, 3.418E+01, 1.509E-01, 3.317E-02, 1.026E+00
 1.150E+03, 1.350E+02, 1.294E+02, 7.370E+01, 1.313E+02, 2.000E+02, 7.196E+01, 1.330E+02, 1.833E+02, 2.136E+01, 1.509E-01, 3.315E-02, 4.843E+00
 1.160E+03, 1.389E+02, 1.299E+02, 7.405E+01, 1.452E+02, 1.974E+02, 7.227E+01, 1.367E+02, 1.807E+02, 6.061E+01, 1.470E-01, 3.532E-02, 2.629E+00
 1.170E+03, 1.394E+02, 1.343E+02, 7.474E+01, 1.335E+02, 2.099E+02, 7.218E+01, 1.494E+02, 1.814E+02, 4.701E+01, 1.431E-01, 3.749E-02, 4.102E+00
 1.180E+03, 1.386E+02, 1.323E+02, 7.436E+01, 1.418E+02, 1.996E+02, 7.348E+01, 1.370E+02, 1.864E+02, 3.941E+01, 1.420E-01, 3.814E-02, 6.582E-01
 1.190E+03, 1.421E+02, 1.338E+02, 7.528E+01, 1.406E+02, 2.105E+02, 7.334E+01, 1.391E+02, 1.888E+02, 2.694E+01, 1.387E-01, 3.996E-02, 5.114E+00
 1.200E+03, 1.398E+02, 1.336E+02, 7.460E+01, 1.365E+02, 2.084E+02, 7.459E+01, 1.394E+02, 1.867E+02, 3.278E+01, 1.370E-01, 4.092E-02, 1.194E+00
 1.210E+03, 1.386E+02, 1.317E+02, 7.540E+01, 1.343E+02, 2.060E+02, 7.421E+01, 1.351E+02, 1.857E+02, 1.659E+01, 1.348E-01, 4.216E-02, 1.622E+00
 1.220E+03, 1.382E+02, 1.312E+02, 7.586E+01, 1.348E+02, 2.041E+02, 7.466E+01, 1.328E+02, 1.861E+02, 1.849E+01, 1.342E-01, 4.247E-02, 1.886E+00
 1.230E+03, 1.355E+02, 1.320E+02, 7.626E+01, 1.313E+02, 1.990E+02, 7.491E+01, 1.386E+02, 1.824E+02, 1.036E+01, 1.328E-01, 4.325E-02, 3.331E+00
 1.240E+03, 1.317E+02, 1.303E+02, 7.619E+01, 1.275E+02, 1.914E+02, 7.564E+01, 1.402E+02, 1.749E+02, 9.460E+00, 1.307E-01, 4.432E-02, 1.070E+00
 1.250E+03, 1.335E+02, 1.265E+02, 7.581E+01, 1.286E+02, 1.962E+02, 7.569E+01, 1.328E+02, 1.710E+02, 1.435E+01, 1.292E-01, 4.500E-02, 3.896E+00
 1.260E+03, 1.307E+02, 1.271E+02, 7.581E+01, 1.291E+02, 1.873E+02, 7.564E+01, 1.338E+02, 1.719E+02, 1.740E+01, 1.298E-01, 4.472E-02, 3.017E+00
 1.270E+03, 1.236E+02, 1.305E+02, 7.596E+01, 1.261E+02, 1.687E+02, 7.592E+01, 1.517E+02, 1.639E+02,-1.830E+00, 1.287E-01, 4.515E-02, 7.911E-01
 1.280E+03, 1.201E+02, 1.286E+02, 7.566E+01, 1.284E+02, 1.561E+02, 7.663E+01, 1.591E+02, 1.501E+02,-4.266E+00, 1.295E-01, 4.473E-02, 2.971E-01
 1.290E+03, 1.161E+02, 1.296E+02, 7.645E+01, 1.295E+02, 1.423E+02, 7.676E+01, 1.719E+02, 1.400E+02,-7.719E+00, 1.277E-01, 4.540E-02, 2.344E-01
 1.300E+03, 1.132E+02, 1.227E+02, 7.609E+01, 1.320E+02, 1.314E+02, 7.751E+01, 1.615E+02, 1.291E+02,-3.467E+00, 1.259E-01, 4.605E-02, 3.228E-02
 1.310E+03, 1.108E+02, 1.202E+02, 7.626E+01, 1.317E+02, 1.246E+02, 7.766E+01, 1.648E+02, 1.183E+02,-5.004E+00, 1.243E-01, 4.675E-02, 1.645E-02
