s,C,C,C,C,C,C,C,C,Pa,mol/mol,mol/mol,kW
Time,"West_All_TCs","East_All_TCs","West_Bottom_TCs","West_Middle_TCs","West_Upper_TCs","East_Bottom_TCs","East_Middle_TCs","East_Upper_TCs","Pressure","O2","CO2","HRR"
-6.000E+01, 3.400E+01, 3.400E+01, 3.400E+01, 3.400E+01, 3.400E+01, 3.400E+01, 3.400E+01, 3.400E+01,-9.314E-06, 2.095E-01, 3.901E-04, 0.000E+00
-4.999E+01, 3.400E+01, 3.400E+01, 3.400E+01, 3.400E+01, 3.400E+01, 3.400E+01, 3.401E+01, 3.400E+01,-5.436E-03, 2.095E-01, 3.901E-04, 0.000E+00
-3.999E+01, 3.400E+01, 3.400E+01, 3.400E+01, 3.400E+01, 3.400E+01, 3.400E+01, 3.401E+01, 3.400E+01,-5.334E-03, 2.095E-01, 3.901E-04, 0.000E+00
-2.998E+01, 3.400E+01, 3.400E+01, 3.400E+01, 3.400E+01, 3.400E+01, 3.400E+01, 3.400E+01, 3.400E+01,-5.373E-03, 2.095E-01, 3.901E-04, 0.000E+00
-1.997E+01, 3.400E+01, 3.400E+01, 3.400E+01, 3.400E+01, 3.400E+01, 3.400E+01, 3.400E+01, 3.400E+01,-5.386E-03, 2.095E-01, 3.901E-04, 0.000E+00
-9.967E+00, 3.400E+01, 3.400E+01, 3.400E+01, 3.400E+01, 3.400E+01, 3.400E+01, 3.400E+01, 3.400E+01,-5.329E-03, 2.095E-01, 3.901E-04, 0.000E+00
 3.957E-02, 3.400E+01, 3.400E+01, 3.400E+01, 3.400E+01, 3.400E+01, 3.400E+01, 3.400E+01, 3.400E+01,-5.375E-03, 2.095E-01, 3.901E-04, 7.017E-04
 1.004E+01, 3.497E+01, 3.531E+01, 3.415E+01, 3.658E+01, 3.419E+01, 3.417E+01, 3.751E+01, 3.426E+01, 1.552E+01, 2.095E-01, 3.901E-04, 3.327E+01
 2.003E+01, 4.040E+01, 4.113E+01, 3.504E+01, 5.103E+01, 3.512E+01, 3.482E+01, 5.345E+01, 3.512E+01, 8.065E+01, 2.095E-01, 3.901E-04, 9.919E+01
 3.000E+01, 4.945E+01, 5.115E+01, 3.572E+01, 7.688E+01, 3.575E+01, 3.588E+01, 8.239E+01, 3.518E+01, 1.606E+02, 2.095E-01, 3.901E-04, 1.661E+02
 4.003E+01, 6.194E+01, 6.302E+01, 3.708E+01, 1.124E+02, 3.632E+01, 3.731E+01, 1.165E+02, 3.531E+01, 1.618E+02, 2.095E-01, 3.901E-04, 1.994E+02
 5.000E+01, 7.382E+01, 7.345E+01, 3.869E+01, 1.456E+02, 3.719E+01, 3.916E+01, 1.451E+02, 3.605E+01, 9.658E+01, 2.093E-01, 5.025E-04, 1.993E+02
 6.002E+01, 8.192E+01, 8.063E+01, 4.100E+01, 1.667E+02, 3.808E+01, 4.114E+01, 1.637E+02, 3.707E+01, 6.297E+01, 2.090E-01, 6.771E-04, 1.999E+02
 7.001E+01, 8.720E+01, 8.671E+01, 4.331E+01, 1.802E+02, 3.808E+01, 4.352E+01, 1.787E+02, 3.793E+01, 4.521E+01, 2.089E-01, 7.553E-04, 1.993E+02
 8.001E+01, 9.167E+01, 9.044E+01, 4.600E+01, 1.901E+02, 3.884E+01, 4.591E+01, 1.869E+02, 3.846E+01, 3.494E+01, 2.088E-01, 8.192E-04, 1.991E+02
 9.000E+01, 9.514E+01, 9.301E+01, 4.876E+01, 1.969E+02, 3.975E+01, 4.830E+01, 1.915E+02, 3.918E+01, 3.040E+01, 2.087E-01, 8.827E-04, 1.991E+02
 1.000E+02, 9.706E+01, 9.649E+01, 5.134E+01, 1.990E+02, 4.086E+01, 5.152E+01, 1.982E+02, 3.973E+01, 2.732E+01, 2.084E-01, 1.011E-03, 1.990E+02
 1.100E+02, 9.843E+01, 1.001E+02, 5.398E+01, 1.995E+02, 4.178E+01, 5.466E+01, 2.050E+02, 4.059E+01, 2.482E+01, 2.079E-01, 1.321E-03, 1.988E+02
 1.200E+02, 1.010E+02, 1.027E+02, 5.659E+01, 2.045E+02, 4.192E+01, 5.748E+01, 2.093E+02, 4.123E+01, 2.226E+01, 2.076E-01, 1.487E-03, 1.989E+02
 1.300E+02, 1.037E+02, 1.057E+02, 5.939E+01, 2.099E+02, 4.176E+01, 6.012E+01, 2.152E+02, 4.186E+01, 2.178E+01, 2.074E-01, 1.585E-03, 1.999E+02
 1.400E+02, 1.041E+02, 1.060E+02, 6.209E+01, 2.081E+02, 4.206E+01, 6.265E+01, 2.133E+02, 4.190E+01, 1.953E+01, 2.072E-01, 1.721E-03, 1.989E+02
 1.500E+02, 1.076E+02, 1.083E+02, 6.497E+01, 2.147E+02, 4.327E+01, 6.470E+01, 2.181E+02, 4.217E+01, 2.030E+01, 2.070E-01, 1.828E-03, 1.998E+02
 1.600E+02, 1.078E+02, 1.094E+02, 6.713E+01, 2.123E+02, 4.407E+01, 6.759E+01, 2.181E+02, 4.265E+01, 1.939E+01, 2.065E-01, 2.078E-03, 1.996E+02
 1.700E+02, 1.109E+02, 1.127E+02, 6.975E+01, 2.189E+02, 4.386E+01, 6.990E+01, 2.247E+02, 4.343E+01, 1.885E+01, 2.057E-01, 2.549E-03, 1.996E+02
 1.800E+02, 1.120E+02, 1.160E+02, 7.204E+01, 2.202E+02, 4.375E+01, 7.251E+01, 2.314E+02, 4.399E+01, 1.859E+01, 2.055E-01, 2.651E-03, 1.997E+02
 1.900E+02, 1.135E+02, 1.154E+02, 7.454E+01, 2.213E+02, 4.458E+01, 7.460E+01, 2.278E+02, 4.370E+01, 1.797E+01, 2.055E-01, 2.668E-03, 1.990E+02
 2.000E+02, 1.146E+02, 1.157E+02, 7.661E+01, 2.227E+02, 4.432E+01, 7.665E+01, 2.266E+02, 4.380E+01, 1.750E+01, 2.049E-01, 2.990E-03, 1.984E+02
 2.100E+02, 1.165E+02, 1.164E+02, 7.865E+01, 2.262E+02, 4.481E+01, 7.857E+01, 2.267E+02, 4.401E+01, 1.762E+01, 2.045E-01, 3.186E-03, 1.995E+02
 2.200E+02, 1.163E+02, 1.163E+02, 8.066E+01, 2.235E+02, 4.463E+01, 8.079E+01, 2.234E+02, 4.458E+01, 1.595E+01, 2.043E-01, 3.339E-03, 1.954E+02
 2.300E+02, 1.162E+02, 1.153E+02, 8.259E+01, 2.212E+02, 4.477E+01, 8.219E+01, 2.191E+02, 4.446E+01, 6.886E+00, 2.038E-01, 3.576E-03, 1.641E+02
 2.400E+02, 1.148E+02, 1.145E+02, 8.355E+01, 2.140E+02, 4.673E+01, 8.411E+01, 2.145E+02, 4.493E+01, 1.522E+01, 2.032E-01, 3.916E-03, 1.696E+02
 2.500E+02, 1.132E+02, 1.127E+02, 8.513E+01, 2.073E+02, 4.724E+01, 8.535E+01, 2.070E+02, 4.565E+01,-1.427E+01, 2.023E-01, 4.411E-03, 1.024E+02
 2.600E+02, 1.135E+02, 1.149E+02, 8.607E+01, 2.079E+02, 4.655E+01, 8.590E+01, 2.127E+02, 4.599E+01, 4.207E+01, 2.017E-01, 4.783E-03, 1.727E+02
 2.700E+02, 1.142E+02, 1.146E+02, 8.756E+01, 2.073E+02, 4.787E+01, 8.704E+01, 2.101E+02, 4.667E+01, 1.396E+01, 2.011E-01, 5.102E-03, 1.226E+02
 2.800E+02, 1.144E+02, 1.180E+02, 8.960E+01, 2.052E+02, 4.853E+01, 8.968E+01, 2.174E+02, 4.696E+01, 1.091E+01, 2.000E-01, 5.720E-03, 1.140E+02
 2.900E+02, 1.177E+02, 1.198E+02, 9.275E+01, 2.112E+02, 4.909E+01, 9.291E+01, 2.195E+02, 4.709E+01, 3.879E+01, 1.998E-01, 5.808E-03, 1.222E+02
 3.000E+02, 1.133E+02, 1.144E+02, 9.396E+01, 1.979E+02, 4.821E+01, 9.422E+01, 2.011E+02, 4.804E+01,-7.962E+00, 1.988E-01, 6.390E-03, 2.632E+01
 3.100E+02, 1.196E+02, 1.199E+02, 9.819E+01, 2.128E+02, 4.775E+01, 1.006E+02, 2.109E+02, 4.810E+01, 1.130E+02, 1.986E-01, 6.523E-03, 9.998E+01
 3.200E+02, 1.257E+02, 1.280E+02, 1.038E+02, 2.242E+02, 4.901E+01, 9.898E+01, 2.367E+02, 4.823E+01, 2.174E+02, 1.983E-01, 6.648E-03, 1.542E+02
 3.300E+02, 1.380E+02, 1.399E+02, 1.131E+02, 2.521E+02, 4.894E+01, 1.116E+02, 2.599E+02, 4.822E+01, 1.653E+02, 1.977E-01, 7.029E-03, 2.038E+02
 3.400E+02, 1.309E+02, 1.307E+02, 1.106E+02, 2.341E+02, 4.806E+01, 1.082E+02, 2.362E+02, 4.762E+01,-1.705E+01, 1.970E-01, 7.408E-03, 1.258E+02
 3.500E+02, 1.280E+02, 1.249E+02, 1.111E+02, 2.237E+02, 4.913E+01, 1.097E+02, 2.180E+02, 4.708E+01,-1.768E+01, 1.968E-01, 7.536E-03, 9.582E+01
 3.600E+02, 1.303E+02, 1.333E+02, 1.116E+02, 2.314E+02, 4.785E+01, 1.119E+02, 2.400E+02, 4.815E+01, 3.411E+01, 1.959E-01, 8.010E-03, 1.849E+02
 3.700E+02, 1.244E+02, 1.236E+02, 1.107E+02, 2.136E+02, 4.902E+01, 1.121E+02, 2.103E+02, 4.827E+01,-1.328E+01, 1.953E-01, 8.328E-03, 6.903E+01
 3.800E+02, 1.242E+02, 1.227E+02, 1.128E+02, 2.121E+02, 4.787E+01, 1.118E+02, 2.092E+02, 4.730E+01, 1.532E+01, 1.943E-01, 8.927E-03, 8.459E+01
 3.900E+02, 1.310E+02, 1.225E+02, 1.164E+02, 2.276E+02, 4.904E+01, 1.159E+02, 2.038E+02, 4.771E+01, 2.213E+01, 1.941E-01, 8.992E-03, 1.984E+01
 4.000E+02, 1.279E+02, 1.284E+02, 1.227E+02, 2.113E+02, 4.960E+01, 1.241E+02, 2.128E+02, 4.836E+01, 6.090E+01, 1.936E-01, 9.313E-03, 4.997E+01
 4.100E+02, 1.553E+02, 1.599E+02, 1.366E+02, 2.778E+02, 5.163E+01, 1.373E+02, 2.926E+02, 4.972E+01, 6.607E+02, 1.935E-01, 9.342E-03, 3.554E+02
 4.200E+02, 1.435E+02, 1.483E+02, 1.343E+02, 2.458E+02, 5.037E+01, 1.358E+02, 2.585E+02, 5.066E+01,-5.787E+01, 1.928E-01, 9.760E-03, 1.488E+02
 4.300E+02, 1.417E+02, 1.429E+02, 1.315E+02, 2.418E+02, 5.181E+01, 1.310E+02, 2.473E+02, 5.021E+01, 8.783E-01, 1.924E-01, 9.957E-03, 1.792E+02
 4.400E+02, 1.383E+02, 1.389E+02, 1.284E+02, 2.340E+02, 5.244E+01, 1.300E+02, 2.365E+02, 5.023E+01, 4.545E+00, 1.917E-01, 1.038E-02, 1.670E+02
 4.500E+02, 1.332E+02, 1.333E+02, 1.261E+02, 2.219E+02, 5.159E+01, 1.260E+02, 2.234E+02, 5.046E+01,-3.116E+01, 1.911E-01, 1.070E-02, 8.471E+01
 4.600E+02, 1.284E+02, 1.315E+02, 1.239E+02, 2.093E+02, 5.201E+01, 1.243E+02, 2.192E+02, 5.090E+01, 1.820E+01, 1.910E-01, 1.075E-02, 1.269E+02
 4.700E+02, 1.289E+02, 1.312E+02, 1.219E+02, 2.127E+02, 5.210E+01, 1.218E+02, 2.212E+02, 5.069E+01, 1.133E+01, 1.910E-01, 1.074E-02, 1.117E+02
 4.800E+02, 1.253E+02, 1.280E+02, 1.215E+02, 2.026E+02, 5.191E+01, 1.263E+02, 2.074E+02, 5.017E+01,-2.781E+01, 1.903E-01, 1.112E-02, 1.497E+01
 4.900E+02, 1.206E+02, 1.255E+02, 1.215E+02, 1.898E+02, 5.064E+01, 1.221E+02, 2.023E+02, 5.203E+01, 7.370E+01, 1.895E-01, 1.159E-02, 7.439E+01
 5.000E+02, 1.313E+02, 1.333E+02, 1.256E+02, 2.156E+02, 5.257E+01, 1.280E+02, 2.218E+02, 5.005E+01, 1.237E+02, 1.893E-01, 1.171E-02, 9.149E+01
 5.100E+02, 1.287E+02, 1.296E+02, 1.280E+02, 2.060E+02, 5.224E+01, 1.324E+02, 2.061E+02, 5.043E+01,-3.713E+00, 1.881E-01, 1.237E-02, 9.761E+00
 5.200E+02, 1.263E+02, 1.281E+02, 1.337E+02, 1.937E+02, 5.148E+01, 1.323E+02, 2.013E+02, 5.082E+01,-1.437E+00, 1.874E-01, 1.276E-02, 1.011E+01
 5.300E+02, 1.251E+02, 1.276E+02, 1.345E+02, 1.902E+02, 5.075E+01, 1.363E+02, 1.956E+02, 5.102E+01, 6.398E+01, 1.876E-01, 1.267E-02, 6.116E+00
 5.400E+02, 1.383E+02, 1.491E+02, 1.536E+02, 2.082E+02, 5.304E+01, 1.512E+02, 2.449E+02, 5.126E+01, 1.941E+02, 1.874E-01, 1.277E-02, 3.274E+01
 5.500E+02, 1.482E+02, 1.506E+02, 1.640E+02, 2.272E+02, 5.325E+01, 1.650E+02, 2.353E+02, 5.146E+01, 4.622E+01, 1.869E-01, 1.305E-02, 1.589E+01
 5.600E+02, 1.444E+02, 1.561E+02, 1.646E+02, 2.154E+02, 5.311E+01, 1.673E+02, 2.482E+02, 5.295E+01, 1.958E+00, 1.865E-01, 1.325E-02, 5.315E+00
 5.700E+02, 1.452E+02, 1.500E+02, 1.668E+02, 2.146E+02, 5.423E+01, 1.634E+02, 2.340E+02, 5.267E+01, 8.096E+00, 1.866E-01, 1.322E-02, 6.422E+00
 5.800E+02, 1.419E+02, 1.495E+02, 1.636E+02, 2.077E+02, 5.424E+01, 1.663E+02, 2.280E+02, 5.428E+01, 3.536E+00, 1.859E-01, 1.358E-02, 3.779E+00
 5.901E+02, 1.413E+02, 1.414E+02, 1.623E+02, 2.070E+02, 5.471E+01, 1.586E+02, 2.121E+02, 5.343E+01,-8.982E+00, 1.860E-01, 1.356E-02, 5.301E+00
 6.000E+02, 1.391E+02, 1.469E+02, 1.560E+02, 2.062E+02, 5.519E+01, 1.563E+02, 2.289E+02, 5.542E+01, 7.020E+00, 1.854E-01, 1.391E-02, 2.498E+00
 6.100E+02, 1.411E+02, 1.818E+02, 1.517E+02, 2.156E+02, 5.605E+01, 1.536E+02, 3.329E+02, 5.881E+01, 1.130E+02, 1.852E-01, 1.401E-02, 6.458E+01
 6.200E+02, 1.421E+02, 1.604E+02, 1.495E+02, 2.187E+02, 5.815E+01, 1.524E+02, 2.728E+02, 5.609E+01,-2.180E+01, 1.846E-01, 1.430E-02, 8.868E+00
 6.300E+02, 1.384E+02, 1.528E+02, 1.479E+02, 2.083E+02, 5.907E+01, 1.476E+02, 2.554E+02, 5.523E+01,-1.664E+01, 1.840E-01, 1.465E-02, 4.545E+00
 6.400E+02, 1.325E+02, 1.452E+02, 1.428E+02, 1.968E+02, 5.795E+01, 1.452E+02, 2.338E+02, 5.660E+01,-1.633E+00, 1.827E-01, 1.539E-02, 8.838E+00
 6.501E+02, 1.288E+02, 1.365E+02, 1.395E+02, 1.900E+02, 5.685E+01, 1.391E+02, 2.144E+02, 5.599E+01,-1.171E+01, 1.835E-01, 1.497E-02, 2.915E+01
 6.600E+02, 1.298E+02, 1.316E+02, 1.355E+02, 1.956E+02, 5.824E+01, 1.357E+02, 2.037E+02, 5.530E+01, 2.789E-01, 1.830E-01, 1.522E-02, 7.230E+00
 6.700E+02, 1.258E+02, 1.290E+02, 1.287E+02, 1.891E+02, 5.957E+01, 1.311E+02, 1.970E+02, 5.867E+01, 8.692E+00, 1.819E-01, 1.585E-02, 9.513E-01
 6.800E+02, 1.268E+02, 1.277E+02, 1.249E+02, 1.926E+02, 6.301E+01, 1.243E+02, 2.001E+02, 5.874E+01, 2.480E+00, 1.818E-01, 1.589E-02, 1.119E+00
 6.900E+02, 1.253E+02, 1.259E+02, 1.197E+02, 1.934E+02, 6.297E+01, 1.209E+02, 1.973E+02, 5.963E+01, 7.658E+00, 1.813E-01, 1.619E-02, 1.550E-07
 7.000E+02, 1.343E+02, 1.511E+02, 1.167E+02, 2.219E+02, 6.423E+01, 1.186E+02, 2.723E+02, 6.261E+01, 1.350E+02, 1.813E-01, 1.619E-02, 7.414E+01
 7.100E+02, 1.330E+02, 1.643E+02, 1.166E+02, 2.171E+02, 6.544E+01, 1.192E+02, 3.111E+02, 6.248E+01, 4.547E+01, 1.810E-01, 1.637E-02, 1.010E+02
 7.200E+02, 1.488E+02, 1.560E+02, 1.185E+02, 2.584E+02, 6.967E+01, 1.214E+02, 2.818E+02, 6.475E+01, 1.083E+02, 1.805E-01, 1.662E-02, 2.719E+02
 7.300E+02, 1.417E+02, 1.435E+02, 1.212E+02, 2.373E+02, 6.656E+01, 1.213E+02, 2.444E+02, 6.492E+01,-1.207E+01, 1.800E-01, 1.690E-02, 1.008E+02
 7.400E+02, 1.461E+02, 1.425E+02, 1.221E+02, 2.509E+02, 6.539E+01, 1.233E+02, 2.386E+02, 6.553E+01, 1.971E+01, 1.769E-01, 1.863E-02, 1.428E+02
 7.500E+02, 1.427E+02, 1.474E+02, 1.231E+02, 2.396E+02, 6.542E+01, 1.236E+02, 2.534E+02, 6.532E+01, 6.371E+00, 1.783E-01, 1.786E-02, 1.300E+02
 7.600E+02, 1.450E+02, 1.417E+02, 1.227E+02, 2.468E+02, 6.532E+01, 1.246E+02, 2.388E+02, 6.178E+01, 7.545E+00, 1.773E-01, 1.842E-02, 1.093E+02
 7.700E+02, 1.429E+02, 1.391E+02, 1.233E+02, 2.387E+02, 6.672E+01, 1.236E+02, 2.305E+02, 6.326E+01, 1.094E+00, 1.765E-01, 1.884E-02, 8.000E+01
 7.800E+02, 1.372E+02, 1.378E+02, 1.226E+02, 2.250E+02, 6.405E+01, 1.232E+02, 2.264E+02, 6.367E+01,-4.378E-01, 1.757E-01, 1.933E-02, 5.970E+01
 7.900E+02, 1.343E+02, 1.342E+02, 1.211E+02, 2.156E+02, 6.629E+01, 1.222E+02, 2.173E+02, 6.316E+01,-1.292E+00, 1.756E-01, 1.937E-02, 5.068E+01
 8.000E+02, 1.313E+02, 1.292E+02, 1.196E+02, 2.068E+02, 6.741E+01, 1.202E+02, 2.048E+02, 6.250E+01,-7.268E+00, 1.747E-01, 1.984E-02, 4.154E+01
 8.100E+02, 1.236E+02, 1.254E+02, 1.171E+02, 1.894E+02, 6.449E+01, 1.198E+02, 1.924E+02, 6.412E+01,-1.138E+01, 1.726E-01, 2.104E-02, 3.275E-01
 8.200E+02, 1.193E+02, 1.216E+02, 1.161E+02, 1.783E+02, 6.343E+01, 1.191E+02, 1.831E+02, 6.262E+01,-3.881E+00, 1.730E-01, 2.080E-02, 2.680E-01
 8.300E+02, 1.170E+02, 1.185E+02, 1.145E+02, 1.710E+02, 6.539E+01, 1.164E+02, 1.770E+02, 6.227E+01,-1.610E+00, 1.727E-01, 2.096E-02, 1.598E-01
 8.400E+02, 1.136E+02, 1.168E+02, 1.112E+02, 1.634E+02, 6.617E+01, 1.128E+02, 1.736E+02, 6.398E+01,-1.626E+00, 1.720E-01, 2.134E-02, 7.903E-07
 8.500E+02, 1.114E+02, 1.128E+02, 1.086E+02, 1.585E+02, 6.722E+01, 1.095E+02, 1.649E+02, 6.401E+01,-4.232E-01, 1.716E-01, 2.162E-02, 3.325E-06
 8.601E+02, 1.106E+02, 1.132E+02, 1.063E+02, 1.545E+02, 7.098E+01, 1.062E+02, 1.679E+02, 6.543E+01, 1.387E+00, 1.714E-01, 2.168E-02, 9.303E-01
 8.700E+02, 1.087E+02, 1.108E+02, 1.033E+02, 1.518E+02, 7.098E+01, 1.043E+02, 1.633E+02, 6.475E+01, 2.705E+00, 1.715E-01, 2.166E-02, 1.008E-02
 8.800E+02, 1.084E+02, 1.091E+02, 1.011E+02, 1.513E+02, 7.271E+01, 1.016E+02, 1.578E+02, 6.786E+01, 4.887E+00, 1.702E-01, 2.239E-02, 3.063E-02
 8.900E+02, 1.076E+02, 1.076E+02, 9.937E+01, 1.510E+02, 7.240E+01, 9.955E+01, 1.531E+02, 7.031E+01, 4.695E+00, 1.691E-01, 2.300E-02, 8.046E-05
 9.000E+02, 1.066E+02, 1.091E+02, 9.740E+01, 1.485E+02, 7.397E+01, 9.805E+01, 1.589E+02, 7.051E+01, 9.418E+00, 1.686E-01, 2.324E-02, 2.590E-05
 9.100E+02, 1.069E+02, 1.085E+02, 9.586E+01, 1.484E+02, 7.646E+01, 9.628E+01, 1.576E+02, 7.167E+01, 4.294E+00, 1.677E-01, 2.378E-02, 7.729E-06
 9.200E+02, 1.064E+02, 1.056E+02, 9.460E+01, 1.470E+02, 7.771E+01, 9.493E+01, 1.507E+02, 7.128E+01, 1.005E+01, 1.676E-01, 2.383E-02, 1.788E-05
 9.300E+02, 1.070E+02, 1.045E+02, 9.327E+01, 1.478E+02, 7.987E+01, 9.382E+01, 1.469E+02, 7.290E+01, 9.999E+00, 1.672E-01, 2.406E-02, 1.696E-04
 9.400E+02, 1.067E+02, 1.060E+02, 9.231E+01, 1.491E+02, 7.882E+01, 9.240E+01, 1.486E+02, 7.694E+01, 1.158E+01, 1.655E-01, 2.500E-02, 4.273E-04
 9.500E+02, 1.064E+02, 1.061E+02, 9.112E+01, 1.473E+02, 8.066E+01, 9.167E+01, 1.486E+02, 7.811E+01, 9.985E+00, 1.641E-01, 2.578E-02, 4.404E-05
 9.600E+02, 1.062E+02, 1.049E+02, 9.021E+01, 1.456E+02, 8.279E+01, 9.096E+01, 1.465E+02, 7.714E+01, 1.022E+01, 1.635E-01, 2.613E-02, 9.391E-05
 9.700E+02, 1.065E+02, 1.052E+02, 8.964E+01, 1.462E+02, 8.366E+01, 8.981E+01, 1.466E+02, 7.926E+01, 1.521E+01, 1.624E-01, 2.672E-02, 7.414E-05
 9.800E+02, 1.083E+02, 1.047E+02, 8.858E+01, 1.502E+02, 8.615E+01, 8.955E+01, 1.434E+02, 8.122E+01, 1.326E+01, 1.614E-01, 2.731E-02, 9.999E-05
 9.900E+02, 1.084E+02, 1.069E+02, 8.828E+01, 1.471E+02, 8.974E+01, 8.876E+01, 1.486E+02, 8.343E+01, 1.192E+01, 1.603E-01, 2.788E-02, 3.526E-04
 1.000E+03, 1.094E+02, 1.086E+02, 8.754E+01, 1.488E+02, 9.181E+01, 8.843E+01, 1.508E+02, 8.665E+01, 1.241E+01, 1.587E-01, 2.877E-02, 2.433E-04
