s,C,C,C,C,C,C,C,C,Pa,mol/mol,mol/mol,kW
Time,"West_All_TCs","East_All_TCs","West_Bottom_TCs","West_Middle_TCs","West_Upper_TCs","East_Bottom_TCs","East_Middle_TCs","East_Upper_TCs","Pressure","O2","CO2","HRR"
-6.000E+01, 2.500E+01, 2.500E+01, 2.500E+01, 2.500E+01, 2.500E+01, 2.500E+01, 2.500E+01, 2.500E+01,-9.638E-06, 2.095E-01, 3.901E-04, 0.000E+00
-4.998E+01, 2.500E+01, 2.500E+01, 2.500E+01, 2.500E+01, 2.500E+01, 2.500E+01, 2.500E+01, 2.500E+01, 1.783E-02, 2.095E-01, 3.901E-04, 0.000E+00
-3.996E+01, 2.500E+01, 2.500E+01, 2.500E+01, 2.500E+01, 2.500E+01, 2.500E+01, 2.500E+01, 2.500E+01,-2.202E-03, 2.095E-01, 3.901E-04, 0.000E+00
-2.994E+01, 2.500E+01, 2.500E+01, 2.500E+01, 2.500E+01, 2.500E+01, 2.500E+01, 2.500E+01, 2.500E+01, 1.413E-02, 2.095E-01, 3.901E-04, 0.000E+00
-1.992E+01, 2.500E+01, 2.500E+01, 2.500E+01, 2.500E+01, 2.500E+01, 2.500E+01, 2.500E+01, 2.500E+01, 3.643E-02, 2.095E-01, 3.901E-04, 0.000E+00
-9.896E+00, 2.500E+01, 2.500E+01, 2.500E+01, 2.500E+01, 2.500E+01, 2.500E+01, 2.500E+01, 2.500E+01,-3.430E-02, 2.095E-01, 3.901E-04, 0.000E+00
 1.301E-02, 2.500E+01, 2.500E+01, 2.500E+01, 2.500E+01, 2.500E+01, 2.500E+01, 2.500E+01, 2.500E+01, 6.192E-02, 2.095E-01, 3.901E-04, 8.783E-05
 1.001E+01, 2.534E+01, 2.545E+01, 2.525E+01, 2.508E+01, 2.570E+01, 2.538E+01, 2.510E+01, 2.586E+01, 4.495E+00, 2.095E-01, 4.413E-04, 1.705E+01
 2.001E+01, 2.664E+01, 2.703E+01, 2.583E+01, 2.536E+01, 2.875E+01, 2.637E+01, 2.538E+01, 2.934E+01, 2.366E+01, 2.091E-01, 6.490E-04, 4.962E+01
 3.001E+01, 3.080E+01, 3.130E+01, 2.665E+01, 2.877E+01, 3.699E+01, 2.771E+01, 2.791E+01, 3.829E+01, 5.770E+01, 2.080E-01, 1.233E-03, 8.323E+01
 4.000E+01, 3.621E+01, 3.706E+01, 2.739E+01, 3.353E+01, 4.771E+01, 2.849E+01, 3.292E+01, 4.976E+01, 7.432E+01, 2.068E-01, 1.899E-03, 9.962E+01
 5.001E+01, 4.191E+01, 4.251E+01, 2.899E+01, 4.195E+01, 5.481E+01, 2.959E+01, 4.136E+01, 5.658E+01, 6.650E+01, 2.061E-01, 2.309E-03, 9.999E+01
 6.002E+01, 4.785E+01, 4.797E+01, 3.121E+01, 5.043E+01, 6.191E+01, 3.179E+01, 4.900E+01, 6.311E+01, 5.748E+01, 2.057E-01, 2.559E-03, 1.002E+02
 7.002E+01, 5.236E+01, 5.371E+01, 3.434E+01, 5.709E+01, 6.566E+01, 3.556E+01, 5.701E+01, 6.857E+01, 4.916E+01, 2.048E-01, 3.026E-03, 9.979E+01
 8.000E+01, 5.693E+01, 5.835E+01, 3.836E+01, 6.185E+01, 7.059E+01, 4.030E+01, 6.234E+01, 7.242E+01, 4.289E+01, 2.043E-01, 3.306E-03, 9.987E+01
 9.001E+01, 6.177E+01, 6.263E+01, 4.396E+01, 6.697E+01, 7.436E+01, 4.487E+01, 6.712E+01, 7.588E+01, 3.679E+01, 2.038E-01, 3.607E-03, 9.986E+01
 1.000E+02, 6.549E+01, 6.716E+01, 4.904E+01, 7.081E+01, 7.661E+01, 5.006E+01, 7.096E+01, 8.044E+01, 3.183E+01, 2.031E-01, 3.965E-03, 1.002E+02
 1.100E+02, 6.946E+01, 6.998E+01, 5.329E+01, 7.472E+01, 8.037E+01, 5.489E+01, 7.335E+01, 8.170E+01, 2.636E+01, 2.029E-01, 4.123E-03, 9.977E+01
 1.200E+02, 7.267E+01, 7.353E+01, 5.750E+01, 7.679E+01, 8.372E+01, 5.884E+01, 7.668E+01, 8.508E+01, 2.225E+01, 2.023E-01, 4.464E-03, 1.002E+02
 1.300E+02, 7.627E+01, 7.679E+01, 6.130E+01, 7.991E+01, 8.761E+01, 6.177E+01, 7.895E+01, 8.964E+01, 1.902E+01, 2.015E-01, 4.898E-03, 9.997E+01
 1.400E+02, 7.887E+01, 7.910E+01, 6.447E+01, 8.209E+01, 9.005E+01, 6.525E+01, 8.125E+01, 9.081E+01, 1.668E+01, 2.008E-01, 5.276E-03, 9.985E+01
 1.500E+02, 8.084E+01, 8.147E+01, 6.610E+01, 8.422E+01, 9.220E+01, 6.868E+01, 8.374E+01, 9.199E+01, 1.427E+01, 2.003E-01, 5.580E-03, 9.971E+01
 1.600E+02, 8.323E+01, 8.333E+01, 6.893E+01, 8.619E+01, 9.457E+01, 6.996E+01, 8.519E+01, 9.482E+01, 1.286E+01, 1.998E-01, 5.824E-03, 1.002E+02
 1.700E+02, 8.484E+01, 8.529E+01, 7.121E+01, 8.766E+01, 9.563E+01, 7.164E+01, 8.726E+01, 9.697E+01, 1.179E+01, 1.990E-01, 6.263E-03, 1.000E+02
 1.800E+02, 8.630E+01, 8.661E+01, 7.337E+01, 8.877E+01, 9.676E+01, 7.293E+01, 8.883E+01, 9.807E+01, 1.105E+01, 1.984E-01, 6.604E-03, 9.989E+01
 1.900E+02, 8.784E+01, 8.820E+01, 7.391E+01, 9.085E+01, 9.876E+01, 7.585E+01, 9.011E+01, 9.865E+01, 1.013E+01, 1.978E-01, 6.972E-03, 9.989E+01
 2.000E+02, 8.807E+01, 8.961E+01, 7.491E+01, 9.051E+01, 9.878E+01, 7.806E+01, 9.121E+01, 9.956E+01, 9.667E+00, 1.973E-01, 7.240E-03, 1.003E+02
 2.100E+02, 8.970E+01, 9.131E+01, 7.771E+01, 9.217E+01, 9.922E+01, 7.713E+01, 9.271E+01, 1.041E+02, 9.692E+00, 1.962E-01, 7.848E-03, 9.976E+01
 2.200E+02, 9.115E+01, 9.082E+01, 7.937E+01, 9.436E+01, 9.972E+01, 7.756E+01, 9.257E+01, 1.023E+02, 8.799E+00, 1.959E-01, 8.025E-03, 9.971E+01
 2.300E+02, 9.104E+01, 9.276E+01, 7.715E+01, 9.550E+01, 1.005E+02, 8.061E+01, 9.353E+01, 1.042E+02, 9.122E+00, 1.952E-01, 8.397E-03, 1.001E+02
 2.400E+02, 9.170E+01, 9.265E+01, 7.909E+01, 9.480E+01, 1.012E+02, 8.043E+01, 9.409E+01, 1.034E+02, 8.703E+00, 1.947E-01, 8.694E-03, 1.000E+02
 2.500E+02, 9.223E+01, 9.410E+01, 8.003E+01, 9.568E+01, 1.010E+02, 8.085E+01, 9.532E+01, 1.061E+02, 8.912E+00, 1.937E-01, 9.218E-03, 9.964E+01
 2.600E+02, 9.299E+01, 9.394E+01, 8.140E+01, 9.600E+01, 1.016E+02, 8.099E+01, 9.553E+01, 1.053E+02, 8.984E+00, 1.932E-01, 9.527E-03, 1.003E+02
 2.700E+02, 9.365E+01, 9.436E+01, 8.022E+01, 9.765E+01, 1.031E+02, 8.256E+01, 9.557E+01, 1.049E+02, 8.915E+00, 1.926E-01, 9.840E-03, 9.980E+01
 2.800E+02, 9.424E+01, 9.502E+01, 8.124E+01, 9.783E+01, 1.037E+02, 8.208E+01, 9.693E+01, 1.060E+02, 8.677E+00, 1.919E-01, 1.027E-02, 9.978E+01
 2.900E+02, 9.461E+01, 9.560E+01, 8.221E+01, 9.733E+01, 1.043E+02, 8.243E+01, 9.690E+01, 1.075E+02, 9.001E+00, 1.911E-01, 1.071E-02, 1.002E+02
 3.000E+02, 9.557E+01, 9.538E+01, 8.351E+01, 9.854E+01, 1.047E+02, 8.277E+01, 9.745E+01, 1.059E+02, 8.887E+00, 1.907E-01, 1.090E-02, 1.001E+02
 3.100E+02, 9.577E+01, 9.607E+01, 8.198E+01, 1.002E+02, 1.051E+02, 8.494E+01, 9.743E+01, 1.058E+02, 8.794E+00, 1.900E-01, 1.131E-02, 9.981E+01
 3.200E+02, 9.617E+01, 9.701E+01, 8.316E+01, 9.951E+01, 1.058E+02, 8.339E+01, 9.870E+01, 1.090E+02, 9.084E+00, 1.891E-01, 1.182E-02, 1.000E+02
 3.300E+02, 9.660E+01, 9.645E+01, 8.314E+01, 9.954E+01, 1.071E+02, 8.248E+01, 9.975E+01, 1.071E+02, 8.445E+00, 1.888E-01, 1.200E-02, 9.998E+01
 3.400E+02, 9.571E+01, 9.677E+01, 8.228E+01, 9.761E+01, 1.072E+02, 8.401E+01, 9.883E+01, 1.075E+02, 8.694E+00, 1.880E-01, 1.245E-02, 9.968E+01
 3.500E+02, 9.635E+01, 9.712E+01, 8.334E+01, 9.860E+01, 1.071E+02, 8.336E+01, 9.997E+01, 1.080E+02, 8.692E+00, 1.869E-01, 1.302E-02, 1.000E+02
 3.600E+02, 9.681E+01, 9.711E+01, 8.300E+01, 1.002E+02, 1.073E+02, 8.470E+01, 9.964E+01, 1.070E+02, 8.853E+00, 1.864E-01, 1.333E-02, 9.984E+01
 3.700E+02, 9.708E+01, 9.744E+01, 8.328E+01, 9.947E+01, 1.085E+02, 8.384E+01, 9.974E+01, 1.087E+02, 8.602E+00, 1.857E-01, 1.371E-02, 1.002E+02
 3.800E+02, 9.761E+01, 9.675E+01, 8.462E+01, 1.006E+02, 1.076E+02, 8.401E+01, 9.911E+01, 1.071E+02, 8.876E+00, 1.853E-01, 1.395E-02, 1.001E+02
 3.900E+02, 9.687E+01, 9.763E+01, 8.285E+01, 9.893E+01, 1.088E+02, 8.530E+01, 1.010E+02, 1.066E+02, 8.917E+00, 1.847E-01, 1.429E-02, 9.981E+01
 4.000E+02, 9.744E+01, 9.731E+01, 8.449E+01, 9.890E+01, 1.089E+02, 8.314E+01, 1.003E+02, 1.085E+02, 8.770E+00, 1.839E-01, 1.472E-02, 1.000E+02
 4.100E+02, 9.791E+01, 9.782E+01, 8.403E+01, 1.013E+02, 1.084E+02, 8.437E+01, 1.007E+02, 1.084E+02, 8.861E+00, 1.832E-01, 1.509E-02, 1.001E+02
 4.200E+02, 9.758E+01, 9.806E+01, 8.330E+01, 1.004E+02, 1.091E+02, 8.553E+01, 1.015E+02, 1.071E+02, 9.003E+00, 1.827E-01, 1.539E-02, 9.967E+01
 4.300E+02, 9.802E+01, 9.783E+01, 8.577E+01, 1.005E+02, 1.078E+02, 8.405E+01, 1.019E+02, 1.075E+02, 9.311E+00, 1.820E-01, 1.579E-02, 1.002E+02
 4.400E+02, 9.793E+01, 9.827E+01, 8.574E+01, 1.011E+02, 1.069E+02, 8.670E+01, 1.002E+02, 1.079E+02, 8.843E+00, 1.813E-01, 1.616E-02, 9.970E+01
 4.500E+02, 9.772E+01, 9.916E+01, 8.547E+01, 9.952E+01, 1.082E+02, 8.643E+01, 1.014E+02, 1.096E+02, 8.977E+00, 1.804E-01, 1.668E-02, 1.001E+02
 4.600E+02, 9.858E+01, 9.805E+01, 8.596E+01, 1.008E+02, 1.090E+02, 8.618E+01, 1.003E+02, 1.076E+02, 8.909E+00, 1.801E-01, 1.682E-02, 1.002E+02
 4.700E+02, 9.813E+01, 9.934E+01, 8.459E+01, 1.012E+02, 1.086E+02, 8.663E+01, 1.029E+02, 1.085E+02, 9.234E+00, 1.793E-01, 1.729E-02, 9.991E+01
 4.800E+02, 9.819E+01, 9.952E+01, 8.616E+01, 9.972E+01, 1.087E+02, 8.542E+01, 1.027E+02, 1.105E+02, 8.749E+00, 1.783E-01, 1.784E-02, 9.980E+01
 4.900E+02, 9.957E+01, 9.877E+01, 8.525E+01, 1.029E+02, 1.106E+02, 8.569E+01, 1.029E+02, 1.077E+02, 9.017E+00, 1.781E-01, 1.794E-02, 9.982E+01
 5.000E+02, 9.881E+01, 1.004E+02, 8.514E+01, 1.007E+02, 1.106E+02, 8.589E+01, 1.046E+02, 1.107E+02, 9.336E+00, 1.772E-01, 1.846E-02, 1.000E+02
 5.100E+02, 9.995E+01, 9.957E+01, 8.692E+01, 1.027E+02, 1.102E+02, 8.579E+01, 1.032E+02, 1.097E+02, 8.855E+00, 1.763E-01, 1.898E-02, 9.960E+01
 5.200E+02, 9.981E+01, 9.980E+01, 8.602E+01, 1.036E+02, 1.098E+02, 8.804E+01, 1.026E+02, 1.087E+02, 9.111E+00, 1.758E-01, 1.925E-02, 9.982E+01
 5.300E+02, 9.923E+01, 1.007E+02, 8.693E+01, 1.018E+02, 1.090E+02, 8.717E+01, 1.028E+02, 1.123E+02, 9.069E+00, 1.749E-01, 1.972E-02, 1.002E+02
 5.400E+02, 1.002E+02, 9.955E+01, 8.629E+01, 1.029E+02, 1.113E+02, 8.659E+01, 1.027E+02, 1.093E+02, 9.023E+00, 1.745E-01, 1.995E-02, 9.979E+01
 5.500E+02, 9.812E+01, 1.007E+02, 8.508E+01, 9.945E+01, 1.098E+02, 8.707E+01, 1.048E+02, 1.101E+02, 9.229E+00, 1.738E-01, 2.039E-02, 1.000E+02
 5.600E+02, 9.992E+01, 1.001E+02, 8.827E+01, 1.015E+02, 1.100E+02, 8.630E+01, 1.034E+02, 1.106E+02, 9.327E+00, 1.730E-01, 2.083E-02, 9.982E+01
 5.700E+02, 1.005E+02, 1.005E+02, 8.599E+01, 1.031E+02, 1.124E+02, 8.960E+01, 1.035E+02, 1.085E+02, 9.302E+00, 1.727E-01, 2.095E-02, 1.001E+02
 5.800E+02, 9.984E+01, 1.005E+02, 8.701E+01, 1.013E+02, 1.112E+02, 8.697E+01, 1.027E+02, 1.118E+02, 8.871E+00, 1.716E-01, 2.157E-02, 9.976E+01
 5.900E+02, 1.007E+02, 9.978E+01, 8.744E+01, 1.032E+02, 1.113E+02, 8.793E+01, 1.026E+02, 1.088E+02, 9.156E+00, 1.712E-01, 2.184E-02, 1.001E+02
 6.000E+02, 1.002E+02, 1.008E+02, 8.663E+01, 1.019E+02, 1.121E+02, 8.818E+01, 1.032E+02, 1.111E+02, 9.156E+00, 1.705E-01, 2.218E-02, 9.966E+01
 6.100E+02, 1.002E+02, 1.002E+02, 8.849E+01, 1.024E+02, 1.099E+02, 8.710E+01, 1.025E+02, 1.110E+02, 9.413E+00, 1.697E-01, 2.265E-02, 1.002E+02
 6.200E+02, 1.011E+02, 1.005E+02, 8.809E+01, 1.044E+02, 1.109E+02, 8.865E+01, 1.032E+02, 1.095E+02, 9.511E+00, 1.691E-01, 2.297E-02, 1.001E+02
 6.300E+02, 1.008E+02, 1.017E+02, 8.756E+01, 1.033E+02, 1.114E+02, 9.044E+01, 1.037E+02, 1.109E+02, 9.607E+00, 1.687E-01, 2.322E-02, 9.983E+01
 6.400E+02, 1.007E+02, 1.010E+02, 8.865E+01, 1.030E+02, 1.106E+02, 8.831E+01, 1.036E+02, 1.110E+02, 8.778E+00, 1.679E-01, 2.365E-02, 9.959E+01
 6.500E+02, 1.008E+02, 1.011E+02, 8.801E+01, 1.043E+02, 1.100E+02, 9.043E+01, 1.029E+02, 1.100E+02, 9.721E+00, 1.673E-01, 2.402E-02, 1.004E+02
 6.600E+02, 1.001E+02, 1.012E+02, 8.833E+01, 1.025E+02, 1.094E+02, 8.870E+01, 1.031E+02, 1.119E+02, 9.171E+00, 1.664E-01, 2.450E-02, 9.933E+01
 6.700E+02, 1.012E+02, 1.012E+02, 8.877E+01, 1.047E+02, 1.100E+02, 8.934E+01, 1.032E+02, 1.111E+02, 9.475E+00, 1.658E-01, 2.482E-02, 1.002E+02
 6.800E+02, 1.008E+02, 1.034E+02, 8.825E+01, 1.034E+02, 1.107E+02, 9.030E+01, 1.068E+02, 1.131E+02, 9.378E+00, 1.649E-01, 2.532E-02, 9.996E+01
 6.900E+02, 1.008E+02, 1.018E+02, 8.910E+01, 1.032E+02, 1.101E+02, 8.777E+01, 1.040E+02, 1.136E+02, 9.122E+00, 1.644E-01, 2.564E-02, 1.000E+02
 7.000E+02, 1.025E+02, 1.015E+02, 8.847E+01, 1.064E+02, 1.126E+02, 8.838E+01, 1.044E+02, 1.116E+02, 9.385E+00, 1.636E-01, 2.606E-02, 9.970E+01
 7.100E+02, 1.012E+02, 1.030E+02, 8.695E+01, 1.045E+02, 1.122E+02, 8.988E+01, 1.056E+02, 1.135E+02, 9.354E+00, 1.627E-01, 2.658E-02, 1.000E+02
 7.200E+02, 1.026E+02, 1.016E+02, 8.891E+01, 1.068E+02, 1.123E+02, 8.820E+01, 1.033E+02, 1.133E+02, 9.208E+00, 1.620E-01, 2.697E-02, 1.000E+02
 7.300E+02, 1.021E+02, 1.023E+02, 8.816E+01, 1.049E+02, 1.134E+02, 8.961E+01, 1.046E+02, 1.129E+02, 9.623E+00, 1.615E-01, 2.723E-02, 9.978E+01
 7.400E+02, 1.018E+02, 1.025E+02, 8.792E+01, 1.033E+02, 1.142E+02, 8.890E+01, 1.051E+02, 1.134E+02, 9.344E+00, 1.608E-01, 2.761E-02, 1.002E+02
 7.500E+02, 1.024E+02, 1.027E+02, 8.827E+01, 1.054E+02, 1.137E+02, 8.903E+01, 1.059E+02, 1.131E+02, 9.514E+00, 1.602E-01, 2.799E-02, 9.974E+01
 7.600E+02, 1.020E+02, 1.026E+02, 8.854E+01, 1.045E+02, 1.129E+02, 8.949E+01, 1.046E+02, 1.136E+02, 9.612E+00, 1.595E-01, 2.836E-02, 1.000E+02
 7.700E+02, 1.032E+02, 1.018E+02, 8.870E+01, 1.063E+02, 1.145E+02, 8.971E+01, 1.043E+02, 1.113E+02, 9.140E+00, 1.590E-01, 2.862E-02, 9.973E+01
 7.800E+02, 1.026E+02, 1.023E+02, 8.834E+01, 1.045E+02, 1.150E+02, 9.002E+01, 1.049E+02, 1.120E+02, 9.455E+00, 1.579E-01, 2.923E-02, 9.981E+01
 7.900E+02, 1.028E+02, 1.024E+02, 8.932E+01, 1.052E+02, 1.140E+02, 9.006E+01, 1.048E+02, 1.123E+02, 9.605E+00, 1.575E-01, 2.944E-02, 1.002E+02
 8.000E+02, 1.030E+02, 1.029E+02, 9.060E+01, 1.060E+02, 1.125E+02, 8.989E+01, 1.054E+02, 1.133E+02, 9.638E+00, 1.569E-01, 2.979E-02, 1.002E+02
 8.100E+02, 1.027E+02, 1.031E+02, 9.014E+01, 1.054E+02, 1.125E+02, 9.078E+01, 1.054E+02, 1.133E+02, 9.497E+00, 1.564E-01, 3.011E-02, 9.995E+01
 8.200E+02, 1.030E+02, 1.036E+02, 9.092E+01, 1.057E+02, 1.123E+02, 9.039E+01, 1.058E+02, 1.146E+02, 9.456E+00, 1.553E-01, 3.070E-02, 9.970E+01
 8.300E+02, 1.030E+02, 1.030E+02, 9.019E+01, 1.052E+02, 1.136E+02, 9.024E+01, 1.058E+02, 1.128E+02, 9.666E+00, 1.549E-01, 3.094E-02, 1.002E+02
 8.400E+02, 1.023E+02, 1.041E+02, 8.971E+01, 1.050E+02, 1.124E+02, 9.249E+01, 1.060E+02, 1.138E+02, 1.017E+01, 1.542E-01, 3.131E-02, 1.000E+02
 8.500E+02, 1.031E+02, 1.033E+02, 9.130E+01, 1.052E+02, 1.127E+02, 9.218E+01, 1.064E+02, 1.115E+02, 9.430E+00, 1.534E-01, 3.174E-02, 1.001E+02
 8.600E+02, 1.027E+02, 1.041E+02, 9.042E+01, 1.047E+02, 1.130E+02, 9.212E+01, 1.071E+02, 1.131E+02, 9.599E+00, 1.527E-01, 3.217E-02, 1.000E+02
 8.700E+02, 1.035E+02, 1.034E+02, 9.202E+01, 1.057E+02, 1.126E+02, 9.169E+01, 1.056E+02, 1.129E+02, 9.640E+00, 1.521E-01, 3.251E-02, 9.989E+01
 8.800E+02, 1.035E+02, 1.040E+02, 9.077E+01, 1.059E+02, 1.137E+02, 9.255E+01, 1.070E+02, 1.123E+02, 9.481E+00, 1.514E-01, 3.286E-02, 1.000E+02
 8.900E+02, 1.032E+02, 1.048E+02, 9.132E+01, 1.050E+02, 1.132E+02, 9.216E+01, 1.075E+02, 1.149E+02, 9.854E+00, 1.507E-01, 3.329E-02, 1.001E+02
 9.000E+02, 1.042E+02, 1.040E+02, 9.144E+01, 1.066E+02, 1.145E+02, 9.291E+01, 1.065E+02, 1.125E+02, 9.567E+00, 1.501E-01, 3.358E-02, 9.992E+01
 9.100E+02, 1.035E+02, 1.049E+02, 9.090E+01, 1.065E+02, 1.132E+02, 9.397E+01, 1.073E+02, 1.134E+02, 9.858E+00, 1.496E-01, 3.391E-02, 9.981E+01
 9.200E+02, 1.038E+02, 1.046E+02, 9.173E+01, 1.061E+02, 1.136E+02, 9.239E+01, 1.079E+02, 1.133E+02, 9.677E+00, 1.486E-01, 3.443E-02, 9.983E+01
 9.300E+02, 1.041E+02, 1.052E+02, 9.183E+01, 1.075E+02, 1.128E+02, 9.288E+01, 1.084E+02, 1.142E+02, 9.337E+00, 1.483E-01, 3.459E-02, 9.998E+01
 9.400E+02, 1.038E+02, 1.056E+02, 9.127E+01, 1.066E+02, 1.135E+02, 9.327E+01, 1.072E+02, 1.164E+02, 9.843E+00, 1.471E-01, 3.526E-02, 1.000E+02
 9.500E+02, 1.048E+02, 1.052E+02, 9.296E+01, 1.075E+02, 1.140E+02, 9.230E+01, 1.074E+02, 1.158E+02, 9.391E+00, 1.465E-01, 3.563E-02, 9.982E+01
 9.600E+02, 1.047E+02, 1.061E+02, 9.193E+01, 1.073E+02, 1.149E+02, 9.322E+01, 1.098E+02, 1.152E+02, 9.757E+00, 1.460E-01, 3.588E-02, 9.989E+01
 9.700E+02, 1.048E+02, 1.052E+02, 9.242E+01, 1.074E+02, 1.147E+02, 9.143E+01, 1.069E+02, 1.172E+02, 9.926E+00, 1.449E-01, 3.649E-02, 1.001E+02
 9.800E+02, 1.043E+02, 1.056E+02, 9.090E+01, 1.075E+02, 1.145E+02, 9.239E+01, 1.081E+02, 1.163E+02, 9.423E+00, 1.442E-01, 3.689E-02, 9.981E+01
 9.900E+02, 1.049E+02, 1.054E+02, 9.095E+01, 1.078E+02, 1.160E+02, 9.164E+01, 1.078E+02, 1.166E+02, 9.791E+00, 1.437E-01, 3.721E-02, 1.001E+02
 1.000E+03, 1.058E+02, 1.055E+02, 9.137E+01, 1.094E+02, 1.165E+02, 9.186E+01, 1.089E+02, 1.158E+02, 9.717E+00, 1.429E-01, 3.762E-02, 9.979E+01
 1.010E+03, 1.057E+02, 1.057E+02, 9.126E+01, 1.082E+02, 1.178E+02, 9.223E+01, 1.090E+02, 1.160E+02, 9.789E+00, 1.421E-01, 3.805E-02, 1.001E+02
 1.020E+03, 1.050E+02, 1.054E+02, 9.086E+01, 1.072E+02, 1.170E+02, 9.166E+01, 1.082E+02, 1.164E+02, 9.039E+00, 1.413E-01, 3.851E-02, 9.638E+01
 1.030E+03, 1.056E+02, 1.054E+02, 9.142E+01, 1.088E+02, 1.166E+02, 9.241E+01, 1.089E+02, 1.149E+02, 1.096E+01, 1.410E-01, 3.866E-02, 1.010E+02
 1.040E+03, 1.055E+02, 1.068E+02, 9.147E+01, 1.080E+02, 1.171E+02, 9.219E+01, 1.097E+02, 1.184E+02, 1.153E+01, 1.399E-01, 3.930E-02, 1.026E+02
 1.050E+03, 1.063E+02, 1.054E+02, 9.160E+01, 1.100E+02, 1.172E+02, 9.146E+01, 1.088E+02, 1.161E+02, 8.911E+00, 1.393E-01, 3.963E-02, 9.519E+01
 1.060E+03, 1.061E+02, 1.056E+02, 9.117E+01, 1.098E+02, 1.173E+02, 9.226E+01, 1.088E+02, 1.158E+02, 1.142E+01, 1.389E-01, 3.988E-02, 9.935E+01
 1.070E+03, 1.058E+02, 1.064E+02, 9.154E+01, 1.089E+02, 1.170E+02, 9.227E+01, 1.099E+02, 1.171E+02, 8.716E+00, 1.382E-01, 4.027E-02, 9.569E+01
 1.080E+03, 1.052E+02, 1.052E+02, 9.179E+01, 1.069E+02, 1.169E+02, 9.258E+01, 1.084E+02, 1.145E+02, 1.149E+01, 1.381E-01, 4.033E-02, 9.638E+01
 1.090E+03, 1.054E+02, 1.053E+02, 9.128E+01, 1.082E+02, 1.168E+02, 9.280E+01, 1.090E+02, 1.141E+02, 9.467E+00, 1.377E-01, 4.052E-02, 9.190E+01
 1.100E+03, 1.048E+02, 1.040E+02, 9.109E+01, 1.087E+02, 1.145E+02, 9.105E+01, 1.082E+02, 1.127E+02, 1.062E+01, 1.370E-01, 4.088E-02, 8.110E+01
 1.110E+03, 1.040E+02, 1.055E+02, 9.057E+01, 1.065E+02, 1.150E+02, 9.190E+01, 1.089E+02, 1.157E+02, 1.450E+01, 1.361E-01, 4.137E-02, 1.038E+02
 1.120E+03, 1.046E+02, 1.032E+02, 9.035E+01, 1.074E+02, 1.160E+02, 9.131E+01, 1.066E+02, 1.117E+02,-1.231E+01, 1.362E-01, 4.138E-02, 6.351E+01
 1.130E+03, 1.022E+02, 1.040E+02, 8.856E+01, 1.043E+02, 1.137E+02, 9.248E+01, 1.051E+02, 1.143E+02, 2.617E+01, 1.359E-01, 4.153E-02, 1.115E+02
 1.140E+03, 1.032E+02, 1.026E+02, 9.000E+01, 1.060E+02, 1.135E+02, 8.826E+01, 1.052E+02, 1.144E+02,-7.841E+00, 1.354E-01, 4.182E-02, 6.971E+01
 1.150E+03, 1.016E+02, 1.032E+02, 8.965E+01, 1.037E+02, 1.115E+02, 9.089E+01, 1.047E+02, 1.140E+02, 1.971E+01, 1.352E-01, 4.188E-02, 1.031E+02
 1.160E+03, 1.006E+02, 1.027E+02, 8.849E+01, 1.037E+02, 1.096E+02, 9.268E+01, 1.039E+02, 1.115E+02,-1.362E+00, 1.351E-01, 4.195E-02, 6.876E+01
 1.170E+03, 9.940E+01, 9.976E+01, 8.795E+01, 1.017E+02, 1.086E+02, 8.945E+01, 1.021E+02, 1.078E+02,-6.353E-01, 1.350E-01, 4.198E-02, 6.332E+01
 1.180E+03, 9.804E+01, 9.909E+01, 8.672E+01, 1.004E+02, 1.070E+02, 8.937E+01, 1.015E+02, 1.064E+02, 2.657E+00, 1.349E-01, 4.199E-02, 5.736E+01
 1.190E+03, 9.595E+01, 9.689E+01, 8.632E+01, 9.846E+01, 1.031E+02, 8.817E+01, 9.858E+01, 1.039E+02,-4.540E+00, 1.352E-01, 4.185E-02, 2.582E+01
 1.200E+03, 9.307E+01, 9.886E+01, 8.506E+01, 9.482E+01, 9.933E+01, 9.368E+01, 1.013E+02, 1.016E+02, 6.428E+00, 1.352E-01, 4.177E-02, 1.443E+01
 1.210E+03, 9.195E+01, 9.707E+01, 8.460E+01, 9.386E+01, 9.740E+01, 8.926E+01, 9.811E+01, 1.038E+02, 5.798E+00, 1.363E-01, 4.116E-02, 4.336E-02
 1.220E+03, 9.236E+01, 9.256E+01, 8.574E+01, 9.438E+01, 9.696E+01, 8.710E+01, 9.296E+01, 9.762E+01,-5.016E+00, 1.362E-01, 4.123E-02, 6.148E-02
 1.230E+03, 8.967E+01, 9.777E+01, 8.301E+01, 9.211E+01, 9.390E+01, 9.289E+01, 9.913E+01, 1.013E+02, 4.489E+00, 1.365E-01, 4.097E-02, 5.243E+00
 1.240E+03, 8.725E+01, 9.370E+01, 8.170E+01, 8.886E+01, 9.120E+01, 9.974E+01, 8.892E+01, 9.243E+01,-4.063E+00, 1.368E-01, 4.071E-02, 1.734E-01
 1.250E+03, 8.417E+01, 8.954E+01, 7.663E+01, 8.670E+01, 8.918E+01, 8.498E+01, 9.172E+01, 9.192E+01, 1.942E+00, 1.368E-01, 4.074E-02, 0.000E+00
 1.260E+03, 8.326E+01, 8.465E+01, 7.766E+01, 8.505E+01, 8.705E+01, 7.816E+01, 8.534E+01, 9.045E+01, 6.627E+00, 1.378E-01, 4.029E-02, 0.000E+00
 1.270E+03, 8.444E+01, 8.162E+01, 8.114E+01, 8.486E+01, 8.732E+01, 7.586E+01, 8.222E+01, 8.678E+01, 7.910E-01, 1.367E-01, 4.082E-02, 0.000E+00
 1.280E+03, 8.145E+01, 8.214E+01, 7.611E+01, 8.346E+01, 8.478E+01, 8.046E+01, 8.104E+01, 8.491E+01, 3.220E+00, 1.374E-01, 4.044E-02, 0.000E+00
 1.290E+03, 7.958E+01, 7.886E+01, 7.573E+01, 8.051E+01, 8.249E+01, 7.402E+01, 7.892E+01, 8.364E+01, 4.136E+00, 1.378E-01, 4.023E-02, 0.000E+00
 1.300E+03, 7.857E+01, 7.820E+01, 7.382E+01, 8.006E+01, 8.182E+01, 7.262E+01, 7.837E+01, 8.360E+01, 4.287E+00, 1.373E-01, 4.040E-02, 0.000E+00
 1.310E+03, 7.753E+01, 7.702E+01, 7.214E+01, 7.973E+01, 8.073E+01, 7.223E+01, 7.719E+01, 8.163E+01, 4.545E+00, 1.374E-01, 4.037E-02, 0.000E+00
