s,C,C,C,C,C,C,C,C,Pa,mol/mol,mol/mol,kW
Time,"West_All_TCs","East_All_TCs","West_Bottom_TCs","West_Middle_TCs","West_Upper_TCs","East_Bottom_TCs","East_Middle_TCs","East_Upper_TCs","Pressure","O2","CO2","HRR"
-6.000E+01, 3.400E+01, 3.400E+01, 3.400E+01, 3.400E+01, 3.400E+01, 3.400E+01, 3.400E+01, 3.400E+01,-9.314E-06, 2.095E-01, 3.901E-04, 0.000E+00
-4.991E+01, 3.395E+01, 3.396E+01, 3.396E+01, 3.395E+01, 3.396E+01, 3.396E+01, 3.395E+01, 3.396E+01,-7.902E+01, 2.095E-01, 3.901E-04, 0.000E+00
-3.995E+01, 3.394E+01, 3.395E+01, 3.394E+01, 3.394E+01, 3.393E+01, 3.398E+01, 3.394E+01, 3.394E+01,-7.998E+01, 2.095E-01, 3.901E-04, 0.000E+00
-2.998E+01, 3.393E+01, 3.396E+01, 3.394E+01, 3.393E+01, 3.393E+01, 3.399E+01, 3.394E+01, 3.394E+01,-8.009E+01, 2.095E-01, 3.901E-04, 0.000E+00
-1.996E+01, 3.393E+01, 3.396E+01, 3.393E+01, 3.393E+01, 3.393E+01, 3.399E+01, 3.394E+01, 3.394E+01,-8.012E+01, 2.095E-01, 3.901E-04, 0.000E+00
-9.938E+00, 3.393E+01, 3.396E+01, 3.393E+01, 3.393E+01, 3.393E+01, 3.399E+01, 3.395E+01, 3.394E+01,-8.012E+01, 2.095E-01, 3.901E-04, 0.000E+00
 1.692E-02, 3.393E+01, 3.396E+01, 3.394E+01, 3.393E+01, 3.393E+01, 3.399E+01, 3.395E+01, 3.394E+01,-8.012E+01, 2.095E-01, 3.901E-04, 2.042E-04
 1.000E+01, 3.510E+01, 3.521E+01, 3.446E+01, 3.686E+01, 3.399E+01, 3.466E+01, 3.701E+01, 3.397E+01,-3.890E+01, 2.095E-01, 3.901E-04, 3.248E+01
 2.001E+01, 3.951E+01, 3.976E+01, 3.652E+01, 4.724E+01, 3.478E+01, 3.695E+01, 4.834E+01, 3.398E+01, 1.197E+00, 2.095E-01, 3.901E-04, 9.932E+01
 3.002E+01, 4.782E+01, 4.850E+01, 4.052E+01, 6.756E+01, 3.538E+01, 4.172E+01, 6.986E+01, 3.392E+01, 2.978E+01, 2.095E-01, 3.901E-04, 1.659E+02
 4.000E+01, 5.969E+01, 6.017E+01, 4.786E+01, 9.450E+01, 3.670E+01, 5.074E+01, 9.550E+01, 3.428E+01, 4.080E+01, 2.094E-01, 4.477E-04, 2.000E+02
 5.002E+01, 7.137E+01, 7.261E+01, 6.056E+01, 1.142E+02, 3.937E+01, 6.169E+01, 1.185E+02, 3.767E+01, 1.874E+01, 2.088E-01, 7.891E-04, 2.004E+02
 6.000E+01, 8.129E+01, 8.237E+01, 7.365E+01, 1.296E+02, 4.058E+01, 7.456E+01, 1.323E+02, 4.029E+01, 9.232E+00, 2.084E-01, 1.035E-03, 2.000E+02
 7.001E+01, 8.949E+01, 9.140E+01, 8.445E+01, 1.413E+02, 4.270E+01, 8.649E+01, 1.456E+02, 4.210E+01,-4.143E-01, 2.082E-01, 1.126E-03, 2.000E+02
 8.001E+01, 9.744E+01, 9.826E+01, 9.349E+01, 1.536E+02, 4.519E+01, 9.732E+01, 1.527E+02, 4.477E+01,-5.661E+00, 2.076E-01, 1.495E-03, 1.999E+02
 9.000E+01, 1.031E+02, 1.052E+02, 1.040E+02, 1.575E+02, 4.762E+01, 1.072E+02, 1.613E+02, 4.726E+01,-1.154E+01, 2.070E-01, 1.796E-03, 2.003E+02
 1.000E+02, 1.081E+02, 1.100E+02, 1.136E+02, 1.608E+02, 4.987E+01, 1.120E+02, 1.686E+02, 4.950E+01,-1.748E+01, 2.065E-01, 2.107E-03, 2.002E+02
 1.100E+02, 1.115E+02, 1.129E+02, 1.169E+02, 1.657E+02, 5.178E+01, 1.209E+02, 1.657E+02, 5.192E+01,-3.017E+01, 2.058E-01, 2.477E-03, 2.003E+02
 1.200E+02, 1.139E+02, 1.175E+02, 1.226E+02, 1.653E+02, 5.375E+01, 1.251E+02, 1.748E+02, 5.268E+01,-3.381E+01, 2.055E-01, 2.653E-03, 1.998E+02
 1.300E+02, 1.164E+02, 1.192E+02, 1.238E+02, 1.702E+02, 5.535E+01, 1.282E+02, 1.732E+02, 5.604E+01,-4.433E+01, 2.045E-01, 3.229E-03, 2.000E+02
 1.400E+02, 1.185E+02, 1.201E+02, 1.277E+02, 1.709E+02, 5.684E+01, 1.305E+02, 1.734E+02, 5.627E+01,-5.081E+01, 2.040E-01, 3.510E-03, 2.002E+02
 1.500E+02, 1.193E+02, 1.224E+02, 1.273E+02, 1.725E+02, 5.822E+01, 1.310E+02, 1.792E+02, 5.704E+01,-5.936E+01, 2.034E-01, 3.847E-03, 2.002E+02
 1.600E+02, 1.204E+02, 1.237E+02, 1.298E+02, 1.727E+02, 5.869E+01, 1.325E+02, 1.803E+02, 5.845E+01,-5.733E+01, 2.026E-01, 4.298E-03, 2.001E+02
 1.700E+02, 1.222E+02, 1.239E+02, 1.298E+02, 1.771E+02, 5.967E+01, 1.338E+02, 1.797E+02, 5.818E+01,-6.001E+01, 2.020E-01, 4.583E-03, 1.999E+02
 1.800E+02, 1.223E+02, 1.252E+02, 1.323E+02, 1.748E+02, 5.985E+01, 1.356E+02, 1.804E+02, 5.958E+01,-6.366E+01, 2.014E-01, 4.951E-03, 1.998E+02
 1.900E+02, 1.229E+02, 1.257E+02, 1.334E+02, 1.754E+02, 5.992E+01, 1.341E+02, 1.824E+02, 6.068E+01,-6.046E+01, 2.005E-01, 5.432E-03, 2.005E+02
 2.000E+02, 1.248E+02, 1.268E+02, 1.332E+02, 1.802E+02, 6.093E+01, 1.370E+02, 1.829E+02, 6.059E+01,-6.501E+01, 1.999E-01, 5.754E-03, 1.998E+02
 2.100E+02, 1.249E+02, 1.279E+02, 1.343E+02, 1.791E+02, 6.117E+01, 1.393E+02, 1.829E+02, 6.151E+01,-6.700E+01, 1.989E-01, 6.358E-03, 2.005E+02
 2.200E+02, 1.253E+02, 1.282E+02, 1.333E+02, 1.812E+02, 6.134E+01, 1.411E+02, 1.828E+02, 6.089E+01,-6.598E+01, 1.983E-01, 6.669E-03, 1.998E+02
 2.300E+02, 1.252E+02, 1.297E+02, 1.351E+02, 1.782E+02, 6.231E+01, 1.417E+02, 1.860E+02, 6.146E+01,-6.573E+01, 1.975E-01, 7.109E-03, 1.993E+02
 2.400E+02, 1.248E+02, 1.307E+02, 1.359E+02, 1.773E+02, 6.117E+01, 1.409E+02, 1.896E+02, 6.149E+01,-6.033E+01, 1.965E-01, 7.658E-03, 2.006E+02
 2.500E+02, 1.269E+02, 1.316E+02, 1.368E+02, 1.813E+02, 6.260E+01, 1.422E+02, 1.900E+02, 6.240E+01,-6.615E+01, 1.957E-01, 8.128E-03, 1.994E+02
 2.600E+02, 1.270E+02, 1.306E+02, 1.370E+02, 1.815E+02, 6.256E+01, 1.430E+02, 1.864E+02, 6.227E+01,-6.493E+01, 1.948E-01, 8.606E-03, 2.006E+02
 2.700E+02, 1.276E+02, 1.323E+02, 1.380E+02, 1.817E+02, 6.315E+01, 1.446E+02, 1.906E+02, 6.165E+01,-7.021E+01, 1.942E-01, 8.989E-03, 1.999E+02
 2.800E+02, 1.279E+02, 1.317E+02, 1.392E+02, 1.812E+02, 6.337E+01, 1.438E+02, 1.888E+02, 6.266E+01,-6.882E+01, 1.930E-01, 9.628E-03, 2.003E+02
 2.900E+02, 1.301E+02, 1.332E+02, 1.392E+02, 1.878E+02, 6.331E+01, 1.483E+02, 1.890E+02, 6.250E+01,-6.359E+01, 1.924E-01, 9.947E-03, 1.999E+02
 3.000E+02, 1.293E+02, 1.339E+02, 1.386E+02, 1.863E+02, 6.300E+01, 1.477E+02, 1.906E+02, 6.344E+01,-6.706E+01, 1.914E-01, 1.054E-02, 2.004E+02
 3.100E+02, 1.291E+02, 1.334E+02, 1.403E+02, 1.836E+02, 6.340E+01, 1.476E+02, 1.902E+02, 6.235E+01,-6.299E+01, 1.909E-01, 1.083E-02, 1.997E+02
 3.200E+02, 1.300E+02, 1.328E+02, 1.411E+02, 1.855E+02, 6.350E+01, 1.460E+02, 1.893E+02, 6.316E+01,-6.231E+01, 1.899E-01, 1.138E-02, 2.007E+02
 3.300E+02, 1.296E+02, 1.343E+02, 1.400E+02, 1.857E+02, 6.323E+01, 1.496E+02, 1.899E+02, 6.335E+01,-6.558E+01, 1.889E-01, 1.193E-02, 1.997E+02
 3.400E+02, 1.310E+02, 1.344E+02, 1.412E+02, 1.883E+02, 6.348E+01, 1.476E+02, 1.923E+02, 6.338E+01,-6.266E+01, 1.883E-01, 1.226E-02, 2.002E+02
 3.500E+02, 1.315E+02, 1.362E+02, 1.428E+02, 1.869E+02, 6.471E+01, 1.508E+02, 1.940E+02, 6.399E+01,-6.728E+01, 1.872E-01, 1.290E-02, 2.001E+02
 3.600E+02, 1.327E+02, 1.355E+02, 1.424E+02, 1.907E+02, 6.484E+01, 1.488E+02, 1.931E+02, 6.452E+01,-6.872E+01, 1.862E-01, 1.342E-02, 2.001E+02
 3.700E+02, 1.319E+02, 1.365E+02, 1.424E+02, 1.896E+02, 6.367E+01, 1.531E+02, 1.920E+02, 6.445E+01,-6.916E+01, 1.852E-01, 1.397E-02, 2.000E+02
 3.800E+02, 1.327E+02, 1.360E+02, 1.423E+02, 1.912E+02, 6.469E+01, 1.508E+02, 1.933E+02, 6.389E+01,-6.716E+01, 1.847E-01, 1.429E-02, 2.001E+02
 3.900E+02, 1.327E+02, 1.361E+02, 1.422E+02, 1.914E+02, 6.450E+01, 1.503E+02, 1.932E+02, 6.464E+01,-6.486E+01, 1.837E-01, 1.481E-02, 1.999E+02
 4.000E+02, 1.323E+02, 1.369E+02, 1.427E+02, 1.898E+02, 6.431E+01, 1.504E+02, 1.954E+02, 6.477E+01,-6.242E+01, 1.827E-01, 1.540E-02, 2.000E+02
 4.100E+02, 1.342E+02, 1.367E+02, 1.447E+02, 1.926E+02, 6.541E+01, 1.489E+02, 1.957E+02, 6.536E+01,-5.930E+01, 1.815E-01, 1.604E-02, 2.003E+02
 4.200E+02, 1.339E+02, 1.371E+02, 1.445E+02, 1.916E+02, 6.568E+01, 1.496E+02, 1.962E+02, 6.566E+01,-6.020E+01, 1.811E-01, 1.630E-02, 2.001E+02
 4.300E+02, 1.343E+02, 1.378E+02, 1.452E+02, 1.920E+02, 6.578E+01, 1.502E+02, 1.971E+02, 6.616E+01,-6.584E+01, 1.799E-01, 1.694E-02, 1.999E+02
 4.400E+02, 1.352E+02, 1.379E+02, 1.468E+02, 1.915E+02, 6.718E+01, 1.520E+02, 1.964E+02, 6.521E+01,-6.563E+01, 1.795E-01, 1.718E-02, 2.001E+02
 4.500E+02, 1.350E+02, 1.399E+02, 1.450E+02, 1.936E+02, 6.651E+01, 1.538E+02, 1.996E+02, 6.645E+01,-6.336E+01, 1.782E-01, 1.788E-02, 1.999E+02
 4.600E+02, 1.348E+02, 1.406E+02, 1.450E+02, 1.928E+02, 6.657E+01, 1.544E+02, 2.005E+02, 6.685E+01,-6.192E+01, 1.776E-01, 1.825E-02, 2.004E+02
 4.700E+02, 1.359E+02, 1.413E+02, 1.460E+02, 1.946E+02, 6.704E+01, 1.600E+02, 1.964E+02, 6.743E+01,-6.124E+01, 1.770E-01, 1.858E-02, 2.001E+02
 4.800E+02, 1.371E+02, 1.407E+02, 1.469E+02, 1.975E+02, 6.695E+01, 1.562E+02, 1.988E+02, 6.709E+01,-6.391E+01, 1.759E-01, 1.917E-02, 1.996E+02
 4.900E+02, 1.371E+02, 1.390E+02, 1.478E+02, 1.946E+02, 6.895E+01, 1.482E+02, 2.016E+02, 6.713E+01,-6.673E+01, 1.752E-01, 1.958E-02, 2.000E+02
 5.000E+02, 1.373E+02, 1.402E+02, 1.468E+02, 1.969E+02, 6.824E+01, 1.532E+02, 1.993E+02, 6.805E+01,-6.701E+01, 1.743E-01, 2.006E-02, 2.003E+02
 5.100E+02, 1.366E+02, 1.410E+02, 1.472E+02, 1.949E+02, 6.774E+01, 1.546E+02, 2.008E+02, 6.771E+01,-6.641E+01, 1.734E-01, 2.059E-02, 1.999E+02
 5.200E+02, 1.367E+02, 1.420E+02, 1.470E+02, 1.952E+02, 6.788E+01, 1.575E+02, 2.017E+02, 6.683E+01,-6.185E+01, 1.729E-01, 2.089E-02, 1.999E+02
 5.300E+02, 1.387E+02, 1.423E+02, 1.487E+02, 1.989E+02, 6.857E+01, 1.537E+02, 2.058E+02, 6.745E+01,-6.758E+01, 1.721E-01, 2.133E-02, 2.002E+02
 5.400E+02, 1.383E+02, 1.436E+02, 1.486E+02, 1.993E+02, 6.706E+01, 1.579E+02, 2.052E+02, 6.780E+01,-6.610E+01, 1.715E-01, 2.167E-02, 1.999E+02
 5.500E+02, 1.375E+02, 1.433E+02, 1.504E+02, 1.956E+02, 6.654E+01, 1.595E+02, 2.033E+02, 6.702E+01,-6.212E+01, 1.708E-01, 2.203E-02, 2.002E+02
 5.600E+02, 1.388E+02, 1.422E+02, 1.497E+02, 1.985E+02, 6.831E+01, 1.580E+02, 2.022E+02, 6.650E+01,-6.585E+01, 1.702E-01, 2.237E-02, 1.998E+02
 5.700E+02, 1.394E+02, 1.434E+02, 1.511E+02, 1.986E+02, 6.836E+01, 1.600E+02, 2.026E+02, 6.764E+01,-6.332E+01, 1.693E-01, 2.285E-02, 2.004E+02
 5.800E+02, 1.399E+02, 1.434E+02, 1.503E+02, 1.997E+02, 6.960E+01, 1.586E+02, 2.034E+02, 6.832E+01,-6.337E+01, 1.684E-01, 2.336E-02, 2.001E+02
 5.900E+02, 1.393E+02, 1.447E+02, 1.504E+02, 1.995E+02, 6.792E+01, 1.625E+02, 2.033E+02, 6.847E+01,-6.330E+01, 1.682E-01, 2.349E-02, 1.995E+02
 6.000E+02, 1.384E+02, 1.436E+02, 1.494E+02, 1.974E+02, 6.851E+01, 1.575E+02, 2.042E+02, 6.896E+01,-6.342E+01, 1.675E-01, 2.391E-02, 2.001E+02
 6.100E+02, 1.390E+02, 1.442E+02, 1.513E+02, 1.980E+02, 6.776E+01, 1.580E+02, 2.065E+02, 6.813E+01,-6.227E+01, 1.669E-01, 2.421E-02, 2.004E+02
 6.200E+02, 1.409E+02, 1.454E+02, 1.526E+02, 2.006E+02, 6.944E+01, 1.643E+02, 2.038E+02, 6.802E+01,-6.072E+01, 1.665E-01, 2.446E-02, 1.997E+02
 6.300E+02, 1.416E+02, 1.460E+02, 1.526E+02, 2.016E+02, 7.058E+01, 1.631E+02, 2.065E+02, 6.854E+01,-6.691E+01, 1.655E-01, 2.502E-02, 2.004E+02
 6.400E+02, 1.405E+02, 1.463E+02, 1.517E+02, 2.007E+02, 6.921E+01, 1.628E+02, 2.065E+02, 6.966E+01,-6.790E+01, 1.649E-01, 2.534E-02, 1.995E+02
 6.500E+02, 1.427E+02, 1.462E+02, 1.529E+02, 2.051E+02, 7.012E+01, 1.623E+02, 2.084E+02, 6.798E+01,-6.250E+01, 1.646E-01, 2.549E-02, 2.005E+02
 6.600E+02, 1.411E+02, 1.453E+02, 1.533E+02, 1.998E+02, 7.034E+01, 1.608E+02, 2.055E+02, 6.969E+01,-6.573E+01, 1.635E-01, 2.614E-02, 1.996E+02
 6.700E+02, 1.431E+02, 1.454E+02, 1.567E+02, 2.033E+02, 6.940E+01, 1.638E+02, 2.037E+02, 6.874E+01,-6.106E+01, 1.631E-01, 2.632E-02, 2.004E+02
 6.800E+02, 1.443E+02, 1.459E+02, 1.557E+02, 2.060E+02, 7.116E+01, 1.608E+02, 2.073E+02, 6.955E+01,-6.317E+01, 1.625E-01, 2.668E-02, 2.000E+02
 6.900E+02, 1.440E+02, 1.476E+02, 1.553E+02, 2.061E+02, 7.073E+01, 1.647E+02, 2.087E+02, 6.942E+01,-6.540E+01, 1.621E-01, 2.693E-02, 2.001E+02
 7.000E+02, 1.434E+02, 1.474E+02, 1.541E+02, 2.051E+02, 7.100E+01, 1.636E+02, 2.091E+02, 6.935E+01,-6.539E+01, 1.614E-01, 2.729E-02, 1.996E+02
 7.100E+02, 1.420E+02, 1.496E+02, 1.529E+02, 2.031E+02, 7.015E+01, 1.677E+02, 2.106E+02, 7.052E+01,-5.979E+01, 1.610E-01, 2.750E-02, 1.999E+02
 7.200E+02, 1.430E+02, 1.474E+02, 1.542E+02, 2.037E+02, 7.127E+01, 1.633E+02, 2.080E+02, 7.092E+01,-6.339E+01, 1.606E-01, 2.774E-02, 2.005E+02
 7.300E+02, 1.439E+02, 1.496E+02, 1.561E+02, 2.044E+02, 7.130E+01, 1.653E+02, 2.123E+02, 7.119E+01,-6.287E+01, 1.597E-01, 2.823E-02, 2.000E+02
 7.400E+02, 1.457E+02, 1.463E+02, 1.582E+02, 2.071E+02, 7.162E+01, 1.610E+02, 2.072E+02, 7.086E+01,-6.025E+01, 1.593E-01, 2.845E-02, 2.003E+02
 7.500E+02, 1.452E+02, 1.494E+02, 1.575E+02, 2.054E+02, 7.283E+01, 1.616E+02, 2.155E+02, 7.111E+01,-6.189E+01, 1.588E-01, 2.872E-02, 1.997E+02
 7.600E+02, 1.459E+02, 1.490E+02, 1.590E+02, 2.069E+02, 7.178E+01, 1.645E+02, 2.099E+02, 7.264E+01,-6.527E+01, 1.583E-01, 2.905E-02, 2.004E+02
 7.700E+02, 1.460E+02, 1.521E+02, 1.575E+02, 2.068E+02, 7.368E+01, 1.693E+02, 2.149E+02, 7.221E+01,-6.354E+01, 1.579E-01, 2.923E-02, 2.002E+02
 7.800E+02, 1.462E+02, 1.503E+02, 1.571E+02, 2.078E+02, 7.370E+01, 1.679E+02, 2.112E+02, 7.186E+01,-6.624E+01, 1.573E-01, 2.956E-02, 1.994E+02
 7.900E+02, 1.431E+02, 1.517E+02, 1.552E+02, 2.022E+02, 7.186E+01, 1.650E+02, 2.181E+02, 7.201E+01,-6.412E+01, 1.570E-01, 2.975E-02, 2.004E+02
 8.000E+02, 1.454E+02, 1.499E+02, 1.586E+02, 2.055E+02, 7.213E+01, 1.643E+02, 2.129E+02, 7.258E+01,-6.890E+01, 1.567E-01, 2.989E-02, 1.993E+02
 8.100E+02, 1.449E+02, 1.502E+02, 1.590E+02, 2.038E+02, 7.207E+01, 1.688E+02, 2.095E+02, 7.233E+01,-6.273E+01, 1.564E-01, 3.007E-02, 2.005E+02
 8.200E+02, 1.474E+02, 1.511E+02, 1.613E+02, 2.073E+02, 7.346E+01, 1.642E+02, 2.165E+02, 7.265E+01,-6.343E+01, 1.560E-01, 3.029E-02, 1.998E+02
 8.300E+02, 1.484E+02, 1.504E+02, 1.604E+02, 2.102E+02, 7.454E+01, 1.654E+02, 2.127E+02, 7.302E+01,-6.367E+01, 1.556E-01, 3.055E-02, 1.996E+02
 8.400E+02, 1.489E+02, 1.507E+02, 1.604E+02, 2.120E+02, 7.431E+01, 1.692E+02, 2.108E+02, 7.219E+01,-6.839E+01, 1.554E-01, 3.067E-02, 2.004E+02
 8.500E+02, 1.471E+02, 1.516E+02, 1.585E+02, 2.101E+02, 7.273E+01, 1.666E+02, 2.157E+02, 7.247E+01,-6.263E+01, 1.550E-01, 3.089E-02, 2.002E+02
 8.600E+02, 1.461E+02, 1.509E+02, 1.577E+02, 2.068E+02, 7.389E+01, 1.673E+02, 2.127E+02, 7.281E+01,-5.657E+01, 1.546E-01, 3.107E-02, 1.994E+02
 8.700E+02, 1.467E+02, 1.527E+02, 1.594E+02, 2.066E+02, 7.394E+01, 1.662E+02, 2.171E+02, 7.491E+01,-6.218E+01, 1.541E-01, 3.134E-02, 2.004E+02
 8.800E+02, 1.481E+02, 1.518E+02, 1.604E+02, 2.091E+02, 7.476E+01, 1.694E+02, 2.125E+02, 7.359E+01,-6.966E+01, 1.540E-01, 3.142E-02, 1.994E+02
 8.900E+02, 1.476E+02, 1.516E+02, 1.600E+02, 2.086E+02, 7.410E+01, 1.679E+02, 2.131E+02, 7.382E+01,-6.604E+01, 1.534E-01, 3.174E-02, 2.001E+02
 9.000E+02, 1.494E+02, 1.514E+02, 1.617E+02, 2.117E+02, 7.464E+01, 1.694E+02, 2.105E+02, 7.442E+01,-6.232E+01, 1.530E-01, 3.201E-02, 2.002E+02
 9.100E+02, 1.494E+02, 1.535E+02, 1.623E+02, 2.106E+02, 7.541E+01, 1.718E+02, 2.152E+02, 7.352E+01,-6.488E+01, 1.529E-01, 3.205E-02, 1.999E+02
 9.200E+02, 1.490E+02, 1.551E+02, 1.611E+02, 2.118E+02, 7.409E+01, 1.719E+02, 2.193E+02, 7.418E+01,-6.160E+01, 1.525E-01, 3.225E-02, 1.995E+02
 9.300E+02, 1.494E+02, 1.541E+02, 1.597E+02, 2.123E+02, 7.606E+01, 1.699E+02, 2.186E+02, 7.396E+01,-5.910E+01, 1.523E-01, 3.239E-02, 2.000E+02
 9.400E+02, 1.485E+02, 1.554E+02, 1.599E+02, 2.089E+02, 7.683E+01, 1.703E+02, 2.195E+02, 7.641E+01,-5.924E+01, 1.517E-01, 3.269E-02, 1.999E+02
 9.500E+02, 1.499E+02, 1.553E+02, 1.624E+02, 2.096E+02, 7.771E+01, 1.726E+02, 2.173E+02, 7.596E+01,-6.827E+01, 1.516E-01, 3.277E-02, 2.003E+02
 9.600E+02, 1.497E+02, 1.529E+02, 1.622E+02, 2.109E+02, 7.590E+01, 1.690E+02, 2.145E+02, 7.529E+01,-6.557E+01, 1.515E-01, 3.284E-02, 1.998E+02
 9.700E+02, 1.510E+02, 1.542E+02, 1.645E+02, 2.123E+02, 7.626E+01, 1.689E+02, 2.176E+02, 7.602E+01,-6.357E+01, 1.511E-01, 3.303E-02, 2.001E+02
 9.800E+02, 1.519E+02, 1.553E+02, 1.624E+02, 2.163E+02, 7.713E+01, 1.715E+02, 2.179E+02, 7.651E+01,-6.437E+01, 1.509E-01, 3.315E-02, 2.007E+02
 9.900E+02, 1.505E+02, 1.558E+02, 1.626E+02, 2.126E+02, 7.625E+01, 1.720E+02, 2.199E+02, 7.537E+01,-6.524E+01, 1.509E-01, 3.316E-02, 1.994E+02
 1.000E+03, 1.501E+02, 1.564E+02, 1.611E+02, 2.122E+02, 7.702E+01, 1.748E+02, 2.181E+02, 7.634E+01,-5.920E+01, 1.507E-01, 3.329E-02, 2.003E+02
 1.010E+03, 1.504E+02, 1.565E+02, 1.621E+02, 2.110E+02, 7.815E+01, 1.732E+02, 2.190E+02, 7.720E+01,-6.423E+01, 1.503E-01, 3.349E-02, 1.998E+02
 1.020E+03, 1.511E+02, 1.555E+02, 1.625E+02, 2.127E+02, 7.820E+01, 1.730E+02, 2.167E+02, 7.668E+01,-6.489E+01, 1.502E-01, 3.354E-02, 1.995E+02
 1.030E+03, 1.513E+02, 1.575E+02, 1.631E+02, 2.123E+02, 7.859E+01, 1.768E+02, 2.198E+02, 7.599E+01,-6.275E+01, 1.501E-01, 3.361E-02, 2.008E+02
 1.040E+03, 1.532E+02, 1.573E+02, 1.659E+02, 2.147E+02, 7.906E+01, 1.734E+02, 2.217E+02, 7.694E+01,-5.904E+01, 1.497E-01, 3.384E-02, 1.999E+02
 1.050E+03, 1.532E+02, 1.573E+02, 1.635E+02, 2.170E+02, 7.906E+01, 1.752E+02, 2.194E+02, 7.734E+01,-6.334E+01, 1.496E-01, 3.387E-02, 2.000E+02
 1.060E+03, 1.526E+02, 1.585E+02, 1.631E+02, 2.161E+02, 7.870E+01, 1.784E+02, 2.192E+02, 7.783E+01,-6.195E+01, 1.494E-01, 3.399E-02, 1.997E+02
 1.070E+03, 1.522E+02, 1.604E+02, 1.621E+02, 2.143E+02, 8.017E+01, 1.769E+02, 2.253E+02, 7.893E+01,-6.450E+01, 1.491E-01, 3.417E-02, 2.003E+02
 1.080E+03, 1.535E+02, 1.575E+02, 1.642E+02, 2.162E+02, 8.013E+01, 1.740E+02, 2.203E+02, 7.828E+01,-6.127E+01, 1.489E-01, 3.426E-02, 2.001E+02
 1.090E+03, 1.539E+02, 1.593E+02, 1.648E+02, 2.164E+02, 8.059E+01, 1.751E+02, 2.238E+02, 7.881E+01,-6.912E+01, 1.488E-01, 3.434E-02, 2.005E+02
 1.100E+03, 1.536E+02, 1.571E+02, 1.645E+02, 2.165E+02, 7.988E+01, 1.725E+02, 2.209E+02, 7.793E+01,-6.531E+01, 1.486E-01, 3.444E-02, 1.996E+02
 1.110E+03, 1.550E+02, 1.587E+02, 1.667E+02, 2.169E+02, 8.131E+01, 1.723E+02, 2.269E+02, 7.685E+01,-6.402E+01, 1.485E-01, 3.450E-02, 2.002E+02
 1.120E+03, 1.538E+02, 1.591E+02, 1.645E+02, 2.165E+02, 8.037E+01, 1.752E+02, 2.226E+02, 7.955E+01,-6.192E+01, 1.481E-01, 3.473E-02, 1.999E+02
 1.130E+03, 1.541E+02, 1.584E+02, 1.653E+02, 2.167E+02, 8.033E+01, 1.744E+02, 2.222E+02, 7.862E+01,-6.135E+01, 1.480E-01, 3.478E-02, 2.001E+02
 1.140E+03, 1.529E+02, 1.594E+02, 1.644E+02, 2.136E+02, 8.054E+01, 1.738E+02, 2.251E+02, 7.945E+01,-6.074E+01, 1.480E-01, 3.479E-02, 1.998E+02
 1.150E+03, 1.540E+02, 1.602E+02, 1.647E+02, 2.164E+02, 8.094E+01, 1.771E+02, 2.235E+02, 7.990E+01,-6.054E+01, 1.479E-01, 3.484E-02, 2.006E+02
 1.160E+03, 1.558E+02, 1.594E+02, 1.681E+02, 2.178E+02, 8.148E+01, 1.784E+02, 2.204E+02, 7.924E+01,-6.393E+01, 1.478E-01, 3.491E-02, 2.004E+02
 1.170E+03, 1.562E+02, 1.593E+02, 1.683E+02, 2.181E+02, 8.232E+01, 1.753E+02, 2.225E+02, 7.999E+01,-6.001E+01, 1.477E-01, 3.497E-02, 1.999E+02
 1.180E+03, 1.575E+02, 1.614E+02, 1.690E+02, 2.201E+02, 8.353E+01, 1.795E+02, 2.245E+02, 8.029E+01,-5.775E+01, 1.472E-01, 3.522E-02, 2.002E+02
 1.190E+03, 1.574E+02, 1.608E+02, 1.681E+02, 2.211E+02, 8.303E+01, 1.774E+02, 2.250E+02, 8.006E+01,-6.920E+01, 1.472E-01, 3.525E-02, 1.999E+02
 1.200E+03, 1.564E+02, 1.616E+02, 1.671E+02, 2.197E+02, 8.243E+01, 1.806E+02, 2.243E+02, 7.995E+01,-6.180E+01, 1.471E-01, 3.531E-02, 2.007E+02
 1.210E+03, 1.556E+02, 1.624E+02, 1.672E+02, 2.171E+02, 8.250E+01, 1.802E+02, 2.269E+02, 8.009E+01,-6.294E+01, 1.469E-01, 3.542E-02, 2.001E+02
 1.220E+03, 1.567E+02, 1.623E+02, 1.685E+02, 2.188E+02, 8.277E+01, 1.802E+02, 2.264E+02, 8.027E+01,-6.088E+01, 1.468E-01, 3.543E-02, 1.997E+02
 1.230E+03, 1.580E+02, 1.614E+02, 1.693E+02, 2.212E+02, 8.351E+01, 1.764E+02, 2.265E+02, 8.139E+01,-6.285E+01, 1.465E-01, 3.560E-02, 2.002E+02
 1.240E+03, 1.580E+02, 1.630E+02, 1.697E+02, 2.205E+02, 8.380E+01, 1.803E+02, 2.277E+02, 8.098E+01,-6.075E+01, 1.466E-01, 3.554E-02, 2.003E+02
 1.250E+03, 1.581E+02, 1.623E+02, 1.696E+02, 2.197E+02, 8.494E+01, 1.737E+02, 2.308E+02, 8.236E+01,-6.036E+01, 1.464E-01, 3.569E-02, 2.002E+02
 1.260E+03, 1.573E+02, 1.617E+02, 1.681E+02, 2.213E+02, 8.245E+01, 1.780E+02, 2.250E+02, 8.226E+01,-6.309E+01, 1.461E-01, 3.582E-02, 1.998E+02
 1.270E+03, 1.579E+02, 1.627E+02, 1.675E+02, 2.219E+02, 8.422E+01, 1.790E+02, 2.268E+02, 8.247E+01,-6.453E+01, 1.461E-01, 3.587E-02, 1.999E+02
 1.280E+03, 1.583E+02, 1.625E+02, 1.684E+02, 2.209E+02, 8.578E+01, 1.775E+02, 2.280E+02, 8.194E+01,-6.067E+01, 1.459E-01, 3.593E-02, 1.996E+02
 1.290E+03, 1.580E+02, 1.633E+02, 1.685E+02, 2.199E+02, 8.543E+01, 1.784E+02, 2.287E+02, 8.274E+01,-5.879E+01, 1.457E-01, 3.604E-02, 2.001E+02
 1.300E+03, 1.589E+02, 1.635E+02, 1.704E+02, 2.213E+02, 8.490E+01, 1.792E+02, 2.286E+02, 8.273E+01,-6.265E+01, 1.456E-01, 3.610E-02, 2.001E+02
 1.310E+03, 1.586E+02, 1.623E+02, 1.715E+02, 2.199E+02, 8.436E+01, 1.787E+02, 2.254E+02, 8.273E+01,-6.470E+01, 1.457E-01, 3.606E-02, 1.999E+02
