s,C,C,C,C,C,C,C,C,Pa,mol/mol,mol/mol,kW
Time,"West_All_TCs","East_All_TCs","West_Bottom_TCs","West_Middle_TCs","West_Upper_TCs","East_Bottom_TCs","East_Middle_TCs","East_Upper_TCs","Pressure","O2","CO2","HRR"
-6.000E+01, 2.500E+01, 2.500E+01, 2.500E+01, 2.500E+01, 2.500E+01, 2.500E+01, 2.500E+01, 2.500E+01,-9.627E-06, 2.095E-01, 3.901E-04, 0.000E+00
-4.998E+01, 2.500E+01, 2.500E+01, 2.500E+01, 2.500E+01, 2.500E+01, 2.500E+01, 2.500E+01, 2.500E+01,-6.342E-04, 2.095E-01, 3.901E-04, 0.000E+00
-3.996E+01, 2.500E+01, 2.500E+01, 2.500E+01, 2.500E+01, 2.500E+01, 2.500E+01, 2.500E+01, 2.500E+01,-3.026E-05, 2.095E-01, 3.901E-04, 0.000E+00
-2.998E+01, 2.500E+01, 2.500E+01, 2.500E+01, 2.500E+01, 2.500E+01, 2.500E+01, 2.500E+01, 2.500E+01,-2.815E-05, 2.095E-01, 3.901E-04, 0.000E+00
-1.996E+01, 2.500E+01, 2.500E+01, 2.500E+01, 2.500E+01, 2.500E+01, 2.500E+01, 2.500E+01, 2.500E+01,-2.936E-05, 2.095E-01, 3.901E-04, 0.000E+00
-9.985E+00, 2.500E+01, 2.500E+01, 2.500E+01, 2.500E+01, 2.500E+01, 2.500E+01, 2.500E+01, 2.500E+01,-3.101E-05, 2.095E-01, 3.901E-04, 0.000E+00
 3.528E-02, 2.500E+01, 2.500E+01, 2.500E+01, 2.500E+01, 2.500E+01, 2.500E+01, 2.500E+01, 2.500E+01,-3.209E-05, 2.095E-01, 3.901E-04, 6.632E-05
 1.002E+01, 2.536E+01, 2.550E+01, 2.523E+01, 2.508E+01, 2.579E+01, 2.537E+01, 2.510E+01, 2.603E+01, 4.424E+00, 2.094E-01, 4.528E-04, 1.627E+01
 2.003E+01, 2.627E+01, 2.690E+01, 2.581E+01, 2.531E+01, 2.769E+01, 2.632E+01, 2.536E+01, 2.902E+01, 2.407E+01, 2.092E-01, 6.046E-04, 4.966E+01
 3.001E+01, 3.103E+01, 3.107E+01, 2.663E+01, 2.968E+01, 3.677E+01, 2.757E+01, 2.873E+01, 3.691E+01, 5.914E+01, 2.081E-01, 1.207E-03, 8.284E+01
 4.001E+01, 3.594E+01, 3.662E+01, 2.744E+01, 3.479E+01, 4.560E+01, 2.899E+01, 3.471E+01, 4.615E+01, 7.798E+01, 2.070E-01, 1.797E-03, 1.004E+02
 5.000E+01, 4.184E+01, 4.222E+01, 3.076E+01, 4.218E+01, 5.257E+01, 3.096E+01, 4.201E+01, 5.368E+01, 6.886E+01, 2.063E-01, 2.212E-03, 1.003E+02
 6.001E+01, 4.733E+01, 4.748E+01, 3.313E+01, 5.032E+01, 5.855E+01, 3.408E+01, 4.976E+01, 5.860E+01, 6.022E+01, 2.059E-01, 2.438E-03, 9.989E+01
 7.000E+01, 5.326E+01, 5.365E+01, 3.745E+01, 5.706E+01, 6.528E+01, 3.862E+01, 5.613E+01, 6.620E+01, 5.067E+01, 2.050E-01, 2.953E-03, 1.001E+02
 8.002E+01, 5.848E+01, 5.846E+01, 4.261E+01, 6.246E+01, 7.036E+01, 4.383E+01, 6.027E+01, 7.127E+01, 4.395E+01, 2.044E-01, 3.259E-03, 1.008E+02
 9.001E+01, 6.241E+01, 6.298E+01, 4.737E+01, 6.654E+01, 7.331E+01, 4.766E+01, 6.608E+01, 7.519E+01, 3.691E+01, 2.038E-01, 3.601E-03, 9.981E+01
 1.000E+02, 6.606E+01, 6.707E+01, 5.155E+01, 7.040E+01, 7.624E+01, 5.345E+01, 6.935E+01, 7.842E+01, 3.204E+01, 2.035E-01, 3.790E-03, 1.010E+02
 1.100E+02, 6.971E+01, 7.059E+01, 5.488E+01, 7.434E+01, 7.992E+01, 5.709E+01, 7.232E+01, 8.238E+01, 2.612E+01, 2.027E-01, 4.193E-03, 1.007E+02
 1.200E+02, 7.356E+01, 7.382E+01, 5.971E+01, 7.721E+01, 8.375E+01, 6.049E+01, 7.612E+01, 8.484E+01, 2.229E+01, 2.022E-01, 4.516E-03, 1.010E+02
 1.300E+02, 7.662E+01, 7.706E+01, 6.350E+01, 7.898E+01, 8.736E+01, 6.354E+01, 8.050E+01, 8.713E+01, 1.939E+01, 2.018E-01, 4.732E-03, 1.006E+02
 1.400E+02, 7.950E+01, 7.915E+01, 6.564E+01, 8.360E+01, 8.928E+01, 6.659E+01, 8.192E+01, 8.893E+01, 1.658E+01, 2.010E-01, 5.146E-03, 1.006E+02
 1.500E+02, 8.134E+01, 8.176E+01, 6.756E+01, 8.575E+01, 9.070E+01, 6.943E+01, 8.404E+01, 9.180E+01, 1.379E+01, 2.004E-01, 5.526E-03, 1.005E+02
 1.600E+02, 8.427E+01, 8.372E+01, 7.047E+01, 8.703E+01, 9.532E+01, 7.026E+01, 8.563E+01, 9.526E+01, 1.295E+01, 1.997E-01, 5.882E-03, 1.008E+02
 1.700E+02, 8.455E+01, 8.550E+01, 7.162E+01, 8.730E+01, 9.473E+01, 7.229E+01, 8.790E+01, 9.632E+01, 1.121E+01, 1.991E-01, 6.210E-03, 1.009E+02
 1.800E+02, 8.681E+01, 8.729E+01, 7.391E+01, 9.073E+01, 9.579E+01, 7.449E+01, 8.877E+01, 9.861E+01, 1.157E+01, 1.985E-01, 6.559E-03, 1.011E+02
 1.900E+02, 8.904E+01, 8.808E+01, 7.651E+01, 9.206E+01, 9.856E+01, 7.564E+01, 8.895E+01, 9.964E+01, 1.074E+01, 1.979E-01, 6.890E-03, 1.011E+02
 2.000E+02, 8.969E+01, 8.877E+01, 7.678E+01, 9.282E+01, 9.946E+01, 7.669E+01, 8.934E+01, 1.003E+02, 1.030E+01, 1.973E-01, 7.250E-03, 1.003E+02
 2.100E+02, 9.145E+01, 9.009E+01, 7.944E+01, 9.482E+01, 1.001E+02, 7.833E+01, 9.170E+01, 1.002E+02, 1.004E+01, 1.968E-01, 7.487E-03, 1.007E+02
 2.200E+02, 9.177E+01, 9.023E+01, 8.058E+01, 9.480E+01, 9.994E+01, 7.866E+01, 9.238E+01, 9.963E+01, 8.789E+00, 1.963E-01, 7.786E-03, 9.960E+01
 2.300E+02, 9.158E+01, 9.043E+01, 7.980E+01, 9.330E+01, 1.016E+02, 7.863E+01, 9.220E+01, 1.005E+02, 9.951E+00, 1.955E-01, 8.247E-03, 1.008E+02
 2.400E+02, 9.306E+01, 9.116E+01, 7.984E+01, 9.652E+01, 1.028E+02, 8.044E+01, 9.196E+01, 1.011E+02, 8.952E+00, 1.950E-01, 8.542E-03, 1.002E+02
 2.500E+02, 9.446E+01, 9.313E+01, 8.125E+01, 9.927E+01, 1.029E+02, 8.167E+01, 9.539E+01, 1.023E+02, 9.119E+00, 1.940E-01, 9.082E-03, 1.007E+02
 2.600E+02, 9.270E+01, 9.358E+01, 8.128E+01, 9.491E+01, 1.019E+02, 8.155E+01, 9.567E+01, 1.035E+02, 8.842E+00, 1.934E-01, 9.416E-03, 1.005E+02
 2.700E+02, 9.477E+01, 9.419E+01, 8.088E+01, 9.936E+01, 1.041E+02, 8.224E+01, 9.633E+01, 1.040E+02, 8.826E+00, 1.925E-01, 9.895E-03, 1.010E+02
 2.800E+02, 9.608E+01, 9.398E+01, 8.203E+01, 9.975E+01, 1.065E+02, 8.258E+01, 9.561E+01, 1.037E+02, 8.698E+00, 1.921E-01, 1.011E-02, 1.008E+02
 2.900E+02, 9.625E+01, 9.520E+01, 8.181E+01, 1.004E+02, 1.065E+02, 8.301E+01, 9.603E+01, 1.066E+02, 8.727E+00, 1.909E-01, 1.079E-02, 1.009E+02
 3.000E+02, 9.611E+01, 9.609E+01, 8.309E+01, 9.991E+01, 1.053E+02, 8.418E+01, 9.783E+01, 1.063E+02, 8.955E+00, 1.906E-01, 1.097E-02, 1.007E+02
 3.100E+02, 9.632E+01, 9.500E+01, 8.371E+01, 9.997E+01, 1.053E+02, 8.259E+01, 9.601E+01, 1.064E+02, 8.265E+00, 1.898E-01, 1.144E-02, 1.008E+02
 3.200E+02, 9.729E+01, 9.591E+01, 8.434E+01, 1.018E+02, 1.058E+02, 8.374E+01, 9.741E+01, 1.066E+02, 8.850E+00, 1.893E-01, 1.170E-02, 1.011E+02
 3.300E+02, 9.767E+01, 9.579E+01, 8.442E+01, 1.030E+02, 1.056E+02, 8.423E+01, 9.610E+01, 1.070E+02, 9.039E+00, 1.887E-01, 1.202E-02, 1.009E+02
 3.400E+02, 9.744E+01, 9.635E+01, 8.402E+01, 1.017E+02, 1.066E+02, 8.513E+01, 9.825E+01, 1.057E+02, 9.143E+00, 1.882E-01, 1.234E-02, 1.010E+02
 3.500E+02, 9.797E+01, 9.684E+01, 8.563E+01, 1.008E+02, 1.075E+02, 8.440E+01, 1.001E+02, 1.060E+02, 8.608E+00, 1.874E-01, 1.274E-02, 1.011E+02
 3.600E+02, 9.783E+01, 9.680E+01, 8.655E+01, 1.011E+02, 1.059E+02, 8.494E+01, 9.902E+01, 1.064E+02, 8.777E+00, 1.867E-01, 1.315E-02, 1.000E+02
 3.700E+02, 9.744E+01, 9.696E+01, 8.467E+01, 1.010E+02, 1.067E+02, 8.519E+01, 9.865E+01, 1.070E+02, 9.058E+00, 1.860E-01, 1.353E-02, 1.011E+02
 3.800E+02, 9.934E+01, 9.685E+01, 8.619E+01, 1.042E+02, 1.076E+02, 8.506E+01, 9.966E+01, 1.058E+02, 8.842E+00, 1.857E-01, 1.372E-02, 1.002E+02
 3.900E+02, 9.802E+01, 9.663E+01, 8.566E+01, 1.006E+02, 1.078E+02, 8.479E+01, 9.862E+01, 1.065E+02, 8.686E+00, 1.846E-01, 1.433E-02, 1.006E+02
 4.000E+02, 9.759E+01, 9.757E+01, 8.491E+01, 1.009E+02, 1.069E+02, 8.655E+01, 9.867E+01, 1.075E+02, 8.529E+00, 1.840E-01, 1.469E-02, 1.001E+02
 4.100E+02, 9.951E+01, 9.778E+01, 8.765E+01, 1.037E+02, 1.071E+02, 8.676E+01, 9.990E+01, 1.067E+02, 8.441E+00, 1.836E-01, 1.491E-02, 9.972E+01
 4.200E+02, 9.833E+01, 9.855E+01, 8.681E+01, 1.009E+02, 1.073E+02, 8.599E+01, 9.993E+01, 1.097E+02, 9.173E+00, 1.823E-01, 1.562E-02, 1.016E+02
 4.300E+02, 9.865E+01, 9.831E+01, 8.550E+01, 1.029E+02, 1.075E+02, 8.655E+01, 1.002E+02, 1.082E+02, 8.952E+00, 1.816E-01, 1.602E-02, 1.011E+02
 4.400E+02, 9.924E+01, 9.923E+01, 8.830E+01, 1.019E+02, 1.075E+02, 8.799E+01, 1.010E+02, 1.087E+02, 8.981E+00, 1.810E-01, 1.635E-02, 1.003E+02
 4.500E+02, 9.883E+01, 9.826E+01, 8.703E+01, 1.016E+02, 1.079E+02, 8.728E+01, 9.891E+01, 1.086E+02, 8.535E+00, 1.804E-01, 1.669E-02, 1.010E+02
 4.600E+02, 9.988E+01, 9.838E+01, 8.756E+01, 1.038E+02, 1.083E+02, 8.754E+01, 9.920E+01, 1.084E+02, 9.095E+00, 1.800E-01, 1.688E-02, 1.012E+02
 4.700E+02, 9.850E+01, 9.804E+01, 8.609E+01, 1.015E+02, 1.079E+02, 8.718E+01, 9.886E+01, 1.081E+02, 8.742E+00, 1.791E-01, 1.738E-02, 1.003E+02
 4.800E+02, 9.887E+01, 9.847E+01, 8.677E+01, 1.029E+02, 1.069E+02, 8.669E+01, 9.947E+01, 1.092E+02, 8.413E+00, 1.783E-01, 1.783E-02, 1.008E+02
 4.900E+02, 9.958E+01, 9.919E+01, 9.015E+01, 1.031E+02, 1.055E+02, 8.701E+01, 1.006E+02, 1.100E+02, 9.628E+00, 1.779E-01, 1.808E-02, 1.008E+02
 5.000E+02, 9.987E+01, 9.875E+01, 8.921E+01, 1.038E+02, 1.066E+02, 8.616E+01, 1.001E+02, 1.100E+02, 8.521E+00, 1.772E-01, 1.849E-02, 9.987E+01
 5.100E+02, 1.006E+02, 9.851E+01, 9.179E+01, 1.031E+02, 1.069E+02, 8.631E+01, 1.001E+02, 1.091E+02, 9.157E+00, 1.764E-01, 1.890E-02, 1.002E+02
 5.200E+02, 1.006E+02, 9.778E+01, 9.118E+01, 1.022E+02, 1.084E+02, 8.623E+01, 9.974E+01, 1.074E+02, 8.796E+00, 1.762E-01, 1.905E-02, 1.003E+02
 5.300E+02, 9.971E+01, 9.787E+01, 8.936E+01, 1.005E+02, 1.093E+02, 8.704E+01, 9.993E+01, 1.066E+02, 9.095E+00, 1.756E-01, 1.934E-02, 9.991E+01
 5.400E+02, 9.837E+01, 9.825E+01, 8.593E+01, 1.001E+02, 1.091E+02, 8.909E+01, 1.001E+02, 1.055E+02, 9.585E+00, 1.749E-01, 1.973E-02, 1.005E+02
 5.500E+02, 9.926E+01, 9.841E+01, 8.761E+01, 1.009E+02, 1.093E+02, 8.822E+01, 1.003E+02, 1.067E+02, 8.713E+00, 1.739E-01, 2.033E-02, 9.969E+01
 5.600E+02, 9.907E+01, 9.843E+01, 8.805E+01, 1.001E+02, 1.091E+02, 8.809E+01, 1.001E+02, 1.071E+02, 8.888E+00, 1.732E-01, 2.069E-02, 1.000E+02
 5.700E+02, 9.936E+01, 9.900E+01, 8.816E+01, 1.001E+02, 1.098E+02, 8.947E+01, 9.926E+01, 1.083E+02, 8.806E+00, 1.726E-01, 2.104E-02, 1.007E+02
 5.800E+02, 9.950E+01, 1.001E+02, 8.812E+01, 1.007E+02, 1.096E+02, 8.845E+01, 1.020E+02, 1.099E+02, 9.116E+00, 1.716E-01, 2.159E-02, 1.007E+02
 5.900E+02, 9.873E+01, 1.008E+02, 8.759E+01, 1.006E+02, 1.080E+02, 8.830E+01, 1.026E+02, 1.116E+02, 9.573E+00, 1.707E-01, 2.211E-02, 1.003E+02
 6.000E+02, 1.001E+02, 1.053E+02, 8.892E+01, 1.026E+02, 1.088E+02, 9.014E+01, 1.090E+02, 1.169E+02, 9.120E+00, 1.699E-01, 2.253E-02, 1.004E+02
 6.100E+02, 1.022E+02, 1.021E+02, 9.109E+01, 1.053E+02, 1.102E+02, 9.060E+01, 1.044E+02, 1.113E+02, 8.831E+00, 1.695E-01, 2.275E-02, 1.005E+02
 6.200E+02, 1.019E+02, 1.014E+02, 9.030E+01, 1.054E+02, 1.101E+02, 9.058E+01, 1.027E+02, 1.110E+02, 9.200E+00, 1.689E-01, 2.312E-02, 1.006E+02
 6.300E+02, 1.015E+02, 1.009E+02, 9.045E+01, 1.037E+02, 1.102E+02, 8.829E+01, 1.020E+02, 1.124E+02, 8.829E+00, 1.679E-01, 2.363E-02, 1.009E+02
 6.400E+02, 1.012E+02, 1.007E+02, 8.921E+01, 1.050E+02, 1.093E+02, 8.774E+01, 1.022E+02, 1.121E+02, 9.238E+00, 1.677E-01, 2.379E-02, 1.004E+02
 6.500E+02, 1.015E+02, 1.013E+02, 8.927E+01, 1.068E+02, 1.085E+02, 8.751E+01, 1.020E+02, 1.144E+02, 8.798E+00, 1.666E-01, 2.437E-02, 9.991E+01
 6.600E+02, 1.016E+02, 1.011E+02, 8.991E+01, 1.044E+02, 1.104E+02, 8.719E+01, 1.039E+02, 1.123E+02, 9.451E+00, 1.663E-01, 2.455E-02, 1.003E+02
 6.700E+02, 1.019E+02, 1.004E+02, 9.104E+01, 1.033E+02, 1.115E+02, 8.767E+01, 1.022E+02, 1.112E+02, 9.473E+00, 1.655E-01, 2.501E-02, 9.952E+01
 6.800E+02, 1.005E+02, 1.008E+02, 8.946E+01, 1.021E+02, 1.101E+02, 8.993E+01, 1.026E+02, 1.100E+02, 9.268E+00, 1.650E-01, 2.527E-02, 1.006E+02
 6.900E+02, 1.034E+02, 1.010E+02, 9.121E+01, 1.055E+02, 1.136E+02, 9.060E+01, 1.038E+02, 1.088E+02, 9.284E+00, 1.646E-01, 2.550E-02, 9.985E+01
 7.000E+02, 1.017E+02, 1.010E+02, 8.929E+01, 1.042E+02, 1.117E+02, 9.121E+01, 1.021E+02, 1.095E+02, 9.202E+00, 1.638E-01, 2.595E-02, 1.002E+02
 7.100E+02, 1.009E+02, 1.018E+02, 8.822E+01, 1.037E+02, 1.107E+02, 9.084E+01, 1.038E+02, 1.109E+02, 9.124E+00, 1.630E-01, 2.641E-02, 1.008E+02
 7.200E+02, 1.015E+02, 1.027E+02, 8.911E+01, 1.045E+02, 1.109E+02, 9.038E+01, 1.065E+02, 1.114E+02, 9.022E+00, 1.624E-01, 2.676E-02, 1.007E+02
 7.300E+02, 1.011E+02, 1.035E+02, 8.930E+01, 1.030E+02, 1.109E+02, 9.041E+01, 1.067E+02, 1.133E+02, 9.357E+00, 1.614E-01, 2.730E-02, 9.964E+01
 7.400E+02, 1.003E+02, 1.031E+02, 8.891E+01, 1.013E+02, 1.108E+02, 9.046E+01, 1.053E+02, 1.136E+02, 9.158E+00, 1.604E-01, 2.782E-02, 9.977E+01
 7.500E+02, 1.009E+02, 1.033E+02, 8.962E+01, 1.025E+02, 1.106E+02, 9.050E+01, 1.060E+02, 1.134E+02, 9.414E+00, 1.596E-01, 2.830E-02, 1.000E+02
 7.600E+02, 1.017E+02, 1.035E+02, 9.044E+01, 1.035E+02, 1.111E+02, 9.106E+01, 1.055E+02, 1.140E+02, 9.704E+00, 1.593E-01, 2.849E-02, 1.003E+02
 7.700E+02, 1.008E+02, 1.035E+02, 9.005E+01, 1.025E+02, 1.099E+02, 8.889E+01, 1.055E+02, 1.161E+02, 9.075E+00, 1.581E-01, 2.911E-02, 9.964E+01
 7.800E+02, 1.036E+02, 1.019E+02, 9.227E+01, 1.062E+02, 1.124E+02, 9.064E+01, 1.040E+02, 1.111E+02, 9.332E+00, 1.583E-01, 2.900E-02, 1.005E+02
 7.900E+02, 1.038E+02, 1.031E+02, 9.085E+01, 1.074E+02, 1.132E+02, 9.125E+01, 1.046E+02, 1.135E+02, 9.480E+00, 1.571E-01, 2.971E-02, 9.999E+01
 8.000E+02, 1.031E+02, 1.017E+02, 9.140E+01, 1.060E+02, 1.120E+02, 8.967E+01, 1.033E+02, 1.122E+02, 9.814E+00, 1.568E-01, 2.989E-02, 1.010E+02
 8.100E+02, 1.043E+02, 1.024E+02, 9.042E+01, 1.092E+02, 1.131E+02, 9.203E+01, 1.046E+02, 1.106E+02, 8.922E+00, 1.562E-01, 3.022E-02, 1.002E+02
 8.200E+02, 1.047E+02, 1.031E+02, 9.118E+01, 1.085E+02, 1.144E+02, 9.260E+01, 1.054E+02, 1.113E+02, 9.356E+00, 1.556E-01, 3.055E-02, 1.006E+02
 8.300E+02, 1.041E+02, 1.024E+02, 8.988E+01, 1.082E+02, 1.142E+02, 9.108E+01, 1.036E+02, 1.126E+02, 9.299E+00, 1.547E-01, 3.101E-02, 1.011E+02
 8.400E+02, 1.055E+02, 1.033E+02, 9.175E+01, 1.094E+02, 1.153E+02, 9.169E+01, 1.046E+02, 1.135E+02, 9.225E+00, 1.539E-01, 3.150E-02, 1.004E+02
 8.500E+02, 1.057E+02, 1.033E+02, 9.155E+01, 1.101E+02, 1.155E+02, 9.186E+01, 1.039E+02, 1.140E+02, 9.376E+00, 1.532E-01, 3.190E-02, 1.010E+02
 8.600E+02, 1.044E+02, 1.040E+02, 9.051E+01, 1.098E+02, 1.129E+02, 9.196E+01, 1.049E+02, 1.150E+02, 9.527E+00, 1.523E-01, 3.235E-02, 1.004E+02
 8.700E+02, 1.038E+02, 1.040E+02, 9.151E+01, 1.088E+02, 1.112E+02, 9.079E+01, 1.051E+02, 1.163E+02, 9.039E+00, 1.516E-01, 3.277E-02, 1.008E+02
 8.800E+02, 1.035E+02, 1.048E+02, 9.397E+01, 1.072E+02, 1.095E+02, 9.095E+01, 1.071E+02, 1.164E+02, 9.113E+00, 1.509E-01, 3.314E-02, 1.006E+02
 8.900E+02, 1.056E+02, 1.035E+02, 9.470E+01, 1.096E+02, 1.124E+02, 9.122E+01, 1.037E+02, 1.157E+02, 9.545E+00, 1.504E-01, 3.344E-02, 1.007E+02
 9.000E+02, 1.041E+02, 1.042E+02, 9.330E+01, 1.078E+02, 1.114E+02, 9.280E+01, 1.042E+02, 1.156E+02, 9.410E+00, 1.498E-01, 3.377E-02, 1.007E+02
 9.100E+02, 1.047E+02, 1.040E+02, 9.338E+01, 1.089E+02, 1.118E+02, 9.162E+01, 1.050E+02, 1.154E+02, 9.824E+00, 1.491E-01, 3.415E-02, 1.003E+02
 9.200E+02, 1.054E+02, 1.037E+02, 9.288E+01, 1.096E+02, 1.137E+02, 9.080E+01, 1.052E+02, 1.150E+02, 9.375E+00, 1.485E-01, 3.448E-02, 9.933E+01
 9.300E+02, 1.059E+02, 1.042E+02, 9.374E+01, 1.077E+02, 1.162E+02, 9.182E+01, 1.062E+02, 1.144E+02, 9.527E+00, 1.478E-01, 3.491E-02, 9.963E+01
 9.400E+02, 1.057E+02, 1.041E+02, 9.715E+01, 1.061E+02, 1.138E+02, 9.181E+01, 1.060E+02, 1.146E+02, 1.008E+01, 1.473E-01, 3.514E-02, 9.966E+01
 9.500E+02, 1.039E+02, 1.035E+02, 9.460E+01, 1.046E+02, 1.124E+02, 9.290E+01, 1.046E+02, 1.129E+02, 9.496E+00, 1.466E-01, 3.556E-02, 9.985E+01
 9.600E+02, 1.048E+02, 1.035E+02, 9.289E+01, 1.072E+02, 1.144E+02, 9.323E+01, 1.050E+02, 1.121E+02, 9.400E+00, 1.460E-01, 3.588E-02, 1.001E+02
 9.700E+02, 1.064E+02, 1.046E+02, 9.279E+01, 1.098E+02, 1.167E+02, 9.308E+01, 1.076E+02, 1.133E+02, 9.006E+00, 1.450E-01, 3.647E-02, 9.820E+01
 9.800E+02, 1.055E+02, 1.043E+02, 9.289E+01, 1.084E+02, 1.153E+02, 9.255E+01, 1.074E+02, 1.131E+02, 1.039E+01, 1.443E-01, 3.684E-02, 1.011E+02
 9.900E+02, 1.052E+02, 1.053E+02, 9.243E+01, 1.084E+02, 1.148E+02, 9.243E+01, 1.095E+02, 1.140E+02, 8.768E+00, 1.439E-01, 3.709E-02, 9.727E+01
 1.000E+03, 1.040E+02, 1.065E+02, 9.211E+01, 1.065E+02, 1.133E+02, 9.440E+01, 1.098E+02, 1.154E+02, 1.038E+01, 1.428E-01, 3.768E-02, 9.987E+01
 1.010E+03, 1.042E+02, 1.065E+02, 9.123E+01, 1.059E+02, 1.156E+02, 9.345E+01, 1.103E+02, 1.157E+02, 9.891E+00, 1.423E-01, 3.798E-02, 9.975E+01
 1.020E+03, 1.051E+02, 1.060E+02, 9.177E+01, 1.062E+02, 1.173E+02, 9.457E+01, 1.088E+02, 1.145E+02, 1.030E+01, 1.418E-01, 3.826E-02, 9.984E+01
 1.030E+03, 1.049E+02, 1.054E+02, 9.136E+01, 1.062E+02, 1.172E+02, 9.390E+01, 1.092E+02, 1.131E+02, 1.019E+01, 1.414E-01, 3.848E-02, 9.602E+01
 1.040E+03, 1.038E+02, 1.051E+02, 9.084E+01, 1.050E+02, 1.155E+02, 9.529E+01, 1.074E+02, 1.126E+02, 1.013E+01, 1.407E-01, 3.888E-02, 9.729E+01
 1.050E+03, 1.038E+02, 1.059E+02, 9.124E+01, 1.065E+02, 1.138E+02, 9.635E+01, 1.075E+02, 1.138E+02, 1.436E+01, 1.401E-01, 3.917E-02, 1.029E+02
 1.060E+03, 1.043E+02, 1.080E+02, 9.191E+01, 1.075E+02, 1.136E+02, 9.548E+01, 1.109E+02, 1.177E+02, 9.681E+00, 1.391E-01, 3.974E-02, 8.953E+01
 1.070E+03, 1.034E+02, 1.107E+02, 9.387E+01, 1.060E+02, 1.102E+02, 9.672E+01, 1.169E+02, 1.185E+02, 5.649E-01, 1.391E-01, 3.976E-02, 7.770E+01
 1.080E+03, 1.031E+02, 1.051E+02, 9.334E+01, 1.060E+02, 1.099E+02, 9.403E+01, 1.072E+02, 1.142E+02, 5.758E+00, 1.387E-01, 3.990E-02, 9.036E+01
 1.090E+03, 1.019E+02, 1.041E+02, 9.082E+01, 1.052E+02, 1.096E+02, 9.326E+01, 1.049E+02, 1.141E+02, 8.501E+00, 1.383E-01, 4.015E-02, 8.465E+01
 1.100E+03, 1.036E+02, 1.022E+02, 9.287E+01, 1.061E+02, 1.118E+02, 9.230E+01, 1.028E+02, 1.114E+02, 5.776E+00, 1.381E-01, 4.026E-02, 8.540E+01
 1.110E+03, 1.039E+02, 1.029E+02, 9.268E+01, 1.069E+02, 1.120E+02, 9.252E+01, 1.031E+02, 1.132E+02, 1.573E+01, 1.377E-01, 4.050E-02, 9.761E+01
 1.120E+03, 1.049E+02, 1.041E+02, 9.197E+01, 1.086E+02, 1.140E+02, 9.332E+01, 1.053E+02, 1.137E+02, 1.015E+01, 1.372E-01, 4.076E-02, 9.442E+01
 1.130E+03, 1.043E+02, 1.034E+02, 9.214E+01, 1.087E+02, 1.120E+02, 9.158E+01, 1.048E+02, 1.137E+02, 6.817E+00, 1.368E-01, 4.098E-02, 7.832E+01
 1.140E+03, 1.028E+02, 1.024E+02, 9.152E+01, 1.072E+02, 1.097E+02, 9.128E+01, 1.028E+02, 1.132E+02, 8.743E+00, 1.364E-01, 4.122E-02, 8.791E+01
 1.150E+03, 1.014E+02, 1.019E+02, 9.171E+01, 1.040E+02, 1.085E+02, 9.114E+01, 1.023E+02, 1.121E+02, 2.527E+00, 1.364E-01, 4.119E-02, 7.361E+01
 1.160E+03, 1.008E+02, 9.943E+01, 9.290E+01, 1.036E+02, 1.057E+02, 8.919E+01, 1.004E+02, 1.087E+02,-1.073E+01, 1.361E-01, 4.134E-02, 5.603E+01
 1.170E+03, 9.922E+01, 9.894E+01, 8.964E+01, 1.015E+02, 1.065E+02, 8.923E+01, 1.000E+02, 1.076E+02, 1.034E+01, 1.360E-01, 4.138E-02, 7.649E+01
 1.180E+03, 9.949E+01, 9.852E+01, 8.977E+01, 9.997E+01, 1.087E+02, 8.880E+01, 9.984E+01, 1.069E+02, 8.432E+00, 1.357E-01, 4.156E-02, 8.066E+01
 1.190E+03, 9.813E+01, 9.789E+01, 8.817E+01, 9.985E+01, 1.064E+02, 8.895E+01, 9.839E+01, 1.063E+02,-2.188E+00, 1.357E-01, 4.152E-02, 6.137E+01
 1.200E+03, 9.662E+01, 9.713E+01, 8.896E+01, 9.763E+01, 1.033E+02, 8.921E+01, 9.853E+01, 1.037E+02, 6.602E-01, 1.357E-01, 4.151E-02, 5.302E+01
 1.210E+03, 9.560E+01, 9.695E+01, 8.763E+01, 9.705E+01, 1.021E+02, 8.818E+01, 9.629E+01, 1.064E+02, 8.049E+00, 1.356E-01, 4.156E-02, 5.948E+01
 1.220E+03, 9.286E+01, 9.443E+01, 8.506E+01, 9.539E+01, 9.815E+01, 8.872E+01, 9.584E+01, 9.874E+01,-7.893E+00, 1.362E-01, 4.123E-02, 1.593E+01
 1.230E+03, 9.135E+01, 9.682E+01, 8.300E+01, 9.309E+01, 9.796E+01, 8.817E+01, 9.952E+01, 1.028E+02, 8.099E+00, 1.358E-01, 4.140E-02, 2.668E+01
 1.240E+03, 8.929E+01, 9.280E+01, 8.240E+01, 9.114E+01, 9.434E+01, 8.604E+01, 9.467E+01, 9.770E+01,-2.266E+00, 1.373E-01, 4.055E-02, 2.154E-01
 1.250E+03, 8.857E+01, 8.871E+01, 8.341E+01, 8.933E+01, 9.297E+01, 8.046E+01, 8.852E+01, 9.715E+01, 4.104E+00, 1.374E-01, 4.052E-02, 7.646E-03
 1.260E+03, 8.929E+01, 8.666E+01, 8.267E+01, 9.187E+01, 9.334E+01, 7.862E+01, 8.673E+01, 9.463E+01, 4.513E+00, 1.368E-01, 4.073E-02, 0.000E+00
 1.270E+03, 8.616E+01, 8.612E+01, 7.812E+01, 8.950E+01, 9.087E+01, 7.934E+01, 8.695E+01, 9.205E+01, 3.550E+00, 1.372E-01, 4.055E-02, 0.000E+00
 1.280E+03, 8.414E+01, 8.428E+01, 7.702E+01, 8.665E+01, 8.874E+01, 7.600E+01, 8.538E+01, 9.147E+01, 3.700E+00, 1.373E-01, 4.051E-02, 0.000E+00
 1.290E+03, 8.386E+01, 8.335E+01, 7.755E+01, 8.589E+01, 8.813E+01, 7.632E+01, 8.367E+01, 9.007E+01, 3.973E+00, 1.371E-01, 4.056E-02, 0.000E+00
 1.300E+03, 8.265E+01, 8.282E+01, 7.694E+01, 8.455E+01, 8.646E+01, 7.783E+01, 8.332E+01, 8.733E+01, 2.041E+00, 1.373E-01, 4.040E-02, 0.000E+00
 1.310E+03, 8.069E+01, 8.010E+01, 7.572E+01, 8.240E+01, 8.395E+01, 7.393E+01, 8.060E+01, 8.576E+01, 5.038E+00, 1.378E-01, 4.020E-02, 0.000E+00
