s,C,C,C,C,C,C,C,C,Pa,mol/mol,mol/mol,kW
Time,"West_All_TCs","East_All_TCs","West_Bottom_TCs","West_Middle_TCs","West_Upper_TCs","East_Bottom_TCs","East_Middle_TCs","East_Upper_TCs","Pressure","O2","CO2","HRR"
-6.000E+01, 2.800E+01, 2.800E+01, 2.800E+01, 2.800E+01, 2.800E+01, 2.800E+01, 2.800E+01, 2.800E+01,-9.522E-06, 2.095E-01, 3.901E-04, 0.000E+00
-4.999E+01, 2.791E+01, 2.791E+01, 2.791E+01, 2.791E+01, 2.791E+01, 2.791E+01, 2.791E+01, 2.791E+01,-1.584E+02, 2.095E-01, 3.901E-04, 0.000E+00
-3.998E+01, 2.788E+01, 2.789E+01, 2.788E+01, 2.787E+01, 2.788E+01, 2.790E+01, 2.789E+01, 2.788E+01,-1.682E+02, 2.095E-01, 3.901E-04, 0.000E+00
-2.997E+01, 2.787E+01, 2.790E+01, 2.787E+01, 2.786E+01, 2.787E+01, 2.791E+01, 2.790E+01, 2.788E+01,-1.681E+02, 2.095E-01, 3.901E-04, 0.000E+00
-2.000E+01, 2.787E+01, 2.790E+01, 2.788E+01, 2.787E+01, 2.785E+01, 2.792E+01, 2.792E+01, 2.786E+01,-1.682E+02, 2.095E-01, 3.901E-04, 0.000E+00
-9.987E+00, 2.788E+01, 2.790E+01, 2.790E+01, 2.790E+01, 2.785E+01, 2.792E+01, 2.791E+01, 2.786E+01,-1.681E+02, 2.095E-01, 3.901E-04, 0.000E+00
 2.366E-02, 2.790E+01, 2.791E+01, 2.794E+01, 2.791E+01, 2.785E+01, 2.796E+01, 2.791E+01, 2.786E+01,-1.681E+02, 2.095E-01, 3.901E-04, 3.177E-05
 1.001E+01, 2.837E+01, 2.838E+01, 2.820E+01, 2.800E+01, 2.891E+01, 2.826E+01, 2.802E+01, 2.886E+01,-1.348E+02, 2.095E-01, 4.353E-04, 1.622E+01
 2.003E+01, 3.014E+01, 2.948E+01, 2.881E+01, 2.828E+01, 3.334E+01, 2.903E+01, 2.829E+01, 3.113E+01,-7.534E+01, 2.090E-01, 6.721E-04, 4.965E+01
 3.001E+01, 3.326E+01, 3.364E+01, 2.970E+01, 3.077E+01, 3.931E+01, 2.991E+01, 3.169E+01, 3.931E+01,-3.615E+01, 2.082E-01, 1.164E-03, 8.317E+01
 4.001E+01, 3.881E+01, 3.950E+01, 3.061E+01, 3.676E+01, 4.907E+01, 3.176E+01, 3.821E+01, 4.852E+01,-2.611E+01, 2.075E-01, 1.505E-03, 1.002E+02
 5.001E+01, 4.438E+01, 4.420E+01, 3.231E+01, 4.281E+01, 5.803E+01, 3.329E+01, 4.313E+01, 5.617E+01,-3.617E+01, 2.067E-01, 1.971E-03, 1.001E+02
 6.001E+01, 4.943E+01, 4.968E+01, 3.347E+01, 5.057E+01, 6.424E+01, 3.531E+01, 5.064E+01, 6.310E+01,-4.572E+01, 2.059E-01, 2.408E-03, 1.003E+02
 7.002E+01, 5.436E+01, 5.478E+01, 3.596E+01, 5.837E+01, 6.875E+01, 3.750E+01, 5.761E+01, 6.924E+01,-5.702E+01, 2.053E-01, 2.741E-03, 1.001E+02
 8.002E+01, 5.731E+01, 5.880E+01, 3.842E+01, 6.047E+01, 7.304E+01, 4.022E+01, 6.172E+01, 7.447E+01,-6.654E+01, 2.045E-01, 3.185E-03, 1.001E+02
 9.001E+01, 6.030E+01, 6.243E+01, 4.074E+01, 6.384E+01, 7.632E+01, 4.271E+01, 6.682E+01, 7.776E+01,-7.589E+01, 2.040E-01, 3.489E-03, 1.003E+02
 1.000E+02, 6.350E+01, 6.571E+01, 4.332E+01, 6.795E+01, 7.923E+01, 4.562E+01, 7.063E+01, 8.089E+01,-8.621E+01, 2.036E-01, 3.695E-03, 1.002E+02
 1.100E+02, 6.631E+01, 6.825E+01, 4.582E+01, 7.187E+01, 8.126E+01, 4.831E+01, 7.325E+01, 8.320E+01,-9.216E+01, 2.031E-01, 3.998E-03, 1.002E+02
 1.200E+02, 6.889E+01, 7.061E+01, 4.853E+01, 7.474E+01, 8.340E+01, 5.066E+01, 7.667E+01, 8.449E+01,-9.891E+01, 2.028E-01, 4.153E-03, 1.003E+02
 1.300E+02, 7.152E+01, 7.288E+01, 5.096E+01, 7.823E+01, 8.536E+01, 5.436E+01, 7.669E+01, 8.758E+01,-1.050E+02, 2.022E-01, 4.502E-03, 1.002E+02
 1.400E+02, 7.309E+01, 7.418E+01, 5.348E+01, 7.834E+01, 8.745E+01, 5.615E+01, 7.905E+01, 8.733E+01,-1.110E+02, 2.020E-01, 4.618E-03, 1.002E+02
 1.500E+02, 7.408E+01, 7.656E+01, 5.481E+01, 7.969E+01, 8.773E+01, 5.849E+01, 8.139E+01, 8.979E+01,-1.151E+02, 2.015E-01, 4.876E-03, 1.004E+02
 1.600E+02, 7.508E+01, 7.858E+01, 5.665E+01, 7.968E+01, 8.892E+01, 6.086E+01, 8.359E+01, 9.128E+01,-1.215E+02, 2.013E-01, 5.012E-03, 1.004E+02
 1.700E+02, 7.622E+01, 7.965E+01, 5.784E+01, 7.960E+01, 9.121E+01, 6.238E+01, 8.455E+01, 9.203E+01,-1.261E+02, 2.009E-01, 5.227E-03, 1.004E+02
 1.800E+02, 7.693E+01, 8.007E+01, 5.921E+01, 7.991E+01, 9.168E+01, 6.221E+01, 8.481E+01, 9.319E+01,-1.308E+02, 2.003E-01, 5.532E-03, 1.006E+02
 1.900E+02, 7.867E+01, 8.178E+01, 6.004E+01, 8.229E+01, 9.367E+01, 6.390E+01, 8.809E+01, 9.336E+01,-1.331E+02, 2.003E-01, 5.583E-03, 1.005E+02
 2.000E+02, 7.946E+01, 8.195E+01, 6.079E+01, 8.297E+01, 9.461E+01, 6.456E+01, 8.786E+01, 9.343E+01,-1.383E+02, 1.997E-01, 5.873E-03, 1.004E+02
 2.100E+02, 7.991E+01, 8.222E+01, 6.150E+01, 8.324E+01, 9.499E+01, 6.446E+01, 8.814E+01, 9.405E+01,-1.402E+02, 1.995E-01, 5.989E-03, 1.004E+02
 2.200E+02, 8.089E+01, 8.267E+01, 6.229E+01, 8.434E+01, 9.605E+01, 6.432E+01, 8.823E+01, 9.545E+01,-1.411E+02, 1.989E-01, 6.329E-03, 1.006E+02
 2.300E+02, 8.159E+01, 8.275E+01, 6.206E+01, 8.507E+01, 9.764E+01, 6.534E+01, 8.798E+01, 9.494E+01,-1.427E+02, 1.988E-01, 6.382E-03, 1.005E+02
 2.400E+02, 8.198E+01, 8.370E+01, 6.238E+01, 8.549E+01, 9.807E+01, 6.457E+01, 9.003E+01, 9.651E+01,-1.424E+02, 1.984E-01, 6.623E-03, 1.005E+02
 2.500E+02, 8.186E+01, 8.413E+01, 6.286E+01, 8.493E+01, 9.778E+01, 6.630E+01, 9.031E+01, 9.577E+01,-1.450E+02, 1.982E-01, 6.741E-03, 1.002E+02
 2.600E+02, 8.216E+01, 8.490E+01, 6.242E+01, 8.707E+01, 9.700E+01, 6.707E+01, 9.034E+01, 9.730E+01,-1.436E+02, 1.978E-01, 6.966E-03, 1.007E+02
 2.700E+02, 8.309E+01, 8.539E+01, 6.336E+01, 8.716E+01, 9.876E+01, 6.670E+01, 9.125E+01, 9.821E+01,-1.424E+02, 1.973E-01, 7.212E-03, 1.002E+02
 2.800E+02, 8.290E+01, 8.499E+01, 6.380E+01, 8.689E+01, 9.803E+01, 6.803E+01, 8.981E+01, 9.712E+01,-1.462E+02, 1.971E-01, 7.316E-03, 1.007E+02
 2.900E+02, 8.344E+01, 8.581E+01, 6.446E+01, 8.716E+01, 9.868E+01, 6.771E+01, 9.157E+01, 9.817E+01,-1.440E+02, 1.969E-01, 7.433E-03, 1.005E+02
 3.000E+02, 8.357E+01, 8.545E+01, 6.507E+01, 8.641E+01, 9.922E+01, 6.848E+01, 8.997E+01, 9.790E+01,-1.448E+02, 1.969E-01, 7.458E-03, 1.002E+02
 3.100E+02, 8.413E+01, 8.674E+01, 6.513E+01, 8.796E+01, 9.928E+01, 7.053E+01, 9.174E+01, 9.796E+01,-1.431E+02, 1.966E-01, 7.596E-03, 1.006E+02
 3.200E+02, 8.468E+01, 8.696E+01, 6.576E+01, 8.710E+01, 1.012E+02, 6.947E+01, 9.334E+01, 9.806E+01,-1.445E+02, 1.964E-01, 7.752E-03, 1.009E+02
 3.300E+02, 8.515E+01, 8.674E+01, 6.592E+01, 8.847E+01, 1.011E+02, 6.965E+01, 9.318E+01, 9.740E+01,-1.465E+02, 1.962E-01, 7.834E-03, 1.006E+02
 3.400E+02, 8.485E+01, 8.700E+01, 6.530E+01, 8.714E+01, 1.021E+02, 6.986E+01, 9.336E+01, 9.777E+01,-1.458E+02, 1.960E-01, 7.936E-03, 1.007E+02
 3.500E+02, 8.523E+01, 8.647E+01, 6.545E+01, 8.822E+01, 1.020E+02, 7.040E+01, 9.251E+01, 9.649E+01,-1.454E+02, 1.957E-01, 8.129E-03, 1.008E+02
 3.600E+02, 8.601E+01, 8.702E+01, 6.579E+01, 9.042E+01, 1.018E+02, 7.044E+01, 9.298E+01, 9.765E+01,-1.443E+02, 1.954E-01, 8.271E-03, 1.006E+02
 3.700E+02, 8.509E+01, 8.680E+01, 6.498E+01, 8.823E+01, 1.021E+02, 7.063E+01, 9.271E+01, 9.705E+01,-1.433E+02, 1.953E-01, 8.324E-03, 1.009E+02
 3.800E+02, 8.536E+01, 8.724E+01, 6.561E+01, 8.932E+01, 1.012E+02, 6.945E+01, 9.279E+01, 9.947E+01,-1.447E+02, 1.950E-01, 8.493E-03, 1.004E+02
 3.900E+02, 8.563E+01, 8.750E+01, 6.583E+01, 8.988E+01, 1.012E+02, 6.998E+01, 9.364E+01, 9.889E+01,-1.468E+02, 1.948E-01, 8.613E-03, 1.007E+02
 4.000E+02, 8.573E+01, 8.750E+01, 6.565E+01, 8.927E+01, 1.023E+02, 7.129E+01, 9.306E+01, 9.814E+01,-1.455E+02, 1.947E-01, 8.684E-03, 1.002E+02
 4.100E+02, 8.590E+01, 8.787E+01, 6.558E+01, 8.985E+01, 1.023E+02, 7.147E+01, 9.251E+01, 9.963E+01,-1.439E+02, 1.945E-01, 8.800E-03, 1.005E+02
 4.200E+02, 8.578E+01, 8.842E+01, 6.600E+01, 8.984E+01, 1.015E+02, 7.150E+01, 9.307E+01, 1.007E+02,-1.414E+02, 1.942E-01, 8.946E-03, 1.008E+02
 4.300E+02, 8.579E+01, 8.935E+01, 6.654E+01, 8.919E+01, 1.016E+02, 7.216E+01, 9.379E+01, 1.021E+02,-1.423E+02, 1.941E-01, 9.014E-03, 1.006E+02
 4.400E+02, 8.615E+01, 8.803E+01, 6.696E+01, 8.977E+01, 1.017E+02, 7.047E+01, 9.432E+01, 9.929E+01,-1.456E+02, 1.940E-01, 9.076E-03, 1.005E+02
 4.500E+02, 8.621E+01, 8.825E+01, 6.709E+01, 8.953E+01, 1.020E+02, 6.949E+01, 9.432E+01, 1.009E+02,-1.428E+02, 1.939E-01, 9.149E-03, 1.008E+02
 4.600E+02, 8.647E+01, 8.881E+01, 6.744E+01, 8.918E+01, 1.028E+02, 7.145E+01, 9.411E+01, 1.009E+02,-1.416E+02, 1.936E-01, 9.281E-03, 1.008E+02
 4.700E+02, 8.648E+01, 8.958E+01, 6.709E+01, 9.024E+01, 1.021E+02, 7.335E+01, 9.457E+01, 1.008E+02,-1.418E+02, 1.935E-01, 9.339E-03, 1.004E+02
 4.800E+02, 8.649E+01, 9.006E+01, 6.733E+01, 8.943E+01, 1.027E+02, 7.466E+01, 9.445E+01, 1.011E+02,-1.416E+02, 1.934E-01, 9.405E-03, 1.008E+02
 4.900E+02, 8.677E+01, 9.013E+01, 6.828E+01, 9.023E+01, 1.018E+02, 7.390E+01, 9.491E+01, 1.016E+02,-1.414E+02, 1.932E-01, 9.506E-03, 9.992E+01
 5.000E+02, 8.699E+01, 8.986E+01, 6.865E+01, 9.049E+01, 1.018E+02, 7.271E+01, 9.512E+01, 1.017E+02,-1.384E+02, 1.931E-01, 9.557E-03, 1.010E+02
 5.100E+02, 8.757E+01, 9.139E+01, 6.885E+01, 9.085E+01, 1.030E+02, 7.511E+01, 9.649E+01, 1.026E+02,-1.403E+02, 1.931E-01, 9.578E-03, 1.006E+02
 5.200E+02, 8.729E+01, 8.968E+01, 6.908E+01, 9.051E+01, 1.023E+02, 7.304E+01, 9.426E+01, 1.017E+02,-1.417E+02, 1.930E-01, 9.654E-03, 1.005E+02
 5.300E+02, 8.755E+01, 9.056E+01, 6.917E+01, 9.079E+01, 1.027E+02, 7.373E+01, 9.654E+01, 1.014E+02,-1.415E+02, 1.928E-01, 9.761E-03, 1.008E+02
 5.400E+02, 8.725E+01, 9.053E+01, 6.881E+01, 9.066E+01, 1.023E+02, 7.378E+01, 9.475E+01, 1.031E+02,-1.432E+02, 1.926E-01, 9.850E-03, 1.005E+02
 5.500E+02, 8.820E+01, 9.010E+01, 6.838E+01, 9.296E+01, 1.032E+02, 7.277E+01, 9.590E+01, 1.016E+02,-1.410E+02, 1.926E-01, 9.882E-03, 1.007E+02
 5.600E+02, 8.860E+01, 9.023E+01, 6.886E+01, 9.322E+01, 1.037E+02, 7.359E+01, 9.501E+01, 1.021E+02,-1.409E+02, 1.923E-01, 1.004E-02, 1.005E+02
 5.700E+02, 8.853E+01, 9.003E+01, 6.890E+01, 9.362E+01, 1.031E+02, 7.291E+01, 9.518E+01, 1.020E+02,-1.399E+02, 1.922E-01, 1.006E-02, 1.009E+02
 5.800E+02, 8.827E+01, 9.126E+01, 6.799E+01, 9.238E+01, 1.044E+02, 7.540E+01, 9.585E+01, 1.025E+02,-1.394E+02, 1.922E-01, 1.009E-02, 1.004E+02
 5.900E+02, 8.863E+01, 8.942E+01, 6.879E+01, 9.114E+01, 1.060E+02, 7.291E+01, 9.487E+01, 1.005E+02,-1.418E+02, 1.922E-01, 1.010E-02, 1.003E+02
 6.000E+02, 8.914E+01, 9.092E+01, 6.817E+01, 9.381E+01, 1.055E+02, 7.452E+01, 9.588E+01, 1.024E+02,-1.400E+02, 1.919E-01, 1.027E-02, 1.006E+02
 6.100E+02, 8.853E+01, 9.094E+01, 6.854E+01, 9.277E+01, 1.043E+02, 7.454E+01, 9.616E+01, 1.021E+02,-1.397E+02, 1.919E-01, 1.027E-02, 1.006E+02
 6.200E+02, 8.820E+01, 9.085E+01, 6.845E+01, 9.138E+01, 1.048E+02, 7.330E+01, 9.675E+01, 1.025E+02,-1.396E+02, 1.918E-01, 1.030E-02, 1.004E+02
 6.300E+02, 8.873E+01, 9.125E+01, 6.903E+01, 9.245E+01, 1.047E+02, 7.480E+01, 9.664E+01, 1.023E+02,-1.407E+02, 1.917E-01, 1.038E-02, 1.008E+02
 6.400E+02, 8.953E+01, 9.112E+01, 7.031E+01, 9.251E+01, 1.058E+02, 7.254E+01, 9.751E+01, 1.033E+02,-1.377E+02, 1.916E-01, 1.043E-02, 1.010E+02
 6.500E+02, 8.971E+01, 9.085E+01, 7.034E+01, 9.341E+01, 1.054E+02, 7.423E+01, 9.553E+01, 1.028E+02,-1.387E+02, 1.916E-01, 1.043E-02, 1.006E+02
 6.600E+02, 8.986E+01, 9.168E+01, 7.107E+01, 9.339E+01, 1.051E+02, 7.390E+01, 9.639E+01, 1.048E+02,-1.392E+02, 1.914E-01, 1.052E-02, 1.002E+02
 6.700E+02, 8.983E+01, 9.064E+01, 7.142E+01, 9.303E+01, 1.050E+02, 7.374E+01, 9.487E+01, 1.033E+02,-1.389E+02, 1.914E-01, 1.052E-02, 1.005E+02
 6.800E+02, 9.029E+01, 9.128E+01, 7.124E+01, 9.459E+01, 1.050E+02, 7.469E+01, 9.584E+01, 1.033E+02,-1.375E+02, 1.914E-01, 1.054E-02, 1.010E+02
 6.900E+02, 9.052E+01, 9.192E+01, 7.232E+01, 9.428E+01, 1.050E+02, 7.460E+01, 9.706E+01, 1.041E+02,-1.388E+02, 1.912E-01, 1.063E-02, 1.005E+02
 7.000E+02, 9.073E+01, 9.212E+01, 7.219E+01, 9.559E+01, 1.044E+02, 7.629E+01, 9.721E+01, 1.029E+02,-1.382E+02, 1.913E-01, 1.059E-02, 1.004E+02
 7.100E+02, 9.088E+01, 9.262E+01, 7.171E+01, 9.726E+01, 1.037E+02, 7.552E+01, 9.776E+01, 1.046E+02,-1.363E+02, 1.912E-01, 1.064E-02, 1.006E+02
 7.200E+02, 9.054E+01, 9.302E+01, 7.249E+01, 9.495E+01, 1.042E+02, 7.638E+01, 9.736E+01, 1.053E+02,-1.352E+02, 1.910E-01, 1.075E-02, 1.009E+02
 7.300E+02, 9.137E+01, 9.325E+01, 7.353E+01, 9.588E+01, 1.047E+02, 7.676E+01, 9.718E+01, 1.058E+02,-1.377E+02, 1.910E-01, 1.073E-02, 1.005E+02
 7.400E+02, 9.066E+01, 9.397E+01, 7.277E+01, 9.569E+01, 1.035E+02, 7.659E+01, 9.766E+01, 1.077E+02,-1.346E+02, 1.911E-01, 1.071E-02, 1.009E+02
 7.500E+02, 9.144E+01, 9.309E+01, 7.215E+01, 9.913E+01, 1.030E+02, 7.636E+01, 9.663E+01, 1.063E+02,-1.359E+02, 1.911E-01, 1.071E-02, 1.006E+02
 7.600E+02, 9.116E+01, 9.337E+01, 7.223E+01, 9.749E+01, 1.038E+02, 7.641E+01, 9.699E+01, 1.067E+02,-1.360E+02, 1.909E-01, 1.083E-02, 1.003E+02
 7.700E+02, 9.190E+01, 9.308E+01, 7.190E+01, 9.898E+01, 1.048E+02, 7.697E+01, 9.645E+01, 1.058E+02,-1.371E+02, 1.909E-01, 1.081E-02, 1.006E+02
 7.800E+02, 9.227E+01, 9.362E+01, 7.255E+01, 9.972E+01, 1.045E+02, 7.661E+01, 9.772E+01, 1.065E+02,-1.362E+02, 1.909E-01, 1.082E-02, 1.001E+02
 7.900E+02, 9.235E+01, 9.414E+01, 7.364E+01, 9.930E+01, 1.041E+02, 7.630E+01, 9.820E+01, 1.079E+02,-1.363E+02, 1.906E-01, 1.097E-02, 1.003E+02
 8.000E+02, 9.245E+01, 9.339E+01, 7.308E+01, 9.924E+01, 1.050E+02, 7.665E+01, 9.731E+01, 1.062E+02,-1.347E+02, 1.906E-01, 1.100E-02, 1.008E+02
 8.100E+02, 9.150E+01, 9.416E+01, 7.300E+01, 9.754E+01, 1.040E+02, 7.659E+01, 9.966E+01, 1.062E+02,-1.379E+02, 1.904E-01, 1.110E-02, 1.007E+02
 8.200E+02, 9.177E+01, 9.468E+01, 7.347E+01, 9.749E+01, 1.044E+02, 7.737E+01, 9.964E+01, 1.070E+02,-1.377E+02, 1.904E-01, 1.109E-02, 1.004E+02
 8.300E+02, 9.077E+01, 9.508E+01, 7.306E+01, 9.556E+01, 1.037E+02, 7.759E+01, 1.000E+02, 1.076E+02,-1.382E+02, 1.902E-01, 1.120E-02, 1.010E+02
 8.400E+02, 9.176E+01, 9.531E+01, 7.294E+01, 9.542E+01, 1.069E+02, 7.831E+01, 1.005E+02, 1.071E+02,-1.369E+02, 1.903E-01, 1.117E-02, 1.007E+02
 8.500E+02, 9.135E+01, 9.482E+01, 7.307E+01, 9.473E+01, 1.062E+02, 7.643E+01, 1.005E+02, 1.075E+02,-1.382E+02, 1.903E-01, 1.115E-02, 1.009E+02
 8.600E+02, 9.146E+01, 9.411E+01, 7.171E+01, 9.564E+01, 1.070E+02, 7.553E+01, 1.004E+02, 1.064E+02,-1.413E+02, 1.904E-01, 1.110E-02, 1.004E+02
 8.700E+02, 9.236E+01, 9.361E+01, 7.191E+01, 9.693E+01, 1.082E+02, 7.555E+01, 9.953E+01, 1.058E+02,-1.379E+02, 1.902E-01, 1.119E-02, 1.007E+02
 8.800E+02, 9.198E+01, 9.393E+01, 7.120E+01, 9.613E+01, 1.086E+02, 7.654E+01, 9.939E+01, 1.059E+02,-1.378E+02, 1.903E-01, 1.114E-02, 1.008E+02
 8.900E+02, 9.274E+01, 9.396E+01, 7.171E+01, 9.819E+01, 1.083E+02, 7.543E+01, 9.989E+01, 1.065E+02,-1.360E+02, 1.901E-01, 1.127E-02, 1.008E+02
 9.000E+02, 9.250E+01, 9.447E+01, 7.200E+01, 9.747E+01, 1.080E+02, 7.590E+01, 1.007E+02, 1.068E+02,-1.356E+02, 1.901E-01, 1.128E-02, 1.008E+02
 9.100E+02, 9.267E+01, 9.437E+01, 7.187E+01, 9.760E+01, 1.085E+02, 7.626E+01, 1.007E+02, 1.061E+02,-1.366E+02, 1.900E-01, 1.131E-02, 1.001E+02
 9.200E+02, 9.206E+01, 9.450E+01, 7.257E+01, 9.619E+01, 1.074E+02, 7.594E+01, 9.992E+01, 1.076E+02,-1.358E+02, 1.900E-01, 1.134E-02, 1.005E+02
 9.300E+02, 9.222E+01, 9.433E+01, 7.264E+01, 9.561E+01, 1.084E+02, 7.558E+01, 9.984E+01, 1.076E+02,-1.365E+02, 1.898E-01, 1.143E-02, 1.003E+02
 9.400E+02, 9.213E+01, 9.510E+01, 7.128E+01, 9.649E+01, 1.086E+02, 7.673E+01, 1.011E+02, 1.075E+02,-1.356E+02, 1.898E-01, 1.140E-02, 1.003E+02
 9.500E+02, 9.254E+01, 9.515E+01, 7.261E+01, 9.655E+01, 1.085E+02, 7.576E+01, 1.012E+02, 1.085E+02,-1.338E+02, 1.899E-01, 1.139E-02, 1.010E+02
 9.600E+02, 9.287E+01, 9.473E+01, 7.187E+01, 9.675E+01, 1.100E+02, 7.712E+01, 9.989E+01, 1.072E+02,-1.350E+02, 1.896E-01, 1.152E-02, 1.002E+02
 9.700E+02, 9.303E+01, 9.513E+01, 7.274E+01, 9.797E+01, 1.084E+02, 7.702E+01, 1.003E+02, 1.080E+02,-1.324E+02, 1.897E-01, 1.147E-02, 1.004E+02
 9.800E+02, 9.242E+01, 9.492E+01, 7.305E+01, 9.779E+01, 1.064E+02, 7.729E+01, 1.000E+02, 1.075E+02,-1.324E+02, 1.896E-01, 1.155E-02, 1.008E+02
 9.900E+02, 9.285E+01, 9.539E+01, 7.320E+01, 9.808E+01, 1.073E+02, 7.762E+01, 1.005E+02, 1.080E+02,-1.327E+02, 1.897E-01, 1.145E-02, 1.005E+02
 1.000E+03, 9.286E+01, 9.541E+01, 7.376E+01, 9.762E+01, 1.072E+02, 7.781E+01, 1.002E+02, 1.082E+02,-1.328E+02, 1.896E-01, 1.152E-02, 1.009E+02
 1.010E+03, 9.281E+01, 9.575E+01, 7.438E+01, 9.816E+01, 1.059E+02, 7.773E+01, 1.005E+02, 1.090E+02,-1.323E+02, 1.897E-01, 1.147E-02, 1.003E+02
 1.020E+03, 9.309E+01, 9.507E+01, 7.553E+01, 9.820E+01, 1.055E+02, 7.707E+01, 9.992E+01, 1.082E+02,-1.305E+02, 1.898E-01, 1.142E-02, 1.008E+02
 1.030E+03, 9.343E+01, 9.667E+01, 7.548E+01, 9.780E+01, 1.070E+02, 7.946E+01, 1.007E+02, 1.099E+02,-1.298E+02, 1.898E-01, 1.142E-02, 1.007E+02
 1.040E+03, 9.411E+01, 9.622E+01, 7.649E+01, 9.960E+01, 1.062E+02, 7.907E+01, 9.921E+01, 1.104E+02,-1.319E+02, 1.897E-01, 1.148E-02, 1.005E+02
 1.050E+03, 9.470E+01, 9.718E+01, 7.636E+01, 1.014E+02, 1.064E+02, 7.982E+01, 9.989E+01, 1.118E+02,-1.307E+02, 1.897E-01, 1.148E-02, 1.007E+02
 1.060E+03, 9.542E+01, 9.626E+01, 7.608E+01, 1.020E+02, 1.082E+02, 7.958E+01, 9.959E+01, 1.096E+02,-1.313E+02, 1.898E-01, 1.144E-02, 1.009E+02
 1.070E+03, 9.530E+01, 9.667E+01, 7.558E+01, 1.033E+02, 1.071E+02, 7.974E+01, 1.012E+02, 1.090E+02,-1.315E+02, 1.896E-01, 1.154E-02, 1.008E+02
 1.080E+03, 9.534E+01, 9.736E+01, 7.548E+01, 1.028E+02, 1.078E+02, 7.965E+01, 1.011E+02, 1.113E+02,-1.298E+02, 1.895E-01, 1.160E-02, 1.013E+02
 1.090E+03, 9.585E+01, 9.656E+01, 7.587E+01, 1.032E+02, 1.085E+02, 7.820E+01, 1.008E+02, 1.107E+02,-1.341E+02, 1.893E-01, 1.168E-02, 1.001E+02
 1.100E+03, 9.613E+01, 9.621E+01, 7.605E+01, 1.036E+02, 1.087E+02, 7.768E+01, 9.943E+01, 1.115E+02,-1.314E+02, 1.894E-01, 1.164E-02, 1.008E+02
 1.110E+03, 9.610E+01, 9.708E+01, 7.530E+01, 1.051E+02, 1.079E+02, 7.892E+01, 1.010E+02, 1.114E+02,-1.328E+02, 1.895E-01, 1.161E-02, 1.007E+02
 1.120E+03, 9.505E+01, 9.671E+01, 7.506E+01, 1.028E+02, 1.073E+02, 7.908E+01, 9.997E+01, 1.111E+02,-1.335E+02, 1.895E-01, 1.158E-02, 1.001E+02
 1.130E+03, 9.470E+01, 9.697E+01, 7.583E+01, 1.012E+02, 1.071E+02, 7.904E+01, 1.011E+02, 1.108E+02,-1.309E+02, 1.895E-01, 1.161E-02, 1.005E+02
 1.140E+03, 9.450E+01, 9.886E+01, 7.655E+01, 1.015E+02, 1.054E+02, 7.958E+01, 1.023E+02, 1.147E+02,-1.314E+02, 1.895E-01, 1.160E-02, 1.001E+02
 1.150E+03, 9.453E+01, 9.819E+01, 7.639E+01, 9.977E+01, 1.074E+02, 8.138E+01, 1.016E+02, 1.116E+02,-1.304E+02, 1.893E-01, 1.172E-02, 1.004E+02
 1.160E+03, 9.551E+01, 9.792E+01, 7.688E+01, 1.018E+02, 1.078E+02, 8.115E+01, 1.007E+02, 1.119E+02,-1.311E+02, 1.892E-01, 1.174E-02, 1.009E+02
 1.170E+03, 9.544E+01, 9.936E+01, 7.675E+01, 1.019E+02, 1.077E+02, 8.188E+01, 1.039E+02, 1.123E+02,-1.320E+02, 1.893E-01, 1.171E-02, 1.003E+02
 1.180E+03, 9.490E+01, 9.774E+01, 7.714E+01, 9.895E+01, 1.086E+02, 7.947E+01, 1.024E+02, 1.114E+02,-1.332E+02, 1.892E-01, 1.177E-02, 1.013E+02
 1.190E+03, 9.509E+01, 9.901E+01, 7.695E+01, 1.001E+02, 1.082E+02, 8.012E+01, 1.054E+02, 1.115E+02,-1.309E+02, 1.892E-01, 1.176E-02, 1.007E+02
 1.200E+03, 9.502E+01, 9.937E+01, 7.706E+01, 9.950E+01, 1.085E+02, 8.323E+01, 1.041E+02, 1.108E+02,-1.334E+02, 1.892E-01, 1.174E-02, 1.008E+02
 1.210E+03, 9.559E+01, 9.947E+01, 7.729E+01, 1.003E+02, 1.092E+02, 8.256E+01, 1.048E+02, 1.111E+02,-1.330E+02, 1.893E-01, 1.171E-02, 1.006E+02
 1.220E+03, 9.521E+01, 9.705E+01, 7.656E+01, 1.001E+02, 1.090E+02, 7.990E+01, 1.017E+02, 1.096E+02,-1.348E+02, 1.893E-01, 1.167E-02, 1.004E+02
 1.230E+03, 9.527E+01, 9.772E+01, 7.505E+01, 1.005E+02, 1.103E+02, 8.109E+01, 1.017E+02, 1.104E+02,-1.348E+02, 1.892E-01, 1.177E-02, 1.005E+02
 1.240E+03, 9.695E+01, 9.853E+01, 7.620E+01, 1.043E+02, 1.103E+02, 8.116E+01, 1.030E+02, 1.114E+02,-1.330E+02, 1.893E-01, 1.171E-02, 1.005E+02
 1.250E+03, 9.731E+01, 9.866E+01, 7.661E+01, 1.049E+02, 1.104E+02, 8.111E+01, 1.022E+02, 1.127E+02,-1.304E+02, 1.894E-01, 1.167E-02, 1.003E+02
 1.260E+03, 9.715E+01, 9.779E+01, 7.596E+01, 1.046E+02, 1.109E+02, 8.148E+01, 1.016E+02, 1.103E+02,-1.313E+02, 1.894E-01, 1.165E-02, 1.012E+02
 1.270E+03, 9.670E+01, 9.898E+01, 7.744E+01, 1.033E+02, 1.094E+02, 8.126E+01, 1.027E+02, 1.130E+02,-1.322E+02, 1.892E-01, 1.176E-02, 1.004E+02
 1.280E+03, 9.731E+01, 9.814E+01, 7.731E+01, 1.033E+02, 1.113E+02, 8.115E+01, 1.036E+02, 1.097E+02,-1.320E+02, 1.892E-01, 1.174E-02, 1.006E+02
 1.290E+03, 9.529E+01, 9.935E+01, 7.644E+01, 9.992E+01, 1.095E+02, 8.287E+01, 1.040E+02, 1.112E+02,-1.325E+02, 1.891E-01, 1.181E-02, 1.003E+02
 1.300E+03, 9.598E+01, 9.897E+01, 7.736E+01, 1.007E+02, 1.098E+02, 8.095E+01, 1.042E+02, 1.117E+02,-1.330E+02, 1.890E-01, 1.186E-02, 1.007E+02
 1.310E+03, 9.594E+01, 9.983E+01, 7.738E+01, 1.006E+02, 1.098E+02, 8.112E+01, 1.053E+02, 1.131E+02,-1.336E+02, 1.889E-01, 1.191E-02, 1.007E+02
