s,C,C,C,C,C,C,C,C,Pa,mol/mol,mol/mol,kW
Time,"West_All_TCs","East_All_TCs","West_Bottom_TCs","West_Middle_TCs","West_Upper_TCs","East_Bottom_TCs","East_Middle_TCs","East_Upper_TCs","Pressure","O2","CO2","HRR"
-6.000E+01, 3.400E+01, 3.400E+01, 3.400E+01, 3.400E+01, 3.400E+01, 3.400E+01, 3.400E+01, 3.400E+01,-9.314E-06, 2.095E-01, 3.901E-04, 0.000E+00
-4.999E+01, 3.280E+01, 3.209E+01, 3.359E+01, 2.793E+01, 3.688E+01, 3.104E+01, 2.295E+01, 4.229E+01,-4.176E+02, 2.095E-01, 3.901E-04, 0.000E+00
-3.999E+01, 3.250E+01, 3.335E+01, 2.834E+01, 2.838E+01, 4.079E+01, 2.785E+01, 2.670E+01, 4.549E+01,-4.786E+02, 2.095E-01, 3.901E-04, 0.000E+00
-2.998E+01, 3.160E+01, 3.510E+01, 2.754E+01, 2.830E+01, 3.896E+01, 2.999E+01, 2.937E+01, 4.595E+01,-4.724E+02, 2.095E-01, 3.901E-04, 0.000E+00
-1.998E+01, 3.126E+01, 3.487E+01, 2.796E+01, 2.816E+01, 3.766E+01, 3.048E+01, 3.160E+01, 4.254E+01,-4.644E+02, 2.095E-01, 3.901E-04, 0.000E+00
-9.981E+00, 3.138E+01, 3.447E+01, 2.832E+01, 2.969E+01, 3.612E+01, 3.088E+01, 3.198E+01, 4.056E+01,-4.602E+02, 2.095E-01, 3.901E-04, 0.000E+00
 8.204E-03, 3.193E+01, 3.435E+01, 2.897E+01, 3.032E+01, 3.652E+01, 3.164E+01, 3.220E+01, 3.919E+01,-4.599E+02, 2.095E-01, 3.901E-04, 9.717E-06
 1.003E+01, 3.279E+01, 3.490E+01, 3.015E+01, 3.166E+01, 3.655E+01, 3.225E+01, 3.341E+01, 3.904E+01,-4.094E+02, 2.095E-01, 3.901E-04, 1.613E+01
 2.003E+01, 3.458E+01, 3.584E+01, 3.134E+01, 3.567E+01, 3.673E+01, 3.270E+01, 3.636E+01, 3.845E+01,-3.015E+02, 2.095E-01, 3.902E-04, 4.958E+01
 3.000E+01, 3.884E+01, 3.966E+01, 3.332E+01, 4.543E+01, 3.775E+01, 3.463E+01, 4.656E+01, 3.780E+01,-2.199E+02, 2.095E-01, 3.974E-04, 8.291E+01
 4.001E+01, 4.427E+01, 4.488E+01, 3.657E+01, 5.596E+01, 4.029E+01, 3.786E+01, 5.924E+01, 3.755E+01,-1.975E+02, 2.095E-01, 4.231E-04, 1.000E+02
 5.000E+01, 5.021E+01, 4.999E+01, 4.088E+01, 6.531E+01, 4.443E+01, 4.331E+01, 6.928E+01, 3.738E+01,-2.269E+02, 2.094E-01, 4.650E-04, 9.990E+01
 6.001E+01, 5.515E+01, 5.376E+01, 4.594E+01, 7.447E+01, 4.505E+01, 4.756E+01, 7.557E+01, 3.815E+01,-2.532E+02, 2.090E-01, 6.733E-04, 1.000E+02
 7.000E+01, 5.885E+01, 5.850E+01, 5.041E+01, 7.863E+01, 4.750E+01, 5.260E+01, 8.128E+01, 4.162E+01,-2.758E+02, 2.084E-01, 1.056E-03, 1.000E+02
 8.000E+01, 6.179E+01, 6.233E+01, 5.445E+01, 8.232E+01, 4.860E+01, 5.719E+01, 8.621E+01, 4.357E+01,-3.032E+02, 2.080E-01, 1.264E-03, 9.997E+01
 9.000E+01, 6.524E+01, 6.538E+01, 5.824E+01, 8.667E+01, 5.080E+01, 5.979E+01, 9.052E+01, 4.583E+01,-3.204E+02, 2.077E-01, 1.421E-03, 9.996E+01
 1.000E+02, 6.800E+01, 6.861E+01, 6.053E+01, 9.066E+01, 5.280E+01, 6.453E+01, 9.320E+01, 4.809E+01,-3.369E+02, 2.070E-01, 1.833E-03, 1.000E+02
 1.100E+02, 6.965E+01, 7.152E+01, 6.312E+01, 9.081E+01, 5.501E+01, 6.811E+01, 9.684E+01, 4.959E+01,-3.545E+02, 2.067E-01, 1.984E-03, 1.001E+02
 1.200E+02, 7.109E+01, 7.290E+01, 6.570E+01, 9.165E+01, 5.592E+01, 6.952E+01, 9.784E+01, 5.134E+01,-3.694E+02, 2.062E-01, 2.250E-03, 9.993E+01
 1.300E+02, 7.288E+01, 7.452E+01, 6.785E+01, 9.407E+01, 5.673E+01, 7.246E+01, 9.862E+01, 5.247E+01,-3.791E+02, 2.059E-01, 2.451E-03, 1.001E+02
 1.400E+02, 7.356E+01, 7.655E+01, 6.926E+01, 9.459E+01, 5.682E+01, 7.505E+01, 1.014E+02, 5.321E+01,-3.902E+02, 2.055E-01, 2.657E-03, 9.997E+01
 1.500E+02, 7.475E+01, 7.699E+01, 7.039E+01, 9.538E+01, 5.848E+01, 7.659E+01, 1.006E+02, 5.376E+01,-3.982E+02, 2.052E-01, 2.798E-03, 1.001E+02
 1.600E+02, 7.562E+01, 7.738E+01, 7.091E+01, 9.620E+01, 5.974E+01, 7.642E+01, 1.009E+02, 5.485E+01,-3.989E+02, 2.047E-01, 3.086E-03, 9.996E+01
 1.700E+02, 7.741E+01, 7.833E+01, 7.184E+01, 9.853E+01, 6.187E+01, 7.851E+01, 1.021E+02, 5.443E+01,-4.069E+02, 2.046E-01, 3.145E-03, 1.000E+02
 1.800E+02, 7.870E+01, 7.905E+01, 7.196E+01, 9.878E+01, 6.536E+01, 7.869E+01, 1.032E+02, 5.529E+01,-4.189E+02, 2.041E-01, 3.418E-03, 1.000E+02
 1.900E+02, 7.944E+01, 7.921E+01, 7.347E+01, 9.990E+01, 6.495E+01, 7.876E+01, 1.034E+02, 5.549E+01,-4.134E+02, 2.039E-01, 3.562E-03, 1.001E+02
 2.000E+02, 7.890E+01, 8.025E+01, 7.417E+01, 1.005E+02, 6.208E+01, 7.935E+01, 1.047E+02, 5.668E+01,-4.176E+02, 2.033E-01, 3.885E-03, 1.001E+02
 2.100E+02, 7.908E+01, 8.036E+01, 7.480E+01, 9.946E+01, 6.297E+01, 8.074E+01, 1.032E+02, 5.714E+01,-4.102E+02, 2.031E-01, 4.002E-03, 1.001E+02
 2.200E+02, 8.004E+01, 8.143E+01, 7.505E+01, 9.930E+01, 6.578E+01, 8.183E+01, 1.053E+02, 5.717E+01,-4.123E+02, 2.026E-01, 4.270E-03, 1.001E+02
 2.300E+02, 8.022E+01, 8.095E+01, 7.443E+01, 1.004E+02, 6.585E+01, 8.136E+01, 1.046E+02, 5.695E+01,-4.256E+02, 2.025E-01, 4.318E-03, 9.998E+01
 2.400E+02, 8.107E+01, 8.169E+01, 7.486E+01, 1.026E+02, 6.575E+01, 8.167E+01, 1.058E+02, 5.764E+01,-4.247E+02, 2.023E-01, 4.443E-03, 1.000E+02
 2.500E+02, 8.171E+01, 8.198E+01, 7.615E+01, 1.026E+02, 6.641E+01, 8.191E+01, 1.054E+02, 5.867E+01,-4.200E+02, 2.018E-01, 4.699E-03, 1.002E+02
 2.600E+02, 7.971E+01, 8.210E+01, 7.623E+01, 1.006E+02, 6.232E+01, 8.201E+01, 1.062E+02, 5.806E+01,-4.265E+02, 2.018E-01, 4.703E-03, 9.997E+01
 2.700E+02, 8.169E+01, 8.265E+01, 7.644E+01, 1.032E+02, 6.546E+01, 8.377E+01, 1.061E+02, 5.803E+01,-4.213E+02, 2.015E-01, 4.861E-03, 1.001E+02
 2.800E+02, 8.062E+01, 8.347E+01, 7.587E+01, 1.012E+02, 6.480E+01, 8.413E+01, 1.082E+02, 5.811E+01,-4.142E+02, 2.014E-01, 4.953E-03, 1.000E+02
 2.900E+02, 8.132E+01, 8.424E+01, 7.689E+01, 1.033E+02, 6.372E+01, 8.372E+01, 1.096E+02, 5.946E+01,-4.196E+02, 2.011E-01, 5.122E-03, 1.001E+02
 3.000E+02, 8.239E+01, 8.386E+01, 7.830E+01, 1.024E+02, 6.643E+01, 8.435E+01, 1.085E+02, 5.871E+01,-4.145E+02, 2.009E-01, 5.243E-03, 1.000E+02
 3.100E+02, 8.254E+01, 8.407E+01, 7.848E+01, 1.022E+02, 6.694E+01, 8.432E+01, 1.085E+02, 5.935E+01,-4.166E+02, 2.007E-01, 5.328E-03, 1.000E+02
 3.200E+02, 8.278E+01, 8.485E+01, 7.813E+01, 1.035E+02, 6.670E+01, 8.472E+01, 1.093E+02, 6.050E+01,-4.178E+02, 2.003E-01, 5.567E-03, 1.001E+02
 3.300E+02, 8.218E+01, 8.424E+01, 7.747E+01, 1.038E+02, 6.533E+01, 8.375E+01, 1.090E+02, 6.001E+01,-4.162E+02, 2.003E-01, 5.571E-03, 1.001E+02
 3.400E+02, 8.297E+01, 8.476E+01, 7.785E+01, 1.028E+02, 6.822E+01, 8.494E+01, 1.094E+02, 5.990E+01,-4.166E+02, 2.002E-01, 5.618E-03, 1.000E+02
 3.500E+02, 8.372E+01, 8.312E+01, 7.859E+01, 1.042E+02, 6.841E+01, 8.441E+01, 1.061E+02, 5.880E+01,-4.186E+02, 2.001E-01, 5.683E-03, 1.001E+02
 3.600E+02, 8.396E+01, 8.479E+01, 7.874E+01, 1.057E+02, 6.745E+01, 8.545E+01, 1.088E+02, 6.009E+01,-4.133E+02, 1.998E-01, 5.837E-03, 1.001E+02
 3.700E+02, 8.304E+01, 8.505E+01, 7.764E+01, 1.069E+02, 6.459E+01, 8.489E+01, 1.101E+02, 6.019E+01,-4.144E+02, 1.998E-01, 5.854E-03, 1.000E+02
 3.800E+02, 8.418E+01, 8.516E+01, 7.814E+01, 1.052E+02, 6.923E+01, 8.439E+01, 1.098E+02, 6.129E+01,-4.168E+02, 1.995E-01, 6.018E-03, 9.992E+01
 3.900E+02, 8.416E+01, 8.491E+01, 7.871E+01, 1.067E+02, 6.704E+01, 8.419E+01, 1.101E+02, 6.048E+01,-4.178E+02, 1.995E-01, 6.028E-03, 1.002E+02
 4.000E+02, 8.452E+01, 8.482E+01, 7.891E+01, 1.061E+02, 6.852E+01, 8.463E+01, 1.079E+02, 6.195E+01,-4.142E+02, 1.992E-01, 6.161E-03, 9.998E+01
 4.100E+02, 8.353E+01, 8.599E+01, 7.881E+01, 1.052E+02, 6.661E+01, 8.586E+01, 1.105E+02, 6.158E+01,-4.142E+02, 1.991E-01, 6.235E-03, 1.000E+02
 4.200E+02, 8.334E+01, 8.633E+01, 7.753E+01, 1.049E+02, 6.761E+01, 8.638E+01, 1.107E+02, 6.196E+01,-4.110E+02, 1.991E-01, 6.233E-03, 1.001E+02
 4.300E+02, 8.336E+01, 8.598E+01, 7.910E+01, 1.048E+02, 6.615E+01, 8.555E+01, 1.117E+02, 6.069E+01,-4.073E+02, 1.991E-01, 6.246E-03, 1.000E+02
 4.400E+02, 8.462E+01, 8.636E+01, 7.880E+01, 1.056E+02, 6.943E+01, 8.559E+01, 1.117E+02, 6.183E+01,-4.070E+02, 1.989E-01, 6.324E-03, 1.001E+02
 4.500E+02, 8.440E+01, 8.616E+01, 7.906E+01, 1.061E+02, 6.801E+01, 8.566E+01, 1.106E+02, 6.226E+01,-4.134E+02, 1.988E-01, 6.368E-03, 9.998E+01
 4.600E+02, 8.344E+01, 8.579E+01, 7.949E+01, 1.052E+02, 6.562E+01, 8.602E+01, 1.095E+02, 6.190E+01,-4.117E+02, 1.988E-01, 6.407E-03, 1.001E+02
 4.700E+02, 8.400E+01, 8.762E+01, 7.986E+01, 1.053E+02, 6.682E+01, 8.721E+01, 1.145E+02, 6.114E+01,-4.070E+02, 1.987E-01, 6.432E-03, 1.001E+02
 4.800E+02, 8.490E+01, 8.773E+01, 7.968E+01, 1.050E+02, 7.000E+01, 8.757E+01, 1.140E+02, 6.159E+01,-4.008E+02, 1.987E-01, 6.427E-03, 1.002E+02
 4.900E+02, 8.599E+01, 8.747E+01, 8.017E+01, 1.071E+02, 7.068E+01, 8.748E+01, 1.135E+02, 6.140E+01,-4.083E+02, 1.987E-01, 6.468E-03, 1.001E+02
 5.000E+02, 8.674E+01, 8.688E+01, 7.970E+01, 1.071E+02, 7.342E+01, 8.745E+01, 1.129E+02, 6.030E+01,-4.090E+02, 1.987E-01, 6.426E-03, 1.001E+02
 5.100E+02, 8.703E+01, 8.808E+01, 8.148E+01, 1.083E+02, 7.133E+01, 8.772E+01, 1.149E+02, 6.164E+01,-4.063E+02, 1.986E-01, 6.517E-03, 1.001E+02
 5.200E+02, 8.702E+01, 8.907E+01, 7.970E+01, 1.093E+02, 7.206E+01, 8.911E+01, 1.168E+02, 6.135E+01,-4.095E+02, 1.985E-01, 6.535E-03, 1.000E+02
 5.300E+02, 8.520E+01, 8.886E+01, 7.984E+01, 1.085E+02, 6.724E+01, 8.702E+01, 1.171E+02, 6.251E+01,-4.036E+02, 1.983E-01, 6.665E-03, 1.001E+02
 5.400E+02, 8.647E+01, 8.697E+01, 8.127E+01, 1.074E+02, 7.068E+01, 8.725E+01, 1.115E+02, 6.218E+01,-4.059E+02, 1.984E-01, 6.608E-03, 1.000E+02
 5.500E+02, 8.572E+01, 8.788E+01, 8.046E+01, 1.076E+02, 6.905E+01, 8.861E+01, 1.127E+02, 6.234E+01,-4.065E+02, 1.983E-01, 6.679E-03, 1.000E+02
 5.600E+02, 8.695E+01, 8.856E+01, 8.192E+01, 1.095E+02, 6.943E+01, 8.912E+01, 1.144E+02, 6.219E+01,-4.002E+02, 1.983E-01, 6.653E-03, 1.000E+02
 5.700E+02, 8.649E+01, 8.824E+01, 8.256E+01, 1.073E+02, 6.958E+01, 8.789E+01, 1.142E+02, 6.259E+01,-4.063E+02, 1.984E-01, 6.642E-03, 1.001E+02
 5.800E+02, 8.733E+01, 8.774E+01, 8.196E+01, 1.088E+02, 7.119E+01, 8.901E+01, 1.113E+02, 6.288E+01,-4.065E+02, 1.983E-01, 6.695E-03, 1.000E+02
 5.900E+02, 8.835E+01, 8.734E+01, 8.236E+01, 1.106E+02, 7.212E+01, 8.821E+01, 1.117E+02, 6.207E+01,-4.084E+02, 1.983E-01, 6.671E-03, 1.001E+02
 6.000E+02, 8.833E+01, 8.813E+01, 8.263E+01, 1.095E+02, 7.283E+01, 8.922E+01, 1.132E+02, 6.199E+01,-4.069E+02, 1.983E-01, 6.687E-03, 1.002E+02
 6.100E+02, 8.764E+01, 8.724E+01, 8.215E+01, 1.100E+02, 7.081E+01, 8.859E+01, 1.102E+02, 6.294E+01,-4.064E+02, 1.982E-01, 6.729E-03, 9.995E+01
 6.200E+02, 8.762E+01, 8.917E+01, 8.182E+01, 1.099E+02, 7.112E+01, 9.053E+01, 1.127E+02, 6.429E+01,-4.053E+02, 1.981E-01, 6.779E-03, 9.995E+01
 6.300E+02, 8.688E+01, 8.904E+01, 8.106E+01, 1.093E+02, 7.033E+01, 8.774E+01, 1.162E+02, 6.318E+01,-4.052E+02, 1.982E-01, 6.752E-03, 1.001E+02
 6.400E+02, 8.792E+01, 8.948E+01, 8.206E+01, 1.099E+02, 7.174E+01, 8.877E+01, 1.160E+02, 6.367E+01,-4.031E+02, 1.981E-01, 6.783E-03, 1.000E+02
 6.500E+02, 8.680E+01, 8.950E+01, 8.147E+01, 1.087E+02, 7.025E+01, 8.834E+01, 1.166E+02, 6.351E+01,-4.004E+02, 1.981E-01, 6.783E-03, 1.001E+02
 6.600E+02, 8.708E+01, 8.999E+01, 8.207E+01, 1.082E+02, 7.100E+01, 8.704E+01, 1.182E+02, 6.475E+01,-4.012E+02, 1.981E-01, 6.804E-03, 9.999E+01
 6.700E+02, 8.814E+01, 8.943E+01, 8.242E+01, 1.101E+02, 7.187E+01, 8.869E+01, 1.153E+02, 6.437E+01,-4.016E+02, 1.980E-01, 6.823E-03, 1.002E+02
 6.800E+02, 8.811E+01, 9.098E+01, 8.419E+01, 1.104E+02, 6.976E+01, 9.019E+01, 1.170E+02, 6.576E+01,-3.971E+02, 1.980E-01, 6.858E-03, 1.001E+02
 6.900E+02, 8.824E+01, 9.076E+01, 8.270E+01, 1.096E+02, 7.237E+01, 9.191E+01, 1.148E+02, 6.551E+01,-4.023E+02, 1.980E-01, 6.836E-03, 1.002E+02
 7.000E+02, 8.910E+01, 8.927E+01, 8.393E+01, 1.102E+02, 7.312E+01, 9.064E+01, 1.139E+02, 6.323E+01,-4.061E+02, 1.981E-01, 6.787E-03, 1.000E+02
 7.100E+02, 8.930E+01, 8.937E+01, 8.480E+01, 1.103E+02, 7.277E+01, 9.093E+01, 1.139E+02, 6.329E+01,-4.027E+02, 1.981E-01, 6.762E-03, 1.000E+02
 7.200E+02, 8.771E+01, 9.057E+01, 8.191E+01, 1.087E+02, 7.250E+01, 9.166E+01, 1.150E+02, 6.506E+01,-4.028E+02, 1.980E-01, 6.816E-03, 1.001E+02
 7.300E+02, 8.787E+01, 9.011E+01, 8.298E+01, 1.087E+02, 7.189E+01, 9.010E+01, 1.161E+02, 6.415E+01,-4.117E+02, 1.981E-01, 6.788E-03, 1.001E+02
 7.400E+02, 8.899E+01, 9.065E+01, 8.307E+01, 1.111E+02, 7.285E+01, 9.118E+01, 1.163E+02, 6.450E+01,-4.051E+02, 1.981E-01, 6.786E-03, 1.001E+02
 7.500E+02, 9.003E+01, 9.077E+01, 8.386E+01, 1.117E+02, 7.457E+01, 9.244E+01, 1.142E+02, 6.571E+01,-3.993E+02, 1.980E-01, 6.832E-03, 1.002E+02
 7.600E+02, 8.789E+01, 9.094E+01, 8.374E+01, 1.104E+02, 6.947E+01, 9.097E+01, 1.162E+02, 6.567E+01,-4.024E+02, 1.980E-01, 6.839E-03, 1.001E+02
 7.700E+02, 9.016E+01, 9.043E+01, 8.554E+01, 1.119E+02, 7.305E+01, 9.152E+01, 1.149E+02, 6.482E+01,-3.961E+02, 1.981E-01, 6.783E-03, 1.001E+02
 7.800E+02, 9.045E+01, 9.096E+01, 8.453E+01, 1.114E+02, 7.545E+01, 9.172E+01, 1.164E+02, 6.479E+01,-4.042E+02, 1.981E-01, 6.793E-03, 1.000E+02
 7.900E+02, 9.076E+01, 9.063E+01, 8.370E+01, 1.128E+02, 7.576E+01, 9.123E+01, 1.161E+02, 6.461E+01,-4.081E+02, 1.981E-01, 6.793E-03, 1.001E+02
 8.000E+02, 8.959E+01, 9.014E+01, 8.367E+01, 1.127E+02, 7.238E+01, 9.117E+01, 1.130E+02, 6.625E+01,-4.057E+02, 1.979E-01, 6.893E-03, 1.001E+02
 8.100E+02, 8.957E+01, 9.154E+01, 8.333E+01, 1.120E+02, 7.344E+01, 9.309E+01, 1.155E+02, 6.607E+01,-3.979E+02, 1.979E-01, 6.873E-03, 1.001E+02
 8.200E+02, 8.969E+01, 9.155E+01, 8.392E+01, 1.105E+02, 7.470E+01, 9.079E+01, 1.169E+02, 6.693E+01,-4.012E+02, 1.979E-01, 6.907E-03, 1.002E+02
 8.300E+02, 9.023E+01, 9.167E+01, 8.423E+01, 1.117E+02, 7.478E+01, 9.124E+01, 1.176E+02, 6.616E+01,-4.043E+02, 1.980E-01, 6.861E-03, 9.999E+01
 8.400E+02, 9.098E+01, 9.191E+01, 8.502E+01, 1.126E+02, 7.529E+01, 9.310E+01, 1.172E+02, 6.542E+01,-4.007E+02, 1.980E-01, 6.865E-03, 1.002E+02
 8.500E+02, 9.056E+01, 9.131E+01, 8.501E+01, 1.138E+02, 7.290E+01, 9.217E+01, 1.157E+02, 6.603E+01,-3.998E+02, 1.979E-01, 6.883E-03, 9.999E+01
 8.600E+02, 9.094E+01, 9.267E+01, 8.485E+01, 1.126E+02, 7.540E+01, 9.283E+01, 1.184E+02, 6.674E+01,-4.007E+02, 1.979E-01, 6.879E-03, 1.001E+02
 8.700E+02, 9.019E+01, 9.310E+01, 8.464E+01, 1.120E+02, 7.389E+01, 9.212E+01, 1.211E+02, 6.605E+01,-4.023E+02, 1.979E-01, 6.904E-03, 1.001E+02
 8.800E+02, 9.076E+01, 9.155E+01, 8.447E+01, 1.114E+02, 7.637E+01, 9.286E+01, 1.161E+02, 6.569E+01,-4.002E+02, 1.979E-01, 6.912E-03, 1.001E+02
 8.900E+02, 9.067E+01, 9.222E+01, 8.457E+01, 1.112E+02, 7.620E+01, 9.244E+01, 1.182E+02, 6.607E+01,-4.068E+02, 1.979E-01, 6.913E-03, 1.000E+02
 9.000E+02, 9.094E+01, 9.206E+01, 8.435E+01, 1.139E+02, 7.455E+01, 9.156E+01, 1.191E+02, 6.553E+01,-4.025E+02, 1.979E-01, 6.879E-03, 1.001E+02
 9.100E+02, 9.123E+01, 9.251E+01, 8.538E+01, 1.136E+02, 7.473E+01, 9.141E+01, 1.194E+02, 6.676E+01,-4.005E+02, 1.979E-01, 6.918E-03, 1.001E+02
 9.200E+02, 9.116E+01, 9.283E+01, 8.502E+01, 1.124E+02, 7.606E+01, 9.294E+01, 1.179E+02, 6.768E+01,-4.013E+02, 1.978E-01, 6.973E-03, 1.001E+02
 9.300E+02, 9.155E+01, 9.285E+01, 8.555E+01, 1.121E+02, 7.696E+01, 9.290E+01, 1.186E+02, 6.702E+01,-4.000E+02, 1.978E-01, 6.965E-03, 1.000E+02
 9.400E+02, 9.164E+01, 9.321E+01, 8.535E+01, 1.134E+02, 7.613E+01, 9.284E+01, 1.194E+02, 6.739E+01,-4.033E+02, 1.978E-01, 6.935E-03, 1.001E+02
 9.500E+02, 9.057E+01, 9.189E+01, 8.561E+01, 1.119E+02, 7.417E+01, 9.109E+01, 1.180E+02, 6.659E+01,-3.984E+02, 1.979E-01, 6.918E-03, 1.001E+02
 9.600E+02, 9.221E+01, 9.318E+01, 8.583E+01, 1.144E+02, 7.638E+01, 9.249E+01, 1.188E+02, 6.830E+01,-3.994E+02, 1.979E-01, 6.916E-03, 1.000E+02
 9.700E+02, 9.127E+01, 9.224E+01, 8.461E+01, 1.148E+02, 7.437E+01, 9.419E+01, 1.159E+02, 6.658E+01,-4.017E+02, 1.979E-01, 6.901E-03, 1.000E+02
 9.800E+02, 9.163E+01, 9.400E+01, 8.617E+01, 1.140E+02, 7.469E+01, 9.511E+01, 1.179E+02, 6.896E+01,-4.011E+02, 1.978E-01, 6.960E-03, 1.001E+02
 9.900E+02, 9.172E+01, 9.325E+01, 8.611E+01, 1.121E+02, 7.693E+01, 9.348E+01, 1.192E+02, 6.708E+01,-3.985E+02, 1.979E-01, 6.923E-03, 1.001E+02
 1.000E+03, 9.291E+01, 9.295E+01, 8.461E+01, 1.136E+02, 8.052E+01, 9.316E+01, 1.187E+02, 6.698E+01,-4.023E+02, 1.979E-01, 6.909E-03, 1.001E+02
 1.010E+03, 9.220E+01, 9.286E+01, 8.570E+01, 1.134E+02, 7.754E+01, 9.295E+01, 1.191E+02, 6.647E+01,-4.018E+02, 1.979E-01, 6.886E-03, 1.000E+02
 1.020E+03, 9.157E+01, 9.345E+01, 8.504E+01, 1.147E+02, 7.500E+01, 9.444E+01, 1.192E+02, 6.676E+01,-4.032E+02, 1.979E-01, 6.879E-03, 1.002E+02
 1.030E+03, 9.267E+01, 9.268E+01, 8.721E+01, 1.158E+02, 7.501E+01, 9.470E+01, 1.165E+02, 6.688E+01,-3.954E+02, 1.979E-01, 6.899E-03, 1.002E+02
 1.040E+03, 9.218E+01, 9.353E+01, 8.568E+01, 1.170E+02, 7.390E+01, 9.426E+01, 1.182E+02, 6.813E+01,-3.997E+02, 1.979E-01, 6.907E-03, 9.999E+01
 1.050E+03, 9.278E+01, 9.344E+01, 8.601E+01, 1.158E+02, 7.649E+01, 9.327E+01, 1.195E+02, 6.760E+01,-3.995E+02, 1.979E-01, 6.909E-03, 1.001E+02
 1.060E+03, 9.295E+01, 9.361E+01, 8.568E+01, 1.159E+02, 7.727E+01, 9.396E+01, 1.195E+02, 6.732E+01,-4.009E+02, 1.979E-01, 6.921E-03, 9.999E+01
 1.070E+03, 9.263E+01, 9.330E+01, 8.564E+01, 1.164E+02, 7.588E+01, 9.237E+01, 1.196E+02, 6.788E+01,-4.004E+02, 1.978E-01, 6.939E-03, 1.002E+02
 1.080E+03, 9.202E+01, 9.396E+01, 8.625E+01, 1.156E+02, 7.422E+01, 9.379E+01, 1.201E+02, 6.802E+01,-4.002E+02, 1.978E-01, 6.975E-03, 9.999E+01
 1.090E+03, 9.248E+01, 9.373E+01, 8.686E+01, 1.158E+02, 7.475E+01, 9.279E+01, 1.204E+02, 6.798E+01,-3.951E+02, 1.978E-01, 6.957E-03, 1.002E+02
 1.100E+03, 9.376E+01, 9.330E+01, 8.716E+01, 1.147E+02, 7.945E+01, 9.382E+01, 1.183E+02, 6.775E+01,-3.967E+02, 1.978E-01, 6.958E-03, 9.996E+01
 1.110E+03, 9.250E+01, 9.364E+01, 8.616E+01, 1.154E+02, 7.593E+01, 9.335E+01, 1.186E+02, 6.900E+01,-3.991E+02, 1.978E-01, 6.970E-03, 1.001E+02
 1.120E+03, 9.348E+01, 9.425E+01, 8.778E+01, 1.161E+02, 7.658E+01, 9.403E+01, 1.198E+02, 6.894E+01,-3.934E+02, 1.978E-01, 6.946E-03, 1.001E+02
 1.130E+03, 9.419E+01, 9.463E+01, 8.825E+01, 1.166E+02, 7.770E+01, 9.511E+01, 1.198E+02, 6.895E+01,-4.013E+02, 1.978E-01, 6.959E-03, 1.001E+02
 1.140E+03, 9.387E+01, 9.407E+01, 8.634E+01, 1.174E+02, 7.783E+01, 9.414E+01, 1.203E+02, 6.773E+01,-4.017E+02, 1.978E-01, 6.931E-03, 9.999E+01
 1.150E+03, 9.307E+01, 9.453E+01, 8.654E+01, 1.170E+02, 7.565E+01, 9.561E+01, 1.191E+02, 6.892E+01,-4.059E+02, 1.978E-01, 6.964E-03, 1.000E+02
 1.160E+03, 9.224E+01, 9.615E+01, 8.568E+01, 1.154E+02, 7.562E+01, 9.527E+01, 1.238E+02, 6.940E+01,-3.991E+02, 1.978E-01, 6.980E-03, 1.002E+02
 1.170E+03, 9.437E+01, 9.504E+01, 8.791E+01, 1.171E+02, 7.808E+01, 9.385E+01, 1.208E+02, 7.051E+01,-3.941E+02, 1.977E-01, 6.986E-03, 9.999E+01
 1.180E+03, 9.335E+01, 9.540E+01, 8.598E+01, 1.163E+02, 7.774E+01, 9.411E+01, 1.219E+02, 7.019E+01,-4.006E+02, 1.978E-01, 6.954E-03, 1.001E+02
 1.190E+03, 9.365E+01, 9.546E+01, 8.602E+01, 1.151E+02, 7.984E+01, 9.383E+01, 1.224E+02, 7.015E+01,-4.029E+02, 1.977E-01, 6.997E-03, 1.001E+02
 1.200E+03, 9.400E+01, 9.464E+01, 8.789E+01, 1.170E+02, 7.707E+01, 9.466E+01, 1.192E+02, 7.006E+01,-3.995E+02, 1.977E-01, 6.982E-03, 1.001E+02
 1.210E+03, 9.436E+01, 9.412E+01, 8.720E+01, 1.179E+02, 7.801E+01, 9.433E+01, 1.186E+02, 6.946E+01,-4.011E+02, 1.977E-01, 6.983E-03, 1.001E+02
 1.220E+03, 9.414E+01, 9.519E+01, 8.738E+01, 1.151E+02, 7.994E+01, 9.495E+01, 1.214E+02, 6.919E+01,-4.006E+02, 1.978E-01, 6.967E-03, 1.001E+02
 1.230E+03, 9.342E+01, 9.535E+01, 8.702E+01, 1.160E+02, 7.723E+01, 9.512E+01, 1.221E+02, 6.883E+01,-4.000E+02, 1.978E-01, 6.959E-03, 1.001E+02
 1.240E+03, 9.433E+01, 9.565E+01, 8.797E+01, 1.169E+02, 7.810E+01, 9.492E+01, 1.231E+02, 6.896E+01,-3.947E+02, 1.978E-01, 6.943E-03, 1.001E+02
 1.250E+03, 9.468E+01, 9.492E+01, 8.686E+01, 1.169E+02, 8.027E+01, 9.426E+01, 1.214E+02, 6.912E+01,-3.982E+02, 1.979E-01, 6.923E-03, 1.000E+02
 1.260E+03, 9.428E+01, 9.595E+01, 8.925E+01, 1.157E+02, 7.786E+01, 9.370E+01, 1.233E+02, 7.083E+01,-3.961E+02, 1.978E-01, 6.977E-03, 1.001E+02
 1.270E+03, 9.386E+01, 9.445E+01, 8.784E+01, 1.167E+02, 7.708E+01, 9.467E+01, 1.186E+02, 7.011E+01,-3.983E+02, 1.978E-01, 6.943E-03, 1.001E+02
 1.280E+03, 9.435E+01, 9.486E+01, 8.767E+01, 1.175E+02, 7.788E+01, 9.580E+01, 1.187E+02, 7.007E+01,-3.996E+02, 1.978E-01, 6.938E-03, 1.002E+02
 1.290E+03, 9.430E+01, 9.558E+01, 8.832E+01, 1.171E+02, 7.746E+01, 9.482E+01, 1.217E+02, 7.020E+01,-3.954E+02, 1.978E-01, 6.934E-03, 9.997E+01
 1.300E+03, 9.415E+01, 9.580E+01, 8.815E+01, 1.148E+02, 7.952E+01, 9.544E+01, 1.226E+02, 6.931E+01,-3.970E+02, 1.979E-01, 6.874E-03, 1.001E+02
 1.310E+03, 9.516E+01, 9.584E+01, 8.839E+01, 1.183E+02, 7.882E+01, 9.540E+01, 1.226E+02, 6.951E+01,-3.983E+02, 1.979E-01, 6.882E-03, 1.001E+02
