s,C,C,C,C,C,C,C,C,Pa,mol/mol,mol/mol,kW
Time,"West_All_TCs","East_All_TCs","West_Bottom_TCs","West_Middle_TCs","West_Upper_TCs","East_Bottom_TCs","East_Middle_TCs","East_Upper_TCs","Pressure","O2","CO2","HRR"
-6.000E+01, 2.500E+01, 2.500E+01, 2.500E+01, 2.500E+01, 2.500E+01, 2.500E+01, 2.500E+01, 2.500E+01,-9.627E-06, 2.095E-01, 3.901E-04, 0.000E+00
-4.999E+01, 2.366E+01, 2.578E+01, 2.461E+01, 2.109E+01, 2.527E+01, 2.401E+01, 2.193E+01, 3.141E+01,-2.576E+02, 2.095E-01, 3.901E-04, 0.000E+00
-3.998E+01, 2.389E+01, 2.538E+01, 2.089E+01, 2.137E+01, 2.940E+01, 2.283E+01, 2.106E+01, 3.225E+01,-2.832E+02, 2.095E-01, 3.901E-04, 0.000E+00
-2.996E+01, 2.314E+01, 2.501E+01, 2.075E+01, 2.071E+01, 2.795E+01, 2.176E+01, 2.093E+01, 3.233E+01,-2.829E+02, 2.095E-01, 3.901E-04, 0.000E+00
-1.996E+01, 2.296E+01, 2.520E+01, 2.051E+01, 2.091E+01, 2.747E+01, 2.226E+01, 2.239E+01, 3.095E+01,-2.803E+02, 2.095E-01, 3.901E-04, 0.000E+00
-9.962E+00, 2.323E+01, 2.533E+01, 2.090E+01, 2.017E+01, 2.863E+01, 2.277E+01, 2.158E+01, 3.165E+01,-2.788E+02, 2.095E-01, 3.901E-04, 0.000E+00
 1.598E-02, 2.355E+01, 2.547E+01, 2.083E+01, 2.243E+01, 2.741E+01, 2.279E+01, 2.342E+01, 3.020E+01,-2.795E+02, 2.095E-01, 3.901E-04, 2.993E-05
 1.000E+01, 2.432E+01, 2.574E+01, 2.162E+01, 2.333E+01, 2.802E+01, 2.366E+01, 2.338E+01, 3.018E+01,-2.380E+02, 2.095E-01, 3.901E-04, 1.615E+01
 2.002E+01, 2.598E+01, 2.759E+01, 2.245E+01, 2.626E+01, 2.924E+01, 2.440E+01, 2.663E+01, 3.175E+01,-1.559E+02, 2.095E-01, 3.901E-04, 4.958E+01
 3.002E+01, 3.069E+01, 3.141E+01, 2.505E+01, 3.666E+01, 3.037E+01, 2.867E+01, 3.588E+01, 2.969E+01,-9.641E+01, 2.095E-01, 3.901E-04, 8.298E+01
 4.001E+01, 3.701E+01, 3.737E+01, 2.805E+01, 4.991E+01, 3.306E+01, 3.217E+01, 5.037E+01, 2.957E+01,-8.333E+01, 2.095E-01, 3.906E-04, 1.001E+02
 5.000E+01, 4.135E+01, 4.227E+01, 3.228E+01, 5.918E+01, 3.260E+01, 3.605E+01, 6.107E+01, 2.969E+01,-9.871E+01, 2.095E-01, 3.916E-04, 1.000E+02
 6.001E+01, 4.697E+01, 4.754E+01, 3.681E+01, 6.846E+01, 3.565E+01, 4.209E+01, 6.856E+01, 3.196E+01,-1.154E+02, 2.089E-01, 7.726E-04, 1.000E+02
 7.000E+01, 5.100E+01, 5.213E+01, 4.182E+01, 7.505E+01, 3.613E+01, 4.618E+01, 7.547E+01, 3.474E+01,-1.272E+02, 2.082E-01, 1.153E-03, 1.001E+02
 8.002E+01, 5.456E+01, 5.765E+01, 4.636E+01, 7.917E+01, 3.816E+01, 5.464E+01, 8.128E+01, 3.703E+01,-1.378E+02, 2.080E-01, 1.245E-03, 1.000E+02
 9.001E+01, 5.824E+01, 6.023E+01, 5.069E+01, 8.315E+01, 4.090E+01, 5.701E+01, 8.419E+01, 3.948E+01,-1.553E+02, 2.075E-01, 1.517E-03, 1.001E+02
 1.000E+02, 6.025E+01, 6.393E+01, 5.400E+01, 8.380E+01, 4.294E+01, 6.208E+01, 8.796E+01, 4.173E+01,-1.726E+02, 2.070E-01, 1.804E-03, 9.999E+01
 1.100E+02, 6.371E+01, 6.577E+01, 5.786E+01, 8.748E+01, 4.578E+01, 6.265E+01, 9.165E+01, 4.300E+01,-1.846E+02, 2.068E-01, 1.904E-03, 1.001E+02
 1.200E+02, 6.582E+01, 6.829E+01, 6.084E+01, 9.052E+01, 4.610E+01, 6.871E+01, 9.149E+01, 4.468E+01,-1.977E+02, 2.065E-01, 2.118E-03, 1.001E+02
 1.300E+02, 6.735E+01, 7.109E+01, 6.283E+01, 9.238E+01, 4.685E+01, 7.259E+01, 9.404E+01, 4.664E+01,-2.060E+02, 2.059E-01, 2.436E-03, 1.002E+02
 1.400E+02, 6.929E+01, 7.193E+01, 6.479E+01, 9.380E+01, 4.930E+01, 7.262E+01, 9.603E+01, 4.712E+01,-2.113E+02, 2.057E-01, 2.538E-03, 1.001E+02
 1.500E+02, 7.108E+01, 7.274E+01, 6.646E+01, 9.729E+01, 4.947E+01, 7.591E+01, 9.535E+01, 4.696E+01,-2.237E+02, 2.052E-01, 2.792E-03, 1.001E+02
 1.600E+02, 7.241E+01, 7.492E+01, 6.707E+01, 9.879E+01, 5.139E+01, 7.698E+01, 9.873E+01, 4.905E+01,-2.241E+02, 2.048E-01, 3.051E-03, 1.001E+02
 1.700E+02, 7.290E+01, 7.632E+01, 6.822E+01, 9.798E+01, 5.249E+01, 7.747E+01, 1.006E+02, 5.083E+01,-2.300E+02, 2.044E-01, 3.287E-03, 9.996E+01
 1.800E+02, 7.347E+01, 7.698E+01, 6.909E+01, 9.853E+01, 5.279E+01, 7.845E+01, 1.015E+02, 5.104E+01,-2.414E+02, 2.040E-01, 3.504E-03, 1.003E+02
 1.900E+02, 7.441E+01, 7.668E+01, 7.053E+01, 9.940E+01, 5.330E+01, 7.750E+01, 1.010E+02, 5.159E+01,-2.389E+02, 2.035E-01, 3.757E-03, 1.002E+02
 2.000E+02, 7.475E+01, 7.836E+01, 7.159E+01, 9.918E+01, 5.349E+01, 7.866E+01, 1.036E+02, 5.280E+01,-2.458E+02, 2.032E-01, 3.953E-03, 1.001E+02
 2.100E+02, 7.539E+01, 7.856E+01, 7.179E+01, 9.975E+01, 5.464E+01, 7.833E+01, 1.042E+02, 5.314E+01,-2.525E+02, 2.028E-01, 4.132E-03, 1.001E+02
 2.200E+02, 7.561E+01, 7.876E+01, 7.206E+01, 1.005E+02, 5.427E+01, 8.063E+01, 1.027E+02, 5.297E+01,-2.461E+02, 2.027E-01, 4.232E-03, 1.001E+02
 2.300E+02, 7.650E+01, 7.882E+01, 7.266E+01, 1.014E+02, 5.547E+01, 7.956E+01, 1.037E+02, 5.324E+01,-2.523E+02, 2.022E-01, 4.495E-03, 1.002E+02
 2.400E+02, 7.641E+01, 8.022E+01, 7.336E+01, 1.016E+02, 5.425E+01, 8.209E+01, 1.056E+02, 5.297E+01,-2.459E+02, 2.019E-01, 4.648E-03, 1.003E+02
 2.500E+02, 7.725E+01, 7.940E+01, 7.408E+01, 1.019E+02, 5.578E+01, 8.067E+01, 1.043E+02, 5.319E+01,-2.474E+02, 2.017E-01, 4.775E-03, 1.001E+02
 2.600E+02, 7.796E+01, 8.014E+01, 7.439E+01, 1.038E+02, 5.564E+01, 8.122E+01, 1.050E+02, 5.421E+01,-2.535E+02, 2.011E-01, 5.128E-03, 1.002E+02
 2.700E+02, 7.802E+01, 8.126E+01, 7.432E+01, 1.044E+02, 5.541E+01, 8.202E+01, 1.078E+02, 5.392E+01,-2.502E+02, 2.011E-01, 5.137E-03, 1.001E+02
 2.800E+02, 7.816E+01, 8.135E+01, 7.516E+01, 1.036E+02, 5.575E+01, 8.237E+01, 1.081E+02, 5.352E+01,-2.481E+02, 2.008E-01, 5.302E-03, 1.002E+02
 2.900E+02, 7.952E+01, 8.165E+01, 7.476E+01, 1.042E+02, 5.957E+01, 8.302E+01, 1.077E+02, 5.424E+01,-2.456E+02, 2.003E-01, 5.581E-03, 1.001E+02
 3.000E+02, 7.839E+01, 8.175E+01, 7.433E+01, 1.033E+02, 5.754E+01, 8.271E+01, 1.070E+02, 5.554E+01,-2.517E+02, 1.999E-01, 5.759E-03, 1.002E+02
 3.100E+02, 7.948E+01, 8.218E+01, 7.485E+01, 1.050E+02, 5.857E+01, 8.307E+01, 1.077E+02, 5.582E+01,-2.545E+02, 1.998E-01, 5.859E-03, 9.994E+01
 3.200E+02, 7.956E+01, 8.285E+01, 7.557E+01, 1.047E+02, 5.836E+01, 8.240E+01, 1.090E+02, 5.715E+01,-2.500E+02, 1.994E-01, 6.081E-03, 1.001E+02
 3.300E+02, 8.000E+01, 8.250E+01, 7.592E+01, 1.046E+02, 5.948E+01, 8.254E+01, 1.089E+02, 5.603E+01,-2.555E+02, 1.993E-01, 6.106E-03, 1.001E+02
 3.400E+02, 8.066E+01, 8.200E+01, 7.666E+01, 1.057E+02, 5.957E+01, 8.324E+01, 1.070E+02, 5.574E+01,-2.498E+02, 1.990E-01, 6.256E-03, 1.002E+02
 3.500E+02, 8.021E+01, 8.284E+01, 7.702E+01, 1.056E+02, 5.797E+01, 8.309E+01, 1.090E+02, 5.641E+01,-2.529E+02, 1.987E-01, 6.464E-03, 1.000E+02
 3.600E+02, 8.067E+01, 8.318E+01, 7.678E+01, 1.062E+02, 5.901E+01, 8.329E+01, 1.100E+02, 5.622E+01,-2.443E+02, 1.985E-01, 6.580E-03, 1.001E+02
 3.700E+02, 8.106E+01, 8.307E+01, 7.631E+01, 1.081E+02, 5.877E+01, 8.373E+01, 1.092E+02, 5.628E+01,-2.477E+02, 1.983E-01, 6.658E-03, 1.000E+02
 3.800E+02, 8.069E+01, 8.323E+01, 7.617E+01, 1.069E+02, 5.902E+01, 8.283E+01, 1.098E+02, 5.703E+01,-2.545E+02, 1.980E-01, 6.836E-03, 1.001E+02
 3.900E+02, 8.050E+01, 8.411E+01, 7.652E+01, 1.066E+02, 5.837E+01, 8.483E+01, 1.108E+02, 5.668E+01,-2.505E+02, 1.979E-01, 6.887E-03, 1.003E+02
 4.000E+02, 8.013E+01, 8.413E+01, 7.638E+01, 1.057E+02, 5.827E+01, 8.540E+01, 1.101E+02, 5.690E+01,-2.494E+02, 1.977E-01, 7.001E-03, 1.001E+02
 4.100E+02, 8.068E+01, 8.414E+01, 7.728E+01, 1.056E+02, 5.918E+01, 8.495E+01, 1.108E+02, 5.669E+01,-2.468E+02, 1.975E-01, 7.137E-03, 1.002E+02
 4.200E+02, 8.105E+01, 8.410E+01, 7.669E+01, 1.070E+02, 5.944E+01, 8.568E+01, 1.101E+02, 5.653E+01,-2.568E+02, 1.974E-01, 7.185E-03, 1.001E+02
 4.300E+02, 8.161E+01, 8.424E+01, 7.714E+01, 1.078E+02, 5.986E+01, 8.466E+01, 1.106E+02, 5.743E+01,-2.465E+02, 1.972E-01, 7.281E-03, 1.001E+02
 4.400E+02, 8.145E+01, 8.309E+01, 7.733E+01, 1.069E+02, 6.015E+01, 8.182E+01, 1.111E+02, 5.637E+01,-2.497E+02, 1.972E-01, 7.292E-03, 1.000E+02
 4.500E+02, 8.240E+01, 8.369E+01, 7.765E+01, 1.099E+02, 5.970E+01, 8.366E+01, 1.101E+02, 5.725E+01,-2.465E+02, 1.969E-01, 7.445E-03, 1.002E+02
 4.600E+02, 8.164E+01, 8.396E+01, 7.817E+01, 1.076E+02, 5.910E+01, 8.477E+01, 1.095E+02, 5.762E+01,-2.441E+02, 1.969E-01, 7.478E-03, 1.002E+02
 4.700E+02, 8.237E+01, 8.440E+01, 7.771E+01, 1.080E+02, 6.138E+01, 8.497E+01, 1.103E+02, 5.790E+01,-2.453E+02, 1.967E-01, 7.589E-03, 1.001E+02
 4.800E+02, 8.277E+01, 8.513E+01, 7.800E+01, 1.094E+02, 6.090E+01, 8.664E+01, 1.115E+02, 5.728E+01,-2.474E+02, 1.967E-01, 7.569E-03, 1.002E+02
 4.900E+02, 8.274E+01, 8.585E+01, 7.786E+01, 1.107E+02, 5.965E+01, 8.682E+01, 1.137E+02, 5.707E+01,-2.412E+02, 1.966E-01, 7.647E-03, 9.998E+01
 5.000E+02, 8.290E+01, 8.480E+01, 7.829E+01, 1.098E+02, 6.057E+01, 8.459E+01, 1.117E+02, 5.815E+01,-2.444E+02, 1.963E-01, 7.808E-03, 1.001E+02
 5.100E+02, 8.278E+01, 8.688E+01, 7.814E+01, 1.101E+02, 6.010E+01, 8.656E+01, 1.158E+02, 5.825E+01,-2.444E+02, 1.962E-01, 7.849E-03, 9.997E+01
 5.200E+02, 8.341E+01, 8.525E+01, 7.876E+01, 1.109E+02, 6.056E+01, 8.580E+01, 1.124E+02, 5.753E+01,-2.438E+02, 1.961E-01, 7.896E-03, 1.001E+02
 5.300E+02, 8.386E+01, 8.617E+01, 7.941E+01, 1.118E+02, 6.036E+01, 8.624E+01, 1.136E+02, 5.871E+01,-2.389E+02, 1.960E-01, 7.979E-03, 1.000E+02
 5.400E+02, 8.339E+01, 8.610E+01, 7.888E+01, 1.109E+02, 6.039E+01, 8.600E+01, 1.134E+02, 5.893E+01,-2.405E+02, 1.959E-01, 8.036E-03, 1.002E+02
 5.500E+02, 8.334E+01, 8.611E+01, 7.922E+01, 1.104E+02, 6.040E+01, 8.535E+01, 1.135E+02, 5.943E+01,-2.414E+02, 1.957E-01, 8.149E-03, 1.001E+02
 5.600E+02, 8.342E+01, 8.625E+01, 7.946E+01, 1.103E+02, 6.050E+01, 8.745E+01, 1.125E+02, 5.879E+01,-2.463E+02, 1.956E-01, 8.182E-03, 1.002E+02
 5.700E+02, 8.438E+01, 8.753E+01, 7.993E+01, 1.118E+02, 6.143E+01, 8.800E+01, 1.152E+02, 5.939E+01,-2.356E+02, 1.956E-01, 8.193E-03, 1.000E+02
 5.800E+02, 8.432E+01, 8.718E+01, 7.931E+01, 1.127E+02, 6.090E+01, 8.745E+01, 1.145E+02, 5.962E+01,-2.372E+02, 1.955E-01, 8.257E-03, 1.005E+02
 5.900E+02, 8.449E+01, 8.789E+01, 7.995E+01, 1.107E+02, 6.279E+01, 8.754E+01, 1.156E+02, 6.049E+01,-2.390E+02, 1.953E-01, 8.337E-03, 1.001E+02
 6.000E+02, 8.420E+01, 8.887E+01, 7.912E+01, 1.118E+02, 6.165E+01, 8.964E+01, 1.163E+02, 6.071E+01,-2.418E+02, 1.952E-01, 8.422E-03, 1.002E+02
 6.100E+02, 8.459E+01, 8.818E+01, 7.921E+01, 1.125E+02, 6.208E+01, 8.760E+01, 1.158E+02, 6.113E+01,-2.511E+02, 1.952E-01, 8.429E-03, 1.002E+02
 6.200E+02, 8.482E+01, 8.745E+01, 7.998E+01, 1.128E+02, 6.172E+01, 8.720E+01, 1.150E+02, 6.016E+01,-2.524E+02, 1.952E-01, 8.414E-03, 1.001E+02
 6.300E+02, 8.528E+01, 8.675E+01, 8.040E+01, 1.124E+02, 6.306E+01, 8.709E+01, 1.130E+02, 6.014E+01,-2.499E+02, 1.951E-01, 8.460E-03, 1.001E+02
 6.400E+02, 8.471E+01, 8.676E+01, 8.050E+01, 1.123E+02, 6.131E+01, 8.750E+01, 1.136E+02, 5.920E+01,-2.332E+02, 1.951E-01, 8.454E-03, 1.002E+02
 6.500E+02, 8.595E+01, 8.812E+01, 8.040E+01, 1.140E+02, 6.344E+01, 8.960E+01, 1.144E+02, 6.034E+01,-2.384E+02, 1.950E-01, 8.543E-03, 1.002E+02
 6.600E+02, 8.521E+01, 8.794E+01, 8.057E+01, 1.133E+02, 6.175E+01, 8.919E+01, 1.137E+02, 6.098E+01,-2.462E+02, 1.950E-01, 8.536E-03, 1.000E+02
 6.700E+02, 8.545E+01, 8.911E+01, 8.083E+01, 1.140E+02, 6.151E+01, 9.082E+01, 1.160E+02, 6.051E+01,-2.397E+02, 1.949E-01, 8.568E-03, 1.000E+02
 6.800E+02, 8.540E+01, 8.771E+01, 8.075E+01, 1.128E+02, 6.267E+01, 8.913E+01, 1.134E+02, 6.057E+01,-2.414E+02, 1.949E-01, 8.553E-03, 1.001E+02
 6.900E+02, 8.576E+01, 8.768E+01, 8.052E+01, 1.131E+02, 6.364E+01, 8.828E+01, 1.137E+02, 6.105E+01,-2.378E+02, 1.949E-01, 8.585E-03, 9.997E+01
 7.000E+02, 8.666E+01, 8.878E+01, 8.048E+01, 1.150E+02, 6.448E+01, 8.930E+01, 1.155E+02, 6.149E+01,-2.450E+02, 1.948E-01, 8.614E-03, 1.001E+02
 7.100E+02, 8.686E+01, 8.965E+01, 8.090E+01, 1.160E+02, 6.372E+01, 9.106E+01, 1.164E+02, 6.153E+01,-2.404E+02, 1.947E-01, 8.659E-03, 1.003E+02
 7.200E+02, 8.606E+01, 8.813E+01, 8.057E+01, 1.138E+02, 6.381E+01, 8.773E+01, 1.150E+02, 6.167E+01,-2.495E+02, 1.947E-01, 8.671E-03, 1.000E+02
 7.300E+02, 8.572E+01, 8.883E+01, 8.059E+01, 1.142E+02, 6.236E+01, 9.096E+01, 1.150E+02, 6.058E+01,-2.371E+02, 1.948E-01, 8.656E-03, 1.000E+02
 7.400E+02, 8.662E+01, 8.973E+01, 8.067E+01, 1.153E+02, 6.394E+01, 9.009E+01, 1.176E+02, 6.146E+01,-2.328E+02, 1.947E-01, 8.700E-03, 1.001E+02
 7.500E+02, 8.617E+01, 8.987E+01, 8.114E+01, 1.135E+02, 6.387E+01, 9.071E+01, 1.169E+02, 6.198E+01,-2.465E+02, 1.946E-01, 8.765E-03, 1.002E+02
 7.600E+02, 8.579E+01, 8.979E+01, 8.134E+01, 1.137E+02, 6.236E+01, 8.973E+01, 1.182E+02, 6.148E+01,-2.312E+02, 1.946E-01, 8.746E-03, 1.007E+02
 7.700E+02, 8.643E+01, 8.948E+01, 8.183E+01, 1.134E+02, 6.407E+01, 8.944E+01, 1.173E+02, 6.167E+01,-2.436E+02, 1.946E-01, 8.732E-03, 1.001E+02
 7.800E+02, 8.676E+01, 9.012E+01, 8.202E+01, 1.148E+02, 6.342E+01, 9.141E+01, 1.175E+02, 6.143E+01,-2.416E+02, 1.946E-01, 8.741E-03, 1.002E+02
 7.900E+02, 8.778E+01, 8.903E+01, 8.244E+01, 1.165E+02, 6.438E+01, 8.882E+01, 1.162E+02, 6.210E+01,-2.440E+02, 1.945E-01, 8.779E-03, 1.002E+02
 8.000E+02, 8.633E+01, 8.847E+01, 8.205E+01, 1.136E+02, 6.330E+01, 8.862E+01, 1.151E+02, 6.164E+01,-2.433E+02, 1.946E-01, 8.764E-03, 1.000E+02
 8.100E+02, 8.681E+01, 8.939E+01, 8.211E+01, 1.139E+02, 6.443E+01, 8.977E+01, 1.165E+02, 6.191E+01,-2.429E+02, 1.946E-01, 8.757E-03, 1.002E+02
 8.200E+02, 8.680E+01, 9.021E+01, 8.158E+01, 1.146E+02, 6.426E+01, 8.995E+01, 1.190E+02, 6.171E+01,-2.453E+02, 1.946E-01, 8.744E-03, 9.993E+01
 8.300E+02, 8.727E+01, 8.862E+01, 8.268E+01, 1.157E+02, 6.340E+01, 8.834E+01, 1.163E+02, 6.126E+01,-2.341E+02, 1.946E-01, 8.735E-03, 1.001E+02
 8.400E+02, 8.786E+01, 9.032E+01, 8.284E+01, 1.151E+02, 6.566E+01, 9.088E+01, 1.184E+02, 6.164E+01,-2.365E+02, 1.946E-01, 8.735E-03, 1.002E+02
 8.500E+02, 8.785E+01, 9.083E+01, 8.262E+01, 1.167E+02, 6.427E+01, 9.366E+01, 1.171E+02, 6.174E+01,-2.300E+02, 1.946E-01, 8.761E-03, 1.001E+02
 8.600E+02, 8.788E+01, 9.045E+01, 8.224E+01, 1.166E+02, 6.475E+01, 9.149E+01, 1.175E+02, 6.231E+01,-2.313E+02, 1.946E-01, 8.761E-03, 1.002E+02
 8.700E+02, 8.791E+01, 9.100E+01, 8.313E+01, 1.151E+02, 6.548E+01, 9.203E+01, 1.175E+02, 6.350E+01,-2.380E+02, 1.946E-01, 8.755E-03, 1.002E+02
 8.800E+02, 8.716E+01, 9.024E+01, 8.352E+01, 1.139E+02, 6.408E+01, 9.041E+01, 1.172E+02, 6.311E+01,-2.386E+02, 1.945E-01, 8.807E-03, 1.001E+02
 8.900E+02, 8.856E+01, 9.074E+01, 8.273E+01, 1.172E+02, 6.576E+01, 9.155E+01, 1.167E+02, 6.398E+01,-2.395E+02, 1.946E-01, 8.768E-03, 1.002E+02
 9.000E+02, 8.839E+01, 9.132E+01, 8.279E+01, 1.162E+02, 6.624E+01, 9.278E+01, 1.175E+02, 6.371E+01,-2.426E+02, 1.945E-01, 8.790E-03, 1.002E+02
 9.100E+02, 8.929E+01, 9.110E+01, 8.341E+01, 1.179E+02, 6.657E+01, 8.962E+01, 1.210E+02, 6.273E+01,-2.354E+02, 1.945E-01, 8.778E-03, 1.002E+02
 9.200E+02, 8.935E+01, 9.151E+01, 8.318E+01, 1.171E+02, 6.780E+01, 9.133E+01, 1.195E+02, 6.366E+01,-2.311E+02, 1.945E-01, 8.817E-03, 9.999E+01
 9.300E+02, 8.864E+01, 9.227E+01, 8.310E+01, 1.178E+02, 6.503E+01, 9.303E+01, 1.201E+02, 6.372E+01,-2.337E+02, 1.945E-01, 8.817E-03, 1.001E+02
 9.400E+02, 8.955E+01, 9.163E+01, 8.367E+01, 1.172E+02, 6.780E+01, 9.019E+01, 1.200E+02, 6.474E+01,-2.361E+02, 1.944E-01, 8.878E-03, 1.002E+02
 9.500E+02, 8.958E+01, 9.188E+01, 8.393E+01, 1.170E+02, 6.783E+01, 9.035E+01, 1.208E+02, 6.452E+01,-2.374E+02, 1.944E-01, 8.876E-03, 9.996E+01
 9.600E+02, 8.924E+01, 9.147E+01, 8.390E+01, 1.168E+02, 6.706E+01, 8.991E+01, 1.209E+02, 6.364E+01,-2.385E+02, 1.944E-01, 8.849E-03, 1.002E+02
 9.700E+02, 8.906E+01, 9.134E+01, 8.461E+01, 1.160E+02, 6.659E+01, 9.014E+01, 1.199E+02, 6.393E+01,-2.372E+02, 1.944E-01, 8.864E-03, 1.000E+02
 9.800E+02, 8.984E+01, 9.177E+01, 8.434E+01, 1.174E+02, 6.776E+01, 9.173E+01, 1.195E+02, 6.404E+01,-2.359E+02, 1.944E-01, 8.863E-03, 1.003E+02
 9.900E+02, 9.020E+01, 9.219E+01, 8.506E+01, 1.185E+02, 6.700E+01, 9.174E+01, 1.203E+02, 6.452E+01,-2.393E+02, 1.944E-01, 8.826E-03, 9.998E+01
 1.000E+03, 8.985E+01, 9.131E+01, 8.499E+01, 1.173E+02, 6.722E+01, 9.105E+01, 1.196E+02, 6.328E+01,-2.393E+02, 1.944E-01, 8.826E-03, 1.001E+02
 1.010E+03, 8.988E+01, 9.199E+01, 8.394E+01, 1.194E+02, 6.627E+01, 9.176E+01, 1.210E+02, 6.320E+01,-2.347E+02, 1.944E-01, 8.831E-03, 1.003E+02
 1.020E+03, 8.968E+01, 9.214E+01, 8.514E+01, 1.171E+02, 6.677E+01, 9.112E+01, 1.210E+02, 6.425E+01,-2.358E+02, 1.944E-01, 8.871E-03, 1.001E+02
 1.030E+03, 8.953E+01, 9.190E+01, 8.502E+01, 1.178E+02, 6.581E+01, 9.241E+01, 1.182E+02, 6.508E+01,-2.356E+02, 1.943E-01, 8.883E-03, 1.002E+02
 1.040E+03, 9.125E+01, 9.317E+01, 8.499E+01, 1.181E+02, 7.064E+01, 9.294E+01, 1.206E+02, 6.599E+01,-2.424E+02, 1.944E-01, 8.876E-03, 1.000E+02
 1.050E+03, 9.024E+01, 9.218E+01, 8.521E+01, 1.182E+02, 6.737E+01, 9.169E+01, 1.205E+02, 6.437E+01,-2.335E+02, 1.944E-01, 8.854E-03, 1.002E+02
 1.060E+03, 9.134E+01, 9.246E+01, 8.578E+01, 1.196E+02, 6.863E+01, 9.237E+01, 1.213E+02, 6.370E+01,-2.276E+02, 1.944E-01, 8.837E-03, 1.002E+02
 1.070E+03, 9.116E+01, 9.307E+01, 8.621E+01, 1.184E+02, 6.890E+01, 9.234E+01, 1.222E+02, 6.466E+01,-2.381E+02, 1.944E-01, 8.846E-03, 9.996E+01
 1.080E+03, 9.086E+01, 9.379E+01, 8.526E+01, 1.191E+02, 6.825E+01, 9.347E+01, 1.229E+02, 6.496E+01,-2.337E+02, 1.944E-01, 8.852E-03, 1.001E+02
 1.090E+03, 9.048E+01, 9.274E+01, 8.508E+01, 1.187E+02, 6.763E+01, 9.260E+01, 1.211E+02, 6.453E+01,-2.333E+02, 1.944E-01, 8.853E-03, 1.001E+02
 1.100E+03, 9.132E+01, 9.389E+01, 8.554E+01, 1.205E+02, 6.793E+01, 9.288E+01, 1.234E+02, 6.539E+01,-2.375E+02, 1.943E-01, 8.908E-03, 1.001E+02
 1.110E+03, 9.007E+01, 9.336E+01, 8.442E+01, 1.183E+02, 6.755E+01, 9.371E+01, 1.215E+02, 6.485E+01,-2.429E+02, 1.944E-01, 8.876E-03, 1.000E+02
 1.120E+03, 9.106E+01, 9.281E+01, 8.541E+01, 1.205E+02, 6.729E+01, 9.330E+01, 1.214E+02, 6.374E+01,-2.360E+02, 1.944E-01, 8.880E-03, 1.002E+02
 1.130E+03, 9.136E+01, 9.310E+01, 8.562E+01, 1.185E+02, 6.992E+01, 9.211E+01, 1.217E+02, 6.548E+01,-2.298E+02, 1.943E-01, 8.928E-03, 1.001E+02
 1.140E+03, 9.174E+01, 9.384E+01, 8.664E+01, 1.204E+02, 6.821E+01, 9.306E+01, 1.230E+02, 6.542E+01,-2.308E+02, 1.943E-01, 8.928E-03, 1.004E+02
 1.150E+03, 9.148E+01, 9.403E+01, 8.639E+01, 1.198E+02, 6.820E+01, 9.382E+01, 1.228E+02, 6.550E+01,-2.301E+02, 1.943E-01, 8.917E-03, 1.000E+02
 1.160E+03, 9.285E+01, 9.405E+01, 8.682E+01, 1.201E+02, 7.164E+01, 9.443E+01, 1.222E+02, 6.552E+01,-2.331E+02, 1.943E-01, 8.917E-03, 1.002E+02
 1.170E+03, 9.233E+01, 9.437E+01, 8.612E+01, 1.216E+02, 6.925E+01, 9.473E+01, 1.223E+02, 6.606E+01,-2.297E+02, 1.942E-01, 8.963E-03, 1.003E+02
 1.180E+03, 9.207E+01, 9.427E+01, 8.570E+01, 1.212E+02, 6.934E+01, 9.490E+01, 1.206E+02, 6.726E+01,-2.326E+02, 1.942E-01, 8.985E-03, 1.001E+02
 1.190E+03, 9.214E+01, 9.391E+01, 8.573E+01, 1.211E+02, 6.959E+01, 9.354E+01, 1.215E+02, 6.665E+01,-2.376E+02, 1.942E-01, 8.951E-03, 1.001E+02
 1.200E+03, 9.186E+01, 9.374E+01, 8.664E+01, 1.201E+02, 6.882E+01, 9.348E+01, 1.212E+02, 6.656E+01,-2.394E+02, 1.942E-01, 8.955E-03, 1.002E+02
 1.210E+03, 9.280E+01, 9.432E+01, 8.627E+01, 1.219E+02, 7.024E+01, 9.387E+01, 1.221E+02, 6.702E+01,-2.355E+02, 1.942E-01, 8.957E-03, 1.002E+02
 1.220E+03, 9.122E+01, 9.481E+01, 8.607E+01, 1.198E+02, 6.776E+01, 9.511E+01, 1.233E+02, 6.602E+01,-2.372E+02, 1.941E-01, 9.008E-03, 1.001E+02
 1.230E+03, 9.216E+01, 9.346E+01, 8.657E+01, 1.202E+02, 6.968E+01, 9.365E+01, 1.212E+02, 6.554E+01,-2.305E+02, 1.941E-01, 8.992E-03, 1.000E+02
 1.240E+03, 9.237E+01, 9.401E+01, 8.612E+01, 1.213E+02, 6.966E+01, 9.269E+01, 1.226E+02, 6.675E+01,-2.304E+02, 1.942E-01, 8.975E-03, 1.001E+02
 1.250E+03, 9.253E+01, 9.521E+01, 8.611E+01, 1.221E+02, 6.942E+01, 9.379E+01, 1.243E+02, 6.749E+01,-2.351E+02, 1.942E-01, 8.983E-03, 1.002E+02
 1.260E+03, 9.216E+01, 9.532E+01, 8.665E+01, 1.206E+02, 6.927E+01, 9.483E+01, 1.241E+02, 6.701E+01,-2.311E+02, 1.941E-01, 8.994E-03, 1.002E+02
 1.270E+03, 9.258E+01, 9.517E+01, 8.709E+01, 1.210E+02, 6.964E+01, 9.424E+01, 1.226E+02, 6.866E+01,-2.387E+02, 1.941E-01, 9.022E-03, 1.002E+02
 1.280E+03, 9.263E+01, 9.470E+01, 8.761E+01, 1.200E+02, 7.025E+01, 9.466E+01, 1.228E+02, 6.666E+01,-2.299E+02, 1.941E-01, 8.998E-03, 1.003E+02
 1.290E+03, 9.290E+01, 9.583E+01, 8.766E+01, 1.207E+02, 7.038E+01, 9.526E+01, 1.247E+02, 6.757E+01,-2.321E+02, 1.942E-01, 8.985E-03, 1.002E+02
 1.300E+03, 9.266E+01, 9.573E+01, 8.755E+01, 1.205E+02, 6.991E+01, 9.625E+01, 1.231E+02, 6.786E+01,-2.334E+02, 1.942E-01, 8.955E-03, 1.001E+02
 1.310E+03, 9.289E+01, 9.623E+01, 8.779E+01, 1.209E+02, 6.999E+01, 9.674E+01, 1.246E+02, 6.732E+01,-2.370E+02, 1.942E-01, 8.981E-03, 1.001E+02
