s,C,C,C,C,C,C,C,C,Pa,mol/mol,mol/mol,kW
Time,"West_All_TCs","East_All_TCs","West_Bottom_TCs","West_Middle_TCs","West_Upper_TCs","East_Bottom_TCs","East_Middle_TCs","East_Upper_TCs","Pressure","O2","CO2","HRR"
-6.000E+01, 2.000E+01, 2.000E+01, 2.000E+01, 2.000E+01, 2.000E+01, 2.000E+01, 2.000E+01, 2.000E+01,-9.803E-06, 2.095E-01, 3.901E-04, 0.000E+00
-4.998E+01, 1.999E+01, 1.999E+01, 1.999E+01, 1.999E+01, 1.999E+01, 1.999E+01, 1.999E+01, 1.999E+01,-2.102E+01, 2.095E-01, 3.901E-04, 0.000E+00
-3.996E+01, 1.998E+01, 1.999E+01, 1.999E+01, 1.998E+01, 1.998E+01, 1.999E+01, 1.999E+01, 1.999E+01,-2.024E+01, 2.095E-01, 3.901E-04, 0.000E+00
-2.994E+01, 1.998E+01, 1.999E+01, 1.998E+01, 1.998E+01, 1.997E+01, 2.001E+01, 1.999E+01, 1.998E+01,-2.025E+01, 2.095E-01, 3.901E-04, 0.000E+00
-1.992E+01, 1.998E+01, 2.000E+01, 1.998E+01, 1.998E+01, 1.997E+01, 2.002E+01, 1.999E+01, 1.998E+01,-2.026E+01, 2.095E-01, 3.901E-04, 0.000E+00
-9.896E+00, 1.998E+01, 2.000E+01, 1.998E+01, 1.998E+01, 1.997E+01, 2.003E+01, 1.999E+01, 1.999E+01,-2.026E+01, 2.095E-01, 3.901E-04, 0.000E+00
 1.301E-02, 1.998E+01, 2.000E+01, 1.998E+01, 1.998E+01, 1.997E+01, 2.003E+01, 1.999E+01, 1.999E+01,-2.027E+01, 2.095E-01, 3.901E-04, 1.765E-04
 1.000E+01, 2.088E+01, 2.116E+01, 2.047E+01, 2.220E+01, 1.999E+01, 2.076E+01, 2.274E+01, 2.000E+01,-2.844E+00, 2.095E-01, 3.901E-04, 3.269E+01
 2.000E+01, 2.484E+01, 2.547E+01, 2.283E+01, 3.162E+01, 2.007E+01, 2.311E+01, 3.328E+01, 2.001E+01, 2.829E+01, 2.095E-01, 3.901E-04, 9.893E+01
 3.001E+01, 3.319E+01, 3.380E+01, 2.611E+01, 5.268E+01, 2.078E+01, 2.746E+01, 5.393E+01, 2.001E+01, 9.904E+01, 2.095E-01, 3.901E-04, 1.660E+02
 4.002E+01, 4.407E+01, 4.473E+01, 3.394E+01, 7.683E+01, 2.144E+01, 3.625E+01, 7.738E+01, 2.057E+01, 1.290E+02, 2.094E-01, 4.676E-04, 1.997E+02
 5.000E+01, 5.492E+01, 5.655E+01, 4.529E+01, 9.684E+01, 2.263E+01, 4.763E+01, 9.968E+01, 2.235E+01, 9.269E+01, 2.091E-01, 6.239E-04, 2.003E+02
 6.001E+01, 6.445E+01, 6.739E+01, 5.913E+01, 1.109E+02, 2.326E+01, 6.224E+01, 1.158E+02, 2.410E+01, 6.284E+01, 2.089E-01, 7.646E-04, 1.999E+02
 7.002E+01, 7.334E+01, 7.549E+01, 7.342E+01, 1.222E+02, 2.438E+01, 7.439E+01, 1.268E+02, 2.529E+01, 4.144E+01, 2.086E-01, 8.933E-04, 1.990E+02
 8.002E+01, 8.096E+01, 8.375E+01, 8.515E+01, 1.321E+02, 2.563E+01, 8.771E+01, 1.375E+02, 2.601E+01, 3.084E+01, 2.086E-01, 9.424E-04, 2.006E+02
 9.001E+01, 8.804E+01, 9.165E+01, 9.525E+01, 1.413E+02, 2.758E+01, 9.902E+01, 1.480E+02, 2.792E+01, 1.739E+01, 2.081E-01, 1.182E-03, 1.991E+02
 1.000E+02, 9.377E+01, 9.760E+01, 1.042E+02, 1.487E+02, 2.839E+01, 1.077E+02, 1.561E+02, 2.895E+01, 1.385E+01, 2.078E-01, 1.361E-03, 2.015E+02
 1.100E+02, 1.009E+02, 1.012E+02, 1.156E+02, 1.576E+02, 2.959E+01, 1.147E+02, 1.590E+02, 2.986E+01, 5.318E+00, 2.076E-01, 1.467E-03, 1.987E+02
 1.200E+02, 1.031E+02, 1.069E+02, 1.204E+02, 1.576E+02, 3.120E+01, 1.223E+02, 1.671E+02, 3.144E+01,-2.140E-01, 2.073E-01, 1.645E-03, 1.998E+02
 1.300E+02, 1.070E+02, 1.100E+02, 1.246E+02, 1.646E+02, 3.192E+01, 1.270E+02, 1.705E+02, 3.256E+01,-2.005E+00, 2.070E-01, 1.801E-03, 1.993E+02
 1.400E+02, 1.095E+02, 1.123E+02, 1.280E+02, 1.681E+02, 3.234E+01, 1.313E+02, 1.721E+02, 3.339E+01,-5.823E+00, 2.067E-01, 1.989E-03, 2.002E+02
 1.500E+02, 1.106E+02, 1.171E+02, 1.301E+02, 1.687E+02, 3.301E+01, 1.351E+02, 1.823E+02, 3.392E+01,-9.071E+00, 2.064E-01, 2.175E-03, 1.998E+02
 1.600E+02, 1.124E+02, 1.169E+02, 1.322E+02, 1.716E+02, 3.328E+01, 1.363E+02, 1.802E+02, 3.424E+01,-1.108E+01, 2.059E-01, 2.406E-03, 1.995E+02
 1.700E+02, 1.139E+02, 1.165E+02, 1.328E+02, 1.739E+02, 3.503E+01, 1.374E+02, 1.771E+02, 3.498E+01,-1.093E+01, 2.055E-01, 2.638E-03, 1.999E+02
 1.800E+02, 1.153E+02, 1.183E+02, 1.339E+02, 1.760E+02, 3.594E+01, 1.365E+02, 1.826E+02, 3.594E+01,-1.287E+01, 2.052E-01, 2.802E-03, 2.008E+02
 1.900E+02, 1.168E+02, 1.175E+02, 1.353E+02, 1.776E+02, 3.768E+01, 1.368E+02, 1.791E+02, 3.662E+01,-1.384E+01, 2.048E-01, 3.052E-03, 1.980E+02
 2.000E+02, 1.182E+02, 1.181E+02, 1.370E+02, 1.802E+02, 3.760E+01, 1.365E+02, 1.807E+02, 3.709E+01,-1.294E+01, 2.045E-01, 3.234E-03, 2.024E+02
 2.100E+02, 1.177E+02, 1.190E+02, 1.349E+02, 1.813E+02, 3.701E+01, 1.376E+02, 1.820E+02, 3.750E+01,-1.506E+01, 2.039E-01, 3.557E-03, 1.977E+02
 2.200E+02, 1.198E+02, 1.181E+02, 1.401E+02, 1.821E+02, 3.729E+01, 1.391E+02, 1.776E+02, 3.739E+01,-1.424E+01, 2.035E-01, 3.741E-03, 1.995E+02
 2.300E+02, 1.188E+02, 1.193E+02, 1.365E+02, 1.819E+02, 3.810E+01, 1.388E+02, 1.812E+02, 3.786E+01,-1.463E+01, 2.026E-01, 4.248E-03, 2.008E+02
 2.400E+02, 1.209E+02, 1.181E+02, 1.389E+02, 1.851E+02, 3.863E+01, 1.361E+02, 1.795E+02, 3.871E+01,-1.395E+01, 2.025E-01, 4.348E-03, 1.994E+02
 2.500E+02, 1.220E+02, 1.205E+02, 1.398E+02, 1.864E+02, 3.976E+01, 1.409E+02, 1.825E+02, 3.794E+01,-1.459E+01, 2.022E-01, 4.520E-03, 1.999E+02
 2.600E+02, 1.225E+02, 1.188E+02, 1.411E+02, 1.862E+02, 4.012E+01, 1.410E+02, 1.766E+02, 3.881E+01,-1.621E+01, 2.014E-01, 4.943E-03, 1.999E+02
 2.700E+02, 1.212E+02, 1.213E+02, 1.423E+02, 1.821E+02, 3.927E+01, 1.446E+02, 1.802E+02, 3.931E+01,-1.777E+01, 2.009E-01, 5.205E-03, 1.996E+02
 2.800E+02, 1.231E+02, 1.229E+02, 1.432E+02, 1.865E+02, 3.969E+01, 1.447E+02, 1.845E+02, 3.954E+01,-1.557E+01, 2.003E-01, 5.556E-03, 1.991E+02
 2.900E+02, 1.223E+02, 1.243E+02, 1.428E+02, 1.843E+02, 3.971E+01, 1.480E+02, 1.851E+02, 3.969E+01,-1.597E+01, 1.999E-01, 5.804E-03, 2.005E+02
 3.000E+02, 1.226E+02, 1.238E+02, 1.431E+02, 1.849E+02, 3.985E+01, 1.479E+02, 1.840E+02, 3.933E+01,-1.781E+01, 1.993E-01, 6.130E-03, 1.997E+02
 3.100E+02, 1.224E+02, 1.268E+02, 1.436E+02, 1.837E+02, 3.996E+01, 1.503E+02, 1.901E+02, 4.006E+01,-1.688E+01, 1.986E-01, 6.483E-03, 1.985E+02
 3.200E+02, 1.232E+02, 1.264E+02, 1.426E+02, 1.878E+02, 3.931E+01, 1.473E+02, 1.922E+02, 3.959E+01,-1.799E+01, 1.984E-01, 6.595E-03, 1.989E+02
 3.300E+02, 1.228E+02, 1.261E+02, 1.419E+02, 1.872E+02, 3.939E+01, 1.484E+02, 1.897E+02, 4.018E+01,-2.196E+01, 1.977E-01, 7.021E-03, 1.956E+02
 3.400E+02, 1.229E+02, 1.253E+02, 1.423E+02, 1.873E+02, 3.918E+01, 1.478E+02, 1.879E+02, 4.023E+01,-1.892E+01, 1.973E-01, 7.219E-03, 2.002E+02
 3.500E+02, 1.230E+02, 1.259E+02, 1.433E+02, 1.859E+02, 3.963E+01, 1.479E+02, 1.898E+02, 4.010E+01,-2.582E+01, 1.969E-01, 7.458E-03, 1.943E+02
 3.600E+02, 1.242E+02, 1.246E+02, 1.432E+02, 1.890E+02, 4.053E+01, 1.471E+02, 1.871E+02, 3.948E+01,-1.891E+01, 1.963E-01, 7.767E-03, 2.028E+02
 3.700E+02, 1.239E+02, 1.272E+02, 1.432E+02, 1.882E+02, 4.027E+01, 1.482E+02, 1.932E+02, 4.016E+01,-2.088E+01, 1.955E-01, 8.231E-03, 1.984E+02
 3.800E+02, 1.253E+02, 1.259E+02, 1.429E+02, 1.934E+02, 3.962E+01, 1.471E+02, 1.908E+02, 3.979E+01,-2.779E+01, 1.953E-01, 8.336E-03, 1.982E+02
 3.900E+02, 1.254E+02, 1.272E+02, 1.455E+02, 1.909E+02, 3.976E+01, 1.466E+02, 1.940E+02, 4.088E+01,-2.905E+01, 1.944E-01, 8.853E-03, 1.870E+02
 4.000E+02, 1.252E+02, 1.292E+02, 1.434E+02, 1.922E+02, 4.004E+01, 1.522E+02, 1.950E+02, 4.028E+01,-1.734E+01, 1.942E-01, 8.964E-03, 2.034E+02
 4.100E+02, 1.265E+02, 1.281E+02, 1.453E+02, 1.937E+02, 4.041E+01, 1.488E+02, 1.959E+02, 3.972E+01,-2.831E+01, 1.936E-01, 9.276E-03, 1.828E+02
 4.200E+02, 1.244E+02, 1.292E+02, 1.414E+02, 1.919E+02, 3.987E+01, 1.523E+02, 1.947E+02, 4.073E+01,-2.390E+01, 1.927E-01, 9.779E-03, 1.875E+02
 4.300E+02, 1.233E+02, 1.237E+02, 1.427E+02, 1.876E+02, 3.950E+01, 1.439E+02, 1.862E+02, 4.107E+01,-1.095E+02, 1.927E-01, 9.802E-03, 1.125E+02
 4.400E+02, 1.228E+02, 1.286E+02, 1.356E+02, 1.911E+02, 4.175E+01, 1.499E+02, 1.947E+02, 4.116E+01, 9.281E+01, 1.924E-01, 9.944E-03, 2.415E+02
 4.500E+02, 1.205E+02, 1.328E+02, 1.383E+02, 1.821E+02, 4.112E+01, 1.574E+02, 1.997E+02, 4.141E+01,-8.877E+01, 1.917E-01, 1.039E-02, 7.129E+01
 4.600E+02, 1.202E+02, 1.531E+02, 1.377E+02, 1.807E+02, 4.229E+01, 2.038E+02, 2.139E+02, 4.168E+01,-2.791E+01, 1.912E-01, 1.062E-02, 9.314E+01
 4.700E+02, 1.154E+02, 1.237E+02, 1.350E+02, 1.690E+02, 4.225E+01, 1.523E+02, 1.766E+02, 4.224E+01,-1.010E+02, 1.904E-01, 1.110E-02, 3.393E-01
 4.800E+02, 1.078E+02, 1.231E+02, 1.247E+02, 1.568E+02, 4.188E+01, 1.545E+02, 1.727E+02, 4.199E+01,-2.611E+01, 1.898E-01, 1.140E-02, 6.152E+00
 4.900E+02, 1.172E+02, 1.200E+02, 1.349E+02, 1.735E+02, 4.303E+01, 1.512E+02, 1.675E+02, 4.116E+01,-1.567E+01, 1.898E-01, 1.142E-02, 2.148E+01
 5.001E+02, 1.088E+02, 1.196E+02, 1.229E+02, 1.613E+02, 4.235E+01, 1.457E+02, 1.705E+02, 4.269E+01,-6.992E+01, 1.889E-01, 1.192E-02, 5.316E+00
 5.100E+02, 1.144E+02, 1.181E+02, 1.292E+02, 1.704E+02, 4.361E+01, 1.336E+02, 1.786E+02, 4.205E+01, 5.619E+01, 1.888E-01, 1.197E-02, 1.997E+01
 5.200E+02, 1.107E+02, 1.146E+02, 1.205E+02, 1.685E+02, 4.305E+01, 1.292E+02, 1.712E+02, 4.356E+01,-4.267E+01, 1.881E-01, 1.237E-02, 3.867E+01
 5.300E+02, 1.091E+02, 1.256E+02, 1.177E+02, 1.672E+02, 4.231E+01, 1.371E+02, 1.963E+02, 4.335E+01,-1.992E+00, 1.873E-01, 1.282E-02, 2.204E+00
 5.400E+02, 1.101E+02, 1.178E+02, 1.167E+02, 1.707E+02, 4.298E+01, 1.191E+02, 1.916E+02, 4.278E+01,-3.601E+01, 1.875E-01, 1.273E-02, 1.448E+00
 5.500E+02, 1.104E+02, 1.178E+02, 1.157E+02, 1.724E+02, 4.321E+01, 1.222E+02, 1.887E+02, 4.257E+01,-2.893E+01, 1.873E-01, 1.282E-02, 1.292E+00
 5.600E+02, 1.074E+02, 1.097E+02, 1.115E+02, 1.675E+02, 4.307E+01, 1.143E+02, 1.719E+02, 4.282E+01,-5.656E+01, 1.870E-01, 1.297E-02, 3.748E+00
 5.700E+02, 1.132E+02, 1.162E+02, 1.131E+02, 1.837E+02, 4.294E+01, 1.097E+02, 1.959E+02, 4.297E+01, 2.605E+01, 1.861E-01, 1.350E-02, 1.054E+01
 5.800E+02, 1.101E+02, 1.236E+02, 1.113E+02, 1.762E+02, 4.279E+01, 1.159E+02, 2.125E+02, 4.253E+01,-5.906E+00, 1.865E-01, 1.329E-02, 4.460E-01
 5.900E+02, 1.112E+02, 1.273E+02, 1.115E+02, 1.796E+02, 4.263E+01, 1.130E+02, 2.262E+02, 4.268E+01, 3.751E+01, 1.862E-01, 1.342E-02, 1.451E-01
 6.000E+02, 1.122E+02, 1.303E+02, 1.107E+02, 1.822E+02, 4.368E+01, 1.215E+02, 2.269E+02, 4.261E+01,-2.893E+01, 1.861E-01, 1.351E-02, 1.148E+00
 6.100E+02, 1.130E+02, 1.235E+02, 1.128E+02, 1.821E+02, 4.421E+01, 1.151E+02, 2.113E+02, 4.411E+01,-3.978E+01, 1.851E-01, 1.403E-02, 8.135E-01
 6.200E+02, 1.132E+02, 1.214E+02, 1.117E+02, 1.827E+02, 4.519E+01, 1.090E+02, 2.107E+02, 4.447E+01,-2.811E+01, 1.847E-01, 1.426E-02, 8.516E-01
 6.300E+02, 1.144E+02, 1.238E+02, 1.112E+02, 1.862E+02, 4.591E+01, 1.130E+02, 2.133E+02, 4.507E+01, 2.924E+01, 1.847E-01, 1.425E-02, 4.265E-01
 6.400E+02, 1.146E+02, 1.179E+02, 1.124E+02, 1.847E+02, 4.672E+01, 1.074E+02, 2.004E+02, 4.597E+01,-4.498E+01, 1.837E-01, 1.484E-02, 3.417E-01
 6.500E+02, 1.138E+02, 1.184E+02, 1.109E+02, 1.838E+02, 4.679E+01, 1.087E+02, 1.999E+02, 4.657E+01,-2.591E+01, 1.840E-01, 1.464E-02, 5.545E-01
 6.600E+02, 1.144E+02, 1.205E+02, 1.103E+02, 1.853E+02, 4.760E+01, 1.061E+02, 2.091E+02, 4.625E+01,-1.232E+01, 1.839E-01, 1.471E-02, 3.476E-01
 6.700E+02, 1.137E+02, 1.204E+02, 1.093E+02, 1.843E+02, 4.767E+01, 1.121E+02, 2.010E+02, 4.806E+01,-2.468E+01, 1.832E-01, 1.511E-02, 1.699E+00
 6.800E+02, 1.122E+02, 1.182E+02, 1.073E+02, 1.813E+02, 4.794E+01, 1.060E+02, 2.005E+02, 4.801E+01,-3.519E+01, 1.831E-01, 1.519E-02, 5.062E+00
 6.900E+02, 1.089E+02, 1.124E+02, 1.058E+02, 1.726E+02, 4.831E+01, 1.021E+02, 1.874E+02, 4.779E+01,-4.692E+01, 1.829E-01, 1.530E-02, 2.164E+00
 7.000E+02, 1.069E+02, 1.425E+02, 1.027E+02, 1.687E+02, 4.939E+01, 1.342E+02, 2.443E+02, 4.908E+01, 1.555E+01, 1.825E-01, 1.548E-02, 2.791E+00
 7.100E+02, 1.099E+02, 1.189E+02, 1.015E+02, 1.785E+02, 4.959E+01, 1.034E+02, 2.048E+02, 4.837E+01,-6.614E+00, 1.822E-01, 1.567E-02, 5.956E-01
 7.200E+02, 1.105E+02, 1.170E+02, 1.015E+02, 1.795E+02, 5.045E+01, 1.023E+02, 1.983E+02, 5.050E+01,-3.700E+01, 1.812E-01, 1.620E-02, 4.213E+00
 7.300E+02, 1.093E+02, 1.143E+02, 1.015E+02, 1.752E+02, 5.123E+01, 9.582E+01, 1.967E+02, 5.029E+01,-2.662E+01, 1.815E-01, 1.604E-02, 6.867E-01
 7.400E+02, 1.119E+02, 1.375E+02, 1.008E+02, 1.836E+02, 5.125E+01, 1.013E+02, 2.603E+02, 5.087E+01, 9.866E+01, 1.810E-01, 1.633E-02, 1.146E+00
 7.500E+02, 1.163E+02, 1.253E+02, 1.019E+02, 1.941E+02, 5.300E+01, 9.860E+01, 2.262E+02, 5.092E+01,-2.616E+00, 1.806E-01, 1.656E-02, 2.521E-01
 7.600E+02, 1.158E+02, 1.285E+02, 1.021E+02, 1.916E+02, 5.362E+01, 9.780E+01, 2.346E+02, 5.319E+01,-3.456E+01, 1.799E-01, 1.694E-02, 7.740E-02
 7.700E+02, 1.172E+02, 1.258E+02, 1.036E+02, 1.935E+02, 5.454E+01, 9.680E+01, 2.270E+02, 5.353E+01, 1.947E+01, 1.789E-01, 1.754E-02, 5.571E-01
 7.800E+02, 1.194E+02, 1.251E+02, 1.041E+02, 1.983E+02, 5.587E+01, 1.036E+02, 2.167E+02, 5.511E+01,-4.709E+00, 1.780E-01, 1.803E-02, 1.431E+00
 7.900E+02, 1.193E+02, 1.309E+02, 1.057E+02, 1.946E+02, 5.745E+01, 1.079E+02, 2.289E+02, 5.605E+01,-4.561E+01, 1.769E-01, 1.862E-02, 4.287E-01
 8.000E+02, 1.179E+02, 1.268E+02, 1.079E+02, 1.877E+02, 5.817E+01, 1.048E+02, 2.191E+02, 5.669E+01,-2.126E+01, 1.769E-01, 1.862E-02, 2.524E-01
 8.100E+02, 1.154E+02, 1.221E+02, 1.054E+02, 1.824E+02, 5.835E+01, 1.019E+02, 2.065E+02, 5.776E+01,-4.978E+01, 1.765E-01, 1.885E-02, 2.085E+00
 8.200E+02, 1.138E+02, 1.160E+02, 1.046E+02, 1.784E+02, 5.842E+01, 9.987E+01, 1.908E+02, 5.726E+01,-3.717E+01, 1.768E-01, 1.869E-02, 2.159E+00
 8.300E+02, 1.121E+02, 1.170E+02, 1.024E+02, 1.753E+02, 5.850E+01, 9.860E+01, 1.935E+02, 5.875E+01,-2.876E+01, 1.759E-01, 1.921E-02, 4.238E+00
 8.400E+02, 1.117E+02, 1.145E+02, 1.015E+02, 1.747E+02, 5.896E+01, 9.522E+01, 1.905E+02, 5.773E+01,-2.993E+01, 1.764E-01, 1.893E-02, 4.632E-01
 8.500E+02, 1.096E+02, 1.144E+02, 9.962E+01, 1.697E+02, 5.949E+01, 9.212E+01, 1.912E+02, 5.975E+01,-2.833E+01, 1.759E-01, 1.921E-02, 4.104E+00
 8.600E+02, 1.104E+02, 1.194E+02, 9.832E+01, 1.728E+02, 6.008E+01, 9.115E+01, 2.082E+02, 5.885E+01, 6.484E-01, 1.758E-01, 1.923E-02, 4.534E-01
 8.700E+02, 1.122E+02, 1.160E+02, 9.698E+01, 1.790E+02, 6.073E+01, 9.078E+01, 1.982E+02, 5.887E+01,-2.716E+01, 1.757E-01, 1.932E-02, 1.515E+00
 8.800E+02, 1.106E+02, 1.150E+02, 9.734E+01, 1.743E+02, 6.000E+01, 8.817E+01, 1.964E+02, 6.049E+01,-2.019E+01, 1.748E-01, 1.982E-02, 2.984E-01
 8.900E+02, 1.117E+02, 1.180E+02, 9.609E+01, 1.776E+02, 6.127E+01, 8.954E+01, 2.035E+02, 6.104E+01,-2.216E+01, 1.739E-01, 2.032E-02, 1.226E+00
 9.000E+02, 1.107E+02, 1.160E+02, 9.533E+01, 1.743E+02, 6.237E+01, 9.271E+01, 1.935E+02, 6.176E+01,-2.070E+01, 1.730E-01, 2.080E-02, 5.516E-02
 9.100E+02, 1.115E+02, 1.183E+02, 9.457E+01, 1.753E+02, 6.469E+01, 9.421E+01, 1.983E+02, 6.242E+01,-1.763E+01, 1.720E-01, 2.136E-02, 5.161E-02
 9.200E+02, 1.114E+02, 1.144E+02, 9.450E+01, 1.744E+02, 6.523E+01, 9.205E+01, 1.867E+02, 6.442E+01,-2.527E+01, 1.710E-01, 2.192E-02, 3.370E-01
 9.300E+02, 1.098E+02, 1.121E+02, 9.376E+01, 1.691E+02, 6.645E+01, 8.822E+01, 1.842E+02, 6.396E+01,-3.360E+01, 1.709E-01, 2.199E-02, 6.328E-01
 9.400E+02, 1.085E+02, 1.109E+02, 9.311E+01, 1.659E+02, 6.643E+01, 8.621E+01, 1.804E+02, 6.606E+01,-2.825E+01, 1.708E-01, 2.201E-02, 1.645E+00
 9.500E+02, 1.072E+02, 1.124E+02, 9.211E+01, 1.644E+02, 6.497E+01, 8.623E+01, 1.862E+02, 6.465E+01,-1.820E+01, 1.700E-01, 2.249E-02, 2.709E+00
 9.600E+02, 1.066E+02, 1.099E+02, 9.082E+01, 1.639E+02, 6.501E+01, 8.508E+01, 1.810E+02, 6.348E+01,-2.284E+01, 1.695E-01, 2.276E-02, 1.263E+00
 9.700E+02, 1.067E+02, 1.143E+02, 9.044E+01, 1.642E+02, 6.535E+01, 8.413E+01, 1.941E+02, 6.464E+01,-2.262E+01, 1.692E-01, 2.292E-02, 2.698E-01
 9.800E+02, 1.064E+02, 1.110E+02, 8.938E+01, 1.648E+02, 6.496E+01, 8.537E+01, 1.839E+02, 6.366E+01,-1.968E+01, 1.692E-01, 2.291E-02, 2.223E+00
 9.900E+02, 1.054E+02, 1.087E+02, 8.892E+01, 1.622E+02, 6.494E+01, 8.501E+01, 1.774E+02, 6.386E+01,-2.353E+01, 1.701E-01, 2.241E-02, 8.997E-02
 1.000E+03, 1.048E+02, 1.118E+02, 8.808E+01, 1.610E+02, 6.532E+01, 8.306E+01, 1.872E+02, 6.504E+01,-1.740E+01, 1.693E-01, 2.290E-02, 4.642E-01
