s,C,C,C,C,C,C,C,C,Pa,mol/mol,mol/mol,kW
Time,"West_All_TCs","East_All_TCs","West_Bottom_TCs","West_Middle_TCs","West_Upper_TCs","East_Bottom_TCs","East_Middle_TCs","East_Upper_TCs","Pressure","O2","CO2","HRR"
-6.000E+01, 2.800E+01, 2.800E+01, 2.800E+01, 2.800E+01, 2.800E+01, 2.800E+01, 2.800E+01, 2.800E+01,-9.522E-06, 2.095E-01, 3.901E-04, 0.000E+00
-4.998E+01, 2.796E+01, 2.797E+01, 2.797E+01, 2.796E+01, 2.796E+01, 2.797E+01, 2.797E+01, 2.797E+01,-6.266E+01, 2.095E-01, 3.901E-04, 0.000E+00
-3.996E+01, 2.795E+01, 2.797E+01, 2.795E+01, 2.795E+01, 2.794E+01, 2.798E+01, 2.796E+01, 2.796E+01,-6.318E+01, 2.095E-01, 3.901E-04, 0.000E+00
-2.998E+01, 2.795E+01, 2.797E+01, 2.795E+01, 2.795E+01, 2.794E+01, 2.800E+01, 2.796E+01, 2.795E+01,-6.320E+01, 2.095E-01, 3.901E-04, 0.000E+00
-1.996E+01, 2.794E+01, 2.797E+01, 2.795E+01, 2.794E+01, 2.794E+01, 2.800E+01, 2.796E+01, 2.795E+01,-6.323E+01, 2.095E-01, 3.901E-04, 0.000E+00
-9.985E+00, 2.794E+01, 2.797E+01, 2.795E+01, 2.794E+01, 2.794E+01, 2.800E+01, 2.796E+01, 2.795E+01,-6.324E+01, 2.095E-01, 3.901E-04, 0.000E+00
 3.528E-02, 2.794E+01, 2.797E+01, 2.795E+01, 2.794E+01, 2.794E+01, 2.800E+01, 2.797E+01, 2.796E+01,-6.328E+01, 2.095E-01, 3.901E-04, 1.328E-04
 1.001E+01, 2.892E+01, 2.934E+01, 2.845E+01, 3.034E+01, 2.797E+01, 2.888E+01, 3.117E+01, 2.798E+01,-2.724E+01, 2.095E-01, 3.901E-04, 3.250E+01
 2.001E+01, 3.303E+01, 3.428E+01, 3.069E+01, 4.011E+01, 2.830E+01, 3.146E+01, 4.341E+01, 2.796E+01, 5.954E+00, 2.095E-01, 3.901E-04, 9.896E+01
 3.001E+01, 4.182E+01, 4.237E+01, 3.357E+01, 6.273E+01, 2.916E+01, 3.635E+01, 6.287E+01, 2.788E+01, 4.461E+01, 2.095E-01, 3.901E-04, 1.660E+02
 4.001E+01, 5.301E+01, 5.356E+01, 4.134E+01, 8.763E+01, 3.006E+01, 4.311E+01, 8.916E+01, 2.842E+01, 5.662E+01, 2.094E-01, 4.558E-04, 1.997E+02
 5.002E+01, 6.558E+01, 6.553E+01, 5.145E+01, 1.131E+02, 3.217E+01, 5.239E+01, 1.129E+02, 3.127E+01, 3.241E+01, 2.089E-01, 7.412E-04, 2.005E+02
 6.002E+01, 7.546E+01, 7.673E+01, 6.271E+01, 1.298E+02, 3.387E+01, 6.467E+01, 1.317E+02, 3.382E+01, 1.738E+01, 2.085E-01, 9.976E-04, 1.989E+02
 7.001E+01, 8.374E+01, 8.609E+01, 7.428E+01, 1.406E+02, 3.634E+01, 7.601E+01, 1.458E+02, 3.645E+01, 7.677E+00, 2.081E-01, 1.170E-03, 2.009E+02
 8.001E+01, 9.144E+01, 9.291E+01, 8.391E+01, 1.517E+02, 3.869E+01, 8.611E+01, 1.544E+02, 3.818E+01, 6.434E-01, 2.077E-01, 1.426E-03, 2.000E+02
 9.001E+01, 9.742E+01, 9.858E+01, 9.238E+01, 1.591E+02, 4.077E+01, 9.494E+01, 1.602E+02, 4.063E+01,-7.895E+00, 2.073E-01, 1.653E-03, 1.999E+02
 1.000E+02, 1.025E+02, 1.044E+02, 9.974E+01, 1.653E+02, 4.251E+01, 1.029E+02, 1.668E+02, 4.349E+01,-1.242E+01, 2.067E-01, 2.000E-03, 2.008E+02
 1.100E+02, 1.059E+02, 1.101E+02, 1.071E+02, 1.663E+02, 4.443E+01, 1.083E+02, 1.765E+02, 4.552E+01,-2.188E+01, 2.062E-01, 2.271E-03, 1.982E+02
 1.200E+02, 1.085E+02, 1.107E+02, 1.095E+02, 1.704E+02, 4.557E+01, 1.126E+02, 1.734E+02, 4.601E+01,-2.243E+01, 2.058E-01, 2.467E-03, 2.021E+02
 1.300E+02, 1.114E+02, 1.145E+02, 1.158E+02, 1.711E+02, 4.735E+01, 1.173E+02, 1.782E+02, 4.801E+01,-2.742E+01, 2.051E-01, 2.887E-03, 1.997E+02
 1.400E+02, 1.134E+02, 1.151E+02, 1.168E+02, 1.741E+02, 4.929E+01, 1.197E+02, 1.763E+02, 4.939E+01,-3.481E+01, 2.045E-01, 3.230E-03, 1.991E+02
 1.500E+02, 1.162E+02, 1.171E+02, 1.203E+02, 1.772E+02, 5.108E+01, 1.229E+02, 1.788E+02, 4.977E+01,-3.645E+01, 2.039E-01, 3.536E-03, 1.991E+02
 1.600E+02, 1.177E+02, 1.190E+02, 1.213E+02, 1.798E+02, 5.187E+01, 1.242E+02, 1.811E+02, 5.180E+01,-3.960E+01, 2.033E-01, 3.894E-03, 2.001E+02
 1.700E+02, 1.191E+02, 1.209E+02, 1.231E+02, 1.816E+02, 5.270E+01, 1.275E+02, 1.816E+02, 5.347E+01,-4.468E+01, 2.027E-01, 4.194E-03, 1.995E+02
 1.800E+02, 1.206E+02, 1.214E+02, 1.252E+02, 1.826E+02, 5.396E+01, 1.269E+02, 1.839E+02, 5.342E+01,-4.566E+01, 2.023E-01, 4.445E-03, 1.998E+02
 1.900E+02, 1.213E+02, 1.228E+02, 1.250E+02, 1.836E+02, 5.507E+01, 1.297E+02, 1.841E+02, 5.477E+01,-4.606E+01, 2.014E-01, 4.926E-03, 2.005E+02
 2.000E+02, 1.217E+02, 1.242E+02, 1.267E+02, 1.836E+02, 5.492E+01, 1.292E+02, 1.881E+02, 5.514E+01,-5.226E+01, 2.007E-01, 5.322E-03, 1.999E+02
 2.100E+02, 1.221E+02, 1.255E+02, 1.275E+02, 1.844E+02, 5.453E+01, 1.323E+02, 1.900E+02, 5.415E+01,-4.819E+01, 2.003E-01, 5.575E-03, 2.002E+02
 2.200E+02, 1.223E+02, 1.250E+02, 1.279E+02, 1.839E+02, 5.500E+01, 1.323E+02, 1.885E+02, 5.434E+01,-4.945E+01, 1.995E-01, 5.978E-03, 1.991E+02
 2.300E+02, 1.231E+02, 1.278E+02, 1.302E+02, 1.839E+02, 5.524E+01, 1.313E+02, 1.956E+02, 5.651E+01,-4.728E+01, 1.987E-01, 6.448E-03, 2.016E+02
 2.400E+02, 1.238E+02, 1.279E+02, 1.316E+02, 1.841E+02, 5.561E+01, 1.319E+02, 1.956E+02, 5.607E+01,-5.266E+01, 1.982E-01, 6.743E-03, 1.984E+02
 2.500E+02, 1.243E+02, 1.292E+02, 1.304E+02, 1.863E+02, 5.628E+01, 1.354E+02, 1.956E+02, 5.647E+01,-5.173E+01, 1.975E-01, 7.104E-03, 2.012E+02
 2.600E+02, 1.255E+02, 1.281E+02, 1.322E+02, 1.887E+02, 5.550E+01, 1.340E+02, 1.939E+02, 5.631E+01,-5.116E+01, 1.968E-01, 7.499E-03, 1.996E+02
 2.700E+02, 1.256E+02, 1.290E+02, 1.325E+02, 1.890E+02, 5.529E+01, 1.345E+02, 1.954E+02, 5.691E+01,-5.070E+01, 1.960E-01, 7.958E-03, 1.998E+02
 2.800E+02, 1.256E+02, 1.300E+02, 1.332E+02, 1.877E+02, 5.583E+01, 1.366E+02, 1.965E+02, 5.687E+01,-5.023E+01, 1.948E-01, 8.626E-03, 1.999E+02
 2.900E+02, 1.261E+02, 1.284E+02, 1.335E+02, 1.882E+02, 5.666E+01, 1.352E+02, 1.937E+02, 5.636E+01,-5.100E+01, 1.942E-01, 8.961E-03, 2.000E+02
 3.000E+02, 1.283E+02, 1.303E+02, 1.341E+02, 1.933E+02, 5.739E+01, 1.350E+02, 1.986E+02, 5.739E+01,-5.545E+01, 1.937E-01, 9.262E-03, 1.986E+02
 3.100E+02, 1.279E+02, 1.299E+02, 1.354E+02, 1.903E+02, 5.802E+01, 1.364E+02, 1.957E+02, 5.770E+01,-5.118E+01, 1.930E-01, 9.622E-03, 2.005E+02
 3.200E+02, 1.288E+02, 1.305E+02, 1.357E+02, 1.921E+02, 5.859E+01, 1.356E+02, 1.988E+02, 5.712E+01,-4.842E+01, 1.921E-01, 1.011E-02, 2.011E+02
 3.300E+02, 1.293E+02, 1.320E+02, 1.362E+02, 1.941E+02, 5.782E+01, 1.391E+02, 1.982E+02, 5.881E+01,-5.216E+01, 1.910E-01, 1.074E-02, 1.979E+02
 3.400E+02, 1.296E+02, 1.322E+02, 1.351E+02, 1.944E+02, 5.941E+01, 1.391E+02, 1.995E+02, 5.807E+01,-5.283E+01, 1.904E-01, 1.110E-02, 2.005E+02
 3.500E+02, 1.296E+02, 1.325E+02, 1.361E+02, 1.941E+02, 5.841E+01, 1.367E+02, 2.026E+02, 5.813E+01,-5.297E+01, 1.898E-01, 1.140E-02, 1.985E+02
 3.600E+02, 1.285E+02, 1.338E+02, 1.373E+02, 1.897E+02, 5.841E+01, 1.394E+02, 2.028E+02, 5.922E+01,-5.059E+01, 1.887E-01, 1.205E-02, 2.012E+02
 3.700E+02, 1.286E+02, 1.334E+02, 1.371E+02, 1.899E+02, 5.898E+01, 1.413E+02, 2.008E+02, 5.821E+01,-4.847E+01, 1.880E-01, 1.245E-02, 1.991E+02
 3.800E+02, 1.298E+02, 1.342E+02, 1.369E+02, 1.933E+02, 5.904E+01, 1.424E+02, 2.005E+02, 5.959E+01,-5.373E+01, 1.869E-01, 1.305E-02, 1.992E+02
 3.900E+02, 1.309E+02, 1.327E+02, 1.382E+02, 1.951E+02, 5.940E+01, 1.399E+02, 1.999E+02, 5.843E+01,-5.247E+01, 1.861E-01, 1.350E-02, 1.986E+02
 4.000E+02, 1.316E+02, 1.326E+02, 1.391E+02, 1.956E+02, 6.003E+01, 1.417E+02, 1.964E+02, 5.966E+01,-5.740E+01, 1.855E-01, 1.385E-02, 1.975E+02
 4.100E+02, 1.324E+02, 1.343E+02, 1.402E+02, 1.973E+02, 5.956E+01, 1.412E+02, 2.012E+02, 6.034E+01,-4.743E+01, 1.846E-01, 1.431E-02, 2.046E+02
 4.200E+02, 1.320E+02, 1.339E+02, 1.401E+02, 1.960E+02, 5.977E+01, 1.435E+02, 1.996E+02, 5.857E+01,-5.217E+01, 1.843E-01, 1.452E-02, 1.973E+02
 4.300E+02, 1.327E+02, 1.362E+02, 1.409E+02, 1.966E+02, 6.060E+01, 1.447E+02, 2.042E+02, 5.970E+01,-4.528E+01, 1.828E-01, 1.534E-02, 2.004E+02
 4.400E+02, 1.317E+02, 1.367E+02, 1.404E+02, 1.948E+02, 6.001E+01, 1.460E+02, 2.040E+02, 6.026E+01,-5.242E+01, 1.818E-01, 1.590E-02, 1.997E+02
 4.500E+02, 1.322E+02, 1.351E+02, 1.396E+02, 1.969E+02, 6.020E+01, 1.432E+02, 2.028E+02, 5.926E+01,-5.670E+01, 1.811E-01, 1.629E-02, 1.987E+02
 4.600E+02, 1.333E+02, 1.351E+02, 1.419E+02, 1.974E+02, 6.062E+01, 1.433E+02, 2.022E+02, 5.981E+01,-5.536E+01, 1.801E-01, 1.682E-02, 1.996E+02
 4.700E+02, 1.338E+02, 1.378E+02, 1.422E+02, 1.990E+02, 6.008E+01, 1.472E+02, 2.057E+02, 6.050E+01,-6.140E+01, 1.797E-01, 1.707E-02, 1.944E+02
 4.800E+02, 1.344E+02, 1.404E+02, 1.421E+02, 2.005E+02, 6.049E+01, 1.475E+02, 2.131E+02, 6.068E+01,-4.743E+01, 1.790E-01, 1.743E-02, 2.054E+02
 4.900E+02, 1.343E+02, 1.394E+02, 1.434E+02, 1.982E+02, 6.121E+01, 1.464E+02, 2.121E+02, 5.958E+01,-5.359E+01, 1.781E-01, 1.796E-02, 1.969E+02
 5.000E+02, 1.359E+02, 1.391E+02, 1.440E+02, 2.019E+02, 6.165E+01, 1.468E+02, 2.092E+02, 6.121E+01,-5.538E+01, 1.772E-01, 1.847E-02, 1.983E+02
 5.100E+02, 1.345E+02, 1.393E+02, 1.432E+02, 1.999E+02, 6.048E+01, 1.473E+02, 2.092E+02, 6.147E+01,-5.410E+01, 1.763E-01, 1.895E-02, 2.003E+02
 5.200E+02, 1.353E+02, 1.395E+02, 1.446E+02, 1.999E+02, 6.148E+01, 1.478E+02, 2.109E+02, 5.996E+01,-5.326E+01, 1.758E-01, 1.926E-02, 1.988E+02
 5.300E+02, 1.348E+02, 1.395E+02, 1.443E+02, 1.988E+02, 6.115E+01, 1.483E+02, 2.081E+02, 6.197E+01,-5.711E+01, 1.749E-01, 1.977E-02, 1.994E+02
 5.400E+02, 1.363E+02, 1.390E+02, 1.465E+02, 2.009E+02, 6.162E+01, 1.473E+02, 2.083E+02, 6.126E+01,-5.218E+01, 1.743E-01, 2.009E-02, 1.990E+02
 5.500E+02, 1.375E+02, 1.380E+02, 1.477E+02, 2.029E+02, 6.193E+01, 1.495E+02, 2.046E+02, 5.989E+01,-5.640E+01, 1.735E-01, 2.056E-02, 2.029E+02
 5.600E+02, 1.377E+02, 1.387E+02, 1.483E+02, 2.038E+02, 6.112E+01, 1.478E+02, 2.066E+02, 6.162E+01,-5.153E+01, 1.725E-01, 2.111E-02, 1.995E+02
 5.700E+02, 1.377E+02, 1.425E+02, 1.460E+02, 2.049E+02, 6.210E+01, 1.516E+02, 2.141E+02, 6.189E+01,-5.537E+01, 1.719E-01, 2.144E-02, 2.006E+02
 5.800E+02, 1.384E+02, 1.400E+02, 1.466E+02, 2.065E+02, 6.227E+01, 1.501E+02, 2.080E+02, 6.179E+01,-5.642E+01, 1.713E-01, 2.176E-02, 1.978E+02
 5.900E+02, 1.384E+02, 1.415E+02, 1.464E+02, 2.072E+02, 6.168E+01, 1.524E+02, 2.105E+02, 6.172E+01,-5.811E+01, 1.701E-01, 2.242E-02, 1.978E+02
 6.000E+02, 1.380E+02, 1.417E+02, 1.471E+02, 2.043E+02, 6.270E+01, 1.498E+02, 2.131E+02, 6.217E+01,-5.485E+01, 1.695E-01, 2.278E-02, 1.963E+02
 6.100E+02, 1.374E+02, 1.435E+02, 1.465E+02, 2.023E+02, 6.349E+01, 1.529E+02, 2.144E+02, 6.323E+01,-4.841E+01, 1.684E-01, 2.338E-02, 2.035E+02
 6.200E+02, 1.393E+02, 1.409E+02, 1.475E+02, 2.065E+02, 6.384E+01, 1.489E+02, 2.106E+02, 6.315E+01,-5.976E+01, 1.673E-01, 2.401E-02, 1.965E+02
 6.300E+02, 1.397E+02, 1.418E+02, 1.468E+02, 2.076E+02, 6.464E+01, 1.520E+02, 2.113E+02, 6.198E+01,-5.272E+01, 1.669E-01, 2.424E-02, 2.047E+02
 6.400E+02, 1.408E+02, 1.429E+02, 1.491E+02, 2.090E+02, 6.438E+01, 1.524E+02, 2.120E+02, 6.431E+01,-6.777E+01, 1.662E-01, 2.460E-02, 1.941E+02
 6.500E+02, 1.397E+02, 1.431E+02, 1.482E+02, 2.069E+02, 6.414E+01, 1.495E+02, 2.162E+02, 6.372E+01,-5.975E+01, 1.658E-01, 2.484E-02, 1.952E+02
 6.600E+02, 1.405E+02, 1.430E+02, 1.490E+02, 2.077E+02, 6.474E+01, 1.506E+02, 2.142E+02, 6.410E+01,-5.149E+01, 1.648E-01, 2.539E-02, 2.029E+02
 6.700E+02, 1.409E+02, 1.441E+02, 1.490E+02, 2.093E+02, 6.442E+01, 1.511E+02, 2.153E+02, 6.596E+01,-5.259E+01, 1.638E-01, 2.597E-02, 2.036E+02
 6.800E+02, 1.415E+02, 1.468E+02, 1.504E+02, 2.092E+02, 6.483E+01, 1.522E+02, 2.234E+02, 6.476E+01,-5.731E+01, 1.634E-01, 2.615E-02, 1.999E+02
 6.900E+02, 1.426E+02, 1.480E+02, 1.509E+02, 2.119E+02, 6.486E+01, 1.541E+02, 2.257E+02, 6.419E+01,-5.940E+01, 1.624E-01, 2.671E-02, 2.008E+02
 7.000E+02, 1.404E+02, 1.471E+02, 1.500E+02, 2.068E+02, 6.447E+01, 1.551E+02, 2.215E+02, 6.459E+01,-6.516E+01, 1.622E-01, 2.685E-02, 1.929E+02
 7.100E+02, 1.421E+02, 1.457E+02, 1.508E+02, 2.101E+02, 6.532E+01, 1.550E+02, 2.191E+02, 6.277E+01,-6.335E+01, 1.618E-01, 2.705E-02, 1.923E+02
 7.200E+02, 1.435E+02, 1.450E+02, 1.517E+02, 2.149E+02, 6.395E+01, 1.531E+02, 2.171E+02, 6.491E+01,-5.978E+01, 1.611E-01, 2.747E-02, 2.016E+02
 7.300E+02, 1.424E+02, 1.451E+02, 1.514E+02, 2.116E+02, 6.435E+01, 1.578E+02, 2.141E+02, 6.359E+01,-5.862E+01, 1.608E-01, 2.765E-02, 2.089E+02
 7.400E+02, 1.417E+02, 1.471E+02, 1.502E+02, 2.092E+02, 6.561E+01, 1.577E+02, 2.187E+02, 6.486E+01,-5.895E+01, 1.600E-01, 2.809E-02, 1.956E+02
 7.500E+02, 1.418E+02, 1.470E+02, 1.511E+02, 2.086E+02, 6.572E+01, 1.555E+02, 2.194E+02, 6.630E+01,-4.888E+01, 1.595E-01, 2.836E-02, 2.035E+02
 7.600E+02, 1.415E+02, 1.465E+02, 1.501E+02, 2.091E+02, 6.521E+01, 1.556E+02, 2.178E+02, 6.595E+01,-7.926E+01, 1.588E-01, 2.874E-02, 1.852E+02
 7.700E+02, 1.437E+02, 1.471E+02, 1.513E+02, 2.130E+02, 6.697E+01, 1.582E+02, 2.180E+02, 6.490E+01,-5.511E+01, 1.584E-01, 2.898E-02, 2.080E+02
 7.800E+02, 1.449E+02, 1.481E+02, 1.531E+02, 2.145E+02, 6.712E+01, 1.541E+02, 2.242E+02, 6.599E+01,-5.279E+01, 1.576E-01, 2.939E-02, 2.056E+02
 7.900E+02, 1.453E+02, 1.472E+02, 1.524E+02, 2.160E+02, 6.761E+01, 1.550E+02, 2.214E+02, 6.534E+01,-5.941E+01, 1.573E-01, 2.959E-02, 1.940E+02
 8.000E+02, 1.465E+02, 1.473E+02, 1.537E+02, 2.187E+02, 6.709E+01, 1.515E+02, 2.233E+02, 6.717E+01,-5.833E+01, 1.566E-01, 2.997E-02, 1.957E+02
 8.100E+02, 1.453E+02, 1.509E+02, 1.532E+02, 2.160E+02, 6.666E+01, 1.557E+02, 2.291E+02, 6.788E+01,-5.359E+01, 1.556E-01, 3.054E-02, 2.027E+02
 8.200E+02, 1.442E+02, 1.481E+02, 1.534E+02, 2.124E+02, 6.690E+01, 1.562E+02, 2.203E+02, 6.771E+01,-6.657E+01, 1.555E-01, 3.060E-02, 1.938E+02
 8.300E+02, 1.459E+02, 1.486E+02, 1.548E+02, 2.138E+02, 6.897E+01, 1.563E+02, 2.223E+02, 6.733E+01,-5.114E+01, 1.547E-01, 3.102E-02, 2.082E+02
 8.400E+02, 1.466E+02, 1.501E+02, 1.566E+02, 2.143E+02, 6.886E+01, 1.585E+02, 2.238E+02, 6.804E+01,-6.392E+01, 1.539E-01, 3.147E-02, 1.944E+02
 8.500E+02, 1.457E+02, 1.487E+02, 1.559E+02, 2.140E+02, 6.719E+01, 1.558E+02, 2.224E+02, 6.794E+01,-7.040E+01, 1.537E-01, 3.161E-02, 1.846E+02
 8.600E+02, 1.463E+02, 1.479E+02, 1.526E+02, 2.187E+02, 6.761E+01, 1.586E+02, 2.185E+02, 6.661E+01,-5.600E+01, 1.536E-01, 3.165E-02, 1.948E+02
 8.700E+02, 1.446E+02, 1.494E+02, 1.505E+02, 2.153E+02, 6.795E+01, 1.567E+02, 2.232E+02, 6.853E+01,-5.232E+01, 1.528E-01, 3.208E-02, 2.075E+02
 8.800E+02, 1.462E+02, 1.505E+02, 1.549E+02, 2.154E+02, 6.839E+01, 1.580E+02, 2.257E+02, 6.795E+01,-6.191E+01, 1.525E-01, 3.225E-02, 2.046E+02
 8.900E+02, 1.474E+02, 1.507E+02, 1.543E+02, 2.183E+02, 6.958E+01, 1.624E+02, 2.226E+02, 6.719E+01,-6.561E+01, 1.522E-01, 3.243E-02, 1.939E+02
 9.000E+02, 1.486E+02, 1.526E+02, 1.577E+02, 2.194E+02, 6.867E+01, 1.661E+02, 2.225E+02, 6.931E+01,-5.783E+01, 1.520E-01, 3.257E-02, 1.983E+02
 9.100E+02, 1.483E+02, 1.508E+02, 1.566E+02, 2.184E+02, 6.984E+01, 1.602E+02, 2.233E+02, 6.897E+01,-5.974E+01, 1.514E-01, 3.286E-02, 2.012E+02
 9.200E+02, 1.485E+02, 1.532E+02, 1.561E+02, 2.207E+02, 6.889E+01, 1.612E+02, 2.283E+02, 7.014E+01,-5.255E+01, 1.507E-01, 3.329E-02, 2.024E+02
 9.300E+02, 1.502E+02, 1.497E+02, 1.588E+02, 2.207E+02, 7.112E+01, 1.585E+02, 2.218E+02, 6.884E+01,-6.827E+01, 1.505E-01, 3.339E-02, 1.928E+02
 9.400E+02, 1.498E+02, 1.515E+02, 1.568E+02, 2.217E+02, 7.083E+01, 1.592E+02, 2.261E+02, 6.935E+01,-5.673E+01, 1.498E-01, 3.376E-02, 1.946E+02
 9.500E+02, 1.492E+02, 1.513E+02, 1.563E+02, 2.202E+02, 7.104E+01, 1.577E+02, 2.257E+02, 7.050E+01,-5.374E+01, 1.493E-01, 3.405E-02, 1.961E+02
 9.600E+02, 1.502E+02, 1.529E+02, 1.571E+02, 2.198E+02, 7.385E+01, 1.603E+02, 2.282E+02, 7.016E+01,-4.655E+01, 1.492E-01, 3.409E-02, 2.062E+02
 9.700E+02, 1.492E+02, 1.551E+02, 1.560E+02, 2.177E+02, 7.393E+01, 1.650E+02, 2.298E+02, 7.060E+01,-5.698E+01, 1.485E-01, 3.448E-02, 1.991E+02
 9.800E+02, 1.493E+02, 1.558E+02, 1.573E+02, 2.184E+02, 7.230E+01, 1.668E+02, 2.289E+02, 7.181E+01,-6.504E+01, 1.483E-01, 3.464E-02, 1.923E+02
 9.900E+02, 1.515E+02, 1.528E+02, 1.594E+02, 2.220E+02, 7.310E+01, 1.602E+02, 2.275E+02, 7.063E+01,-5.080E+01, 1.479E-01, 3.486E-02, 2.023E+02
 1.000E+03, 1.518E+02, 1.540E+02, 1.597E+02, 2.236E+02, 7.220E+01, 1.619E+02, 2.293E+02, 7.072E+01,-6.394E+01, 1.475E-01, 3.504E-02, 2.001E+02
 1.010E+03, 1.516E+02, 1.544E+02, 1.598E+02, 2.220E+02, 7.307E+01, 1.614E+02, 2.300E+02, 7.176E+01,-5.671E+01, 1.472E-01, 3.523E-02, 2.077E+02
 1.020E+03, 1.531E+02, 1.548E+02, 1.601E+02, 2.264E+02, 7.282E+01, 1.631E+02, 2.292E+02, 7.199E+01,-6.863E+01, 1.470E-01, 3.534E-02, 1.904E+02
 1.030E+03, 1.518E+02, 1.561E+02, 1.592E+02, 2.237E+02, 7.270E+01, 1.654E+02, 2.310E+02, 7.202E+01,-5.261E+01, 1.467E-01, 3.549E-02, 2.020E+02
 1.040E+03, 1.507E+02, 1.562E+02, 1.594E+02, 2.196E+02, 7.316E+01, 1.630E+02, 2.344E+02, 7.111E+01,-5.192E+01, 1.465E-01, 3.559E-02, 2.029E+02
 1.050E+03, 1.515E+02, 1.561E+02, 1.594E+02, 2.219E+02, 7.321E+01, 1.668E+02, 2.286E+02, 7.277E+01,-6.549E+01, 1.463E-01, 3.572E-02, 1.936E+02
 1.060E+03, 1.521E+02, 1.535E+02, 1.619E+02, 2.215E+02, 7.303E+01, 1.630E+02, 2.248E+02, 7.281E+01,-5.250E+01, 1.457E-01, 3.604E-02, 1.998E+02
 1.070E+03, 1.531E+02, 1.552E+02, 1.616E+02, 2.237E+02, 7.405E+01, 1.699E+02, 2.229E+02, 7.280E+01,-5.725E+01, 1.456E-01, 3.610E-02, 1.989E+02
 1.080E+03, 1.529E+02, 1.560E+02, 1.610E+02, 2.236E+02, 7.407E+01, 1.643E+02, 2.305E+02, 7.319E+01,-5.181E+01, 1.454E-01, 3.625E-02, 1.981E+02
 1.090E+03, 1.518E+02, 1.569E+02, 1.603E+02, 2.201E+02, 7.504E+01, 1.637E+02, 2.329E+02, 7.397E+01,-5.308E+01, 1.449E-01, 3.652E-02, 2.003E+02
 1.100E+03, 1.519E+02, 1.561E+02, 1.607E+02, 2.205E+02, 7.459E+01, 1.646E+02, 2.310E+02, 7.251E+01,-5.990E+01, 1.447E-01, 3.659E-02, 1.868E+02
 1.110E+03, 1.531E+02, 1.562E+02, 1.610E+02, 2.222E+02, 7.610E+01, 1.643E+02, 2.296E+02, 7.486E+01,-5.260E+01, 1.442E-01, 3.688E-02, 2.029E+02
 1.120E+03, 1.557E+02, 1.565E+02, 1.630E+02, 2.282E+02, 7.603E+01, 1.657E+02, 2.296E+02, 7.408E+01,-6.507E+01, 1.442E-01, 3.692E-02, 1.967E+02
 1.130E+03, 1.555E+02, 1.589E+02, 1.633E+02, 2.267E+02, 7.646E+01, 1.704E+02, 2.312E+02, 7.521E+01,-5.952E+01, 1.439E-01, 3.706E-02, 2.058E+02
 1.140E+03, 1.553E+02, 1.600E+02, 1.641E+02, 2.254E+02, 7.628E+01, 1.678E+02, 2.375E+02, 7.468E+01,-5.454E+01, 1.437E-01, 3.717E-02, 1.983E+02
 1.150E+03, 1.532E+02, 1.614E+02, 1.620E+02, 2.213E+02, 7.635E+01, 1.671E+02, 2.408E+02, 7.617E+01,-5.700E+01, 1.435E-01, 3.732E-02, 1.927E+02
 1.160E+03, 1.529E+02, 1.575E+02, 1.606E+02, 2.224E+02, 7.567E+01, 1.657E+02, 2.310E+02, 7.584E+01,-6.392E+01, 1.435E-01, 3.727E-02, 1.999E+02
 1.170E+03, 1.558E+02, 1.600E+02, 1.642E+02, 2.267E+02, 7.647E+01, 1.737E+02, 2.318E+02, 7.457E+01,-5.701E+01, 1.434E-01, 3.735E-02, 2.024E+02
 1.180E+03, 1.563E+02, 1.584E+02, 1.652E+02, 2.256E+02, 7.805E+01, 1.667E+02, 2.346E+02, 7.398E+01,-5.550E+01, 1.432E-01, 3.744E-02, 1.992E+02
 1.190E+03, 1.567E+02, 1.577E+02, 1.658E+02, 2.272E+02, 7.701E+01, 1.642E+02, 2.324E+02, 7.640E+01,-5.583E+01, 1.429E-01, 3.763E-02, 2.000E+02
 1.200E+03, 1.570E+02, 1.574E+02, 1.639E+02, 2.298E+02, 7.725E+01, 1.691E+02, 2.272E+02, 7.580E+01,-5.453E+01, 1.428E-01, 3.769E-02, 2.004E+02
 1.210E+03, 1.554E+02, 1.590E+02, 1.628E+02, 2.265E+02, 7.692E+01, 1.688E+02, 2.326E+02, 7.565E+01,-4.948E+01, 1.427E-01, 3.775E-02, 2.021E+02
 1.220E+03, 1.555E+02, 1.602E+02, 1.641E+02, 2.250E+02, 7.741E+01, 1.680E+02, 2.358E+02, 7.684E+01,-5.964E+01, 1.424E-01, 3.790E-02, 1.934E+02
 1.230E+03, 1.549E+02, 1.608E+02, 1.620E+02, 2.248E+02, 7.795E+01, 1.708E+02, 2.345E+02, 7.706E+01,-5.087E+01, 1.421E-01, 3.809E-02, 2.037E+02
 1.240E+03, 1.572E+02, 1.580E+02, 1.659E+02, 2.268E+02, 7.890E+01, 1.681E+02, 2.306E+02, 7.539E+01,-6.363E+01, 1.421E-01, 3.809E-02, 1.953E+02
 1.250E+03, 1.562E+02, 1.580E+02, 1.646E+02, 2.247E+02, 7.917E+01, 1.687E+02, 2.281E+02, 7.711E+01,-5.532E+01, 1.419E-01, 3.821E-02, 1.998E+02
 1.260E+03, 1.576E+02, 1.610E+02, 1.662E+02, 2.270E+02, 7.970E+01, 1.743E+02, 2.305E+02, 7.828E+01,-6.684E+01, 1.415E-01, 3.840E-02, 1.956E+02
 1.270E+03, 1.573E+02, 1.609E+02, 1.649E+02, 2.285E+02, 7.847E+01, 1.717E+02, 2.339E+02, 7.718E+01,-5.275E+01, 1.414E-01, 3.845E-02, 2.008E+02
 1.280E+03, 1.586E+02, 1.616E+02, 1.664E+02, 2.300E+02, 7.931E+01, 1.684E+02, 2.390E+02, 7.725E+01,-5.719E+01, 1.410E-01, 3.871E-02, 2.026E+02
 1.290E+03, 1.586E+02, 1.605E+02, 1.650E+02, 2.307E+02, 8.022E+01, 1.702E+02, 2.336E+02, 7.774E+01,-6.204E+01, 1.410E-01, 3.868E-02, 1.935E+02
 1.300E+03, 1.587E+02, 1.613E+02, 1.654E+02, 2.306E+02, 8.004E+01, 1.705E+02, 2.353E+02, 7.796E+01,-5.149E+01, 1.407E-01, 3.885E-02, 2.038E+02
 1.310E+03, 1.583E+02, 1.659E+02, 1.659E+02, 2.289E+02, 8.010E+01, 1.738E+02, 2.456E+02, 7.821E+01,-6.168E+01, 1.405E-01, 3.895E-02, 1.944E+02
