s,C,C,C,C,C,C,C,C,Pa,mol/mol,mol/mol,kW
Time,"West_All_TCs","East_All_TCs","West_Bottom_TCs","West_Middle_TCs","West_Upper_TCs","East_Bottom_TCs","East_Middle_TCs","East_Upper_TCs","Pressure","O2","CO2","HRR"
-6.000E+01, 2.000E+01, 2.000E+01, 2.000E+01, 2.000E+01, 2.000E+01, 2.000E+01, 2.000E+01, 2.000E+01,-9.803E-06, 2.095E-01, 3.901E-04, 0.000E+00
-4.999E+01, 2.000E+01, 2.000E+01, 2.000E+01, 2.000E+01, 2.000E+01, 2.000E+01, 2.000E+01, 2.000E+01,-7.118E-04, 2.095E-01, 3.901E-04, 0.000E+00
-3.999E+01, 2.000E+01, 2.000E+01, 2.000E+01, 2.000E+01, 2.000E+01, 2.000E+01, 2.000E+01, 2.000E+01,-3.368E-05, 2.095E-01, 3.901E-04, 0.000E+00
-2.998E+01, 2.000E+01, 2.000E+01, 2.000E+01, 2.000E+01, 2.000E+01, 2.000E+01, 2.000E+01, 2.000E+01,-3.033E-05, 2.095E-01, 3.901E-04, 0.000E+00
-1.997E+01, 2.000E+01, 2.000E+01, 2.000E+01, 2.000E+01, 2.000E+01, 2.000E+01, 2.000E+01, 2.000E+01,-3.207E-05, 2.095E-01, 3.901E-04, 0.000E+00
-9.967E+00, 2.000E+01, 2.000E+01, 2.000E+01, 2.000E+01, 2.000E+01, 2.000E+01, 2.000E+01, 2.000E+01,-3.418E-05, 2.095E-01, 3.901E-04, 0.000E+00
 3.957E-02, 2.000E+01, 2.000E+01, 2.000E+01, 2.000E+01, 2.000E+01, 2.000E+01, 2.000E+01, 2.000E+01,-3.317E-05, 2.095E-01, 3.901E-04, 3.536E-04
 1.003E+01, 2.029E+01, 2.049E+01, 2.024E+01, 2.008E+01, 2.056E+01, 2.038E+01, 2.010E+01, 2.100E+01, 4.577E+00, 2.094E-01, 4.489E-04, 1.645E+01
 2.002E+01, 2.199E+01, 2.210E+01, 2.081E+01, 2.032E+01, 2.483E+01, 2.136E+01, 2.040E+01, 2.455E+01, 2.506E+01, 2.091E-01, 6.456E-04, 4.966E+01
 3.000E+01, 2.555E+01, 2.636E+01, 2.163E+01, 2.311E+01, 3.192E+01, 2.266E+01, 2.258E+01, 3.383E+01, 6.203E+01, 2.081E-01, 1.180E-03, 8.302E+01
 4.002E+01, 3.143E+01, 3.210E+01, 2.243E+01, 2.944E+01, 4.241E+01, 2.367E+01, 2.924E+01, 4.338E+01, 8.203E+01, 2.072E-01, 1.725E-03, 1.001E+02
 5.002E+01, 3.747E+01, 3.768E+01, 2.425E+01, 3.796E+01, 5.020E+01, 2.504E+01, 3.727E+01, 5.073E+01, 7.331E+01, 2.063E-01, 2.183E-03, 1.002E+02
 6.001E+01, 4.277E+01, 4.329E+01, 2.627E+01, 4.608E+01, 5.596E+01, 2.778E+01, 4.549E+01, 5.660E+01, 6.392E+01, 2.056E-01, 2.604E-03, 1.002E+02
 7.001E+01, 4.833E+01, 4.857E+01, 3.050E+01, 5.180E+01, 6.270E+01, 3.166E+01, 5.184E+01, 6.220E+01, 5.580E+01, 2.050E-01, 2.945E-03, 1.004E+02
 8.001E+01, 5.364E+01, 5.442E+01, 3.477E+01, 5.892E+01, 6.725E+01, 3.615E+01, 5.776E+01, 6.935E+01, 4.746E+01, 2.043E-01, 3.325E-03, 1.002E+02
 9.002E+01, 5.846E+01, 5.877E+01, 3.974E+01, 6.340E+01, 7.224E+01, 4.070E+01, 6.300E+01, 7.261E+01, 4.093E+01, 2.039E-01, 3.554E-03, 1.005E+02
 1.000E+02, 6.332E+01, 6.273E+01, 4.431E+01, 6.892E+01, 7.672E+01, 4.598E+01, 6.718E+01, 7.503E+01, 3.429E+01, 2.035E-01, 3.759E-03, 1.002E+02
 1.100E+02, 6.697E+01, 6.720E+01, 4.883E+01, 7.279E+01, 7.929E+01, 4.972E+01, 7.153E+01, 8.034E+01, 2.958E+01, 2.026E-01, 4.296E-03, 1.003E+02
 1.200E+02, 6.997E+01, 7.059E+01, 5.307E+01, 7.462E+01, 8.222E+01, 5.343E+01, 7.427E+01, 8.405E+01, 2.472E+01, 2.019E-01, 4.645E-03, 1.002E+02
 1.300E+02, 7.301E+01, 7.366E+01, 5.719E+01, 7.778E+01, 8.406E+01, 5.653E+01, 7.753E+01, 8.692E+01, 2.146E+01, 2.012E-01, 5.063E-03, 1.003E+02
 1.400E+02, 7.622E+01, 7.601E+01, 5.941E+01, 8.082E+01, 8.844E+01, 6.120E+01, 7.988E+01, 8.696E+01, 1.879E+01, 2.010E-01, 5.148E-03, 1.005E+02
 1.500E+02, 7.882E+01, 7.859E+01, 6.323E+01, 8.295E+01, 9.029E+01, 6.392E+01, 8.252E+01, 8.932E+01, 1.660E+01, 2.003E-01, 5.573E-03, 1.006E+02
 1.600E+02, 8.162E+01, 8.096E+01, 6.745E+01, 8.495E+01, 9.245E+01, 6.635E+01, 8.440E+01, 9.212E+01, 1.475E+01, 1.997E-01, 5.910E-03, 1.006E+02
 1.700E+02, 8.270E+01, 8.295E+01, 6.900E+01, 8.637E+01, 9.272E+01, 6.898E+01, 8.564E+01, 9.422E+01, 1.331E+01, 1.990E-01, 6.266E-03, 1.008E+02
 1.800E+02, 8.426E+01, 8.472E+01, 7.120E+01, 8.769E+01, 9.390E+01, 7.127E+01, 8.712E+01, 9.577E+01, 1.198E+01, 1.986E-01, 6.488E-03, 1.006E+02
 1.900E+02, 8.605E+01, 8.615E+01, 7.201E+01, 8.920E+01, 9.693E+01, 7.289E+01, 8.897E+01, 9.659E+01, 1.094E+01, 1.980E-01, 6.855E-03, 1.002E+02
 2.000E+02, 8.740E+01, 8.777E+01, 7.386E+01, 8.957E+01, 9.876E+01, 7.437E+01, 9.005E+01, 9.889E+01, 1.052E+01, 1.969E-01, 7.474E-03, 1.009E+02
 2.100E+02, 8.833E+01, 8.855E+01, 7.409E+01, 9.210E+01, 9.878E+01, 7.593E+01, 9.124E+01, 9.849E+01, 9.998E+00, 1.968E-01, 7.521E-03, 1.005E+02
 2.200E+02, 8.992E+01, 8.946E+01, 7.596E+01, 9.318E+01, 1.006E+02, 7.695E+01, 9.123E+01, 1.002E+02, 9.822E+00, 1.958E-01, 8.043E-03, 1.012E+02
 2.300E+02, 9.018E+01, 9.120E+01, 7.693E+01, 9.368E+01, 9.992E+01, 7.708E+01, 9.255E+01, 1.040E+02, 9.485E+00, 1.951E-01, 8.486E-03, 1.009E+02
 2.400E+02, 9.204E+01, 9.172E+01, 7.816E+01, 9.627E+01, 1.017E+02, 7.780E+01, 9.451E+01, 1.029E+02, 9.191E+00, 1.944E-01, 8.850E-03, 1.006E+02
 2.500E+02, 9.297E+01, 9.229E+01, 7.815E+01, 9.731E+01, 1.034E+02, 7.849E+01, 9.538E+01, 1.030E+02, 9.334E+00, 1.942E-01, 8.965E-03, 1.008E+02
 2.600E+02, 9.249E+01, 9.222E+01, 7.880E+01, 9.600E+01, 1.027E+02, 7.968E+01, 9.460E+01, 1.024E+02, 8.928E+00, 1.933E-01, 9.458E-03, 9.992E+01
 2.700E+02, 9.298E+01, 9.316E+01, 7.930E+01, 9.696E+01, 1.027E+02, 8.173E+01, 9.437E+01, 1.034E+02, 9.178E+00, 1.926E-01, 9.872E-03, 1.003E+02
 2.800E+02, 9.423E+01, 9.360E+01, 8.173E+01, 9.761E+01, 1.033E+02, 8.140E+01, 9.732E+01, 1.021E+02, 9.032E+00, 1.920E-01, 1.019E-02, 1.002E+02
 2.900E+02, 9.563E+01, 9.363E+01, 8.117E+01, 1.002E+02, 1.056E+02, 8.017E+01, 9.652E+01, 1.042E+02, 9.031E+00, 1.913E-01, 1.058E-02, 1.003E+02
 3.000E+02, 9.550E+01, 9.451E+01, 8.077E+01, 1.003E+02, 1.054E+02, 8.136E+01, 9.688E+01, 1.053E+02, 9.306E+00, 1.905E-01, 1.100E-02, 1.004E+02
 3.100E+02, 9.530E+01, 9.463E+01, 8.120E+01, 9.959E+01, 1.051E+02, 8.114E+01, 9.784E+01, 1.049E+02, 8.829E+00, 1.901E-01, 1.123E-02, 1.002E+02
 3.200E+02, 9.715E+01, 9.441E+01, 8.301E+01, 1.028E+02, 1.057E+02, 8.178E+01, 9.642E+01, 1.050E+02, 9.327E+00, 1.894E-01, 1.162E-02, 1.007E+02
 3.300E+02, 9.638E+01, 9.446E+01, 8.129E+01, 1.019E+02, 1.059E+02, 8.266E+01, 9.504E+01, 1.057E+02, 8.938E+00, 1.885E-01, 1.215E-02, 1.003E+02
 3.400E+02, 9.739E+01, 9.653E+01, 8.339E+01, 1.033E+02, 1.055E+02, 8.193E+01, 9.942E+01, 1.082E+02, 9.161E+00, 1.880E-01, 1.240E-02, 1.006E+02
 3.500E+02, 9.682E+01, 9.631E+01, 8.229E+01, 1.015E+02, 1.067E+02, 8.232E+01, 9.789E+01, 1.087E+02, 9.086E+00, 1.870E-01, 1.300E-02, 1.005E+02
 3.600E+02, 9.648E+01, 9.610E+01, 8.318E+01, 1.006E+02, 1.057E+02, 8.291E+01, 9.792E+01, 1.075E+02, 9.026E+00, 1.863E-01, 1.339E-02, 1.007E+02
 3.700E+02, 9.700E+01, 9.621E+01, 8.491E+01, 1.004E+02, 1.057E+02, 8.183E+01, 9.837E+01, 1.084E+02, 9.200E+00, 1.855E-01, 1.381E-02, 1.008E+02
 3.800E+02, 9.686E+01, 9.750E+01, 8.352E+01, 1.018E+02, 1.053E+02, 8.299E+01, 9.812E+01, 1.114E+02, 9.159E+00, 1.848E-01, 1.424E-02, 1.011E+02
 3.900E+02, 9.797E+01, 9.682E+01, 8.615E+01, 1.022E+02, 1.056E+02, 8.260E+01, 9.806E+01, 1.098E+02, 9.368E+00, 1.842E-01, 1.453E-02, 1.014E+02
 4.000E+02, 9.692E+01, 9.665E+01, 8.400E+01, 1.014E+02, 1.053E+02, 8.290E+01, 9.779E+01, 1.093E+02, 9.300E+00, 1.838E-01, 1.478E-02, 1.003E+02
 4.100E+02, 9.831E+01, 9.596E+01, 8.620E+01, 1.014E+02, 1.073E+02, 8.303E+01, 9.813E+01, 1.067E+02, 9.347E+00, 1.835E-01, 1.494E-02, 1.004E+02
 4.200E+02, 9.662E+01, 9.658E+01, 8.297E+01, 1.002E+02, 1.067E+02, 8.343E+01, 9.941E+01, 1.069E+02, 9.412E+00, 1.828E-01, 1.534E-02, 1.005E+02
 4.300E+02, 9.877E+01, 9.580E+01, 8.464E+01, 1.034E+02, 1.082E+02, 8.305E+01, 9.795E+01, 1.064E+02, 9.414E+00, 1.822E-01, 1.565E-02, 1.007E+02
 4.400E+02, 9.864E+01, 9.734E+01, 8.500E+01, 1.023E+02, 1.086E+02, 8.367E+01, 9.956E+01, 1.088E+02, 9.135E+00, 1.812E-01, 1.625E-02, 1.005E+02
 4.500E+02, 9.836E+01, 9.714E+01, 8.475E+01, 1.025E+02, 1.078E+02, 8.411E+01, 9.964E+01, 1.077E+02, 9.396E+00, 1.805E-01, 1.663E-02, 1.010E+02
 4.600E+02, 9.894E+01, 9.739E+01, 8.526E+01, 1.017E+02, 1.098E+02, 8.360E+01, 9.953E+01, 1.090E+02, 9.301E+00, 1.799E-01, 1.698E-02, 1.005E+02
 4.700E+02, 9.869E+01, 9.729E+01, 8.379E+01, 1.029E+02, 1.094E+02, 8.437E+01, 9.870E+01, 1.088E+02, 9.391E+00, 1.794E-01, 1.722E-02, 1.005E+02
 4.800E+02, 9.899E+01, 9.769E+01, 8.556E+01, 1.038E+02, 1.076E+02, 8.487E+01, 9.969E+01, 1.085E+02, 9.225E+00, 1.786E-01, 1.769E-02, 1.006E+02
 4.900E+02, 9.920E+01, 9.718E+01, 8.708E+01, 1.016E+02, 1.089E+02, 8.419E+01, 9.887E+01, 1.085E+02, 9.296E+00, 1.778E-01, 1.813E-02, 1.009E+02
 5.000E+02, 9.987E+01, 9.705E+01, 8.561E+01, 1.036E+02, 1.104E+02, 8.507E+01, 9.861E+01, 1.075E+02, 9.463E+00, 1.770E-01, 1.857E-02, 1.008E+02
 5.100E+02, 1.002E+02, 9.781E+01, 8.552E+01, 1.052E+02, 1.099E+02, 8.535E+01, 1.002E+02, 1.079E+02, 9.334E+00, 1.766E-01, 1.881E-02, 1.003E+02
 5.200E+02, 1.004E+02, 9.842E+01, 8.621E+01, 1.050E+02, 1.101E+02, 8.650E+01, 9.912E+01, 1.096E+02, 9.358E+00, 1.757E-01, 1.931E-02, 1.003E+02
 5.300E+02, 9.873E+01, 9.835E+01, 8.576E+01, 1.026E+02, 1.078E+02, 8.602E+01, 1.002E+02, 1.088E+02, 9.201E+00, 1.753E-01, 1.954E-02, 1.006E+02
 5.400E+02, 9.968E+01, 9.908E+01, 8.649E+01, 1.031E+02, 1.095E+02, 8.553E+01, 1.012E+02, 1.105E+02, 9.377E+00, 1.741E-01, 2.017E-02, 1.001E+02
 5.500E+02, 9.993E+01, 9.884E+01, 8.645E+01, 1.045E+02, 1.088E+02, 8.597E+01, 1.013E+02, 1.093E+02, 9.455E+00, 1.738E-01, 2.038E-02, 1.004E+02
 5.600E+02, 1.007E+02, 9.978E+01, 8.823E+01, 1.044E+02, 1.097E+02, 8.593E+01, 1.022E+02, 1.112E+02, 9.500E+00, 1.730E-01, 2.078E-02, 1.012E+02
 5.700E+02, 1.013E+02, 9.884E+01, 8.876E+01, 1.058E+02, 1.094E+02, 8.512E+01, 1.003E+02, 1.111E+02, 9.621E+00, 1.723E-01, 2.121E-02, 1.010E+02
 5.800E+02, 1.004E+02, 9.938E+01, 8.754E+01, 1.046E+02, 1.091E+02, 8.557E+01, 1.010E+02, 1.116E+02, 9.332E+00, 1.717E-01, 2.151E-02, 1.002E+02
 5.900E+02, 1.008E+02, 9.933E+01, 8.863E+01, 1.047E+02, 1.091E+02, 8.444E+01, 1.018E+02, 1.117E+02, 9.541E+00, 1.710E-01, 2.191E-02, 1.007E+02
 6.000E+02, 9.920E+01, 9.931E+01, 8.560E+01, 1.024E+02, 1.096E+02, 8.379E+01, 1.011E+02, 1.131E+02, 9.582E+00, 1.700E-01, 2.246E-02, 1.007E+02
 6.100E+02, 1.008E+02, 9.985E+01, 8.780E+01, 1.056E+02, 1.091E+02, 8.650E+01, 1.017E+02, 1.114E+02, 9.640E+00, 1.695E-01, 2.277E-02, 1.008E+02
 6.200E+02, 9.900E+01, 9.853E+01, 8.681E+01, 1.008E+02, 1.094E+02, 8.702E+01, 1.000E+02, 1.085E+02, 9.388E+00, 1.692E-01, 2.295E-02, 1.007E+02
 6.300E+02, 1.011E+02, 9.830E+01, 8.699E+01, 1.030E+02, 1.132E+02, 8.750E+01, 9.884E+01, 1.086E+02, 9.758E+00, 1.681E-01, 2.356E-02, 1.010E+02
 6.400E+02, 1.014E+02, 9.864E+01, 8.771E+01, 1.065E+02, 1.100E+02, 8.665E+01, 9.951E+01, 1.098E+02, 9.671E+00, 1.675E-01, 2.388E-02, 1.013E+02
 6.500E+02, 1.013E+02, 9.880E+01, 8.751E+01, 1.043E+02, 1.121E+02, 8.622E+01, 1.001E+02, 1.100E+02, 9.509E+00, 1.667E-01, 2.431E-02, 1.005E+02
 6.600E+02, 1.011E+02, 9.997E+01, 8.666E+01, 1.045E+02, 1.121E+02, 8.755E+01, 1.021E+02, 1.103E+02, 9.703E+00, 1.661E-01, 2.468E-02, 1.009E+02
 6.700E+02, 1.015E+02, 1.008E+02, 8.723E+01, 1.051E+02, 1.121E+02, 8.919E+01, 1.022E+02, 1.110E+02, 9.388E+00, 1.655E-01, 2.500E-02, 1.005E+02
 6.800E+02, 1.018E+02, 1.023E+02, 8.751E+01, 1.050E+02, 1.130E+02, 8.940E+01, 1.051E+02, 1.125E+02, 9.622E+00, 1.644E-01, 2.563E-02, 1.007E+02
 6.900E+02, 1.019E+02, 1.021E+02, 8.782E+01, 1.052E+02, 1.127E+02, 8.869E+01, 1.041E+02, 1.134E+02, 9.496E+00, 1.640E-01, 2.585E-02, 1.009E+02
 7.000E+02, 1.018E+02, 1.020E+02, 8.707E+01, 1.051E+02, 1.133E+02, 8.832E+01, 1.060E+02, 1.116E+02, 9.684E+00, 1.632E-01, 2.630E-02, 1.009E+02
 7.100E+02, 1.010E+02, 1.018E+02, 8.837E+01, 1.032E+02, 1.115E+02, 8.781E+01, 1.059E+02, 1.118E+02, 9.618E+00, 1.625E-01, 2.665E-02, 1.003E+02
 7.200E+02, 1.019E+02, 1.020E+02, 8.734E+01, 1.054E+02, 1.130E+02, 8.779E+01, 1.067E+02, 1.115E+02, 9.497E+00, 1.618E-01, 2.704E-02, 1.005E+02
 7.300E+02, 1.015E+02, 1.030E+02, 8.617E+01, 1.037E+02, 1.147E+02, 9.008E+01, 1.061E+02, 1.128E+02, 9.895E+00, 1.609E-01, 2.757E-02, 1.004E+02
 7.400E+02, 1.012E+02, 1.022E+02, 8.668E+01, 1.036E+02, 1.134E+02, 8.919E+01, 1.053E+02, 1.122E+02, 9.599E+00, 1.602E-01, 2.794E-02, 1.001E+02
 7.500E+02, 1.022E+02, 1.026E+02, 8.764E+01, 1.051E+02, 1.137E+02, 8.898E+01, 1.073E+02, 1.114E+02, 9.713E+00, 1.600E-01, 2.808E-02, 1.006E+02
 7.600E+02, 1.022E+02, 1.020E+02, 8.790E+01, 1.060E+02, 1.126E+02, 8.943E+01, 1.052E+02, 1.114E+02, 9.791E+00, 1.591E-01, 2.860E-02, 1.002E+02
 7.700E+02, 1.011E+02, 1.022E+02, 8.771E+01, 1.031E+02, 1.126E+02, 8.963E+01, 1.068E+02, 1.103E+02, 9.675E+00, 1.585E-01, 2.889E-02, 1.003E+02
 7.800E+02, 1.013E+02, 1.037E+02, 8.790E+01, 1.033E+02, 1.127E+02, 9.101E+01, 1.084E+02, 1.116E+02, 1.002E+01, 1.578E-01, 2.931E-02, 1.008E+02
 7.900E+02, 1.004E+02, 1.020E+02, 8.670E+01, 1.028E+02, 1.117E+02, 8.957E+01, 1.051E+02, 1.113E+02, 1.009E+01, 1.572E-01, 2.964E-02, 1.008E+02
 8.000E+02, 1.013E+02, 1.034E+02, 8.770E+01, 1.041E+02, 1.120E+02, 9.027E+01, 1.077E+02, 1.124E+02, 9.629E+00, 1.562E-01, 3.019E-02, 1.001E+02
 8.100E+02, 1.014E+02, 1.032E+02, 8.687E+01, 1.038E+02, 1.137E+02, 8.960E+01, 1.083E+02, 1.118E+02, 1.025E+01, 1.561E-01, 3.028E-02, 1.008E+02
 8.200E+02, 1.017E+02, 1.012E+02, 8.843E+01, 1.044E+02, 1.124E+02, 8.918E+01, 1.037E+02, 1.106E+02, 9.753E+00, 1.550E-01, 3.089E-02, 1.005E+02
 8.300E+02, 1.014E+02, 1.035E+02, 8.862E+01, 1.038E+02, 1.118E+02, 8.956E+01, 1.072E+02, 1.138E+02, 1.005E+01, 1.542E-01, 3.129E-02, 1.005E+02
 8.400E+02, 1.015E+02, 1.029E+02, 8.848E+01, 1.035E+02, 1.126E+02, 8.918E+01, 1.053E+02, 1.143E+02, 9.654E+00, 1.534E-01, 3.178E-02, 1.003E+02
 8.500E+02, 1.025E+02, 1.041E+02, 8.922E+01, 1.051E+02, 1.133E+02, 9.106E+01, 1.085E+02, 1.128E+02, 1.000E+01, 1.529E-01, 3.204E-02, 1.008E+02
 8.600E+02, 1.018E+02, 1.028E+02, 8.829E+01, 1.028E+02, 1.141E+02, 8.967E+01, 1.064E+02, 1.122E+02, 9.954E+00, 1.518E-01, 3.266E-02, 1.005E+02
 8.700E+02, 1.024E+02, 1.037E+02, 8.894E+01, 1.047E+02, 1.137E+02, 9.109E+01, 1.082E+02, 1.117E+02, 9.886E+00, 1.515E-01, 3.282E-02, 1.000E+02
 8.800E+02, 1.020E+02, 1.050E+02, 8.778E+01, 1.045E+02, 1.137E+02, 9.289E+01, 1.071E+02, 1.149E+02, 1.023E+01, 1.507E-01, 3.326E-02, 1.009E+02
 8.900E+02, 1.018E+02, 1.044E+02, 8.909E+01, 1.040E+02, 1.123E+02, 9.224E+01, 1.064E+02, 1.146E+02, 9.883E+00, 1.495E-01, 3.397E-02, 1.008E+02
 9.000E+02, 1.028E+02, 1.049E+02, 9.041E+01, 1.059E+02, 1.122E+02, 9.244E+01, 1.072E+02, 1.150E+02, 9.789E+00, 1.492E-01, 3.408E-02, 1.002E+02
 9.100E+02, 1.021E+02, 1.077E+02, 8.962E+01, 1.047E+02, 1.120E+02, 9.307E+01, 1.114E+02, 1.188E+02, 1.019E+01, 1.484E-01, 3.456E-02, 1.007E+02
 9.200E+02, 1.020E+02, 1.050E+02, 9.037E+01, 1.037E+02, 1.120E+02, 9.154E+01, 1.073E+02, 1.161E+02, 9.945E+00, 1.477E-01, 3.496E-02, 1.007E+02
 9.300E+02, 1.036E+02, 1.054E+02, 9.135E+01, 1.077E+02, 1.116E+02, 9.414E+01, 1.083E+02, 1.139E+02, 9.854E+00, 1.471E-01, 3.525E-02, 1.002E+02
 9.400E+02, 1.029E+02, 1.050E+02, 9.128E+01, 1.053E+02, 1.119E+02, 9.080E+01, 1.067E+02, 1.176E+02, 1.003E+01, 1.458E-01, 3.598E-02, 1.006E+02
 9.500E+02, 1.057E+02, 1.032E+02, 9.223E+01, 1.097E+02, 1.151E+02, 9.035E+01, 1.045E+02, 1.148E+02, 9.806E+00, 1.455E-01, 3.618E-02, 1.003E+02
 9.600E+02, 1.047E+02, 1.053E+02, 9.091E+01, 1.088E+02, 1.145E+02, 9.123E+01, 1.075E+02, 1.173E+02, 9.919E+00, 1.447E-01, 3.664E-02, 1.012E+02
 9.700E+02, 1.053E+02, 1.039E+02, 9.193E+01, 1.090E+02, 1.151E+02, 9.065E+01, 1.049E+02, 1.162E+02, 9.841E+00, 1.443E-01, 3.683E-02, 1.006E+02
 9.800E+02, 1.044E+02, 1.050E+02, 9.010E+01, 1.094E+02, 1.138E+02, 9.122E+01, 1.069E+02, 1.168E+02, 9.848E+00, 1.433E-01, 3.741E-02, 1.007E+02
 9.900E+02, 1.047E+02, 1.051E+02, 8.991E+01, 1.087E+02, 1.155E+02, 9.145E+01, 1.065E+02, 1.174E+02, 1.003E+01, 1.427E-01, 3.776E-02, 1.005E+02
 1.000E+03, 1.047E+02, 1.048E+02, 9.035E+01, 1.081E+02, 1.157E+02, 9.121E+01, 1.073E+02, 1.158E+02, 1.005E+01, 1.420E-01, 3.811E-02, 1.011E+02
 1.010E+03, 1.038E+02, 1.052E+02, 9.139E+01, 1.066E+02, 1.133E+02, 9.071E+01, 1.077E+02, 1.171E+02, 1.006E+01, 1.414E-01, 3.848E-02, 1.005E+02
 1.020E+03, 1.053E+02, 1.034E+02, 9.286E+01, 1.091E+02, 1.138E+02, 9.063E+01, 1.038E+02, 1.157E+02, 9.963E+00, 1.406E-01, 3.894E-02, 1.006E+02
 1.030E+03, 1.051E+02, 1.036E+02, 9.330E+01, 1.077E+02, 1.143E+02, 8.941E+01, 1.044E+02, 1.169E+02, 1.012E+01, 1.399E-01, 3.930E-02, 1.005E+02
 1.040E+03, 1.047E+02, 1.039E+02, 9.260E+01, 1.080E+02, 1.133E+02, 8.962E+01, 1.066E+02, 1.153E+02, 9.938E+00, 1.395E-01, 3.951E-02, 9.925E+01
 1.050E+03, 1.041E+02, 1.029E+02, 9.033E+01, 1.073E+02, 1.146E+02, 8.976E+01, 1.056E+02, 1.132E+02, 8.372E+00, 1.390E-01, 3.978E-02, 9.071E+01
 1.060E+03, 1.045E+02, 1.031E+02, 9.141E+01, 1.079E+02, 1.141E+02, 9.043E+01, 1.060E+02, 1.130E+02, 6.360E+00, 1.385E-01, 4.008E-02, 9.058E+01
 1.070E+03, 1.031E+02, 1.021E+02, 8.814E+01, 1.066E+02, 1.146E+02, 8.996E+01, 1.049E+02, 1.114E+02, 3.072E+00, 1.379E-01, 4.043E-02, 8.763E+01
 1.080E+03, 1.023E+02, 1.021E+02, 8.959E+01, 1.058E+02, 1.114E+02, 8.987E+01, 1.056E+02, 1.109E+02, 8.172E+00, 1.374E-01, 4.066E-02, 8.791E+01
 1.090E+03, 1.026E+02, 1.006E+02, 8.871E+01, 1.058E+02, 1.134E+02, 8.955E+01, 1.025E+02, 1.098E+02, 4.269E+00, 1.370E-01, 4.089E-02, 8.253E+01
 1.100E+03, 1.020E+02, 1.011E+02, 8.819E+01, 1.061E+02, 1.118E+02, 8.982E+01, 1.033E+02, 1.100E+02, 9.509E+00, 1.365E-01, 4.115E-02, 9.195E+01
 1.110E+03, 1.012E+02, 1.003E+02, 8.783E+01, 1.054E+02, 1.104E+02, 8.835E+01, 1.028E+02, 1.098E+02,-5.629E+00, 1.361E-01, 4.139E-02, 6.965E+01
 1.120E+03, 1.005E+02, 1.001E+02, 8.752E+01, 1.036E+02, 1.104E+02, 8.881E+01, 1.027E+02, 1.088E+02, 7.641E+00, 1.358E-01, 4.154E-02, 8.755E+01
 1.130E+03, 9.939E+01, 9.990E+01, 8.629E+01, 1.032E+02, 1.087E+02, 8.860E+01, 1.023E+02, 1.088E+02, 4.148E+00, 1.356E-01, 4.163E-02, 7.730E+01
 1.140E+03, 9.963E+01, 9.964E+01, 8.634E+01, 1.035E+02, 1.090E+02, 8.723E+01, 1.036E+02, 1.081E+02,-5.192E-01, 1.353E-01, 4.181E-02, 7.061E+01
 1.150E+03, 9.798E+01, 9.809E+01, 8.519E+01, 1.018E+02, 1.070E+02, 8.709E+01, 9.872E+01, 1.084E+02, 1.589E+01, 1.350E-01, 4.195E-02, 9.605E+01
 1.160E+03, 9.707E+01, 9.927E+01, 8.578E+01, 1.016E+02, 1.039E+02, 8.643E+01, 1.019E+02, 1.095E+02,-3.304E+00, 1.347E-01, 4.211E-02, 6.094E+01
 1.170E+03, 9.638E+01, 9.642E+01, 8.628E+01, 1.002E+02, 1.026E+02, 8.491E+01, 9.805E+01, 1.063E+02,-2.758E+00, 1.348E-01, 4.205E-02, 6.073E+01
 1.180E+03, 9.526E+01, 9.675E+01, 8.454E+01, 9.821E+01, 1.030E+02, 8.637E+01, 9.717E+01, 1.067E+02, 1.651E+01, 1.344E-01, 4.225E-02, 8.698E+01
 1.190E+03, 9.443E+01, 9.666E+01, 8.394E+01, 9.833E+01, 1.010E+02, 8.626E+01, 9.770E+01, 1.060E+02, 4.163E+00, 1.344E-01, 4.225E-02, 6.287E+01
 1.200E+03, 9.419E+01, 9.439E+01, 8.515E+01, 9.676E+01, 1.006E+02, 8.398E+01, 9.540E+01, 1.038E+02, 3.738E+00, 1.343E-01, 4.225E-02, 5.723E+01
 1.210E+03, 9.246E+01, 9.241E+01, 8.318E+01, 9.468E+01, 9.952E+01, 8.393E+01, 9.335E+01, 9.995E+01, 3.021E+00, 1.343E-01, 4.223E-02, 4.911E+01
 1.220E+03, 9.095E+01, 9.065E+01, 8.234E+01, 9.378E+01, 9.674E+01, 8.425E+01, 9.143E+01, 9.629E+01, 1.289E+00, 1.347E-01, 4.200E-02, 3.112E+01
 1.230E+03, 8.771E+01, 8.825E+01, 7.977E+01, 9.065E+01, 9.272E+01, 8.281E+01, 8.966E+01, 9.229E+01,-5.973E+00, 1.346E-01, 4.203E-02, 1.038E+01
 1.240E+03, 8.486E+01, 8.602E+01, 7.745E+01, 8.709E+01, 9.005E+01, 8.007E+01, 8.787E+01, 9.012E+01,-1.040E+00, 1.354E-01, 4.164E-02, 4.497E-01
 1.250E+03, 8.216E+01, 8.208E+01, 7.609E+01, 8.385E+01, 8.655E+01, 7.605E+01, 8.358E+01, 8.662E+01,-5.877E+00, 1.375E-01, 4.054E-02, 0.000E+00
 1.260E+03, 7.934E+01, 8.165E+01, 7.345E+01, 8.085E+01, 8.371E+01, 7.511E+01, 8.169E+01, 8.815E+01, 4.897E+00, 1.384E-01, 4.004E-02, 2.398E-01
 1.270E+03, 8.081E+01, 7.873E+01, 7.512E+01, 8.313E+01, 8.418E+01, 7.187E+01, 7.850E+01, 8.583E+01, 4.994E+00, 1.364E-01, 4.097E-02, 0.000E+00
 1.280E+03, 7.812E+01, 7.840E+01, 7.203E+01, 7.983E+01, 8.250E+01, 7.119E+01, 7.982E+01, 8.419E+01, 3.626E+00, 1.363E-01, 4.100E-02, 0.000E+00
 1.290E+03, 7.653E+01, 7.738E+01, 7.113E+01, 7.798E+01, 8.049E+01, 7.147E+01, 7.797E+01, 8.271E+01, 2.020E+00, 1.369E-01, 4.061E-02, 0.000E+00
 1.300E+03, 7.599E+01, 7.523E+01, 7.128E+01, 7.711E+01, 7.957E+01, 6.743E+01, 7.638E+01, 8.189E+01, 5.760E+00, 1.373E-01, 4.046E-02, 0.000E+00
 1.310E+03, 7.498E+01, 7.343E+01, 6.915E+01, 7.707E+01, 7.873E+01, 6.595E+01, 7.480E+01, 7.955E+01, 3.405E+00, 1.367E-01, 4.075E-02, 0.000E+00
