s,C,C,C,C,C,C,C,C,Pa,mol/mol,mol/mol,kW
Time,"West_All_TCs","East_All_TCs","West_Bottom_TCs","West_Middle_TCs","West_Upper_TCs","East_Bottom_TCs","East_Middle_TCs","East_Upper_TCs","Pressure","O2","CO2","HRR"
-6.000E+01, 3.400E+01, 3.400E+01, 3.400E+01, 3.400E+01, 3.400E+01, 3.400E+01, 3.400E+01, 3.400E+01,-9.314E-06, 2.095E-01, 3.901E-04, 0.000E+00
-4.999E+01, 3.400E+01, 3.400E+01, 3.400E+01, 3.400E+01, 3.400E+01, 3.400E+01, 3.401E+01, 3.400E+01,-5.418E-03, 2.095E-01, 3.901E-04, 0.000E+00
-3.999E+01, 3.400E+01, 3.400E+01, 3.400E+01, 3.400E+01, 3.400E+01, 3.400E+01, 3.401E+01, 3.400E+01,-5.342E-03, 2.095E-01, 3.901E-04, 0.000E+00
-2.998E+01, 3.400E+01, 3.400E+01, 3.400E+01, 3.400E+01, 3.400E+01, 3.400E+01, 3.400E+01, 3.400E+01,-5.410E-03, 2.095E-01, 3.901E-04, 0.000E+00
-1.997E+01, 3.400E+01, 3.400E+01, 3.400E+01, 3.400E+01, 3.400E+01, 3.400E+01, 3.400E+01, 3.400E+01,-5.327E-03, 2.095E-01, 3.901E-04, 0.000E+00
-9.967E+00, 3.400E+01, 3.400E+01, 3.400E+01, 3.400E+01, 3.400E+01, 3.400E+01, 3.400E+01, 3.400E+01,-5.412E-03, 2.095E-01, 3.901E-04, 0.000E+00
 3.957E-02, 3.400E+01, 3.400E+01, 3.400E+01, 3.400E+01, 3.400E+01, 3.400E+01, 3.400E+01, 3.400E+01,-5.344E-03, 2.095E-01, 3.901E-04, 7.017E-04
 1.003E+01, 3.495E+01, 3.530E+01, 3.415E+01, 3.657E+01, 3.413E+01, 3.417E+01, 3.746E+01, 3.428E+01, 1.513E+01, 2.095E-01, 3.901E-04, 3.325E+01
 2.003E+01, 4.047E+01, 4.232E+01, 3.504E+01, 5.133E+01, 3.505E+01, 3.486E+01, 5.697E+01, 3.512E+01, 7.993E+01, 2.095E-01, 3.901E-04, 9.922E+01
 3.001E+01, 5.149E+01, 5.187E+01, 3.580E+01, 8.302E+01, 3.565E+01, 3.578E+01, 8.469E+01, 3.513E+01, 1.605E+02, 2.095E-01, 3.901E-04, 1.659E+02
 4.000E+01, 6.214E+01, 6.313E+01, 3.706E+01, 1.132E+02, 3.612E+01, 3.730E+01, 1.169E+02, 3.519E+01, 1.624E+02, 2.095E-01, 3.901E-04, 1.993E+02
 5.001E+01, 7.476E+01, 7.440E+01, 3.873E+01, 1.483E+02, 3.725E+01, 3.918E+01, 1.481E+02, 3.590E+01, 9.741E+01, 2.094E-01, 4.888E-04, 2.001E+02
 6.000E+01, 8.052E+01, 8.178E+01, 4.092E+01, 1.623E+02, 3.837E+01, 4.105E+01, 1.673E+02, 3.694E+01, 6.401E+01, 2.091E-01, 6.271E-04, 1.997E+02
 7.001E+01, 8.631E+01, 8.785E+01, 4.321E+01, 1.769E+02, 3.882E+01, 4.350E+01, 1.818E+02, 3.827E+01, 4.677E+01, 2.089E-01, 7.699E-04, 1.990E+02
 8.001E+01, 9.252E+01, 9.037E+01, 4.594E+01, 1.922E+02, 3.948E+01, 4.593E+01, 1.862E+02, 3.895E+01, 3.707E+01, 2.086E-01, 8.957E-04, 1.996E+02
 9.001E+01, 9.542E+01, 9.334E+01, 4.897E+01, 1.973E+02, 3.999E+01, 4.860E+01, 1.918E+02, 3.959E+01, 3.061E+01, 2.085E-01, 9.825E-04, 1.995E+02
 1.000E+02, 9.905E+01, 9.685E+01, 5.147E+01, 2.052E+02, 4.051E+01, 5.159E+01, 1.990E+02, 3.998E+01, 2.650E+01, 2.083E-01, 1.084E-03, 1.995E+02
 1.100E+02, 1.026E+02, 9.998E+01, 5.437E+01, 2.118E+02, 4.150E+01, 5.405E+01, 2.056E+02, 4.027E+01, 2.469E+01, 2.082E-01, 1.151E-03, 1.994E+02
 1.200E+02, 1.040E+02, 1.007E+02, 5.733E+01, 2.120E+02, 4.269E+01, 5.675E+01, 2.042E+02, 4.107E+01, 2.274E+01, 2.076E-01, 1.461E-03, 1.993E+02
 1.300E+02, 1.064E+02, 1.026E+02, 6.006E+01, 2.169E+02, 4.236E+01, 5.962E+01, 2.062E+02, 4.198E+01, 2.154E+01, 2.074E-01, 1.607E-03, 1.988E+02
 1.400E+02, 1.060E+02, 1.053E+02, 6.246E+01, 2.131E+02, 4.237E+01, 6.245E+01, 2.110E+02, 4.259E+01, 2.030E+01, 2.068E-01, 1.899E-03, 1.993E+02
 1.500E+02, 1.088E+02, 1.073E+02, 6.480E+01, 2.187E+02, 4.306E+01, 6.507E+01, 2.141E+02, 4.266E+01, 1.927E+01, 2.068E-01, 1.934E-03, 1.997E+02
 1.600E+02, 1.103E+02, 1.100E+02, 6.733E+01, 2.196E+02, 4.398E+01, 6.752E+01, 2.199E+02, 4.256E+01, 1.916E+01, 2.066E-01, 2.030E-03, 1.997E+02
 1.700E+02, 1.131E+02, 1.104E+02, 6.937E+01, 2.255E+02, 4.430E+01, 7.000E+01, 2.180E+02, 4.310E+01, 1.881E+01, 2.061E-01, 2.342E-03, 1.992E+02
 1.800E+02, 1.141E+02, 1.118E+02, 7.227E+01, 2.255E+02, 4.452E+01, 7.204E+01, 2.197E+02, 4.367E+01, 1.791E+01, 2.057E-01, 2.565E-03, 1.989E+02
 1.900E+02, 1.143E+02, 1.126E+02, 7.452E+01, 2.240E+02, 4.442E+01, 7.422E+01, 2.195E+02, 4.408E+01, 1.782E+01, 2.054E-01, 2.708E-03, 1.995E+02
 2.000E+02, 1.156E+02, 1.144E+02, 7.648E+01, 2.257E+02, 4.470E+01, 7.619E+01, 2.226E+02, 4.443E+01, 1.716E+01, 2.050E-01, 2.946E-03, 1.996E+02
 2.100E+02, 1.175E+02, 1.161E+02, 7.890E+01, 2.290E+02, 4.469E+01, 7.862E+01, 2.258E+02, 4.406E+01, 1.668E+01, 2.052E-01, 2.820E-03, 1.981E+02
 2.200E+02, 1.197E+02, 1.165E+02, 8.089E+01, 2.323E+02, 4.579E+01, 8.058E+01, 2.248E+02, 4.402E+01, 1.443E+01, 2.045E-01, 3.211E-03, 1.933E+02
 2.300E+02, 1.167E+02, 1.153E+02, 8.247E+01, 2.222E+02, 4.548E+01, 8.202E+01, 2.189E+02, 4.506E+01, 9.637E+00, 2.036E-01, 3.733E-03, 1.693E+02
 2.400E+02, 1.159E+02, 1.136E+02, 8.361E+01, 2.180E+02, 4.598E+01, 8.349E+01, 2.119E+02, 4.527E+01, 1.110E+01, 2.031E-01, 3.969E-03, 1.596E+02
 2.500E+02, 1.154E+02, 1.157E+02, 8.529E+01, 2.145E+02, 4.640E+01, 8.498E+01, 2.163E+02, 4.578E+01, 1.468E+01, 2.024E-01, 4.365E-03, 1.612E+02
 2.600E+02, 1.146E+02, 1.150E+02, 8.701E+01, 2.106E+02, 4.629E+01, 8.603E+01, 2.132E+02, 4.592E+01, 1.426E+01, 2.021E-01, 4.539E-03, 1.505E+02
 2.700E+02, 1.152E+02, 1.166E+02, 8.807E+01, 2.108E+02, 4.658E+01, 8.846E+01, 2.157E+02, 4.559E+01, 1.416E+01, 2.019E-01, 4.638E-03, 1.483E+02
 2.800E+02, 1.125E+02, 1.161E+02, 8.915E+01, 2.018E+02, 4.659E+01, 8.900E+01, 2.138E+02, 4.542E+01, 9.939E+00, 2.017E-01, 4.798E-03, 1.159E+02
 2.900E+02, 1.146E+02, 1.172E+02, 9.043E+01, 2.068E+02, 4.671E+01, 9.176E+01, 2.134E+02, 4.639E+01, 1.789E+01, 2.007E-01, 5.355E-03, 1.321E+02
 3.001E+02, 1.112E+02, 1.145E+02, 9.272E+01, 1.941E+02, 4.670E+01, 9.433E+01, 2.030E+02, 4.628E+01,-1.251E+01, 2.002E-01, 5.616E-03, 3.793E+01
 3.100E+02, 1.133E+02, 1.171E+02, 9.711E+01, 1.953E+02, 4.740E+01, 9.722E+01, 2.070E+02, 4.712E+01, 1.261E+02, 1.996E-01, 5.945E-03, 1.190E+02
 3.200E+02, 1.190E+02, 1.175E+02, 1.047E+02, 2.048E+02, 4.751E+01, 1.033E+02, 2.025E+02, 4.668E+01, 3.360E+00, 1.993E-01, 6.112E-03, 1.435E+01
 3.301E+02, 1.196E+02, 1.209E+02, 1.082E+02, 2.042E+02, 4.659E+01, 1.078E+02, 2.084E+02, 4.652E+01, 4.182E+01, 1.984E-01, 6.595E-03, 4.788E+01
 3.400E+02, 1.216E+02, 1.212E+02, 1.134E+02, 2.046E+02, 4.686E+01, 1.097E+02, 2.073E+02, 4.655E+01, 1.092E+01, 1.983E-01, 6.690E-03, 6.216E+00
 3.500E+02, 1.364E+02, 1.486E+02, 1.197E+02, 2.402E+02, 4.932E+01, 1.182E+02, 2.810E+02, 4.665E+01, 3.198E+02, 1.982E-01, 6.743E-03, 2.384E+02
 3.600E+02, 1.383E+02, 1.402E+02, 1.239E+02, 2.418E+02, 4.918E+01, 1.217E+02, 2.518E+02, 4.703E+01,-2.273E+01, 1.974E-01, 7.151E-03, 9.545E+01
 3.700E+02, 1.257E+02, 1.285E+02, 1.204E+02, 2.098E+02, 4.689E+01, 1.189E+02, 2.180E+02, 4.851E+01,-6.034E+01, 1.966E-01, 7.648E-03, 3.275E+00
 3.800E+02, 1.271E+02, 1.335E+02, 1.201E+02, 2.146E+02, 4.664E+01, 1.169E+02, 2.368E+02, 4.693E+01, 5.771E+01, 1.968E-01, 7.521E-03, 1.044E+02
 3.900E+02, 1.250E+02, 1.336E+02, 1.195E+02, 2.072E+02, 4.843E+01, 1.182E+02, 2.372E+02, 4.543E+01, 1.156E+01, 1.968E-01, 7.497E-03, 6.554E+00
 4.000E+02, 1.213E+02, 1.288E+02, 1.200E+02, 1.970E+02, 4.698E+01, 1.192E+02, 2.206E+02, 4.671E+01, 9.709E+00, 1.951E-01, 8.483E-03, 3.590E+00
 4.101E+02, 1.256E+02, 1.228E+02, 1.186E+02, 2.117E+02, 4.651E+01, 1.243E+02, 1.985E+02, 4.580E+01, 1.018E+01, 1.949E-01, 8.590E-03, 3.573E+00
 4.200E+02, 1.307E+02, 1.534E+02, 1.372E+02, 2.078E+02, 4.707E+01, 1.367E+02, 2.758E+02, 4.775E+01, 4.318E+02, 1.947E-01, 8.684E-03, 7.753E+01
 4.300E+02, 1.526E+02, 1.632E+02, 1.409E+02, 2.664E+02, 5.051E+01, 1.507E+02, 2.910E+02, 4.798E+01, 3.592E+02, 1.935E-01, 9.362E-03, 2.784E+02
 4.400E+02, 1.421E+02, 1.463E+02, 1.418E+02, 2.342E+02, 5.022E+01, 1.397E+02, 2.497E+02, 4.938E+01,-1.057E+02, 1.931E-01, 9.571E-03, 9.279E+01
 4.500E+02, 1.392E+02, 1.409E+02, 1.383E+02, 2.289E+02, 5.031E+01, 1.352E+02, 2.375E+02, 4.987E+01, 2.174E+01, 1.925E-01, 9.894E-03, 1.804E+02
 4.600E+02, 1.377E+02, 1.388E+02, 1.330E+02, 2.300E+02, 5.021E+01, 1.346E+02, 2.330E+02, 4.886E+01,-1.600E+01, 1.925E-01, 9.932E-03, 1.145E+02
 4.700E+02, 1.361E+02, 1.367E+02, 1.319E+02, 2.251E+02, 5.126E+01, 1.308E+02, 2.304E+02, 4.875E+01, 1.147E+01, 1.924E-01, 9.982E-03, 1.409E+02
 4.800E+02, 1.295E+02, 1.326E+02, 1.273E+02, 2.110E+02, 5.017E+01, 1.310E+02, 2.171E+02, 4.973E+01,-4.169E+01, 1.917E-01, 1.037E-02, 3.103E+01
 4.900E+02, 1.240E+02, 1.275E+02, 1.261E+02, 1.969E+02, 4.914E+01, 1.283E+02, 2.051E+02, 4.918E+01, 1.439E+01, 1.912E-01, 1.065E-02, 7.189E+01
 5.000E+02, 1.302E+02, 1.331E+02, 1.242E+02, 2.163E+02, 5.011E+01, 1.275E+02, 2.225E+02, 4.930E+01, 5.970E+01, 1.905E-01, 1.103E-02, 1.309E+02
 5.101E+02, 1.262E+02, 1.293E+02, 1.265E+02, 2.018E+02, 5.037E+01, 1.268E+02, 2.110E+02, 4.995E+01,-1.370E+01, 1.899E-01, 1.137E-02, 1.281E+01
 5.200E+02, 1.220E+02, 1.230E+02, 1.273E+02, 1.886E+02, 5.008E+01, 1.271E+02, 1.928E+02, 4.917E+01,-8.363E+00, 1.895E-01, 1.160E-02, 1.911E+00
 5.301E+02, 1.196E+02, 1.199E+02, 1.287E+02, 1.802E+02, 4.989E+01, 1.292E+02, 1.819E+02, 4.842E+01, 1.603E+01, 1.897E-01, 1.147E-02, 3.379E+00
 5.400E+02, 1.309E+02, 1.243E+02, 1.317E+02, 2.106E+02, 5.048E+01, 1.368E+02, 1.863E+02, 4.972E+01, 1.211E+02, 1.888E-01, 1.197E-02, 4.232E+00
 5.500E+02, 1.361E+02, 1.404E+02, 1.499E+02, 2.071E+02, 5.142E+01, 1.438E+02, 2.259E+02, 5.153E+01, 3.200E+02, 1.881E-01, 1.239E-02, 3.110E+01
 5.600E+02, 1.498E+02, 1.481E+02, 1.620E+02, 2.331E+02, 5.444E+01, 1.618E+02, 2.314E+02, 5.115E+01, 1.085E+02, 1.877E-01, 1.260E-02, 3.465E+01
 5.700E+02, 1.503E+02, 1.580E+02, 1.697E+02, 2.289E+02, 5.239E+01, 1.738E+02, 2.479E+02, 5.235E+01,-5.713E+00, 1.870E-01, 1.297E-02, 2.657E+01
 5.800E+02, 1.431E+02, 1.509E+02, 1.673E+02, 2.094E+02, 5.252E+01, 1.650E+02, 2.357E+02, 5.195E+01,-1.796E+01, 1.873E-01, 1.282E-02, 1.294E+01
 5.901E+02, 1.398E+02, 1.453E+02, 1.574E+02, 2.095E+02, 5.249E+01, 1.598E+02, 2.240E+02, 5.213E+01,-1.660E+01, 1.870E-01, 1.298E-02, 1.082E+01
 6.000E+02, 1.380E+02, 1.486E+02, 1.513E+02, 2.090E+02, 5.373E+01, 1.505E+02, 2.432E+02, 5.223E+01, 9.079E+00, 1.871E-01, 1.291E-02, 6.019E+00
 6.100E+02, 1.370E+02, 1.611E+02, 1.438E+02, 2.136E+02, 5.363E+01, 1.457E+02, 2.836E+02, 5.382E+01, 2.229E+01, 1.866E-01, 1.324E-02, 1.124E+01
 6.200E+02, 1.358E+02, 1.682E+02, 1.390E+02, 2.125E+02, 5.575E+01, 1.402E+02, 3.108E+02, 5.355E+01, 8.231E+00, 1.868E-01, 1.307E-02, 8.533E+00
 6.300E+02, 1.356E+02, 1.510E+02, 1.352E+02, 2.155E+02, 5.609E+01, 1.358E+02, 2.643E+02, 5.304E+01,-2.737E+00, 1.866E-01, 1.323E-02, 2.408E+01
 6.400E+02, 1.346E+02, 1.506E+02, 1.314E+02, 2.167E+02, 5.561E+01, 1.317E+02, 2.664E+02, 5.375E+01, 5.058E+00, 1.856E-01, 1.379E-02, 5.500E+01
 6.500E+02, 1.350E+02, 1.467E+02, 1.283E+02, 2.214E+02, 5.510E+01, 1.293E+02, 2.565E+02, 5.427E+01, 3.450E+00, 1.853E-01, 1.393E-02, 1.144E+02
 6.600E+02, 1.401E+02, 1.402E+02, 1.270E+02, 2.375E+02, 5.561E+01, 1.268E+02, 2.398E+02, 5.402E+01, 3.502E+01, 1.855E-01, 1.380E-02, 1.899E+02
 6.700E+02, 1.423E+02, 1.473E+02, 1.274E+02, 2.420E+02, 5.763E+01, 1.279E+02, 2.592E+02, 5.479E+01, 5.619E+01, 1.844E-01, 1.443E-02, 2.231E+02
 6.800E+02, 1.351E+02, 1.377E+02, 1.261E+02, 2.232E+02, 5.599E+01, 1.263E+02, 2.305E+02, 5.625E+01,-4.589E+01, 1.834E-01, 1.500E-02, 3.055E+01
 6.900E+02, 1.260E+02, 1.288E+02, 1.246E+02, 1.994E+02, 5.396E+01, 1.271E+02, 2.036E+02, 5.583E+01,-2.257E+01, 1.827E-01, 1.538E-02, 6.971E-02
 7.000E+02, 1.211E+02, 1.227E+02, 1.235E+02, 1.841E+02, 5.566E+01, 1.237E+02, 1.907E+02, 5.357E+01,-5.651E+00, 1.826E-01, 1.547E-02, 7.802E-01
 7.100E+02, 1.171E+02, 1.196E+02, 1.197E+02, 1.749E+02, 5.689E+01, 1.208E+02, 1.829E+02, 5.498E+01,-4.094E+00, 1.815E-01, 1.607E-02, 3.364E+00
 7.200E+02, 1.129E+02, 1.141E+02, 1.159E+02, 1.666E+02, 5.607E+01, 1.170E+02, 1.698E+02, 5.560E+01,-4.407E+00, 1.816E-01, 1.599E-02, 2.616E+00
 7.300E+02, 1.103E+02, 1.121E+02, 1.141E+02, 1.602E+02, 5.682E+01, 1.129E+02, 1.666E+02, 5.687E+01,-1.964E+00, 1.814E-01, 1.611E-02, 2.045E+00
 7.400E+02, 1.089E+02, 1.099E+02, 1.097E+02, 1.583E+02, 5.878E+01, 1.105E+02, 1.630E+02, 5.636E+01, 2.926E+00, 1.815E-01, 1.604E-02, 3.843E+00
 7.500E+02, 1.093E+02, 1.095E+02, 1.059E+02, 1.611E+02, 6.078E+01, 1.076E+02, 1.650E+02, 5.588E+01, 5.944E+00, 1.814E-01, 1.610E-02, 8.000E-01
 7.600E+02, 1.113E+02, 1.083E+02, 1.038E+02, 1.665E+02, 6.363E+01, 1.038E+02, 1.631E+02, 5.793E+01, 1.241E+01, 1.807E-01, 1.653E-02, 2.720E-03
 7.700E+02, 1.225E+02, 1.088E+02, 1.012E+02, 2.004E+02, 6.600E+01, 1.016E+02, 1.633E+02, 6.142E+01, 2.283E+01, 1.797E-01, 1.708E-02, 1.407E+00
 7.800E+02, 1.561E+02, 1.390E+02, 1.042E+02, 2.945E+02, 6.977E+01, 1.039E+02, 2.480E+02, 6.514E+01, 4.398E+02, 1.790E-01, 1.744E-02, 1.091E+02
 7.900E+02, 1.612E+02, 1.422E+02, 1.078E+02, 3.049E+02, 7.091E+01, 1.069E+02, 2.516E+02, 6.809E+01, 5.153E+01, 1.781E-01, 1.794E-02, 1.313E+02
 8.000E+02, 1.545E+02, 1.423E+02, 1.109E+02, 2.815E+02, 7.103E+01, 1.114E+02, 2.471E+02, 6.844E+01, 4.617E+01, 1.784E-01, 1.780E-02, 1.708E+02
 8.100E+02, 1.437E+02, 1.414E+02, 1.138E+02, 2.445E+02, 7.284E+01, 1.141E+02, 2.413E+02, 6.876E+01, 9.956E-01, 1.783E-01, 1.785E-02, 1.096E+02
 8.200E+02, 1.387E+02, 1.385E+02, 1.146E+02, 2.306E+02, 7.096E+01, 1.158E+02, 2.313E+02, 6.839E+01,-1.077E+00, 1.772E-01, 1.846E-02, 7.508E+01
 8.301E+02, 1.349E+02, 1.412E+02, 1.151E+02, 2.198E+02, 6.973E+01, 1.164E+02, 2.381E+02, 6.912E+01, 3.053E+00, 1.758E-01, 1.927E-02, 4.508E+01
 8.400E+02, 1.318E+02, 1.353E+02, 1.149E+02, 2.120E+02, 6.845E+01, 1.162E+02, 2.242E+02, 6.546E+01,-2.534E+00, 1.766E-01, 1.881E-02, 4.324E+01
 8.500E+02, 1.284E+02, 1.308E+02, 1.139E+02, 2.022E+02, 6.909E+01, 1.148E+02, 2.130E+02, 6.460E+01,-1.084E+01, 1.746E-01, 1.994E-02, 3.574E+01
 8.600E+02, 1.232E+02, 1.240E+02, 1.119E+02, 1.907E+02, 6.687E+01, 1.129E+02, 1.937E+02, 6.529E+01,-1.013E+01, 1.739E-01, 2.032E-02, 4.128E-07
 8.700E+02, 1.184E+02, 1.185E+02, 1.092E+02, 1.799E+02, 6.611E+01, 1.111E+02, 1.791E+02, 6.545E+01,-4.834E+00, 1.730E-01, 2.080E-02, 1.915E-06
 8.800E+02, 1.152E+02, 1.161E+02, 1.072E+02, 1.710E+02, 6.731E+01, 1.085E+02, 1.749E+02, 6.479E+01,-3.710E+00, 1.733E-01, 2.066E-02, 2.186E-07
 8.901E+02, 1.120E+02, 1.139E+02, 1.045E+02, 1.637E+02, 6.772E+01, 1.065E+02, 1.704E+02, 6.491E+01,-1.258E+00, 1.724E-01, 2.112E-02, 4.859E-06
 9.000E+02, 1.102E+02, 1.122E+02, 1.022E+02, 1.595E+02, 6.878E+01, 1.039E+02, 1.678E+02, 6.502E+01,-2.801E-01, 1.722E-01, 2.124E-02, 1.691E-02
 9.101E+02, 1.095E+02, 1.095E+02, 1.002E+02, 1.580E+02, 7.053E+01, 1.017E+02, 1.613E+02, 6.535E+01, 2.010E+00, 1.719E-01, 2.142E-02, 2.534E-05
 9.201E+02, 1.080E+02, 1.073E+02, 9.816E+01, 1.560E+02, 6.999E+01, 9.977E+01, 1.557E+02, 6.652E+01, 3.878E+00, 1.713E-01, 2.176E-02, 6.833E-06
 9.300E+02, 1.069E+02, 1.060E+02, 9.675E+01, 1.543E+02, 6.975E+01, 9.786E+01, 1.520E+02, 6.812E+01, 3.492E+00, 1.706E-01, 2.214E-02, 1.829E-05
 9.400E+02, 1.049E+02, 1.056E+02, 9.542E+01, 1.478E+02, 7.132E+01, 9.617E+01, 1.516E+02, 6.891E+01, 1.453E+00, 1.702E-01, 2.237E-02, 2.741E-06
 9.500E+02, 1.041E+02, 1.045E+02, 9.372E+01, 1.460E+02, 7.277E+01, 9.513E+01, 1.501E+02, 6.837E+01, 3.618E+00, 1.704E-01, 2.228E-02, 8.473E-07
 9.600E+02, 1.045E+02, 1.035E+02, 9.262E+01, 1.474E+02, 7.362E+01, 9.352E+01, 1.488E+02, 6.814E+01, 6.917E+00, 1.692E-01, 2.292E-02, 1.796E-05
 9.700E+02, 1.042E+02, 1.024E+02, 9.143E+01, 1.475E+02, 7.354E+01, 9.222E+01, 1.438E+02, 7.105E+01, 8.732E+00, 1.682E-01, 2.351E-02, 1.783E-05
 9.800E+02, 1.034E+02, 1.030E+02, 9.058E+01, 1.458E+02, 7.364E+01, 9.109E+01, 1.455E+02, 7.255E+01, 6.923E+00, 1.674E-01, 2.395E-02, 3.782E-06
 9.900E+02, 1.028E+02, 1.025E+02, 8.949E+01, 1.427E+02, 7.630E+01, 9.031E+01, 1.451E+02, 7.219E+01, 6.391E+00, 1.666E-01, 2.438E-02, 3.241E-05
 1.000E+03, 1.022E+02, 1.019E+02, 8.854E+01, 1.404E+02, 7.756E+01, 8.928E+01, 1.428E+02, 7.378E+01, 9.054E+00, 1.652E-01, 2.514E-02, 1.518E-05
