s,C,C,C,C,C,C,C,C,Pa,mol/mol,mol/mol,kW
Time,"West_All_TCs","East_All_TCs","West_Bottom_TCs","West_Middle_TCs","West_Upper_TCs","East_Bottom_TCs","East_Middle_TCs","East_Upper_TCs","Pressure","O2","CO2","HRR"
-6.000E+01, 2.800E+01, 2.800E+01, 2.800E+01, 2.800E+01, 2.800E+01, 2.800E+01, 2.800E+01, 2.800E+01,-9.522E-06, 2.095E-01, 3.901E-04, 0.000E+00
-4.998E+01, 2.797E+01, 2.797E+01, 2.797E+01, 2.796E+01, 2.797E+01, 2.797E+01, 2.796E+01, 2.797E+01,-6.286E+01, 2.095E-01, 3.901E-04, 0.000E+00
-3.996E+01, 2.795E+01, 2.796E+01, 2.795E+01, 2.795E+01, 2.794E+01, 2.797E+01, 2.795E+01, 2.796E+01,-6.307E+01, 2.095E-01, 3.901E-04, 0.000E+00
-2.990E+01, 2.794E+01, 2.796E+01, 2.795E+01, 2.794E+01, 2.794E+01, 2.799E+01, 2.795E+01, 2.795E+01,-6.313E+01, 2.095E-01, 3.901E-04, 0.000E+00
-1.996E+01, 2.794E+01, 2.797E+01, 2.795E+01, 2.794E+01, 2.794E+01, 2.799E+01, 2.795E+01, 2.795E+01,-6.317E+01, 2.095E-01, 3.901E-04, 0.000E+00
-9.921E+00, 2.794E+01, 2.797E+01, 2.795E+01, 2.794E+01, 2.794E+01, 2.800E+01, 2.796E+01, 2.795E+01,-6.320E+01, 2.095E-01, 3.901E-04, 0.000E+00
 2.172E-02, 2.794E+01, 2.797E+01, 2.795E+01, 2.794E+01, 2.794E+01, 2.800E+01, 2.796E+01, 2.795E+01,-6.322E+01, 2.095E-01, 3.901E-04, 2.924E-04
 1.001E+01, 2.897E+01, 2.944E+01, 2.847E+01, 3.047E+01, 2.797E+01, 2.888E+01, 3.146E+01, 2.798E+01,-2.641E+01, 2.095E-01, 3.901E-04, 3.328E+01
 2.000E+01, 3.343E+01, 3.454E+01, 3.045E+01, 4.106E+01, 2.878E+01, 3.109E+01, 4.454E+01, 2.798E+01, 6.044E+00, 2.095E-01, 3.901E-04, 9.907E+01
 3.001E+01, 4.256E+01, 4.353E+01, 3.310E+01, 6.562E+01, 2.896E+01, 3.523E+01, 6.747E+01, 2.788E+01, 4.286E+01, 2.095E-01, 3.901E-04, 1.657E+02
 4.001E+01, 5.477E+01, 5.437E+01, 3.974E+01, 9.383E+01, 3.075E+01, 4.134E+01, 9.336E+01, 2.840E+01, 5.439E+01, 2.095E-01, 4.383E-04, 2.001E+02
 5.000E+01, 6.495E+01, 6.506E+01, 4.875E+01, 1.134E+02, 3.268E+01, 5.058E+01, 1.130E+02, 3.161E+01, 3.108E+01, 2.089E-01, 7.592E-04, 2.005E+02
 6.001E+01, 7.503E+01, 7.605E+01, 5.966E+01, 1.312E+02, 3.425E+01, 6.188E+01, 1.319E+02, 3.437E+01, 1.678E+01, 2.084E-01, 1.022E-03, 2.000E+02
 7.001E+01, 8.311E+01, 8.502E+01, 7.087E+01, 1.413E+02, 3.718E+01, 7.301E+01, 1.450E+02, 3.703E+01, 1.003E+01, 2.079E-01, 1.319E-03, 1.995E+02
 8.002E+01, 9.056E+01, 9.241E+01, 8.114E+01, 1.512E+02, 3.938E+01, 8.423E+01, 1.536E+02, 3.942E+01, 6.062E-01, 2.074E-01, 1.602E-03, 2.009E+02
 9.002E+01, 9.732E+01, 9.842E+01, 9.032E+01, 1.595E+02, 4.214E+01, 9.220E+01, 1.614E+02, 4.169E+01,-7.182E+00, 2.068E-01, 1.940E-03, 1.993E+02
 1.000E+02, 1.014E+02, 1.028E+02, 9.571E+01, 1.648E+02, 4.363E+01, 1.004E+02, 1.645E+02, 4.363E+01,-1.458E+01, 2.063E-01, 2.194E-03, 2.001E+02
 1.100E+02, 1.060E+02, 1.059E+02, 1.014E+02, 1.698E+02, 4.683E+01, 1.036E+02, 1.687E+02, 4.533E+01,-1.802E+01, 2.058E-01, 2.474E-03, 2.002E+02
 1.200E+02, 1.103E+02, 1.103E+02, 1.070E+02, 1.754E+02, 4.847E+01, 1.091E+02, 1.733E+02, 4.837E+01,-2.789E+01, 2.050E-01, 2.951E-03, 1.994E+02
 1.300E+02, 1.118E+02, 1.125E+02, 1.117E+02, 1.743E+02, 4.928E+01, 1.114E+02, 1.771E+02, 4.902E+01,-3.144E+01, 2.045E-01, 3.214E-03, 1.989E+02
 1.400E+02, 1.144E+02, 1.140E+02, 1.148E+02, 1.772E+02, 5.102E+01, 1.158E+02, 1.766E+02, 4.952E+01,-3.472E+01, 2.042E-01, 3.387E-03, 2.013E+02
 1.500E+02, 1.152E+02, 1.164E+02, 1.166E+02, 1.787E+02, 5.027E+01, 1.186E+02, 1.790E+02, 5.165E+01,-3.779E+01, 2.033E-01, 3.868E-03, 2.002E+02
 1.600E+02, 1.160E+02, 1.186E+02, 1.192E+02, 1.776E+02, 5.122E+01, 1.222E+02, 1.824E+02, 5.134E+01,-3.942E+01, 2.029E-01, 4.126E-03, 1.997E+02
 1.700E+02, 1.173E+02, 1.214E+02, 1.225E+02, 1.764E+02, 5.314E+01, 1.256E+02, 1.870E+02, 5.147E+01,-3.631E+01, 2.024E-01, 4.406E-03, 1.992E+02
 1.800E+02, 1.189E+02, 1.233E+02, 1.243E+02, 1.781E+02, 5.425E+01, 1.269E+02, 1.896E+02, 5.342E+01,-4.044E+01, 2.016E-01, 4.848E-03, 2.000E+02
 1.900E+02, 1.212E+02, 1.230E+02, 1.258E+02, 1.831E+02, 5.478E+01, 1.286E+02, 1.862E+02, 5.422E+01,-4.490E+01, 2.008E-01, 5.265E-03, 1.995E+02
 2.000E+02, 1.211E+02, 1.257E+02, 1.257E+02, 1.831E+02, 5.451E+01, 1.288E+02, 1.916E+02, 5.669E+01,-4.666E+01, 1.999E-01, 5.764E-03, 1.989E+02
 2.100E+02, 1.224E+02, 1.258E+02, 1.273E+02, 1.848E+02, 5.522E+01, 1.294E+02, 1.923E+02, 5.576E+01,-4.876E+01, 1.995E-01, 5.977E-03, 2.006E+02
 2.200E+02, 1.226E+02, 1.257E+02, 1.278E+02, 1.840E+02, 5.594E+01, 1.301E+02, 1.904E+02, 5.651E+01,-5.235E+01, 1.986E-01, 6.534E-03, 1.999E+02
 2.300E+02, 1.231E+02, 1.266E+02, 1.280E+02, 1.850E+02, 5.645E+01, 1.306E+02, 1.924E+02, 5.688E+01,-4.779E+01, 1.977E-01, 7.008E-03, 1.999E+02
 2.400E+02, 1.240E+02, 1.272E+02, 1.290E+02, 1.857E+02, 5.720E+01, 1.313E+02, 1.925E+02, 5.771E+01,-4.908E+01, 1.972E-01, 7.308E-03, 2.002E+02
 2.500E+02, 1.244E+02, 1.288E+02, 1.292E+02, 1.861E+02, 5.780E+01, 1.390E+02, 1.900E+02, 5.731E+01,-5.451E+01, 1.963E-01, 7.797E-03, 1.988E+02
 2.600E+02, 1.257E+02, 1.283E+02, 1.312E+02, 1.879E+02, 5.810E+01, 1.335E+02, 1.936E+02, 5.781E+01,-5.309E+01, 1.956E-01, 8.188E-03, 1.994E+02
 2.700E+02, 1.245E+02, 1.282E+02, 1.304E+02, 1.847E+02, 5.841E+01, 1.337E+02, 1.938E+02, 5.701E+01,-4.898E+01, 1.949E-01, 8.582E-03, 1.996E+02
 2.800E+02, 1.264E+02, 1.296E+02, 1.326E+02, 1.873E+02, 5.913E+01, 1.343E+02, 1.962E+02, 5.823E+01,-4.560E+01, 1.939E-01, 9.115E-03, 2.015E+02
 2.900E+02, 1.273E+02, 1.300E+02, 1.330E+02, 1.903E+02, 5.873E+01, 1.347E+02, 1.962E+02, 5.912E+01,-5.672E+01, 1.924E-01, 9.984E-03, 1.982E+02
 3.000E+02, 1.270E+02, 1.318E+02, 1.314E+02, 1.900E+02, 5.967E+01, 1.351E+02, 2.005E+02, 5.984E+01,-4.539E+01, 1.924E-01, 9.991E-03, 2.000E+02
 3.100E+02, 1.270E+02, 1.342E+02, 1.336E+02, 1.872E+02, 6.031E+01, 1.361E+02, 2.069E+02, 5.964E+01,-5.088E+01, 1.914E-01, 1.054E-02, 1.992E+02
 3.200E+02, 1.278E+02, 1.324E+02, 1.345E+02, 1.894E+02, 5.950E+01, 1.372E+02, 2.004E+02, 5.957E+01,-5.790E+01, 1.904E-01, 1.109E-02, 1.999E+02
 3.300E+02, 1.282E+02, 1.317E+02, 1.343E+02, 1.903E+02, 5.999E+01, 1.370E+02, 1.985E+02, 5.962E+01,-5.179E+01, 1.897E-01, 1.148E-02, 2.009E+02
 3.400E+02, 1.276E+02, 1.316E+02, 1.344E+02, 1.887E+02, 5.978E+01, 1.365E+02, 1.991E+02, 5.918E+01,-5.859E+01, 1.886E-01, 1.207E-02, 1.991E+02
 3.500E+02, 1.282E+02, 1.318E+02, 1.353E+02, 1.896E+02, 5.958E+01, 1.359E+02, 2.002E+02, 5.927E+01,-5.079E+01, 1.880E-01, 1.244E-02, 2.002E+02
 3.600E+02, 1.290E+02, 1.309E+02, 1.346E+02, 1.932E+02, 5.933E+01, 1.366E+02, 1.969E+02, 5.929E+01,-5.655E+01, 1.870E-01, 1.299E-02, 1.981E+02
 3.700E+02, 1.299E+02, 1.341E+02, 1.357E+02, 1.930E+02, 6.099E+01, 1.362E+02, 2.067E+02, 5.956E+01,-4.832E+01, 1.862E-01, 1.343E-02, 2.011E+02
 3.800E+02, 1.289E+02, 1.367E+02, 1.369E+02, 1.891E+02, 6.082E+01, 1.393E+02, 2.095E+02, 6.149E+01,-4.495E+01, 1.851E-01, 1.405E-02, 1.994E+02
 3.900E+02, 1.321E+02, 1.338E+02, 1.352E+02, 1.991E+02, 6.183E+01, 1.400E+02, 2.007E+02, 6.079E+01,-4.851E+01, 1.845E-01, 1.439E-02, 1.992E+02
 4.000E+02, 1.318E+02, 1.345E+02, 1.365E+02, 1.964E+02, 6.239E+01, 1.378E+02, 2.040E+02, 6.150E+01,-4.860E+01, 1.832E-01, 1.510E-02, 1.994E+02
 4.100E+02, 1.318E+02, 1.356E+02, 1.375E+02, 1.957E+02, 6.224E+01, 1.392E+02, 2.047E+02, 6.286E+01,-4.750E+01, 1.822E-01, 1.565E-02, 1.996E+02
 4.200E+02, 1.329E+02, 1.360E+02, 1.377E+02, 1.973E+02, 6.377E+01, 1.402E+02, 2.053E+02, 6.250E+01,-5.059E+01, 1.811E-01, 1.627E-02, 2.000E+02
 4.300E+02, 1.333E+02, 1.371E+02, 1.381E+02, 1.981E+02, 6.369E+01, 1.396E+02, 2.092E+02, 6.250E+01,-5.361E+01, 1.803E-01, 1.675E-02, 2.005E+02
 4.400E+02, 1.324E+02, 1.352E+02, 1.379E+02, 1.956E+02, 6.374E+01, 1.396E+02, 2.034E+02, 6.274E+01,-5.361E+01, 1.796E-01, 1.713E-02, 1.997E+02
 4.500E+02, 1.324E+02, 1.376E+02, 1.376E+02, 1.969E+02, 6.265E+01, 1.419E+02, 2.073E+02, 6.342E+01,-5.402E+01, 1.785E-01, 1.773E-02, 2.001E+02
 4.600E+02, 1.330E+02, 1.364E+02, 1.388E+02, 1.965E+02, 6.382E+01, 1.402E+02, 2.068E+02, 6.232E+01,-5.072E+01, 1.778E-01, 1.810E-02, 1.998E+02
 4.700E+02, 1.337E+02, 1.363E+02, 1.388E+02, 1.979E+02, 6.451E+01, 1.407E+02, 2.056E+02, 6.265E+01,-5.112E+01, 1.768E-01, 1.866E-02, 1.998E+02
 4.800E+02, 1.343E+02, 1.361E+02, 1.405E+02, 1.994E+02, 6.316E+01, 1.399E+02, 2.038E+02, 6.472E+01,-5.426E+01, 1.753E-01, 1.952E-02, 1.991E+02
 4.900E+02, 1.352E+02, 1.392E+02, 1.412E+02, 2.004E+02, 6.393E+01, 1.429E+02, 2.119E+02, 6.282E+01,-5.048E+01, 1.750E-01, 1.969E-02, 2.008E+02
 5.000E+02, 1.349E+02, 1.373E+02, 1.405E+02, 2.006E+02, 6.359E+01, 1.438E+02, 2.050E+02, 6.308E+01,-5.260E+01, 1.741E-01, 2.019E-02, 1.987E+02
 5.100E+02, 1.354E+02, 1.385E+02, 1.417E+02, 2.015E+02, 6.313E+01, 1.438E+02, 2.089E+02, 6.271E+01,-5.020E+01, 1.732E-01, 2.070E-02, 1.991E+02
 5.200E+02, 1.348E+02, 1.409E+02, 1.429E+02, 1.986E+02, 6.282E+01, 1.431E+02, 2.164E+02, 6.310E+01,-4.915E+01, 1.722E-01, 2.125E-02, 1.989E+02
 5.300E+02, 1.350E+02, 1.418E+02, 1.435E+02, 1.984E+02, 6.303E+01, 1.470E+02, 2.150E+02, 6.334E+01,-4.709E+01, 1.716E-01, 2.159E-02, 2.000E+02
 5.400E+02, 1.352E+02, 1.400E+02, 1.434E+02, 1.985E+02, 6.369E+01, 1.468E+02, 2.092E+02, 6.410E+01,-5.068E+01, 1.705E-01, 2.220E-02, 2.004E+02
 5.500E+02, 1.369E+02, 1.399E+02, 1.438E+02, 2.028E+02, 6.416E+01, 1.466E+02, 2.084E+02, 6.466E+01,-5.478E+01, 1.698E-01, 2.258E-02, 1.983E+02
 5.600E+02, 1.372E+02, 1.410E+02, 1.444E+02, 2.027E+02, 6.450E+01, 1.453E+02, 2.140E+02, 6.359E+01,-5.803E+01, 1.692E-01, 2.295E-02, 1.978E+02
 5.700E+02, 1.386E+02, 1.398E+02, 1.434E+02, 2.078E+02, 6.467E+01, 1.439E+02, 2.113E+02, 6.430E+01,-4.640E+01, 1.689E-01, 2.312E-02, 2.014E+02
 5.800E+02, 1.376E+02, 1.414E+02, 1.437E+02, 2.047E+02, 6.453E+01, 1.471E+02, 2.112E+02, 6.610E+01,-5.430E+01, 1.675E-01, 2.390E-02, 1.976E+02
 5.900E+02, 1.371E+02, 1.430E+02, 1.453E+02, 2.015E+02, 6.451E+01, 1.475E+02, 2.174E+02, 6.414E+01,-4.835E+01, 1.671E-01, 2.413E-02, 2.011E+02
 6.000E+02, 1.383E+02, 1.421E+02, 1.446E+02, 2.053E+02, 6.513E+01, 1.489E+02, 2.128E+02, 6.461E+01,-5.269E+01, 1.664E-01, 2.451E-02, 1.993E+02
 6.100E+02, 1.391E+02, 1.413E+02, 1.461E+02, 2.062E+02, 6.509E+01, 1.462E+02, 2.126E+02, 6.522E+01,-5.459E+01, 1.659E-01, 2.479E-02, 1.985E+02
 6.200E+02, 1.390E+02, 1.426E+02, 1.454E+02, 2.067E+02, 6.504E+01, 1.485E+02, 2.142E+02, 6.515E+01,-5.888E+01, 1.650E-01, 2.530E-02, 1.981E+02
 6.300E+02, 1.388E+02, 1.418E+02, 1.449E+02, 2.065E+02, 6.494E+01, 1.475E+02, 2.142E+02, 6.369E+01,-5.333E+01, 1.644E-01, 2.561E-02, 1.958E+02
 6.400E+02, 1.398E+02, 1.433E+02, 1.460E+02, 2.080E+02, 6.545E+01, 1.489E+02, 2.165E+02, 6.453E+01,-4.695E+01, 1.638E-01, 2.592E-02, 2.038E+02
 6.500E+02, 1.386E+02, 1.444E+02, 1.478E+02, 2.030E+02, 6.505E+01, 1.476E+02, 2.191E+02, 6.643E+01,-5.783E+01, 1.629E-01, 2.647E-02, 1.959E+02
 6.600E+02, 1.387E+02, 1.430E+02, 1.463E+02, 2.043E+02, 6.559E+01, 1.511E+02, 2.126E+02, 6.531E+01,-5.489E+01, 1.623E-01, 2.678E-02, 1.983E+02
 6.700E+02, 1.395E+02, 1.424E+02, 1.472E+02, 2.052E+02, 6.619E+01, 1.484E+02, 2.133E+02, 6.561E+01,-5.572E+01, 1.618E-01, 2.706E-02, 2.002E+02
 6.800E+02, 1.405E+02, 1.439E+02, 1.477E+02, 2.088E+02, 6.498E+01, 1.496E+02, 2.177E+02, 6.448E+01,-5.103E+01, 1.612E-01, 2.742E-02, 2.010E+02
 6.900E+02, 1.410E+02, 1.451E+02, 1.488E+02, 2.083E+02, 6.596E+01, 1.503E+02, 2.191E+02, 6.576E+01,-4.833E+01, 1.607E-01, 2.768E-02, 1.995E+02
 7.000E+02, 1.417E+02, 1.446E+02, 1.473E+02, 2.107E+02, 6.715E+01, 1.517E+02, 2.157E+02, 6.631E+01,-5.268E+01, 1.598E-01, 2.816E-02, 1.993E+02
 7.100E+02, 1.413E+02, 1.435E+02, 1.488E+02, 2.080E+02, 6.721E+01, 1.481E+02, 2.157E+02, 6.668E+01,-5.947E+01, 1.593E-01, 2.847E-02, 1.954E+02
 7.200E+02, 1.419E+02, 1.449E+02, 1.483E+02, 2.092E+02, 6.816E+01, 1.508E+02, 2.184E+02, 6.542E+01,-4.775E+01, 1.592E-01, 2.854E-02, 2.036E+02
 7.300E+02, 1.424E+02, 1.465E+02, 1.495E+02, 2.098E+02, 6.799E+01, 1.513E+02, 2.209E+02, 6.731E+01,-5.659E+01, 1.583E-01, 2.901E-02, 1.963E+02
 7.400E+02, 1.440E+02, 1.458E+02, 1.494E+02, 2.148E+02, 6.758E+01, 1.530E+02, 2.169E+02, 6.753E+01,-4.751E+01, 1.576E-01, 2.942E-02, 2.018E+02
 7.500E+02, 1.426E+02, 1.471E+02, 1.502E+02, 2.100E+02, 6.763E+01, 1.531E+02, 2.216E+02, 6.656E+01,-5.422E+01, 1.574E-01, 2.954E-02, 1.957E+02
 7.600E+02, 1.426E+02, 1.462E+02, 1.487E+02, 2.110E+02, 6.791E+01, 1.532E+02, 2.193E+02, 6.615E+01,-5.110E+01, 1.567E-01, 2.991E-02, 2.008E+02
 7.700E+02, 1.428E+02, 1.459E+02, 1.487E+02, 2.115E+02, 6.815E+01, 1.515E+02, 2.167E+02, 6.964E+01,-5.741E+01, 1.559E-01, 3.036E-02, 1.973E+02
 7.800E+02, 1.428E+02, 1.473E+02, 1.486E+02, 2.117E+02, 6.800E+01, 1.533E+02, 2.202E+02, 6.832E+01,-5.175E+01, 1.555E-01, 3.057E-02, 2.032E+02
 7.900E+02, 1.444E+02, 1.460E+02, 1.507E+02, 2.131E+02, 6.944E+01, 1.516E+02, 2.180E+02, 6.858E+01,-5.659E+01, 1.550E-01, 3.088E-02, 1.970E+02
 8.000E+02, 1.451E+02, 1.460E+02, 1.507E+02, 2.145E+02, 7.006E+01, 1.549E+02, 2.154E+02, 6.778E+01,-5.457E+01, 1.548E-01, 3.099E-02, 2.002E+02
 8.100E+02, 1.444E+02, 1.491E+02, 1.529E+02, 2.108E+02, 6.961E+01, 1.548E+02, 2.229E+02, 6.963E+01,-5.403E+01, 1.540E-01, 3.142E-02, 1.996E+02
 8.200E+02, 1.454E+02, 1.514E+02, 1.526E+02, 2.133E+02, 7.051E+01, 1.557E+02, 2.286E+02, 6.985E+01,-5.124E+01, 1.535E-01, 3.173E-02, 2.003E+02
 8.300E+02, 1.447E+02, 1.509E+02, 1.534E+02, 2.108E+02, 6.992E+01, 1.543E+02, 2.302E+02, 6.808E+01,-5.716E+01, 1.532E-01, 3.189E-02, 1.978E+02
 8.400E+02, 1.442E+02, 1.509E+02, 1.528E+02, 2.093E+02, 7.040E+01, 1.565E+02, 2.261E+02, 7.016E+01,-5.418E+01, 1.526E-01, 3.220E-02, 1.973E+02
 8.500E+02, 1.446E+02, 1.501E+02, 1.534E+02, 2.098E+02, 7.056E+01, 1.586E+02, 2.208E+02, 7.096E+01,-5.784E+01, 1.521E-01, 3.247E-02, 1.974E+02
 8.600E+02, 1.459E+02, 1.504E+02, 1.535E+02, 2.128E+02, 7.141E+01, 1.564E+02, 2.239E+02, 7.105E+01,-5.290E+01, 1.514E-01, 3.287E-02, 2.019E+02
 8.700E+02, 1.462E+02, 1.506E+02, 1.538E+02, 2.139E+02, 7.091E+01, 1.570E+02, 2.254E+02, 6.929E+01,-4.713E+01, 1.513E-01, 3.295E-02, 2.031E+02
 8.800E+02, 1.476E+02, 1.497E+02, 1.544E+02, 2.164E+02, 7.189E+01, 1.587E+02, 2.205E+02, 6.986E+01,-6.184E+01, 1.506E-01, 3.331E-02, 1.945E+02
 8.900E+02, 1.490E+02, 1.488E+02, 1.549E+02, 2.207E+02, 7.145E+01, 1.567E+02, 2.182E+02, 7.146E+01,-5.199E+01, 1.501E-01, 3.359E-02, 2.046E+02
 9.000E+02, 1.475E+02, 1.516E+02, 1.536E+02, 2.189E+02, 7.014E+01, 1.606E+02, 2.235E+02, 7.084E+01,-5.347E+01, 1.499E-01, 3.369E-02, 1.992E+02
 9.100E+02, 1.470E+02, 1.505E+02, 1.522E+02, 2.161E+02, 7.276E+01, 1.586E+02, 2.224E+02, 7.038E+01,-4.859E+01, 1.498E-01, 3.379E-02, 1.993E+02
 9.200E+02, 1.459E+02, 1.508E+02, 1.528E+02, 2.124E+02, 7.266E+01, 1.569E+02, 2.226E+02, 7.295E+01,-5.730E+01, 1.488E-01, 3.435E-02, 1.938E+02
 9.300E+02, 1.473E+02, 1.513E+02, 1.538E+02, 2.157E+02, 7.232E+01, 1.577E+02, 2.238E+02, 7.224E+01,-5.264E+01, 1.488E-01, 3.434E-02, 2.045E+02
 9.400E+02, 1.485E+02, 1.509E+02, 1.554E+02, 2.170E+02, 7.295E+01, 1.610E+02, 2.208E+02, 7.103E+01,-5.532E+01, 1.485E-01, 3.449E-02, 1.980E+02
 9.500E+02, 1.491E+02, 1.506E+02, 1.558E+02, 2.184E+02, 7.321E+01, 1.576E+02, 2.221E+02, 7.209E+01,-5.315E+01, 1.480E-01, 3.479E-02, 1.994E+02
 9.600E+02, 1.493E+02, 1.531E+02, 1.564E+02, 2.187E+02, 7.291E+01, 1.593E+02, 2.279E+02, 7.201E+01,-5.209E+01, 1.474E-01, 3.509E-02, 2.019E+02
 9.700E+02, 1.496E+02, 1.523E+02, 1.560E+02, 2.192E+02, 7.370E+01, 1.583E+02, 2.260E+02, 7.251E+01,-5.651E+01, 1.472E-01, 3.524E-02, 1.965E+02
 9.800E+02, 1.495E+02, 1.516E+02, 1.572E+02, 2.179E+02, 7.355E+01, 1.601E+02, 2.218E+02, 7.302E+01,-4.964E+01, 1.468E-01, 3.545E-02, 2.023E+02
 9.900E+02, 1.491E+02, 1.561E+02, 1.579E+02, 2.169E+02, 7.259E+01, 1.626E+02, 2.328E+02, 7.288E+01,-4.825E+01, 1.463E-01, 3.573E-02, 1.998E+02
 1.000E+03, 1.490E+02, 1.552E+02, 1.585E+02, 2.140E+02, 7.447E+01, 1.622E+02, 2.296E+02, 7.381E+01,-6.005E+01, 1.460E-01, 3.589E-02, 1.895E+02
 1.010E+03, 1.498E+02, 1.546E+02, 1.558E+02, 2.193E+02, 7.442E+01, 1.632E+02, 2.280E+02, 7.272E+01,-5.375E+01, 1.458E-01, 3.603E-02, 2.010E+02
 1.020E+03, 1.506E+02, 1.560E+02, 1.580E+02, 2.182E+02, 7.577E+01, 1.650E+02, 2.302E+02, 7.297E+01,-5.008E+01, 1.456E-01, 3.614E-02, 2.012E+02
 1.030E+03, 1.531E+02, 1.528E+02, 1.586E+02, 2.242E+02, 7.648E+01, 1.614E+02, 2.240E+02, 7.306E+01,-5.045E+01, 1.451E-01, 3.641E-02, 2.044E+02
 1.040E+03, 1.522E+02, 1.542E+02, 1.579E+02, 2.234E+02, 7.525E+01, 1.602E+02, 2.281E+02, 7.416E+01,-6.291E+01, 1.448E-01, 3.657E-02, 1.965E+02
 1.050E+03, 1.511E+02, 1.564E+02, 1.581E+02, 2.205E+02, 7.484E+01, 1.616E+02, 2.320E+02, 7.539E+01,-5.373E+01, 1.447E-01, 3.662E-02, 1.998E+02
 1.060E+03, 1.500E+02, 1.549E+02, 1.585E+02, 2.170E+02, 7.447E+01, 1.590E+02, 2.310E+02, 7.459E+01,-5.113E+01, 1.445E-01, 3.674E-02, 2.005E+02
 1.070E+03, 1.507E+02, 1.548E+02, 1.572E+02, 2.190E+02, 7.600E+01, 1.621E+02, 2.281E+02, 7.404E+01,-6.181E+01, 1.444E-01, 3.679E-02, 1.932E+02
 1.080E+03, 1.509E+02, 1.545E+02, 1.576E+02, 2.190E+02, 7.609E+01, 1.618E+02, 2.271E+02, 7.453E+01,-6.121E+01, 1.441E-01, 3.697E-02, 1.962E+02
 1.090E+03, 1.527E+02, 1.554E+02, 1.604E+02, 2.214E+02, 7.637E+01, 1.622E+02, 2.286E+02, 7.558E+01,-4.368E+01, 1.436E-01, 3.726E-02, 2.084E+02
 1.100E+03, 1.537E+02, 1.544E+02, 1.607E+02, 2.246E+02, 7.569E+01, 1.639E+02, 2.243E+02, 7.517E+01,-5.641E+01, 1.436E-01, 3.723E-02, 1.975E+02
 1.110E+03, 1.543E+02, 1.573E+02, 1.617E+02, 2.250E+02, 7.618E+01, 1.668E+02, 2.301E+02, 7.491E+01,-5.569E+01, 1.432E-01, 3.748E-02, 1.978E+02
 1.120E+03, 1.546E+02, 1.579E+02, 1.605E+02, 2.261E+02, 7.728E+01, 1.635E+02, 2.351E+02, 7.505E+01,-4.777E+01, 1.430E-01, 3.758E-02, 2.059E+02
 1.130E+03, 1.527E+02, 1.591E+02, 1.604E+02, 2.207E+02, 7.704E+01, 1.639E+02, 2.371E+02, 7.622E+01,-6.411E+01, 1.428E-01, 3.770E-02, 1.893E+02
 1.140E+03, 1.521E+02, 1.584E+02, 1.595E+02, 2.206E+02, 7.621E+01, 1.642E+02, 2.352E+02, 7.565E+01,-5.198E+01, 1.428E-01, 3.769E-02, 2.010E+02
 1.150E+03, 1.556E+02, 1.578E+02, 1.625E+02, 2.268E+02, 7.738E+01, 1.653E+02, 2.317E+02, 7.648E+01,-4.847E+01, 1.424E-01, 3.793E-02, 2.065E+02
 1.160E+03, 1.559E+02, 1.581E+02, 1.621E+02, 2.289E+02, 7.666E+01, 1.669E+02, 2.301E+02, 7.727E+01,-6.520E+01, 1.423E-01, 3.799E-02, 1.990E+02
 1.170E+03, 1.546E+02, 1.565E+02, 1.634E+02, 2.233E+02, 7.708E+01, 1.647E+02, 2.276E+02, 7.715E+01,-5.264E+01, 1.421E-01, 3.806E-02, 2.015E+02
 1.180E+03, 1.556E+02, 1.581E+02, 1.633E+02, 2.257E+02, 7.787E+01, 1.687E+02, 2.300E+02, 7.570E+01,-5.957E+01, 1.421E-01, 3.808E-02, 1.967E+02
 1.190E+03, 1.545E+02, 1.596E+02, 1.621E+02, 2.228E+02, 7.852E+01, 1.667E+02, 2.358E+02, 7.632E+01,-5.125E+01, 1.417E-01, 3.831E-02, 2.006E+02
 1.200E+03, 1.552E+02, 1.598E+02, 1.633E+02, 2.241E+02, 7.817E+01, 1.664E+02, 2.365E+02, 7.649E+01,-5.475E+01, 1.417E-01, 3.827E-02, 2.000E+02
 1.210E+03, 1.565E+02, 1.576E+02, 1.637E+02, 2.274E+02, 7.841E+01, 1.658E+02, 2.301E+02, 7.703E+01,-6.497E+01, 1.415E-01, 3.838E-02, 1.954E+02
 1.220E+03, 1.551E+02, 1.598E+02, 1.625E+02, 2.249E+02, 7.780E+01, 1.667E+02, 2.356E+02, 7.704E+01,-4.951E+01, 1.413E-01, 3.851E-02, 2.005E+02
 1.230E+03, 1.553E+02, 1.595E+02, 1.626E+02, 2.249E+02, 7.829E+01, 1.645E+02, 2.364E+02, 7.768E+01,-5.207E+01, 1.413E-01, 3.851E-02, 1.997E+02
 1.240E+03, 1.539E+02, 1.602E+02, 1.614E+02, 2.208E+02, 7.941E+01, 1.690E+02, 2.334E+02, 7.811E+01,-5.166E+01, 1.413E-01, 3.853E-02, 1.969E+02
 1.250E+03, 1.563E+02, 1.602E+02, 1.628E+02, 2.263E+02, 7.984E+01, 1.701E+02, 2.316E+02, 7.896E+01,-4.781E+01, 1.410E-01, 3.866E-02, 2.022E+02
 1.260E+03, 1.573E+02, 1.585E+02, 1.631E+02, 2.286E+02, 8.013E+01, 1.662E+02, 2.305E+02, 7.889E+01,-5.453E+01, 1.410E-01, 3.869E-02, 2.009E+02
 1.270E+03, 1.578E+02, 1.574E+02, 1.645E+02, 2.276E+02, 8.129E+01, 1.642E+02, 2.286E+02, 7.932E+01,-6.034E+01, 1.409E-01, 3.877E-02, 1.962E+02
 1.280E+03, 1.580E+02, 1.601E+02, 1.626E+02, 2.308E+02, 8.052E+01, 1.658E+02, 2.342E+02, 8.013E+01,-5.393E+01, 1.406E-01, 3.891E-02, 2.018E+02
 1.290E+03, 1.577E+02, 1.618E+02, 1.657E+02, 2.269E+02, 8.038E+01, 1.652E+02, 2.408E+02, 7.929E+01,-5.264E+01, 1.406E-01, 3.893E-02, 2.020E+02
 1.300E+03, 1.577E+02, 1.595E+02, 1.646E+02, 2.275E+02, 8.112E+01, 1.692E+02, 2.302E+02, 7.908E+01,-5.354E+01, 1.405E-01, 3.896E-02, 1.996E+02
 1.310E+03, 1.577E+02, 1.605E+02, 1.639E+02, 2.278E+02, 8.146E+01, 1.676E+02, 2.341E+02, 7.990E+01,-5.465E+01, 1.403E-01, 3.906E-02, 1.980E+02
