s,C,C,C,C,C,C,C,C,Pa,mol/mol,mol/mol,kW
Time,"West_All_TCs","East_All_TCs","West_Bottom_TCs","West_Middle_TCs","West_Upper_TCs","East_Bottom_TCs","East_Middle_TCs","East_Upper_TCs","Pressure","O2","CO2","HRR"
-6.000E+01, 2.500E+01, 2.500E+01, 2.500E+01, 2.500E+01, 2.500E+01, 2.500E+01, 2.500E+01, 2.500E+01,-9.627E-06, 2.095E-01, 3.901E-04, 0.000E+00
-4.999E+01, 2.482E+01, 2.476E+01, 2.499E+01, 2.418E+01, 2.530E+01, 2.499E+01, 2.377E+01, 2.552E+01,-1.828E+01, 2.095E-01, 3.901E-04, 0.000E+00
-3.999E+01, 2.475E+01, 2.455E+01, 2.483E+01, 2.404E+01, 2.539E+01, 2.399E+01, 2.348E+01, 2.619E+01,-1.772E+01, 2.095E-01, 3.901E-04, 0.000E+00
-2.998E+01, 2.488E+01, 2.478E+01, 2.463E+01, 2.410E+01, 2.589E+01, 2.399E+01, 2.366E+01, 2.669E+01,-1.775E+01, 2.095E-01, 3.901E-04, 0.000E+00
-1.997E+01, 2.498E+01, 2.499E+01, 2.442E+01, 2.452E+01, 2.601E+01, 2.422E+01, 2.430E+01, 2.645E+01,-1.773E+01, 2.095E-01, 3.901E-04, 0.000E+00
-9.967E+00, 2.482E+01, 2.492E+01, 2.418E+01, 2.448E+01, 2.582E+01, 2.423E+01, 2.429E+01, 2.624E+01,-1.773E+01, 2.095E-01, 3.901E-04, 0.000E+00
 5.613E-02, 2.473E+01, 2.492E+01, 2.416E+01, 2.408E+01, 2.594E+01, 2.433E+01, 2.397E+01, 2.645E+01,-1.777E+01, 2.095E-01, 3.901E-04, 1.063E-03
 1.003E+01, 2.572E+01, 2.614E+01, 2.479E+01, 2.605E+01, 2.631E+01, 2.506E+01, 2.652E+01, 2.683E+01, 1.486E+00, 2.095E-01, 3.901E-04, 4.117E+01
 2.000E+01, 3.109E+01, 3.162E+01, 2.776E+01, 3.766E+01, 2.784E+01, 2.770E+01, 3.900E+01, 2.817E+01, 6.192E+01, 2.095E-01, 3.901E-04, 1.241E+02
 3.002E+01, 4.311E+01, 4.320E+01, 3.312E+01, 6.740E+01, 2.881E+01, 3.372E+01, 6.798E+01, 2.790E+01, 1.805E+02, 2.095E-01, 3.901E-04, 2.078E+02
 4.001E+01, 5.723E+01, 5.760E+01, 4.493E+01, 9.677E+01, 2.999E+01, 4.552E+01, 9.861E+01, 2.868E+01, 2.199E+02, 2.094E-01, 4.991E-04, 2.502E+02
 5.001E+01, 7.079E+01, 7.134E+01, 5.743E+01, 1.231E+02, 3.183E+01, 6.066E+01, 1.227E+02, 3.067E+01, 1.516E+02, 2.088E-01, 7.825E-04, 2.497E+02
 6.000E+01, 8.236E+01, 8.558E+01, 7.471E+01, 1.401E+02, 3.230E+01, 7.748E+01, 1.467E+02, 3.259E+01, 1.052E+02, 2.086E-01, 9.101E-04, 2.500E+02
 7.000E+01, 9.371E+01, 9.694E+01, 9.055E+01, 1.558E+02, 3.477E+01, 9.359E+01, 1.635E+02, 3.372E+01, 6.661E+01, 2.084E-01, 1.005E-03, 2.504E+02
 8.002E+01, 1.039E+02, 1.056E+02, 1.078E+02, 1.670E+02, 3.670E+01, 1.078E+02, 1.738E+02, 3.520E+01, 4.279E+01, 2.080E-01, 1.253E-03, 2.504E+02
 9.001E+01, 1.121E+02, 1.142E+02, 1.182E+02, 1.805E+02, 3.766E+01, 1.204E+02, 1.852E+02, 3.700E+01, 2.704E+01, 2.076E-01, 1.474E-03, 2.499E+02
 1.000E+02, 1.187E+02, 1.220E+02, 1.301E+02, 1.870E+02, 3.895E+01, 1.300E+02, 1.975E+02, 3.834E+01, 1.826E+01, 2.072E-01, 1.701E-03, 2.502E+02
 1.100E+02, 1.252E+02, 1.268E+02, 1.397E+02, 1.950E+02, 4.090E+01, 1.398E+02, 2.010E+02, 3.955E+01, 1.285E+01, 2.068E-01, 1.897E-03, 2.500E+02
 1.200E+02, 1.294E+02, 1.312E+02, 1.456E+02, 2.003E+02, 4.226E+01, 1.451E+02, 2.074E+02, 4.120E+01, 6.830E+00, 2.062E-01, 2.237E-03, 2.503E+02
 1.300E+02, 1.333E+02, 1.359E+02, 1.528E+02, 2.034E+02, 4.377E+01, 1.522E+02, 2.121E+02, 4.343E+01,-7.391E-01, 2.056E-01, 2.575E-03, 2.498E+02
 1.400E+02, 1.359E+02, 1.378E+02, 1.557E+02, 2.078E+02, 4.414E+01, 1.571E+02, 2.120E+02, 4.435E+01,-3.264E+00, 2.051E-01, 2.870E-03, 2.498E+02
 1.500E+02, 1.403E+02, 1.385E+02, 1.592E+02, 2.155E+02, 4.622E+01, 1.602E+02, 2.096E+02, 4.559E+01,-5.103E+00, 2.044E-01, 3.281E-03, 2.498E+02
 1.600E+02, 1.408E+02, 1.399E+02, 1.636E+02, 2.120E+02, 4.675E+01, 1.632E+02, 2.102E+02, 4.619E+01,-5.887E+00, 2.036E-01, 3.720E-03, 2.502E+02
 1.700E+02, 1.434E+02, 1.415E+02, 1.663E+02, 2.162E+02, 4.759E+01, 1.652E+02, 2.118E+02, 4.739E+01,-6.587E+00, 2.030E-01, 4.034E-03, 2.503E+02
 1.800E+02, 1.444E+02, 1.423E+02, 1.676E+02, 2.169E+02, 4.862E+01, 1.667E+02, 2.118E+02, 4.846E+01,-7.824E+00, 2.022E-01, 4.515E-03, 2.495E+02
 1.900E+02, 1.442E+02, 1.433E+02, 1.691E+02, 2.143E+02, 4.916E+01, 1.687E+02, 2.120E+02, 4.920E+01,-8.044E+00, 2.017E-01, 4.776E-03, 2.499E+02
 2.000E+02, 1.476E+02, 1.460E+02, 1.725E+02, 2.213E+02, 4.915E+01, 1.692E+02, 2.194E+02, 4.945E+01,-8.976E+00, 2.009E-01, 5.226E-03, 2.503E+02
 2.100E+02, 1.491E+02, 1.454E+02, 1.749E+02, 2.217E+02, 5.063E+01, 1.718E+02, 2.144E+02, 5.001E+01,-1.060E+01, 1.997E-01, 5.913E-03, 2.493E+02
 2.200E+02, 1.494E+02, 1.467E+02, 1.743E+02, 2.223E+02, 5.153E+01, 1.729E+02, 2.164E+02, 5.069E+01,-1.080E+01, 1.990E-01, 6.302E-03, 2.504E+02
 2.300E+02, 1.480E+02, 1.479E+02, 1.718E+02, 2.208E+02, 5.141E+01, 1.723E+02, 2.197E+02, 5.172E+01,-9.348E+00, 1.982E-01, 6.731E-03, 2.494E+02
 2.400E+02, 1.494E+02, 1.478E+02, 1.724E+02, 2.237E+02, 5.213E+01, 1.734E+02, 2.192E+02, 5.093E+01,-9.295E+00, 1.973E-01, 7.213E-03, 2.504E+02
 2.500E+02, 1.495E+02, 1.507E+02, 1.711E+02, 2.247E+02, 5.267E+01, 1.760E+02, 2.233E+02, 5.271E+01,-1.171E+01, 1.962E-01, 7.853E-03, 2.493E+02
 2.600E+02, 1.495E+02, 1.500E+02, 1.717E+02, 2.242E+02, 5.273E+01, 1.786E+02, 2.187E+02, 5.270E+01,-1.089E+01, 1.955E-01, 8.233E-03, 2.500E+02
 2.700E+02, 1.502E+02, 1.502E+02, 1.730E+02, 2.241E+02, 5.368E+01, 1.755E+02, 2.219E+02, 5.332E+01,-1.194E+01, 1.945E-01, 8.770E-03, 2.499E+02
 2.800E+02, 1.502E+02, 1.490E+02, 1.738E+02, 2.234E+02, 5.341E+01, 1.757E+02, 2.180E+02, 5.328E+01,-1.195E+01, 1.936E-01, 9.315E-03, 2.500E+02
 2.900E+02, 1.521E+02, 1.511E+02, 1.745E+02, 2.279E+02, 5.377E+01, 1.763E+02, 2.239E+02, 5.322E+01,-1.117E+01, 1.922E-01, 1.007E-02, 2.498E+02
 3.000E+02, 1.507E+02, 1.524E+02, 1.738E+02, 2.240E+02, 5.425E+01, 1.780E+02, 2.257E+02, 5.354E+01,-1.204E+01, 1.912E-01, 1.062E-02, 2.494E+02
 3.100E+02, 1.508E+02, 1.539E+02, 1.738E+02, 2.248E+02, 5.376E+01, 1.807E+02, 2.276E+02, 5.343E+01,-1.082E+01, 1.902E-01, 1.119E-02, 2.500E+02
 3.200E+02, 1.518E+02, 1.531E+02, 1.751E+02, 2.259E+02, 5.443E+01, 1.789E+02, 2.265E+02, 5.383E+01,-9.728E+00, 1.887E-01, 1.206E-02, 2.500E+02
 3.300E+02, 1.516E+02, 1.541E+02, 1.740E+02, 2.268E+02, 5.410E+01, 1.763E+02, 2.320E+02, 5.408E+01,-1.180E+01, 1.874E-01, 1.278E-02, 2.481E+02
 3.400E+02, 1.517E+02, 1.540E+02, 1.757E+02, 2.243E+02, 5.496E+01, 1.800E+02, 2.272E+02, 5.502E+01,-1.437E+01, 1.863E-01, 1.338E-02, 2.421E+02
 3.500E+02, 1.483E+02, 1.553E+02, 1.704E+02, 2.197E+02, 5.482E+01, 1.837E+02, 2.272E+02, 5.501E+01,-2.704E+01, 1.851E-01, 1.404E-02, 2.219E+02
 3.600E+02, 1.484E+02, 1.535E+02, 1.704E+02, 2.199E+02, 5.480E+01, 1.833E+02, 2.231E+02, 5.411E+01,-3.404E+01, 1.839E-01, 1.470E-02, 2.027E+02
 3.700E+02, 1.434E+02, 1.536E+02, 1.652E+02, 2.102E+02, 5.475E+01, 1.788E+02, 2.270E+02, 5.495E+01,-4.350E+01, 1.825E-01, 1.548E-02, 2.092E+02
 3.800E+02, 1.451E+02, 1.527E+02, 1.638E+02, 2.168E+02, 5.477E+01, 1.792E+02, 2.238E+02, 5.501E+01, 5.256E+01, 1.818E-01, 1.590E-02, 2.162E+02
 3.900E+02, 1.483E+02, 1.547E+02, 1.669E+02, 2.229E+02, 5.524E+01, 1.792E+02, 2.296E+02, 5.520E+01, 1.518E+01, 1.803E-01, 1.672E-02, 2.604E+02
 4.000E+02, 1.502E+02, 1.546E+02, 1.718E+02, 2.236E+02, 5.502E+01, 1.776E+02, 2.317E+02, 5.456E+01,-4.487E+01, 1.797E-01, 1.709E-02, 2.042E+02
 4.100E+02, 1.502E+02, 1.535E+02, 1.717E+02, 2.238E+02, 5.495E+01, 1.768E+02, 2.297E+02, 5.405E+01,-2.056E+01, 1.781E-01, 1.796E-02, 2.074E+02
 4.200E+02, 1.474E+02, 1.533E+02, 1.669E+02, 2.200E+02, 5.534E+01, 1.800E+02, 2.239E+02, 5.593E+01,-9.324E+00, 1.770E-01, 1.859E-02, 2.134E+02
 4.300E+02, 1.452E+02, 1.550E+02, 1.637E+02, 2.167E+02, 5.527E+01, 1.798E+02, 2.298E+02, 5.535E+01, 3.839E+01, 1.769E-01, 1.866E-02, 1.932E+02
 4.400E+02, 1.451E+02, 1.574E+02, 1.663E+02, 2.141E+02, 5.487E+01, 1.817E+02, 2.354E+02, 5.493E+01, 5.277E+01, 1.753E-01, 1.954E-02, 1.962E+02
 4.500E+02, 1.458E+02, 1.469E+02, 1.689E+02, 2.125E+02, 5.579E+01, 1.754E+02, 2.105E+02, 5.495E+01,-1.334E+02, 1.738E-01, 2.034E-02, 1.411E+02
 4.600E+02, 1.475E+02, 1.547E+02, 1.686E+02, 2.171E+02, 5.675E+01, 1.831E+02, 2.259E+02, 5.520E+01, 1.325E+02, 1.729E-01, 2.088E-02, 2.565E+02
 4.700E+02, 1.439E+02, 1.693E+02, 1.691E+02, 2.077E+02, 5.493E+01, 2.052E+02, 2.468E+02, 5.600E+01,-6.788E+01, 1.720E-01, 2.139E-02, 8.906E+01
 4.800E+02, 1.408E+02, 1.647E+02, 1.653E+02, 1.991E+02, 5.806E+01, 2.004E+02, 2.375E+02, 5.614E+01,-2.233E+01, 1.714E-01, 2.168E-02, 1.274E+01
 4.900E+02, 1.408E+02, 1.512E+02, 1.609E+02, 2.048E+02, 5.674E+01, 1.750E+02, 2.235E+02, 5.497E+01, 5.701E+00, 1.706E-01, 2.213E-02, 7.712E+01
 5.000E+02, 1.386E+02, 1.494E+02, 1.588E+02, 2.010E+02, 5.603E+01, 1.740E+02, 2.179E+02, 5.632E+01,-8.291E+01, 1.699E-01, 2.256E-02, 2.902E+00
 5.100E+02, 1.373E+02, 1.450E+02, 1.563E+02, 1.996E+02, 5.599E+01, 1.613E+02, 2.185E+02, 5.533E+01,-2.687E+01, 1.693E-01, 2.290E-02, 2.728E+00
 5.200E+02, 1.342E+02, 1.456E+02, 1.469E+02, 1.991E+02, 5.668E+01, 1.702E+02, 2.116E+02, 5.480E+01,-5.686E+01, 1.685E-01, 2.330E-02, 2.437E+00
 5.300E+02, 1.282E+02, 1.341E+02, 1.438E+02, 1.855E+02, 5.518E+01, 1.496E+02, 1.976E+02, 5.498E+01,-4.716E+01, 1.679E-01, 2.367E-02, 8.624E-01
 5.400E+02, 1.314E+02, 1.374E+02, 1.455E+02, 1.930E+02, 5.579E+01, 1.478E+02, 2.101E+02, 5.416E+01, 3.916E+01, 1.678E-01, 2.370E-02, 2.461E+00
 5.500E+02, 1.375E+02, 1.447E+02, 1.391E+02, 2.158E+02, 5.753E+01, 1.503E+02, 2.296E+02, 5.409E+01, 6.640E+01, 1.671E-01, 2.412E-02, 5.477E+00
 5.600E+02, 1.323E+02, 1.464E+02, 1.371E+02, 2.022E+02, 5.763E+01, 1.429E+02, 2.400E+02, 5.623E+01,-3.252E+01, 1.658E-01, 2.483E-02, 3.943E+00
 5.700E+02, 1.320E+02, 1.477E+02, 1.387E+02, 1.992E+02, 5.830E+01, 1.399E+02, 2.461E+02, 5.703E+01, 1.497E+01, 1.655E-01, 2.499E-02, 2.194E+00
 5.800E+02, 1.332E+02, 1.414E+02, 1.358E+02, 2.061E+02, 5.776E+01, 1.439E+02, 2.255E+02, 5.478E+01,-2.343E+01, 1.650E-01, 2.529E-02, 2.727E+00
 5.900E+02, 1.317E+02, 1.433E+02, 1.332E+02, 2.024E+02, 5.940E+01, 1.369E+02, 2.369E+02, 5.605E+01,-5.174E+01, 1.643E-01, 2.570E-02, 3.358E+00
 6.000E+02, 1.275E+02, 1.361E+02, 1.309E+02, 1.937E+02, 5.783E+01, 1.300E+02, 2.214E+02, 5.686E+01,-3.452E+01, 1.638E-01, 2.593E-02, 2.488E+00
 6.100E+02, 1.380E+02, 1.524E+02, 1.383E+02, 2.152E+02, 6.045E+01, 1.352E+02, 2.632E+02, 5.880E+01, 2.698E+02, 1.633E-01, 2.624E-02, 2.135E+00
 6.200E+02, 1.406E+02, 1.541E+02, 1.336E+02, 2.243E+02, 6.381E+01, 1.382E+02, 2.667E+02, 5.747E+01, 1.046E+00, 1.628E-01, 2.649E-02, 1.971E+00
 6.300E+02, 1.349E+02, 1.464E+02, 1.320E+02, 2.101E+02, 6.273E+01, 1.391E+02, 2.390E+02, 6.097E+01,-5.912E+01, 1.614E-01, 2.729E-02, 5.682E+00
 6.400E+02, 1.318E+02, 1.517E+02, 1.334E+02, 1.986E+02, 6.328E+01, 1.355E+02, 2.578E+02, 6.178E+01, 5.643E+01, 1.610E-01, 2.750E-02, 3.299E+00
 6.500E+02, 1.390E+02, 1.449E+02, 1.356E+02, 2.179E+02, 6.364E+01, 1.335E+02, 2.416E+02, 5.960E+01, 2.268E+01, 1.609E-01, 2.758E-02, 2.724E+00
 6.600E+02, 1.349E+02, 1.468E+02, 1.315E+02, 2.084E+02, 6.494E+01, 1.346E+02, 2.450E+02, 6.085E+01,-4.211E+01, 1.596E-01, 2.830E-02, 2.852E+00
 6.700E+02, 1.316E+02, 1.474E+02, 1.292E+02, 2.045E+02, 6.113E+01, 1.276E+02, 2.532E+02, 6.153E+01,-1.922E+01, 1.592E-01, 2.854E-02, 2.194E+00
 6.800E+02, 1.356E+02, 1.511E+02, 1.313E+02, 2.130E+02, 6.262E+01, 1.463E+02, 2.465E+02, 6.065E+01, 7.799E+01, 1.587E-01, 2.879E-02, 4.379E-01
 6.900E+02, 1.389E+02, 1.565E+02, 1.303E+02, 2.216E+02, 6.484E+01, 1.428E+02, 2.658E+02, 6.080E+01,-3.828E+00, 1.581E-01, 2.911E-02, 2.900E+00
 7.000E+02, 1.345E+02, 1.478E+02, 1.279E+02, 2.124E+02, 6.307E+01, 1.398E+02, 2.415E+02, 6.196E+01,-5.226E+01, 1.572E-01, 2.966E-02, 3.671E+00
 7.100E+02, 1.339E+02, 1.450E+02, 1.325E+02, 2.065E+02, 6.272E+01, 1.341E+02, 2.395E+02, 6.145E+01, 3.168E+01, 1.569E-01, 2.980E-02, 1.181E+00
 7.200E+02, 1.441E+02, 1.618E+02, 1.403E+02, 2.267E+02, 6.536E+01, 1.408E+02, 2.832E+02, 6.146E+01, 1.392E+02, 1.561E-01, 3.023E-02, 2.199E+00
 7.300E+02, 1.444E+02, 1.593E+02, 1.347E+02, 2.314E+02, 6.719E+01, 1.464E+02, 2.674E+02, 6.394E+01, 5.558E+00, 1.545E-01, 3.113E-02, 3.961E+00
 7.400E+02, 1.419E+02, 1.642E+02, 1.350E+02, 2.250E+02, 6.580E+01, 1.542E+02, 2.742E+02, 6.433E+01,-4.226E+01, 1.543E-01, 3.124E-02, 3.174E+00
 7.500E+02, 1.442E+02, 1.748E+02, 1.414E+02, 2.253E+02, 6.595E+01, 1.436E+02, 3.164E+02, 6.443E+01, 1.693E+02, 1.535E-01, 3.168E-02, 1.615E+00
 7.600E+02, 1.506E+02, 1.601E+02, 1.421E+02, 2.385E+02, 7.125E+01, 1.500E+02, 2.640E+02, 6.620E+01,-1.356E+01, 1.528E-01, 3.210E-02, 2.145E+00
 7.700E+02, 1.501E+02, 1.580E+02, 1.440E+02, 2.351E+02, 7.134E+01, 1.535E+02, 2.526E+02, 6.804E+01, 2.301E+01, 1.523E-01, 3.238E-02, 7.699E-01
 7.800E+02, 1.497E+02, 1.752E+02, 1.469E+02, 2.312E+02, 7.106E+01, 1.654E+02, 2.931E+02, 6.714E+01, 2.931E+00, 1.514E-01, 3.287E-02, 2.653E+00
 7.900E+02, 1.467E+02, 1.593E+02, 1.428E+02, 2.254E+02, 7.186E+01, 1.525E+02, 2.584E+02, 6.706E+01,-6.135E+01, 1.509E-01, 3.316E-02, 5.202E+00
 8.000E+02, 1.437E+02, 1.487E+02, 1.428E+02, 2.188E+02, 6.944E+01, 1.452E+02, 2.336E+02, 6.726E+01,-5.068E+01, 1.507E-01, 3.329E-02, 4.904E+00
 8.100E+02, 1.382E+02, 1.519E+02, 1.374E+02, 2.096E+02, 6.754E+01, 1.464E+02, 2.425E+02, 6.694E+01,-3.920E+01, 1.503E-01, 3.349E-02, 4.441E+00
 8.200E+02, 1.359E+02, 1.390E+02, 1.352E+02, 2.049E+02, 6.749E+01, 1.346E+02, 2.170E+02, 6.531E+01,-2.831E+01, 1.501E-01, 3.359E-02, 3.508E+00
 8.300E+02, 1.362E+02, 1.451E+02, 1.332E+02, 2.082E+02, 6.707E+01, 1.348E+02, 2.339E+02, 6.645E+01,-1.706E+01, 1.495E-01, 3.395E-02, 1.607E+00
 8.400E+02, 1.366E+02, 1.492E+02, 1.305E+02, 2.123E+02, 6.697E+01, 1.366E+02, 2.442E+02, 6.669E+01, 8.891E+00, 1.491E-01, 3.418E-02, 3.156E+00
 8.500E+02, 1.383E+02, 1.444E+02, 1.303E+02, 2.148E+02, 6.969E+01, 1.335E+02, 2.334E+02, 6.626E+01,-3.066E+01, 1.486E-01, 3.446E-02, 2.373E+00
 8.600E+02, 1.378E+02, 1.483E+02, 1.289E+02, 2.148E+02, 6.985E+01, 1.342E+02, 2.447E+02, 6.589E+01,-1.074E+01, 1.479E-01, 3.482E-02, 2.302E+00
 8.700E+02, 1.387E+02, 1.456E+02, 1.285E+02, 2.180E+02, 6.969E+01, 1.329E+02, 2.373E+02, 6.657E+01,-2.152E+01, 1.475E-01, 3.506E-02, 2.330E+00
 8.800E+02, 1.386E+02, 1.533E+02, 1.289E+02, 2.169E+02, 7.009E+01, 1.340E+02, 2.598E+02, 6.619E+01,-1.446E+00, 1.471E-01, 3.528E-02, 2.537E+00
 8.900E+02, 1.403E+02, 1.509E+02, 1.287E+02, 2.214E+02, 7.088E+01, 1.347E+02, 2.508E+02, 6.709E+01,-1.138E+01, 1.463E-01, 3.571E-02, 2.864E+00
 9.000E+02, 1.401E+02, 1.495E+02, 1.296E+02, 2.198E+02, 7.097E+01, 1.339E+02, 2.463E+02, 6.831E+01,-2.390E+01, 1.457E-01, 3.604E-02, 2.453E+00
 9.100E+02, 1.395E+02, 1.495E+02, 1.293E+02, 2.184E+02, 7.100E+01, 1.327E+02, 2.463E+02, 6.953E+01,-1.996E+01, 1.453E-01, 3.630E-02, 2.880E+00
 9.200E+02, 1.403E+02, 1.460E+02, 1.298E+02, 2.194E+02, 7.168E+01, 1.313E+02, 2.369E+02, 6.975E+01,-2.869E+01, 1.445E-01, 3.675E-02, 6.407E+00
 9.300E+02, 1.389E+02, 1.500E+02, 1.297E+02, 2.172E+02, 6.971E+01, 1.299E+02, 2.509E+02, 6.907E+01,-1.986E+01, 1.441E-01, 3.693E-02, 4.663E+00
 9.400E+02, 1.380E+02, 1.433E+02, 1.286E+02, 2.153E+02, 7.022E+01, 1.282E+02, 2.327E+02, 6.883E+01,-2.550E+01, 1.440E-01, 3.702E-02, 5.448E+00
 9.500E+02, 1.373E+02, 1.438E+02, 1.276E+02, 2.131E+02, 7.127E+01, 1.262E+02, 2.367E+02, 6.843E+01,-1.673E+01, 1.436E-01, 3.721E-02, 2.639E+00
 9.600E+02, 1.386E+02, 1.514E+02, 1.261E+02, 2.183E+02, 7.134E+01, 1.263E+02, 2.598E+02, 6.814E+01, 8.025E+00, 1.434E-01, 3.734E-02, 3.978E+00
 9.700E+02, 1.411E+02, 1.524E+02, 1.283E+02, 2.218E+02, 7.304E+01, 1.254E+02, 2.628E+02, 6.898E+01, 4.552E+00, 1.428E-01, 3.762E-02, 2.572E+00
 9.800E+02, 1.446E+02, 1.560E+02, 1.290E+02, 2.325E+02, 7.222E+01, 1.283E+02, 2.722E+02, 6.748E+01, 2.433E+01, 1.426E-01, 3.775E-02, 2.655E+00
 9.900E+02, 1.475E+02, 1.629E+02, 1.324E+02, 2.379E+02, 7.230E+01, 1.314E+02, 2.892E+02, 6.800E+01, 2.674E+01, 1.420E-01, 3.807E-02, 3.410E+00
 1.000E+03, 1.504E+02, 1.602E+02, 1.333E+02, 2.443E+02, 7.351E+01, 1.362E+02, 2.747E+02, 6.975E+01,-1.090E+00, 1.408E-01, 3.870E-02, 1.248E+00
