s,C,C,C,C,C,C,C,C,Pa,mol/mol,mol/mol,kW
Time,"West_All_TCs","East_All_TCs","West_Bottom_TCs","West_Middle_TCs","West_Upper_TCs","East_Bottom_TCs","East_Middle_TCs","East_Upper_TCs","Pressure","O2","CO2","HRR"
-6.000E+01, 2.300E+01, 2.300E+01, 2.300E+01, 2.300E+01, 2.300E+01, 2.300E+01, 2.300E+01, 2.300E+01,-9.697E-06, 2.095E-01, 3.901E-04, 0.000E+00
-4.999E+01, 2.300E+01, 2.300E+01, 2.300E+01, 2.300E+01, 2.300E+01, 2.300E+01, 2.300E+01, 2.300E+01,-7.020E-04, 2.095E-01, 3.901E-04, 0.000E+00
-3.999E+01, 2.300E+01, 2.300E+01, 2.300E+01, 2.300E+01, 2.300E+01, 2.300E+01, 2.300E+01, 2.300E+01,-3.313E-05, 2.095E-01, 3.901E-04, 0.000E+00
-2.998E+01, 2.300E+01, 2.300E+01, 2.300E+01, 2.300E+01, 2.300E+01, 2.300E+01, 2.300E+01, 2.300E+01,-2.979E-05, 2.095E-01, 3.901E-04, 0.000E+00
-1.997E+01, 2.300E+01, 2.300E+01, 2.300E+01, 2.300E+01, 2.300E+01, 2.300E+01, 2.300E+01, 2.300E+01,-3.147E-05, 2.095E-01, 3.901E-04, 0.000E+00
-9.967E+00, 2.300E+01, 2.300E+01, 2.300E+01, 2.300E+01, 2.300E+01, 2.300E+01, 2.300E+01, 2.300E+01,-3.352E-05, 2.095E-01, 3.901E-04, 0.000E+00
 3.957E-02, 2.300E+01, 2.300E+01, 2.300E+01, 2.300E+01, 2.300E+01, 2.300E+01, 2.300E+01, 2.300E+01,-2.941E-05, 2.095E-01, 3.901E-04, 7.030E-04
 1.000E+01, 2.383E+01, 2.434E+01, 2.349E+01, 2.318E+01, 2.481E+01, 2.379E+01, 2.323E+01, 2.601E+01, 1.557E+01, 2.093E-01, 5.425E-04, 3.333E+01
 2.000E+01, 2.746E+01, 2.853E+01, 2.466E+01, 2.486E+01, 3.285E+01, 2.588E+01, 2.475E+01, 3.495E+01, 8.869E+01, 2.084E-01, 1.032E-03, 9.931E+01
 3.001E+01, 3.610E+01, 3.667E+01, 2.635E+01, 3.265E+01, 4.928E+01, 2.837E+01, 3.192E+01, 4.972E+01, 2.124E+02, 2.067E-01, 1.999E-03, 1.660E+02
 4.001E+01, 4.779E+01, 4.915E+01, 2.992E+01, 4.727E+01, 6.619E+01, 3.188E+01, 4.778E+01, 6.778E+01, 2.843E+02, 2.050E-01, 2.955E-03, 2.006E+02
 5.001E+01, 6.029E+01, 6.303E+01, 3.604E+01, 6.514E+01, 7.967E+01, 3.835E+01, 6.553E+01, 8.520E+01, 2.399E+02, 2.033E-01, 3.873E-03, 2.008E+02
 6.000E+01, 7.288E+01, 7.453E+01, 4.587E+01, 8.016E+01, 9.261E+01, 4.801E+01, 7.998E+01, 9.561E+01, 1.958E+02, 2.018E-01, 4.727E-03, 2.007E+02
 7.001E+01, 8.369E+01, 8.469E+01, 5.799E+01, 9.186E+01, 1.012E+02, 5.941E+01, 8.979E+01, 1.049E+02, 1.537E+02, 2.003E-01, 5.551E-03, 2.007E+02
 8.002E+01, 9.425E+01, 9.479E+01, 6.895E+01, 1.012E+02, 1.126E+02, 6.940E+01, 1.000E+02, 1.149E+02, 1.177E+02, 1.992E-01, 6.191E-03, 2.013E+02
 9.002E+01, 1.036E+02, 1.033E+02, 7.864E+01, 1.105E+02, 1.218E+02, 7.945E+01, 1.069E+02, 1.234E+02, 8.727E+01, 1.979E-01, 6.898E-03, 2.009E+02
 1.000E+02, 1.108E+02, 1.111E+02, 8.711E+01, 1.172E+02, 1.281E+02, 8.691E+01, 1.151E+02, 1.312E+02, 6.448E+01, 1.959E-01, 8.025E-03, 2.004E+02
 1.100E+02, 1.161E+02, 1.176E+02, 9.068E+01, 1.213E+02, 1.363E+02, 9.482E+01, 1.221E+02, 1.358E+02, 4.954E+01, 1.947E-01, 8.684E-03, 2.008E+02
 1.200E+02, 1.210E+02, 1.237E+02, 9.809E+01, 1.270E+02, 1.379E+02, 9.889E+01, 1.291E+02, 1.432E+02, 3.858E+01, 1.933E-01, 9.491E-03, 2.010E+02
 1.300E+02, 1.271E+02, 1.274E+02, 1.038E+02, 1.331E+02, 1.445E+02, 1.029E+02, 1.304E+02, 1.490E+02, 2.927E+01, 1.917E-01, 1.035E-02, 2.004E+02
 1.400E+02, 1.289E+02, 1.296E+02, 1.048E+02, 1.349E+02, 1.469E+02, 1.076E+02, 1.333E+02, 1.480E+02, 2.303E+01, 1.905E-01, 1.102E-02, 2.007E+02
 1.500E+02, 1.321E+02, 1.335E+02, 1.112E+02, 1.361E+02, 1.490E+02, 1.107E+02, 1.377E+02, 1.519E+02, 2.067E+01, 1.889E-01, 1.193E-02, 2.010E+02
 1.600E+02, 1.353E+02, 1.355E+02, 1.115E+02, 1.420E+02, 1.523E+02, 1.140E+02, 1.400E+02, 1.526E+02, 1.812E+01, 1.880E-01, 1.243E-02, 2.006E+02
 1.700E+02, 1.365E+02, 1.369E+02, 1.164E+02, 1.410E+02, 1.520E+02, 1.143E+02, 1.404E+02, 1.561E+02, 1.578E+01, 1.864E-01, 1.334E-02, 2.007E+02
 1.800E+02, 1.401E+02, 1.372E+02, 1.174E+02, 1.480E+02, 1.550E+02, 1.158E+02, 1.401E+02, 1.557E+02, 1.581E+01, 1.855E-01, 1.382E-02, 2.015E+02
 1.900E+02, 1.420E+02, 1.390E+02, 1.177E+02, 1.526E+02, 1.557E+02, 1.182E+02, 1.424E+02, 1.564E+02, 1.433E+01, 1.838E-01, 1.475E-02, 1.999E+02
 2.000E+02, 1.422E+02, 1.390E+02, 1.221E+02, 1.490E+02, 1.555E+02, 1.175E+02, 1.422E+02, 1.573E+02, 1.394E+01, 1.822E-01, 1.569E-02, 2.007E+02
 2.100E+02, 1.426E+02, 1.394E+02, 1.242E+02, 1.481E+02, 1.553E+02, 1.185E+02, 1.425E+02, 1.571E+02, 1.408E+01, 1.810E-01, 1.634E-02, 1.989E+02
 2.200E+02, 1.413E+02, 1.395E+02, 1.258E+02, 1.444E+02, 1.538E+02, 1.176E+02, 1.423E+02, 1.585E+02, 1.344E+01, 1.787E-01, 1.760E-02, 2.011E+02
 2.300E+02, 1.442E+02, 1.417E+02, 1.269E+02, 1.471E+02, 1.587E+02, 1.198E+02, 1.448E+02, 1.606E+02, 1.369E+01, 1.776E-01, 1.825E-02, 2.006E+02
 2.400E+02, 1.430E+02, 1.418E+02, 1.247E+02, 1.472E+02, 1.570E+02, 1.187E+02, 1.433E+02, 1.634E+02, 1.301E+01, 1.757E-01, 1.928E-02, 1.996E+02
 2.500E+02, 1.423E+02, 1.416E+02, 1.251E+02, 1.464E+02, 1.554E+02, 1.213E+02, 1.426E+02, 1.609E+02, 1.338E+01, 1.744E-01, 2.002E-02, 2.000E+02
 2.600E+02, 1.431E+02, 1.437E+02, 1.259E+02, 1.471E+02, 1.563E+02, 1.205E+02, 1.464E+02, 1.643E+02, 1.369E+01, 1.724E-01, 2.117E-02, 2.000E+02
 2.700E+02, 1.418E+02, 1.444E+02, 1.270E+02, 1.438E+02, 1.546E+02, 1.225E+02, 1.472E+02, 1.635E+02, 1.365E+01, 1.712E-01, 2.181E-02, 2.000E+02
 2.800E+02, 1.430E+02, 1.449E+02, 1.264E+02, 1.448E+02, 1.576E+02, 1.220E+02, 1.472E+02, 1.655E+02, 1.305E+01, 1.692E-01, 2.291E-02, 1.998E+02
 2.900E+02, 1.439E+02, 1.452E+02, 1.280E+02, 1.469E+02, 1.569E+02, 1.208E+02, 1.464E+02, 1.684E+02, 1.308E+01, 1.676E-01, 2.383E-02, 2.000E+02
 3.000E+02, 1.458E+02, 1.438E+02, 1.317E+02, 1.498E+02, 1.560E+02, 1.195E+02, 1.441E+02, 1.676E+02, 1.346E+01, 1.663E-01, 2.453E-02, 2.001E+02
 3.100E+02, 1.469E+02, 1.431E+02, 1.337E+02, 1.514E+02, 1.556E+02, 1.182E+02, 1.426E+02, 1.686E+02, 1.311E+01, 1.646E-01, 2.548E-02, 1.986E+02
 3.200E+02, 1.452E+02, 1.437E+02, 1.318E+02, 1.512E+02, 1.528E+02, 1.156E+02, 1.416E+02, 1.739E+02, 1.300E+01, 1.628E-01, 2.649E-02, 1.998E+02
 3.300E+02, 1.468E+02, 1.464E+02, 1.374E+02, 1.474E+02, 1.554E+02, 1.189E+02, 1.464E+02, 1.740E+02, 1.373E+01, 1.608E-01, 2.765E-02, 2.001E+02
 3.400E+02, 1.474E+02, 1.472E+02, 1.376E+02, 1.462E+02, 1.585E+02, 1.252E+02, 1.481E+02, 1.682E+02, 1.305E+01, 1.599E-01, 2.812E-02, 1.998E+02
 3.500E+02, 1.476E+02, 1.469E+02, 1.352E+02, 1.489E+02, 1.588E+02, 1.276E+02, 1.472E+02, 1.660E+02, 1.398E+01, 1.588E-01, 2.875E-02, 2.006E+02
 3.600E+02, 1.468E+02, 1.467E+02, 1.326E+02, 1.518E+02, 1.561E+02, 1.259E+02, 1.471E+02, 1.672E+02, 1.323E+01, 1.569E-01, 2.980E-02, 2.000E+02
 3.700E+02, 1.502E+02, 1.449E+02, 1.370E+02, 1.523E+02, 1.613E+02, 1.234E+02, 1.472E+02, 1.642E+02, 1.392E+01, 1.560E-01, 3.033E-02, 1.992E+02
 3.800E+02, 1.485E+02, 1.461E+02, 1.312E+02, 1.514E+02, 1.628E+02, 1.281E+02, 1.489E+02, 1.614E+02, 1.349E+01, 1.543E-01, 3.124E-02, 1.994E+02
 3.900E+02, 1.481E+02, 1.461E+02, 1.274E+02, 1.531E+02, 1.638E+02, 1.267E+02, 1.504E+02, 1.610E+02, 1.360E+01, 1.528E-01, 3.212E-02, 1.989E+02
 4.000E+02, 1.477E+02, 1.477E+02, 1.267E+02, 1.518E+02, 1.647E+02, 1.316E+02, 1.502E+02, 1.613E+02, 1.396E+01, 1.509E-01, 3.313E-02, 2.008E+02
 4.100E+02, 1.486E+02, 1.469E+02, 1.284E+02, 1.534E+02, 1.639E+02, 1.289E+02, 1.506E+02, 1.612E+02, 1.322E+01, 1.496E-01, 3.391E-02, 1.995E+02
 4.200E+02, 1.478E+02, 1.501E+02, 1.287E+02, 1.534E+02, 1.613E+02, 1.314E+02, 1.553E+02, 1.637E+02, 1.401E+01, 1.477E-01, 3.496E-02, 2.005E+02
 4.300E+02, 1.495E+02, 1.501E+02, 1.284E+02, 1.536E+02, 1.664E+02, 1.316E+02, 1.544E+02, 1.642E+02, 1.327E+01, 1.461E-01, 3.584E-02, 2.002E+02
 4.400E+02, 1.494E+02, 1.507E+02, 1.278E+02, 1.516E+02, 1.686E+02, 1.327E+02, 1.552E+02, 1.643E+02, 1.342E+01, 1.440E-01, 3.704E-02, 1.990E+02
 4.500E+02, 1.499E+02, 1.512E+02, 1.293E+02, 1.536E+02, 1.666E+02, 1.332E+02, 1.564E+02, 1.640E+02, 1.425E+01, 1.427E-01, 3.773E-02, 2.007E+02
 4.600E+02, 1.494E+02, 1.519E+02, 1.288E+02, 1.543E+02, 1.652E+02, 1.322E+02, 1.564E+02, 1.673E+02, 1.349E+01, 1.410E-01, 3.869E-02, 1.995E+02
 4.700E+02, 1.485E+02, 1.514E+02, 1.285E+02, 1.515E+02, 1.656E+02, 1.314E+02, 1.572E+02, 1.654E+02, 1.411E+01, 1.392E-01, 3.970E-02, 2.007E+02
 4.800E+02, 1.493E+02, 1.511E+02, 1.291E+02, 1.521E+02, 1.668E+02, 1.319E+02, 1.551E+02, 1.664E+02, 1.401E+01, 1.374E-01, 4.071E-02, 2.007E+02
 4.900E+02, 1.499E+02, 1.509E+02, 1.290E+02, 1.528E+02, 1.680E+02, 1.324E+02, 1.559E+02, 1.644E+02, 1.366E+01, 1.357E-01, 4.164E-02, 2.002E+02
 5.000E+02, 1.489E+02, 1.512E+02, 1.294E+02, 1.516E+02, 1.656E+02, 1.327E+02, 1.559E+02, 1.649E+02, 5.937E+00, 1.342E-01, 4.249E-02, 1.801E+02
 5.100E+02, 1.485E+02, 1.489E+02, 1.298E+02, 1.520E+02, 1.635E+02, 1.305E+02, 1.513E+02, 1.650E+02, 9.048E+00, 1.332E-01, 4.303E-02, 1.793E+02
 5.200E+02, 1.449E+02, 1.477E+02, 1.278E+02, 1.475E+02, 1.595E+02, 1.289E+02, 1.519E+02, 1.622E+02, 3.236E-01, 1.316E-01, 4.391E-02, 1.760E+02
 5.300E+02, 1.437E+02, 1.476E+02, 1.273E+02, 1.476E+02, 1.562E+02, 1.293E+02, 1.507E+02, 1.626E+02, 6.231E+00, 1.304E-01, 4.456E-02, 1.688E+02
 5.400E+02, 1.435E+02, 1.467E+02, 1.277E+02, 1.483E+02, 1.543E+02, 1.282E+02, 1.501E+02, 1.618E+02, 2.257E+01, 1.301E-01, 4.471E-02, 1.909E+02
 5.500E+02, 1.418E+02, 1.447E+02, 1.253E+02, 1.457E+02, 1.544E+02, 1.249E+02, 1.479E+02, 1.613E+02, 1.600E+00, 1.295E-01, 4.500E-02, 1.627E+02
 5.600E+02, 1.452E+02, 1.438E+02, 1.296E+02, 1.485E+02, 1.575E+02, 1.246E+02, 1.475E+02, 1.592E+02,-2.669E+01, 1.291E-01, 4.528E-02, 1.412E+02
 5.700E+02, 1.418E+02, 1.428E+02, 1.259E+02, 1.469E+02, 1.528E+02, 1.244E+02, 1.459E+02, 1.581E+02, 3.231E+00, 1.280E-01, 4.582E-02, 1.482E+02
 5.800E+02, 1.411E+02, 1.388E+02, 1.267E+02, 1.450E+02, 1.518E+02, 1.225E+02, 1.408E+02, 1.531E+02, 2.329E+01, 1.280E-01, 4.584E-02, 1.763E+02
 5.900E+02, 1.370E+02, 1.376E+02, 1.220E+02, 1.396E+02, 1.494E+02, 1.214E+02, 1.392E+02, 1.521E+02,-7.901E+00, 1.273E-01, 4.616E-02, 1.309E+02
 6.000E+02, 1.352E+02, 1.364E+02, 1.194E+02, 1.386E+02, 1.476E+02, 1.210E+02, 1.391E+02, 1.489E+02, 4.563E+00, 1.270E-01, 4.633E-02, 1.288E+02
 6.100E+02, 1.345E+02, 1.332E+02, 1.211E+02, 1.385E+02, 1.439E+02, 1.198E+02, 1.342E+02, 1.457E+02,-1.778E+01, 1.271E-01, 4.624E-02, 1.037E+02
 6.200E+02, 1.285E+02, 1.283E+02, 1.178E+02, 1.328E+02, 1.349E+02, 1.175E+02, 1.296E+02, 1.377E+02,-3.068E+01, 1.281E-01, 4.559E-02, 5.438E+01
 6.300E+02, 1.245E+02, 1.238E+02, 1.148E+02, 1.263E+02, 1.324E+02, 1.159E+02, 1.239E+02, 1.318E+02,-1.652E+00, 1.300E-01, 4.443E-02, 7.604E+01
 6.400E+02, 1.185E+02, 1.262E+02, 1.100E+02, 1.207E+02, 1.247E+02, 1.201E+02, 1.291E+02, 1.294E+02,-2.401E+01, 1.302E-01, 4.436E-02, 2.352E+01
 6.500E+02, 1.146E+02, 1.211E+02, 1.070E+02, 1.164E+02, 1.205E+02, 1.217E+02, 1.191E+02, 1.226E+02,-8.794E+00, 1.311E-01, 4.380E-02, 1.444E+01
 6.600E+02, 1.121E+02, 1.227E+02, 1.054E+02, 1.140E+02, 1.167E+02, 1.216E+02, 1.235E+02, 1.229E+02,-8.562E+00, 1.306E-01, 4.392E-02, 1.524E+00
 6.700E+02, 1.083E+02, 1.171E+02, 1.029E+02, 1.100E+02, 1.119E+02, 1.141E+02, 1.186E+02, 1.186E+02,-3.842E+00, 1.317E-01, 4.317E-02, 4.447E+00
 6.800E+02, 1.062E+02, 1.063E+02, 1.024E+02, 1.067E+02, 1.095E+02, 9.935E+01, 1.065E+02, 1.130E+02, 2.531E-01, 1.324E-01, 4.290E-02, 0.000E+00
 6.900E+02, 1.041E+02, 1.021E+02, 9.930E+01, 1.059E+02, 1.071E+02, 9.367E+01, 1.029E+02, 1.097E+02, 6.603E-01, 1.313E-01, 4.340E-02, 0.000E+00
 7.000E+02, 1.002E+02, 1.040E+02, 9.408E+01, 1.021E+02, 1.045E+02, 9.791E+01, 1.051E+02, 1.088E+02,-4.319E-01, 1.317E-01, 4.324E-02, 0.000E+00
 7.100E+02, 9.836E+01, 9.812E+01, 9.269E+01, 1.000E+02, 1.024E+02, 8.928E+01, 9.995E+01, 1.051E+02, 1.898E+00, 1.323E-01, 4.289E-02, 0.000E+00
 7.200E+02, 9.762E+01, 9.495E+01, 9.164E+01, 9.956E+01, 1.017E+02, 8.535E+01, 9.610E+01, 1.034E+02, 1.848E+00, 1.319E-01, 4.290E-02, 0.000E+00
 7.300E+02, 9.493E+01, 9.409E+01, 8.877E+01, 9.704E+01, 9.897E+01, 8.590E+01, 9.421E+01, 1.022E+02, 1.156E+00, 1.317E-01, 4.300E-02, 0.000E+00
 7.400E+02, 9.240E+01, 9.276E+01, 8.442E+01, 9.552E+01, 9.727E+01, 8.732E+01, 9.292E+01, 9.804E+01, 2.113E+00, 1.323E-01, 4.281E-02, 0.000E+00
 7.500E+02, 9.090E+01, 8.939E+01, 8.498E+01, 9.312E+01, 9.461E+01, 8.114E+01, 9.063E+01, 9.641E+01, 4.112E+00, 1.322E-01, 4.266E-02, 0.000E+00
 7.600E+02, 9.065E+01, 8.802E+01, 8.467E+01, 9.237E+01, 9.490E+01, 7.983E+01, 8.894E+01, 9.528E+01, 5.120E+00, 1.317E-01, 4.291E-02, 0.000E+00
 7.700E+02, 8.879E+01, 8.825E+01, 8.190E+01, 9.152E+01, 9.297E+01, 8.164E+01, 8.809E+01, 9.502E+01, 4.754E+00, 1.320E-01, 4.260E-02, 0.000E+00
 7.800E+02, 8.713E+01, 8.640E+01, 8.174E+01, 8.893E+01, 9.072E+01, 7.935E+01, 8.644E+01, 9.341E+01, 5.107E+00, 1.319E-01, 4.259E-02, 0.000E+00
 7.900E+02, 8.680E+01, 8.477E+01, 8.284E+01, 8.815E+01, 8.940E+01, 7.738E+01, 8.593E+01, 9.102E+01, 4.318E+00, 1.314E-01, 4.263E-02, 0.000E+00
 8.000E+02, 8.522E+01, 8.384E+01, 8.138E+01, 8.640E+01, 8.789E+01, 7.718E+01, 8.470E+01, 8.964E+01, 4.088E+00, 1.316E-01, 4.243E-02, 0.000E+00
