s,C,C,C,C,C,C,C,C,Pa,mol/mol,mol/mol,kW
Time,"West_All_TCs","East_All_TCs","West_Bottom_TCs","West_Middle_TCs","West_Upper_TCs","East_Bottom_TCs","East_Middle_TCs","East_Upper_TCs","Pressure","O2","CO2","HRR"
-6.000E+01, 2.300E+01, 2.300E+01, 2.300E+01, 2.300E+01, 2.300E+01, 2.300E+01, 2.300E+01, 2.300E+01,-9.697E-06, 2.095E-01, 3.901E-04, 0.000E+00
-4.998E+01, 2.300E+01, 2.300E+01, 2.300E+01, 2.300E+01, 2.300E+01, 2.300E+01, 2.300E+01, 2.300E+01,-7.717E-05, 2.095E-01, 3.901E-04, 0.000E+00
-3.996E+01, 2.300E+01, 2.300E+01, 2.300E+01, 2.300E+01, 2.300E+01, 2.300E+01, 2.300E+01, 2.300E+01, 8.168E-06, 2.095E-01, 3.901E-04, 0.000E+00
-2.994E+01, 2.300E+01, 2.300E+01, 2.300E+01, 2.300E+01, 2.300E+01, 2.300E+01, 2.300E+01, 2.300E+01,-1.306E-05, 2.095E-01, 3.901E-04, 0.000E+00
-1.992E+01, 2.300E+01, 2.300E+01, 2.300E+01, 2.300E+01, 2.300E+01, 2.300E+01, 2.300E+01, 2.300E+01, 7.121E-06, 2.095E-01, 3.901E-04, 0.000E+00
-9.896E+00, 2.300E+01, 2.300E+01, 2.300E+01, 2.300E+01, 2.300E+01, 2.300E+01, 2.300E+01, 2.300E+01,-3.260E-06, 2.095E-01, 3.901E-04, 0.000E+00
 1.301E-02, 2.300E+01, 2.300E+01, 2.300E+01, 2.300E+01, 2.300E+01, 2.300E+01, 2.300E+01, 2.300E+01, 3.180E-06, 2.095E-01, 3.901E-04, 4.382E-04
 1.000E+01, 2.521E+01, 2.542E+01, 2.432E+01, 2.343E+01, 2.789E+01, 2.490E+01, 2.353E+01, 2.783E+01, 1.784E-02, 2.090E-01, 6.731E-04, 8.158E+01
 2.001E+01, 3.515E+01, 3.521E+01, 2.725E+01, 3.276E+01, 4.545E+01, 2.866E+01, 3.205E+01, 4.493E+01, 9.378E-01, 2.074E-01, 1.613E-03, 2.445E+02
 3.000E+01, 5.857E+01, 5.874E+01, 3.539E+01, 5.838E+01, 8.194E+01, 3.770E+01, 5.772E+01, 8.079E+01, 3.351E+00, 2.037E-01, 3.643E-03, 4.109E+02
 4.000E+01, 9.206E+01, 9.377E+01, 4.979E+01, 1.007E+02, 1.257E+02, 5.659E+01, 9.840E+01, 1.263E+02, 6.667E+00, 1.994E-01, 6.053E-03, 4.996E+02
 5.000E+01, 1.224E+02, 1.220E+02, 6.740E+01, 1.392E+02, 1.605E+02, 7.782E+01, 1.302E+02, 1.578E+02, 9.112E+00, 1.959E-01, 8.022E-03, 5.014E+02
 6.001E+01, 1.405E+02, 1.403E+02, 8.602E+01, 1.573E+02, 1.781E+02, 8.995E+01, 1.544E+02, 1.764E+02, 1.040E+01, 1.927E-01, 9.789E-03, 5.019E+02
 7.000E+01, 1.505E+02, 1.577E+02, 9.581E+01, 1.623E+02, 1.933E+02, 9.960E+01, 1.773E+02, 1.961E+02, 1.122E+01, 1.895E-01, 1.159E-02, 5.013E+02
 8.000E+01, 1.590E+02, 1.642E+02, 1.009E+02, 1.736E+02, 2.024E+02, 1.052E+02, 1.891E+02, 1.984E+02, 1.182E+01, 1.875E-01, 1.271E-02, 4.958E+02
 9.001E+01, 1.662E+02, 1.685E+02, 1.060E+02, 1.852E+02, 2.074E+02, 1.129E+02, 1.899E+02, 2.026E+02, 1.206E+01, 1.852E-01, 1.402E-02, 4.988E+02
 1.000E+02, 1.702E+02, 1.714E+02, 1.065E+02, 1.900E+02, 2.142E+02, 1.134E+02, 1.938E+02, 2.071E+02, 1.221E+01, 1.835E-01, 1.494E-02, 5.040E+02
 1.100E+02, 1.738E+02, 1.740E+02, 1.088E+02, 1.968E+02, 2.157E+02, 1.145E+02, 1.961E+02, 2.115E+02, 1.220E+01, 1.814E-01, 1.611E-02, 4.984E+02
 1.200E+02, 1.736E+02, 1.778E+02, 1.089E+02, 1.982E+02, 2.138E+02, 1.170E+02, 1.968E+02, 2.195E+02, 1.238E+01, 1.798E-01, 1.702E-02, 4.955E+02
 1.300E+02, 1.744E+02, 1.768E+02, 1.099E+02, 1.977E+02, 2.157E+02, 1.235E+02, 1.954E+02, 2.114E+02, 1.250E+01, 1.791E-01, 1.741E-02, 4.994E+02
 1.400E+02, 1.735E+02, 1.800E+02, 1.090E+02, 1.925E+02, 2.189E+02, 1.189E+02, 2.047E+02, 2.162E+02, 1.246E+01, 1.779E-01, 1.808E-02, 4.977E+02
 1.500E+02, 1.757E+02, 1.806E+02, 1.102E+02, 1.987E+02, 2.182E+02, 1.193E+02, 2.033E+02, 2.192E+02, 1.238E+01, 1.767E-01, 1.877E-02, 5.009E+02
 1.600E+02, 1.771E+02, 1.793E+02, 1.133E+02, 2.014E+02, 2.166E+02, 1.199E+02, 1.970E+02, 2.208E+02, 1.247E+01, 1.760E-01, 1.916E-02, 5.005E+02
 1.700E+02, 1.783E+02, 1.796E+02, 1.119E+02, 2.036E+02, 2.195E+02, 1.220E+02, 2.001E+02, 2.166E+02, 1.247E+01, 1.754E-01, 1.945E-02, 4.995E+02
 1.800E+02, 1.770E+02, 1.823E+02, 1.114E+02, 1.977E+02, 2.220E+02, 1.232E+02, 2.061E+02, 2.175E+02, 1.266E+01, 1.749E-01, 1.975E-02, 4.988E+02
 1.900E+02, 1.801E+02, 1.818E+02, 1.110E+02, 2.065E+02, 2.228E+02, 1.213E+02, 2.050E+02, 2.193E+02, 1.258E+01, 1.742E-01, 2.015E-02, 5.044E+02
 2.000E+02, 1.788E+02, 1.824E+02, 1.097E+02, 1.996E+02, 2.271E+02, 1.238E+02, 2.066E+02, 2.168E+02, 1.281E+01, 1.736E-01, 2.046E-02, 4.995E+02
 2.100E+02, 1.783E+02, 1.840E+02, 1.132E+02, 1.977E+02, 2.241E+02, 1.232E+02, 2.076E+02, 2.212E+02, 1.251E+01, 1.741E-01, 2.018E-02, 4.936E+02
 2.200E+02, 1.815E+02, 1.870E+02, 1.133E+02, 2.054E+02, 2.257E+02, 1.249E+02, 2.071E+02, 2.291E+02, 1.259E+01, 1.734E-01, 2.059E-02, 5.016E+02
 2.300E+02, 1.824E+02, 1.847E+02, 1.150E+02, 2.085E+02, 2.235E+02, 1.254E+02, 2.068E+02, 2.218E+02, 1.271E+01, 1.739E-01, 2.033E-02, 5.037E+02
 2.400E+02, 1.808E+02, 1.826E+02, 1.150E+02, 2.054E+02, 2.219E+02, 1.236E+02, 2.031E+02, 2.210E+02, 1.259E+01, 1.735E-01, 2.051E-02, 4.958E+02
 2.500E+02, 1.795E+02, 1.857E+02, 1.138E+02, 2.032E+02, 2.216E+02, 1.262E+02, 2.067E+02, 2.242E+02, 1.281E+01, 1.722E-01, 2.128E-02, 5.032E+02
 2.600E+02, 1.791E+02, 1.907E+02, 1.129E+02, 1.991E+02, 2.254E+02, 1.255E+02, 2.189E+02, 2.276E+02, 1.284E+01, 1.732E-01, 2.072E-02, 4.974E+02
 2.700E+02, 1.818E+02, 1.885E+02, 1.168E+02, 2.064E+02, 2.223E+02, 1.248E+02, 2.103E+02, 2.305E+02, 1.271E+01, 1.733E-01, 2.065E-02, 4.947E+02
 2.800E+02, 1.819E+02, 1.881E+02, 1.164E+02, 2.064E+02, 2.229E+02, 1.252E+02, 2.097E+02, 2.293E+02, 1.268E+01, 1.722E-01, 2.127E-02, 5.049E+02
 2.900E+02, 1.822E+02, 1.896E+02, 1.131E+02, 2.065E+02, 2.270E+02, 1.262E+02, 2.153E+02, 2.271E+02, 1.282E+01, 1.718E-01, 2.151E-02, 4.988E+02
 3.000E+02, 1.824E+02, 1.881E+02, 1.132E+02, 2.027E+02, 2.313E+02, 1.249E+02, 2.117E+02, 2.277E+02, 1.279E+01, 1.722E-01, 2.125E-02, 4.960E+02
 3.100E+02, 1.822E+02, 1.890E+02, 1.126E+02, 2.069E+02, 2.273E+02, 1.279E+02, 2.103E+02, 2.288E+02, 1.286E+01, 1.722E-01, 2.127E-02, 4.998E+02
 3.200E+02, 1.861E+02, 1.871E+02, 1.165E+02, 2.127E+02, 2.290E+02, 1.244E+02, 2.100E+02, 2.268E+02, 1.282E+01, 1.726E-01, 2.104E-02, 4.995E+02
 3.300E+02, 1.829E+02, 1.890E+02, 1.141E+02, 2.069E+02, 2.276E+02, 1.336E+02, 2.062E+02, 2.272E+02, 1.304E+01, 1.724E-01, 2.115E-02, 5.012E+02
 3.400E+02, 1.825E+02, 1.871E+02, 1.170E+02, 2.035E+02, 2.270E+02, 1.273E+02, 2.105E+02, 2.235E+02, 1.297E+01, 1.724E-01, 2.112E-02, 4.995E+02
 3.500E+02, 1.849E+02, 1.904E+02, 1.153E+02, 2.087E+02, 2.306E+02, 1.265E+02, 2.124E+02, 2.324E+02, 1.297E+01, 1.717E-01, 2.154E-02, 4.983E+02
 3.600E+02, 1.856E+02, 1.924E+02, 1.154E+02, 2.133E+02, 2.281E+02, 1.294E+02, 2.157E+02, 2.321E+02, 1.302E+01, 1.728E-01, 2.092E-02, 4.997E+02
 3.700E+02, 1.873E+02, 1.907E+02, 1.183E+02, 2.118E+02, 2.318E+02, 1.305E+02, 2.114E+02, 2.303E+02, 1.289E+01, 1.727E-01, 2.099E-02, 4.997E+02
 3.800E+02, 1.864E+02, 1.920E+02, 1.182E+02, 2.099E+02, 2.310E+02, 1.310E+02, 2.082E+02, 2.368E+02, 1.309E+01, 1.720E-01, 2.137E-02, 4.986E+02
 3.900E+02, 1.874E+02, 1.931E+02, 1.193E+02, 2.105E+02, 2.325E+02, 1.270E+02, 2.192E+02, 2.330E+02, 1.320E+01, 1.716E-01, 2.157E-02, 5.024E+02
 4.000E+02, 1.867E+02, 1.961E+02, 1.160E+02, 2.120E+02, 2.320E+02, 1.298E+02, 2.208E+02, 2.376E+02, 1.292E+01, 1.720E-01, 2.136E-02, 4.993E+02
 4.100E+02, 1.873E+02, 1.985E+02, 1.175E+02, 2.148E+02, 2.296E+02, 1.297E+02, 2.237E+02, 2.420E+02, 1.286E+01, 1.723E-01, 2.123E-02, 4.963E+02
 4.200E+02, 1.902E+02, 1.906E+02, 1.190E+02, 2.191E+02, 2.326E+02, 1.320E+02, 2.114E+02, 2.284E+02, 1.294E+01, 1.724E-01, 2.112E-02, 5.022E+02
 4.300E+02, 1.904E+02, 1.959E+02, 1.237E+02, 2.117E+02, 2.358E+02, 1.309E+02, 2.232E+02, 2.334E+02, 1.310E+01, 1.720E-01, 2.134E-02, 4.998E+02
 4.400E+02, 1.918E+02, 1.944E+02, 1.213E+02, 2.194E+02, 2.345E+02, 1.319E+02, 2.137E+02, 2.376E+02, 1.296E+01, 1.731E-01, 2.074E-02, 4.965E+02
 4.500E+02, 1.924E+02, 1.952E+02, 1.229E+02, 2.197E+02, 2.345E+02, 1.340E+02, 2.171E+02, 2.344E+02, 1.312E+01, 1.729E-01, 2.087E-02, 5.000E+02
 4.600E+02, 1.893E+02, 1.971E+02, 1.203E+02, 2.138E+02, 2.338E+02, 1.361E+02, 2.205E+02, 2.346E+02, 1.323E+01, 1.719E-01, 2.144E-02, 5.042E+02
 4.700E+02, 1.902E+02, 1.961E+02, 1.209E+02, 2.140E+02, 2.357E+02, 1.340E+02, 2.200E+02, 2.344E+02, 1.301E+01, 1.723E-01, 2.117E-02, 4.950E+02
 4.800E+02, 1.907E+02, 1.959E+02, 1.222E+02, 2.158E+02, 2.340E+02, 1.338E+02, 2.138E+02, 2.400E+02, 1.300E+01, 1.721E-01, 2.132E-02, 5.004E+02
 4.900E+02, 1.910E+02, 1.977E+02, 1.238E+02, 2.138E+02, 2.353E+02, 1.357E+02, 2.146E+02, 2.429E+02, 1.318E+01, 1.728E-01, 2.095E-02, 4.990E+02
 5.000E+02, 1.886E+02, 1.948E+02, 1.209E+02, 2.096E+02, 2.352E+02, 1.343E+02, 2.174E+02, 2.327E+02, 1.320E+01, 1.719E-01, 2.142E-02, 4.978E+02
 5.100E+02, 1.897E+02, 1.990E+02, 1.173E+02, 2.136E+02, 2.383E+02, 1.363E+02, 2.237E+02, 2.369E+02, 1.320E+01, 1.715E-01, 2.163E-02, 4.971E+02
 5.200E+02, 1.903E+02, 1.962E+02, 1.200E+02, 2.154E+02, 2.355E+02, 1.335E+02, 2.173E+02, 2.379E+02, 1.322E+01, 1.723E-01, 2.119E-02, 4.994E+02
 5.300E+02, 1.887E+02, 1.941E+02, 1.207E+02, 2.136E+02, 2.318E+02, 1.341E+02, 2.136E+02, 2.346E+02, 1.325E+01, 1.730E-01, 2.082E-02, 4.984E+02
 5.400E+02, 1.904E+02, 1.985E+02, 1.191E+02, 2.123E+02, 2.399E+02, 1.345E+02, 2.224E+02, 2.385E+02, 1.334E+01, 1.715E-01, 2.166E-02, 5.041E+02
 5.500E+02, 1.890E+02, 1.964E+02, 1.220E+02, 2.150E+02, 2.300E+02, 1.304E+02, 2.199E+02, 2.387E+02, 1.331E+01, 1.723E-01, 2.119E-02, 4.988E+02
 5.600E+02, 1.941E+02, 1.976E+02, 1.220E+02, 2.216E+02, 2.387E+02, 1.362E+02, 2.179E+02, 2.389E+02, 1.322E+01, 1.726E-01, 2.101E-02, 4.968E+02
 5.700E+02, 1.912E+02, 1.968E+02, 1.199E+02, 2.154E+02, 2.383E+02, 1.353E+02, 2.195E+02, 2.355E+02, 1.325E+01, 1.723E-01, 2.122E-02, 5.034E+02
 5.800E+02, 1.935E+02, 1.967E+02, 1.192E+02, 2.172E+02, 2.441E+02, 1.356E+02, 2.178E+02, 2.367E+02, 1.319E+01, 1.725E-01, 2.109E-02, 4.973E+02
 5.900E+02, 1.918E+02, 1.977E+02, 1.207E+02, 2.163E+02, 2.383E+02, 1.331E+02, 2.216E+02, 2.385E+02, 1.344E+01, 1.722E-01, 2.126E-02, 4.985E+02
 6.000E+02, 1.888E+02, 1.987E+02, 1.175E+02, 2.159E+02, 2.330E+02, 1.348E+02, 2.170E+02, 2.443E+02, 1.346E+01, 1.716E-01, 2.161E-02, 5.010E+02
 6.100E+02, 1.935E+02, 1.997E+02, 1.267E+02, 2.187E+02, 2.351E+02, 1.326E+02, 2.262E+02, 2.403E+02, 1.321E+01, 1.738E-01, 2.036E-02, 4.942E+02
 6.200E+02, 1.935E+02, 1.964E+02, 1.233E+02, 2.229E+02, 2.344E+02, 1.308E+02, 2.202E+02, 2.381E+02, 1.327E+01, 1.737E-01, 2.043E-02, 5.023E+02
 6.300E+02, 1.944E+02, 2.040E+02, 1.275E+02, 2.215E+02, 2.342E+02, 1.390E+02, 2.265E+02, 2.465E+02, 1.315E+01, 1.741E-01, 2.018E-02, 4.992E+02
 6.400E+02, 1.968E+02, 2.033E+02, 1.256E+02, 2.253E+02, 2.396E+02, 1.365E+02, 2.262E+02, 2.472E+02, 1.318E+01, 1.732E-01, 2.069E-02, 4.985E+02
 6.500E+02, 1.987E+02, 2.047E+02, 1.261E+02, 2.269E+02, 2.433E+02, 1.355E+02, 2.299E+02, 2.488E+02, 1.322E+01, 1.738E-01, 2.039E-02, 4.982E+02
 6.600E+02, 1.952E+02, 2.046E+02, 1.225E+02, 2.267E+02, 2.365E+02, 1.348E+02, 2.300E+02, 2.490E+02, 1.328E+01, 1.733E-01, 2.062E-02, 4.968E+02
 6.700E+02, 1.961E+02, 2.001E+02, 1.235E+02, 2.237E+02, 2.410E+02, 1.334E+02, 2.219E+02, 2.450E+02, 1.347E+01, 1.732E-01, 2.072E-02, 5.043E+02
 6.800E+02, 1.955E+02, 2.046E+02, 1.266E+02, 2.239E+02, 2.359E+02, 1.309E+02, 2.273E+02, 2.555E+02, 1.326E+01, 1.749E-01, 1.975E-02, 4.964E+02
 6.900E+02, 1.949E+02, 2.014E+02, 1.281E+02, 2.214E+02, 2.354E+02, 1.355E+02, 2.240E+02, 2.447E+02, 1.334E+01, 1.742E-01, 2.013E-02, 4.963E+02
 7.000E+02, 1.968E+02, 2.009E+02, 1.248E+02, 2.312E+02, 2.345E+02, 1.337E+02, 2.185E+02, 2.505E+02, 1.341E+01, 1.735E-01, 2.051E-02, 4.998E+02
 7.100E+02, 1.949E+02, 2.006E+02, 1.290E+02, 2.237E+02, 2.319E+02, 1.237E+02, 2.186E+02, 2.593E+02, 1.329E+01, 1.749E-01, 1.976E-02, 4.987E+02
 7.200E+02, 1.967E+02, 2.004E+02, 1.306E+02, 2.274E+02, 2.321E+02, 1.315E+02, 2.172E+02, 2.526E+02, 1.337E+01, 1.742E-01, 2.014E-02, 5.019E+02
 7.300E+02, 1.985E+02, 1.994E+02, 1.278E+02, 2.277E+02, 2.401E+02, 1.263E+02, 2.232E+02, 2.486E+02, 1.347E+01, 1.741E-01, 2.018E-02, 4.976E+02
 7.400E+02, 1.970E+02, 2.008E+02, 1.282E+02, 2.228E+02, 2.401E+02, 1.319E+02, 2.192E+02, 2.513E+02, 1.345E+01, 1.742E-01, 2.011E-02, 4.996E+02
 7.500E+02, 1.958E+02, 2.078E+02, 1.306E+02, 2.220E+02, 2.348E+02, 1.298E+02, 2.302E+02, 2.635E+02, 1.325E+01, 1.745E-01, 1.999E-02, 5.009E+02
 7.600E+02, 1.931E+02, 2.040E+02, 1.305E+02, 2.202E+02, 2.287E+02, 1.294E+02, 2.236E+02, 2.588E+02, 1.335E+01, 1.741E-01, 2.020E-02, 4.986E+02
 7.700E+02, 1.956E+02, 2.012E+02, 1.305E+02, 2.241E+02, 2.322E+02, 1.345E+02, 2.198E+02, 2.493E+02, 1.340E+01, 1.747E-01, 1.985E-02, 4.964E+02
 7.800E+02, 2.004E+02, 2.005E+02, 1.365E+02, 2.281E+02, 2.364E+02, 1.326E+02, 2.202E+02, 2.486E+02, 1.344E+01, 1.754E-01, 1.948E-02, 5.007E+02
 7.900E+02, 1.963E+02, 2.006E+02, 1.313E+02, 2.219E+02, 2.357E+02, 1.345E+02, 2.169E+02, 2.505E+02, 1.350E+01, 1.748E-01, 1.978E-02, 4.977E+02
 8.000E+02, 1.962E+02, 2.047E+02, 1.295E+02, 2.206E+02, 2.385E+02, 1.371E+02, 2.205E+02, 2.565E+02, 1.343E+01, 1.750E-01, 1.968E-02, 4.954E+02
 8.100E+02, 2.010E+02, 2.071E+02, 1.330E+02, 2.291E+02, 2.408E+02, 1.359E+02, 2.312E+02, 2.543E+02, 1.342E+01, 1.747E-01, 1.985E-02, 5.030E+02
 8.200E+02, 1.958E+02, 2.128E+02, 1.316E+02, 2.246E+02, 2.312E+02, 1.322E+02, 2.347E+02, 2.716E+02, 1.353E+01, 1.750E-01, 1.968E-02, 4.973E+02
 8.300E+02, 1.989E+02, 2.076E+02, 1.288E+02, 2.325E+02, 2.353E+02, 1.394E+02, 2.280E+02, 2.555E+02, 1.337E+01, 1.746E-01, 1.990E-02, 4.994E+02
 8.400E+02, 1.988E+02, 2.047E+02, 1.292E+02, 2.284E+02, 2.388E+02, 1.368E+02, 2.262E+02, 2.512E+02, 1.358E+01, 1.753E-01, 1.951E-02, 4.982E+02
 8.500E+02, 2.010E+02, 2.043E+02, 1.365E+02, 2.264E+02, 2.402E+02, 1.322E+02, 2.238E+02, 2.569E+02, 1.346E+01, 1.758E-01, 1.922E-02, 4.969E+02
 8.600E+02, 1.985E+02, 2.019E+02, 1.315E+02, 2.243E+02, 2.396E+02, 1.302E+02, 2.209E+02, 2.547E+02, 1.339E+01, 1.748E-01, 1.981E-02, 4.993E+02
 8.700E+02, 1.992E+02, 2.013E+02, 1.328E+02, 2.294E+02, 2.355E+02, 1.312E+02, 2.167E+02, 2.560E+02, 1.346E+01, 1.751E-01, 1.965E-02, 4.988E+02
 8.800E+02, 1.949E+02, 2.048E+02, 1.292E+02, 2.168E+02, 2.386E+02, 1.321E+02, 2.244E+02, 2.578E+02, 1.364E+01, 1.754E-01, 1.946E-02, 4.967E+02
 8.900E+02, 2.026E+02, 2.041E+02, 1.366E+02, 2.276E+02, 2.435E+02, 1.313E+02, 2.295E+02, 2.517E+02, 1.352E+01, 1.761E-01, 1.906E-02, 4.968E+02
 9.000E+02, 2.016E+02, 2.032E+02, 1.298E+02, 2.296E+02, 2.455E+02, 1.327E+02, 2.232E+02, 2.538E+02, 1.351E+01, 1.751E-01, 1.965E-02, 4.977E+02
 9.100E+02, 1.998E+02, 2.095E+02, 1.274E+02, 2.282E+02, 2.439E+02, 1.354E+02, 2.311E+02, 2.620E+02, 1.362E+01, 1.744E-01, 2.004E-02, 5.038E+02
 9.200E+02, 2.032E+02, 2.086E+02, 1.297E+02, 2.327E+02, 2.472E+02, 1.358E+02, 2.289E+02, 2.611E+02, 1.354E+01, 1.744E-01, 2.000E-02, 4.998E+02
 9.300E+02, 2.053E+02, 2.060E+02, 1.308E+02, 2.380E+02, 2.473E+02, 1.397E+02, 2.240E+02, 2.542E+02, 1.352E+01, 1.748E-01, 1.982E-02, 4.971E+02
 9.400E+02, 2.010E+02, 2.094E+02, 1.291E+02, 2.328E+02, 2.411E+02, 1.360E+02, 2.280E+02, 2.641E+02, 1.353E+01, 1.742E-01, 2.017E-02, 4.976E+02
 9.500E+02, 1.999E+02, 2.049E+02, 1.309E+02, 2.312E+02, 2.377E+02, 1.339E+02, 2.269E+02, 2.540E+02, 1.359E+01, 1.759E-01, 1.920E-02, 5.018E+02
 9.600E+02, 2.004E+02, 2.037E+02, 1.276E+02, 2.323E+02, 2.413E+02, 1.323E+02, 2.212E+02, 2.574E+02, 1.365E+01, 1.748E-01, 1.981E-02, 4.982E+02
 9.700E+02, 2.019E+02, 2.047E+02, 1.340E+02, 2.326E+02, 2.391E+02, 1.286E+02, 2.301E+02, 2.553E+02, 1.360E+01, 1.761E-01, 1.907E-02, 4.972E+02
 9.800E+02, 1.991E+02, 2.020E+02, 1.321E+02, 2.301E+02, 2.350E+02, 1.298E+02, 2.220E+02, 2.542E+02, 1.358E+01, 1.749E-01, 1.973E-02, 4.985E+02
 9.900E+02, 2.013E+02, 2.016E+02, 1.356E+02, 2.301E+02, 2.383E+02, 1.283E+02, 2.187E+02, 2.578E+02, 1.347E+01, 1.759E-01, 1.921E-02, 5.001E+02
 1.000E+03, 2.022E+02, 2.024E+02, 1.317E+02, 2.335E+02, 2.415E+02, 1.227E+02, 2.235E+02, 2.609E+02, 1.353E+01, 1.753E-01, 1.951E-02, 4.966E+02
 1.010E+03, 2.030E+02, 2.101E+02, 1.283E+02, 2.372E+02, 2.435E+02, 1.329E+02, 2.260E+02, 2.716E+02, 1.375E+01, 1.746E-01, 1.990E-02, 5.026E+02
 1.020E+03, 2.008E+02, 2.072E+02, 1.355E+02, 2.300E+02, 2.370E+02, 1.334E+02, 2.269E+02, 2.612E+02, 1.351E+01, 1.755E-01, 1.943E-02, 4.967E+02
 1.030E+03, 2.009E+02, 2.047E+02, 1.296E+02, 2.343E+02, 2.388E+02, 1.374E+02, 2.247E+02, 2.521E+02, 1.375E+01, 1.748E-01, 1.983E-02, 4.971E+02
 1.040E+03, 2.011E+02, 2.090E+02, 1.334E+02, 2.266E+02, 2.433E+02, 1.330E+02, 2.293E+02, 2.647E+02, 1.381E+01, 1.754E-01, 1.948E-02, 5.000E+02
 1.050E+03, 2.068E+02, 2.076E+02, 1.412E+02, 2.321E+02, 2.470E+02, 1.361E+02, 2.292E+02, 2.576E+02, 1.361E+01, 1.759E-01, 1.921E-02, 4.973E+02
 1.060E+03, 2.060E+02, 2.059E+02, 1.358E+02, 2.309E+02, 2.513E+02, 1.349E+02, 2.230E+02, 2.597E+02, 1.369E+01, 1.756E-01, 1.937E-02, 4.994E+02
 1.070E+03, 2.027E+02, 2.085E+02, 1.333E+02, 2.322E+02, 2.425E+02, 1.371E+02, 2.297E+02, 2.588E+02, 1.359E+01, 1.759E-01, 1.916E-02, 5.002E+02
 1.080E+03, 2.007E+02, 2.060E+02, 1.305E+02, 2.297E+02, 2.418E+02, 1.300E+02, 2.269E+02, 2.610E+02, 1.371E+01, 1.754E-01, 1.949E-02, 4.981E+02
 1.090E+03, 2.033E+02, 2.047E+02, 1.306E+02, 2.368E+02, 2.424E+02, 1.331E+02, 2.228E+02, 2.582E+02, 1.374E+01, 1.763E-01, 1.898E-02, 4.989E+02
 1.100E+03, 2.046E+02, 2.040E+02, 1.348E+02, 2.347E+02, 2.443E+02, 1.316E+02, 2.199E+02, 2.605E+02, 1.358E+01, 1.750E-01, 1.971E-02, 4.956E+02
 1.110E+03, 2.046E+02, 2.053E+02, 1.340E+02, 2.341E+02, 2.457E+02, 1.336E+02, 2.220E+02, 2.604E+02, 1.362E+01, 1.755E-01, 1.939E-02, 4.976E+02
 1.120E+03, 2.036E+02, 2.116E+02, 1.320E+02, 2.354E+02, 2.435E+02, 1.399E+02, 2.353E+02, 2.596E+02, 1.379E+01, 1.758E-01, 1.925E-02, 5.059E+02
 1.130E+03, 2.043E+02, 2.039E+02, 1.380E+02, 2.351E+02, 2.399E+02, 1.334E+02, 2.253E+02, 2.530E+02, 1.368E+01, 1.757E-01, 1.932E-02, 4.917E+02
 1.140E+03, 2.025E+02, 2.081E+02, 1.361E+02, 2.273E+02, 2.442E+02, 1.364E+02, 2.281E+02, 2.597E+02, 1.368E+01, 1.760E-01, 1.913E-02, 4.987E+02
 1.150E+03, 2.049E+02, 2.107E+02, 1.313E+02, 2.344E+02, 2.490E+02, 1.384E+02, 2.388E+02, 2.549E+02, 1.377E+01, 1.763E-01, 1.897E-02, 4.997E+02
 1.160E+03, 2.041E+02, 2.111E+02, 1.310E+02, 2.337E+02, 2.474E+02, 1.381E+02, 2.336E+02, 2.616E+02, 1.392E+01, 1.757E-01, 1.933E-02, 4.987E+02
 1.170E+03, 2.060E+02, 2.087E+02, 1.325E+02, 2.380E+02, 2.475E+02, 1.345E+02, 2.290E+02, 2.627E+02, 1.362E+01, 1.752E-01, 1.959E-02, 4.976E+02
 1.180E+03, 2.037E+02, 2.067E+02, 1.304E+02, 2.377E+02, 2.430E+02, 1.337E+02, 2.201E+02, 2.662E+02, 1.376E+01, 1.756E-01, 1.933E-02, 5.016E+02
 1.190E+03, 2.045E+02, 2.086E+02, 1.382E+02, 2.343E+02, 2.411E+02, 1.399E+02, 2.236E+02, 2.623E+02, 1.382E+01, 1.750E-01, 1.967E-02, 4.955E+02
 1.200E+03, 2.035E+02, 2.122E+02, 1.352E+02, 2.296E+02, 2.457E+02, 1.316E+02, 2.361E+02, 2.690E+02, 1.372E+01, 1.757E-01, 1.932E-02, 4.920E+02
 1.210E+03, 2.046E+02, 2.103E+02, 1.338E+02, 2.348E+02, 2.453E+02, 1.362E+02, 2.295E+02, 2.652E+02, 1.389E+01, 1.747E-01, 1.987E-02, 5.018E+02
 1.220E+03, 2.065E+02, 2.121E+02, 1.349E+02, 2.404E+02, 2.441E+02, 1.372E+02, 2.379E+02, 2.612E+02, 1.378E+01, 1.758E-01, 1.927E-02, 4.995E+02
 1.230E+03, 2.067E+02, 2.131E+02, 1.389E+02, 2.359E+02, 2.454E+02, 1.352E+02, 2.380E+02, 2.661E+02, 1.372E+01, 1.749E-01, 1.972E-02, 4.991E+02
 1.240E+03, 2.084E+02, 2.085E+02, 1.372E+02, 2.406E+02, 2.475E+02, 1.346E+02, 2.300E+02, 2.610E+02, 1.384E+01, 1.750E-01, 1.969E-02, 4.954E+02
 1.250E+03, 2.082E+02, 2.119E+02, 1.385E+02, 2.365E+02, 2.495E+02, 1.351E+02, 2.284E+02, 2.722E+02, 1.377E+01, 1.744E-01, 2.003E-02, 4.962E+02
 1.260E+03, 2.084E+02, 2.125E+02, 1.377E+02, 2.377E+02, 2.498E+02, 1.367E+02, 2.332E+02, 2.675E+02, 1.381E+01, 1.755E-01, 1.941E-02, 5.025E+02
 1.270E+03, 2.075E+02, 2.097E+02, 1.337E+02, 2.418E+02, 2.471E+02, 1.350E+02, 2.283E+02, 2.660E+02, 1.394E+01, 1.753E-01, 1.952E-02, 5.021E+02
 1.280E+03, 2.063E+02, 2.088E+02, 1.341E+02, 2.384E+02, 2.464E+02, 1.332E+02, 2.289E+02, 2.643E+02, 1.373E+01, 1.754E-01, 1.945E-02, 4.932E+02
 1.290E+03, 2.066E+02, 2.088E+02, 1.308E+02, 2.412E+02, 2.478E+02, 1.348E+02, 2.275E+02, 2.641E+02, 1.385E+01, 1.752E-01, 1.960E-02, 5.006E+02
 1.300E+03, 2.070E+02, 2.096E+02, 1.310E+02, 2.400E+02, 2.499E+02, 1.347E+02, 2.286E+02, 2.655E+02, 1.395E+01, 1.752E-01, 1.956E-02, 4.961E+02
 1.310E+03, 2.085E+02, 2.093E+02, 1.366E+02, 2.406E+02, 2.483E+02, 1.333E+02, 2.325E+02, 2.623E+02, 1.383E+01, 1.750E-01, 1.966E-02, 5.020E+02
