s,C,C,C,C,C,C,C,C,Pa,mol/mol,mol/mol,kW
Time,"West_All_TCs","East_All_TCs","West_Bottom_TCs","West_Middle_TCs","West_Upper_TCs","East_Bottom_TCs","East_Middle_TCs","East_Upper_TCs","Pressure","O2","CO2","HRR"
-6.000E+01, 3.100E+01, 3.100E+01, 3.100E+01, 3.100E+01, 3.100E+01, 3.100E+01, 3.100E+01, 3.100E+01,-9.418E-06, 2.095E-01, 3.901E-04, 0.000E+00
-4.999E+01, 3.100E+01, 3.100E+01, 3.100E+01, 3.100E+01, 3.100E+01, 3.100E+01, 3.100E+01, 3.100E+01,-6.786E-04, 2.095E-01, 3.901E-04, 0.000E+00
-3.999E+01, 3.100E+01, 3.100E+01, 3.100E+01, 3.100E+01, 3.100E+01, 3.100E+01, 3.100E+01, 3.100E+01,-3.316E-05, 2.095E-01, 3.901E-04, 0.000E+00
-2.998E+01, 3.100E+01, 3.100E+01, 3.100E+01, 3.100E+01, 3.100E+01, 3.100E+01, 3.100E+01, 3.100E+01,-2.909E-05, 2.095E-01, 3.901E-04, 0.000E+00
-1.997E+01, 3.100E+01, 3.100E+01, 3.100E+01, 3.100E+01, 3.100E+01, 3.100E+01, 3.100E+01, 3.100E+01,-3.007E-05, 2.095E-01, 3.901E-04, 0.000E+00
-9.967E+00, 3.100E+01, 3.100E+01, 3.100E+01, 3.100E+01, 3.100E+01, 3.100E+01, 3.100E+01, 3.100E+01,-3.161E-05, 2.095E-01, 3.901E-04, 0.000E+00
 3.957E-02, 3.100E+01, 3.100E+01, 3.100E+01, 3.100E+01, 3.100E+01, 3.100E+01, 3.100E+01, 3.100E+01,-2.696E-05, 2.095E-01, 3.901E-04, 7.030E-04
 1.001E+01, 3.205E+01, 3.233E+01, 3.148E+01, 3.117E+01, 3.351E+01, 3.179E+01, 3.123E+01, 3.399E+01, 1.560E+01, 2.093E-01, 5.347E-04, 3.330E+01
 2.002E+01, 3.550E+01, 3.653E+01, 3.267E+01, 3.292E+01, 4.092E+01, 3.390E+01, 3.348E+01, 4.220E+01, 8.829E+01, 2.084E-01, 1.007E-03, 9.935E+01
 3.002E+01, 4.464E+01, 4.576E+01, 3.438E+01, 4.147E+01, 5.808E+01, 3.659E+01, 4.075E+01, 5.993E+01, 2.105E+02, 2.067E-01, 1.985E-03, 1.660E+02
 4.001E+01, 5.681E+01, 5.718E+01, 3.765E+01, 5.710E+01, 7.569E+01, 4.013E+01, 5.505E+01, 7.637E+01, 2.775E+02, 2.050E-01, 2.932E-03, 2.004E+02
 5.000E+01, 6.845E+01, 7.078E+01, 4.484E+01, 7.186E+01, 8.866E+01, 4.651E+01, 7.481E+01, 9.101E+01, 2.315E+02, 2.035E-01, 3.780E-03, 2.008E+02
 6.001E+01, 8.112E+01, 8.353E+01, 5.442E+01, 8.858E+01, 1.003E+02, 5.681E+01, 8.875E+01, 1.050E+02, 1.817E+02, 2.016E-01, 4.847E-03, 2.009E+02
 7.002E+01, 9.227E+01, 9.343E+01, 6.660E+01, 9.964E+01, 1.106E+02, 6.801E+01, 9.788E+01, 1.144E+02, 1.427E+02, 2.005E-01, 5.459E-03, 2.014E+02
 8.001E+01, 1.021E+02, 1.040E+02, 7.527E+01, 1.097E+02, 1.212E+02, 7.920E+01, 1.088E+02, 1.240E+02, 1.037E+02, 1.990E-01, 6.290E-03, 2.006E+02
 9.002E+01, 1.103E+02, 1.118E+02, 8.588E+01, 1.169E+02, 1.281E+02, 8.693E+01, 1.161E+02, 1.322E+02, 7.760E+01, 1.973E-01, 7.214E-03, 2.003E+02
 1.000E+02, 1.171E+02, 1.197E+02, 9.373E+01, 1.228E+02, 1.349E+02, 9.538E+01, 1.240E+02, 1.398E+02, 5.938E+01, 1.955E-01, 8.217E-03, 2.008E+02
 1.100E+02, 1.225E+02, 1.237E+02, 9.976E+01, 1.281E+02, 1.398E+02, 1.036E+02, 1.263E+02, 1.413E+02, 4.450E+01, 1.949E-01, 8.564E-03, 2.009E+02
 1.200E+02, 1.286E+02, 1.287E+02, 1.064E+02, 1.341E+02, 1.453E+02, 1.079E+02, 1.328E+02, 1.452E+02, 3.348E+01, 1.935E-01, 9.374E-03, 2.006E+02
 1.300E+02, 1.311E+02, 1.335E+02, 1.107E+02, 1.363E+02, 1.464E+02, 1.129E+02, 1.369E+02, 1.506E+02, 2.673E+01, 1.919E-01, 1.023E-02, 2.008E+02
 1.400E+02, 1.361E+02, 1.365E+02, 1.141E+02, 1.415E+02, 1.526E+02, 1.163E+02, 1.397E+02, 1.537E+02, 2.216E+01, 1.906E-01, 1.099E-02, 2.005E+02
 1.500E+02, 1.383E+02, 1.404E+02, 1.175E+02, 1.433E+02, 1.540E+02, 1.190E+02, 1.430E+02, 1.591E+02, 1.849E+01, 1.885E-01, 1.217E-02, 2.008E+02
 1.600E+02, 1.422E+02, 1.437E+02, 1.208E+02, 1.469E+02, 1.588E+02, 1.219E+02, 1.479E+02, 1.613E+02, 1.636E+01, 1.870E-01, 1.302E-02, 2.004E+02
 1.700E+02, 1.452E+02, 1.447E+02, 1.226E+02, 1.489E+02, 1.642E+02, 1.246E+02, 1.470E+02, 1.626E+02, 1.515E+01, 1.857E-01, 1.373E-02, 2.009E+02
 1.800E+02, 1.464E+02, 1.469E+02, 1.249E+02, 1.502E+02, 1.639E+02, 1.258E+02, 1.482E+02, 1.667E+02, 1.380E+01, 1.837E-01, 1.482E-02, 2.012E+02
 1.900E+02, 1.456E+02, 1.490E+02, 1.257E+02, 1.493E+02, 1.618E+02, 1.275E+02, 1.508E+02, 1.686E+02, 1.366E+01, 1.823E-01, 1.564E-02, 2.004E+02
 2.000E+02, 1.466E+02, 1.513E+02, 1.271E+02, 1.534E+02, 1.593E+02, 1.290E+02, 1.517E+02, 1.731E+02, 1.374E+01, 1.806E-01, 1.654E-02, 2.007E+02
 2.100E+02, 1.476E+02, 1.499E+02, 1.287E+02, 1.514E+02, 1.626E+02, 1.307E+02, 1.507E+02, 1.684E+02, 1.314E+01, 1.793E-01, 1.728E-02, 2.004E+02
 2.200E+02, 1.488E+02, 1.525E+02, 1.304E+02, 1.535E+02, 1.626E+02, 1.327E+02, 1.521E+02, 1.727E+02, 1.385E+01, 1.772E-01, 1.844E-02, 2.011E+02
 2.300E+02, 1.514E+02, 1.529E+02, 1.331E+02, 1.556E+02, 1.655E+02, 1.343E+02, 1.518E+02, 1.726E+02, 1.302E+01, 1.762E-01, 1.904E-02, 2.002E+02
 2.400E+02, 1.505E+02, 1.538E+02, 1.328E+02, 1.546E+02, 1.640E+02, 1.362E+02, 1.547E+02, 1.706E+02, 1.253E+01, 1.745E-01, 1.994E-02, 2.000E+02
 2.500E+02, 1.518E+02, 1.542E+02, 1.316E+02, 1.568E+02, 1.670E+02, 1.358E+02, 1.564E+02, 1.706E+02, 1.318E+01, 1.734E-01, 2.059E-02, 2.008E+02
 2.600E+02, 1.520E+02, 1.540E+02, 1.309E+02, 1.581E+02, 1.670E+02, 1.339E+02, 1.597E+02, 1.686E+02, 1.259E+01, 1.715E-01, 2.162E-02, 2.002E+02
 2.700E+02, 1.503E+02, 1.539E+02, 1.307E+02, 1.542E+02, 1.660E+02, 1.341E+02, 1.562E+02, 1.714E+02, 1.252E+01, 1.694E-01, 2.282E-02, 1.999E+02
 2.800E+02, 1.537E+02, 1.515E+02, 1.342E+02, 1.594E+02, 1.675E+02, 1.341E+02, 1.539E+02, 1.666E+02, 1.293E+01, 1.683E-01, 2.345E-02, 1.996E+02
 2.900E+02, 1.550E+02, 1.511E+02, 1.368E+02, 1.588E+02, 1.695E+02, 1.332E+02, 1.539E+02, 1.662E+02, 1.242E+01, 1.670E-01, 2.415E-02, 2.005E+02
 3.000E+02, 1.584E+02, 1.515E+02, 1.384E+02, 1.624E+02, 1.744E+02, 1.337E+02, 1.546E+02, 1.663E+02, 1.254E+01, 1.658E-01, 2.482E-02, 1.989E+02
 3.100E+02, 1.537E+02, 1.523E+02, 1.334E+02, 1.580E+02, 1.699E+02, 1.342E+02, 1.534E+02, 1.694E+02, 1.331E+01, 1.638E-01, 2.595E-02, 2.012E+02
 3.200E+02, 1.554E+02, 1.521E+02, 1.362E+02, 1.588E+02, 1.713E+02, 1.338E+02, 1.559E+02, 1.667E+02, 1.270E+01, 1.627E-01, 2.654E-02, 1.998E+02
 3.300E+02, 1.541E+02, 1.522E+02, 1.339E+02, 1.566E+02, 1.719E+02, 1.356E+02, 1.549E+02, 1.661E+02, 1.294E+01, 1.608E-01, 2.765E-02, 2.000E+02
 3.400E+02, 1.555E+02, 1.563E+02, 1.365E+02, 1.617E+02, 1.683E+02, 1.363E+02, 1.613E+02, 1.712E+02, 1.266E+01, 1.588E-01, 2.876E-02, 2.009E+02
 3.500E+02, 1.538E+02, 1.569E+02, 1.346E+02, 1.582E+02, 1.686E+02, 1.370E+02, 1.613E+02, 1.725E+02, 1.249E+01, 1.573E-01, 2.959E-02, 2.002E+02
 3.600E+02, 1.539E+02, 1.577E+02, 1.338E+02, 1.572E+02, 1.705E+02, 1.367E+02, 1.628E+02, 1.736E+02, 1.288E+01, 1.551E-01, 3.080E-02, 2.005E+02
 3.700E+02, 1.539E+02, 1.570E+02, 1.336E+02, 1.559E+02, 1.721E+02, 1.352E+02, 1.632E+02, 1.725E+02, 1.299E+01, 1.537E-01, 3.161E-02, 2.000E+02
 3.800E+02, 1.549E+02, 1.559E+02, 1.358E+02, 1.587E+02, 1.702E+02, 1.375E+02, 1.587E+02, 1.714E+02, 1.270E+01, 1.521E-01, 3.250E-02, 1.998E+02
 3.900E+02, 1.529E+02, 1.573E+02, 1.348E+02, 1.557E+02, 1.681E+02, 1.389E+02, 1.609E+02, 1.720E+02, 1.268E+01, 1.503E-01, 3.347E-02, 1.993E+02
 4.000E+02, 1.545E+02, 1.569E+02, 1.357E+02, 1.570E+02, 1.707E+02, 1.368E+02, 1.591E+02, 1.749E+02, 1.334E+01, 1.484E-01, 3.457E-02, 2.010E+02
 4.100E+02, 1.547E+02, 1.569E+02, 1.359E+02, 1.575E+02, 1.707E+02, 1.380E+02, 1.598E+02, 1.728E+02, 1.312E+01, 1.472E-01, 3.521E-02, 1.997E+02
 4.200E+02, 1.559E+02, 1.569E+02, 1.372E+02, 1.594E+02, 1.711E+02, 1.395E+02, 1.591E+02, 1.720E+02, 1.338E+01, 1.450E-01, 3.643E-02, 2.003E+02
 4.300E+02, 1.565E+02, 1.555E+02, 1.396E+02, 1.598E+02, 1.702E+02, 1.382E+02, 1.580E+02, 1.704E+02, 1.312E+01, 1.438E-01, 3.711E-02, 2.009E+02
 4.400E+02, 1.556E+02, 1.545E+02, 1.393E+02, 1.578E+02, 1.698E+02, 1.370E+02, 1.568E+02, 1.697E+02, 1.298E+01, 1.427E-01, 3.775E-02, 1.998E+02
 4.500E+02, 1.571E+02, 1.559E+02, 1.405E+02, 1.600E+02, 1.707E+02, 1.375E+02, 1.585E+02, 1.717E+02, 1.250E+01, 1.407E-01, 3.887E-02, 2.004E+02
 4.600E+02, 1.569E+02, 1.569E+02, 1.380E+02, 1.584E+02, 1.742E+02, 1.376E+02, 1.598E+02, 1.735E+02, 1.305E+01, 1.391E-01, 3.974E-02, 2.005E+02
 4.700E+02, 1.582E+02, 1.567E+02, 1.383E+02, 1.617E+02, 1.745E+02, 1.368E+02, 1.585E+02, 1.748E+02, 1.336E+01, 1.369E-01, 4.099E-02, 1.986E+02
 4.800E+02, 1.571E+02, 1.553E+02, 1.392E+02, 1.587E+02, 1.732E+02, 1.375E+02, 1.571E+02, 1.712E+02, 1.311E+01, 1.355E-01, 4.179E-02, 1.987E+02
 4.900E+02, 1.572E+02, 1.557E+02, 1.392E+02, 1.599E+02, 1.724E+02, 1.386E+02, 1.575E+02, 1.711E+02, 9.200E+00, 1.340E-01, 4.258E-02, 1.879E+02
 5.000E+02, 1.570E+02, 1.572E+02, 1.378E+02, 1.610E+02, 1.721E+02, 1.414E+02, 1.600E+02, 1.702E+02, 1.217E+01, 1.324E-01, 4.348E-02, 1.885E+02
 5.100E+02, 1.542E+02, 1.555E+02, 1.353E+02, 1.571E+02, 1.702E+02, 1.386E+02, 1.611E+02, 1.669E+02,-2.640E+01, 1.312E-01, 4.414E-02, 1.477E+02
 5.200E+02, 1.519E+02, 1.532E+02, 1.328E+02, 1.561E+02, 1.670E+02, 1.368E+02, 1.579E+02, 1.650E+02, 2.685E+01, 1.304E-01, 4.458E-02, 1.929E+02
 5.300E+02, 1.501E+02, 1.500E+02, 1.312E+02, 1.529E+02, 1.662E+02, 1.355E+02, 1.536E+02, 1.609E+02,-2.747E+01, 1.294E-01, 4.509E-02, 1.307E+02
 5.400E+02, 1.482E+02, 1.513E+02, 1.293E+02, 1.521E+02, 1.632E+02, 1.367E+02, 1.552E+02, 1.620E+02, 2.001E+01, 1.291E-01, 4.528E-02, 1.713E+02
 5.500E+02, 1.462E+02, 1.495E+02, 1.285E+02, 1.497E+02, 1.604E+02, 1.315E+02, 1.533E+02, 1.638E+02, 1.062E+01, 1.280E-01, 4.583E-02, 1.433E+02
 5.600E+02, 1.440E+02, 1.492E+02, 1.291E+02, 1.473E+02, 1.555E+02, 1.315E+02, 1.528E+02, 1.633E+02, 2.485E+01, 1.279E-01, 4.587E-02, 1.602E+02
 5.700E+02, 1.408E+02, 1.520E+02, 1.277E+02, 1.450E+02, 1.498E+02, 1.401E+02, 1.532E+02, 1.628E+02,-2.234E+01, 1.279E-01, 4.578E-02, 1.021E+02
 5.800E+02, 1.368E+02, 1.676E+02, 1.255E+02, 1.398E+02, 1.451E+02, 1.865E+02, 1.638E+02, 1.526E+02,-2.692E+01, 1.293E-01, 4.495E-02, 6.443E+01
 5.900E+02, 1.328E+02, 1.459E+02, 1.235E+02, 1.356E+02, 1.393E+02, 1.374E+02, 1.432E+02, 1.572E+02,-1.526E+01, 1.307E-01, 4.414E-02, 2.206E+01
 6.000E+02, 1.314E+02, 1.453E+02, 1.255E+02, 1.320E+02, 1.367E+02, 1.388E+02, 1.480E+02, 1.492E+02,-2.164E+01, 1.297E-01, 4.465E-02, 3.338E+01
 6.100E+02, 1.265E+02, 1.394E+02, 1.211E+02, 1.285E+02, 1.298E+02, 1.452E+02, 1.394E+02, 1.336E+02,-1.216E+01, 1.310E-01, 4.381E-02, 1.704E+01
 6.200E+02, 1.229E+02, 1.249E+02, 1.181E+02, 1.238E+02, 1.269E+02, 1.186E+02, 1.243E+02, 1.319E+02,-7.898E+00, 1.321E-01, 4.311E-02, 1.410E-02
 6.300E+02, 1.207E+02, 1.182E+02, 1.159E+02, 1.227E+02, 1.234E+02, 1.122E+02, 1.179E+02, 1.244E+02,-3.263E+00, 1.313E-01, 4.364E-02, 0.000E+00
 6.400E+02, 1.142E+02, 1.314E+02, 1.081E+02, 1.166E+02, 1.179E+02, 1.438E+02, 1.287E+02, 1.216E+02,-3.589E+00, 1.325E-01, 4.282E-02, 6.747E-01
 6.500E+02, 1.110E+02, 1.223E+02, 1.078E+02, 1.118E+02, 1.135E+02, 1.268E+02, 1.192E+02, 1.209E+02,-7.245E-02, 1.329E-01, 4.266E-02, 0.000E+00
 6.600E+02, 1.101E+02, 1.097E+02, 1.066E+02, 1.105E+02, 1.130E+02, 1.032E+02, 1.094E+02, 1.164E+02, 3.164E-01, 1.321E-01, 4.294E-02, 0.000E+00
 6.700E+02, 1.074E+02, 1.059E+02, 1.007E+02, 1.094E+02, 1.121E+02, 9.857E+01, 1.067E+02, 1.126E+02, 2.322E+00, 1.325E-01, 4.277E-02, 0.000E+00
 6.800E+02, 1.041E+02, 1.053E+02, 9.896E+01, 1.058E+02, 1.076E+02, 9.862E+01, 1.065E+02, 1.108E+02, 2.127E+00, 1.328E-01, 4.262E-02, 0.000E+00
 6.900E+02, 1.017E+02, 1.023E+02, 9.622E+01, 1.037E+02, 1.053E+02, 9.611E+01, 1.028E+02, 1.080E+02, 3.469E+00, 1.327E-01, 4.251E-02, 0.000E+00
 7.000E+02, 1.011E+02, 9.905E+01, 9.701E+01, 1.023E+02, 1.038E+02, 9.122E+01, 1.007E+02, 1.052E+02, 3.310E+00, 1.329E-01, 4.239E-02, 0.000E+00
 7.100E+02, 9.798E+01, 9.787E+01, 9.289E+01, 9.985E+01, 1.012E+02, 9.184E+01, 9.807E+01, 1.037E+02, 3.538E+00, 1.325E-01, 4.251E-02, 0.000E+00
 7.200E+02, 9.710E+01, 9.597E+01, 9.332E+01, 9.834E+01, 9.964E+01, 8.922E+01, 9.745E+01, 1.013E+02, 3.891E+00, 1.326E-01, 4.236E-02, 0.000E+00
 7.300E+02, 9.565E+01, 9.414E+01, 9.239E+01, 9.648E+01, 9.807E+01, 8.815E+01, 9.428E+01, 9.999E+01, 4.335E+00, 1.327E-01, 4.228E-02, 0.000E+00
 7.400E+02, 9.364E+01, 9.371E+01, 8.978E+01, 9.484E+01, 9.631E+01, 8.820E+01, 9.449E+01, 9.844E+01, 4.515E+00, 1.325E-01, 4.225E-02, 0.000E+00
 7.500E+02, 9.252E+01, 9.165E+01, 8.874E+01, 9.372E+01, 9.511E+01, 8.669E+01, 9.147E+01, 9.678E+01, 4.620E+00, 1.326E-01, 4.226E-02, 0.000E+00
 7.600E+02, 9.111E+01, 9.060E+01, 8.841E+01, 9.170E+01, 9.323E+01, 8.555E+01, 9.121E+01, 9.503E+01, 3.711E+00, 1.325E-01, 4.209E-02, 0.000E+00
 7.700E+02, 8.971E+01, 8.915E+01, 8.696E+01, 9.030E+01, 9.186E+01, 8.325E+01, 8.985E+01, 9.435E+01, 5.208E+00, 1.324E-01, 4.207E-02, 0.000E+00
 7.800E+02, 8.848E+01, 8.811E+01, 8.529E+01, 8.911E+01, 9.104E+01, 8.284E+01, 8.884E+01, 9.265E+01, 4.120E+00, 1.324E-01, 4.210E-02, 0.000E+00
 7.900E+02, 8.710E+01, 8.627E+01, 8.374E+01, 8.791E+01, 8.967E+01, 8.146E+01, 8.564E+01, 9.170E+01, 3.746E+00, 1.321E-01, 4.196E-02, 0.000E+00
 8.000E+02, 8.628E+01, 8.595E+01, 8.332E+01, 8.705E+01, 8.845E+01, 8.168E+01, 8.560E+01, 9.058E+01, 2.618E+00, 1.322E-01, 4.197E-02, 0.000E+00
 8.100E+02, 8.567E+01, 8.487E+01, 8.326E+01, 8.623E+01, 8.752E+01, 7.945E+01, 8.546E+01, 8.969E+01, 4.664E+00, 1.323E-01, 4.193E-02, 0.000E+00
 8.200E+02, 8.462E+01, 8.386E+01, 8.185E+01, 8.545E+01, 8.654E+01, 7.871E+01, 8.436E+01, 8.850E+01, 3.316E+00, 1.321E-01, 4.183E-02, 0.000E+00
 8.300E+02, 8.318E+01, 8.250E+01, 8.011E+01, 8.417E+01, 8.526E+01, 7.839E+01, 8.222E+01, 8.688E+01, 4.274E+00, 1.322E-01, 4.179E-02, 0.000E+00
 8.400E+02, 8.249E+01, 8.200E+01, 8.002E+01, 8.322E+01, 8.424E+01, 7.822E+01, 8.167E+01, 8.612E+01, 4.207E+00, 1.320E-01, 4.174E-02, 0.000E+00
 8.500E+02, 8.221E+01, 8.120E+01, 7.999E+01, 8.262E+01, 8.401E+01, 7.678E+01, 8.138E+01, 8.544E+01, 3.691E+00, 1.319E-01, 4.163E-02, 0.000E+00
 8.600E+02, 8.082E+01, 8.005E+01, 7.783E+01, 8.191E+01, 8.273E+01, 7.555E+01, 8.043E+01, 8.417E+01, 4.359E+00, 1.320E-01, 4.162E-02, 0.000E+00
 8.700E+02, 8.026E+01, 7.947E+01, 7.806E+01, 8.073E+01, 8.199E+01, 7.543E+01, 7.940E+01, 8.358E+01, 3.444E+00, 1.320E-01, 4.160E-02, 0.000E+00
 8.800E+02, 7.969E+01, 7.853E+01, 7.763E+01, 8.023E+01, 8.121E+01, 7.420E+01, 7.874E+01, 8.265E+01, 4.158E+00, 1.321E-01, 4.153E-02, 0.000E+00
 8.900E+02, 7.862E+01, 7.796E+01, 7.636E+01, 7.911E+01, 8.038E+01, 7.465E+01, 7.739E+01, 8.185E+01, 4.555E+00, 1.318E-01, 4.148E-02, 0.000E+00
 9.000E+02, 7.883E+01, 7.735E+01, 7.698E+01, 7.937E+01, 8.013E+01, 7.299E+01, 7.790E+01, 8.117E+01, 4.539E+00, 1.317E-01, 4.137E-02, 0.000E+00
 9.100E+02, 7.735E+01, 7.652E+01, 7.528E+01, 7.805E+01, 7.874E+01, 7.271E+01, 7.647E+01, 8.039E+01, 4.565E+00, 1.317E-01, 4.143E-02, 0.000E+00
 9.200E+02, 7.677E+01, 7.608E+01, 7.470E+01, 7.758E+01, 7.802E+01, 7.246E+01, 7.585E+01, 7.992E+01, 4.318E+00, 1.317E-01, 4.128E-02, 0.000E+00
 9.300E+02, 7.592E+01, 7.539E+01, 7.326E+01, 7.688E+01, 7.762E+01, 7.235E+01, 7.489E+01, 7.893E+01, 4.271E+00, 1.316E-01, 4.123E-02, 0.000E+00
 9.400E+02, 7.586E+01, 7.434E+01, 7.396E+01, 7.654E+01, 7.708E+01, 7.164E+01, 7.352E+01, 7.787E+01, 4.322E+00, 1.315E-01, 4.123E-02, 0.000E+00
 9.500E+02, 7.506E+01, 7.390E+01, 7.305E+01, 7.581E+01, 7.632E+01, 7.052E+01, 7.337E+01, 7.783E+01, 4.329E+00, 1.314E-01, 4.108E-02, 0.000E+00
 9.600E+02, 7.436E+01, 7.348E+01, 7.233E+01, 7.506E+01, 7.571E+01, 7.062E+01, 7.265E+01, 7.718E+01, 4.126E+00, 1.314E-01, 4.108E-02, 0.000E+00
 9.700E+02, 7.391E+01, 7.271E+01, 7.234E+01, 7.441E+01, 7.498E+01, 6.952E+01, 7.217E+01, 7.645E+01, 4.651E+00, 1.314E-01, 4.101E-02, 0.000E+00
 9.800E+02, 7.315E+01, 7.269E+01, 7.139E+01, 7.371E+01, 7.436E+01, 6.932E+01, 7.269E+01, 7.606E+01, 3.747E+00, 1.314E-01, 4.100E-02, 0.000E+00
 9.900E+02, 7.256E+01, 7.150E+01, 7.040E+01, 7.318E+01, 7.410E+01, 6.949E+01, 7.066E+01, 7.434E+01, 4.038E+00, 1.312E-01, 4.086E-02, 0.000E+00
 1.000E+03, 7.170E+01, 7.128E+01, 6.956E+01, 7.255E+01, 7.298E+01, 6.906E+01, 7.067E+01, 7.412E+01, 4.163E+00, 1.310E-01, 4.074E-02, 0.000E+00
