s,C,C,C,C,C,C,C,C,Pa,mol/mol,mol/mol,kW
Time,"West_All_TCs","East_All_TCs","West_Bottom_TCs","West_Middle_TCs","West_Upper_TCs","East_Bottom_TCs","East_Middle_TCs","East_Upper_TCs","Pressure","O2","CO2","HRR"
-6.000E+01, 2.500E+01, 2.500E+01, 2.500E+01, 2.500E+01, 2.500E+01, 2.500E+01, 2.500E+01, 2.500E+01,-9.627E-06, 2.095E-01, 3.901E-04, 0.000E+00
-4.998E+01, 2.500E+01, 2.500E+01, 2.500E+01, 2.500E+01, 2.500E+01, 2.500E+01, 2.500E+01, 2.500E+01,-6.352E-04, 2.095E-01, 3.901E-04, 0.000E+00
-3.996E+01, 2.500E+01, 2.500E+01, 2.500E+01, 2.500E+01, 2.500E+01, 2.500E+01, 2.500E+01, 2.500E+01,-3.047E-05, 2.095E-01, 3.901E-04, 0.000E+00
-2.994E+01, 2.500E+01, 2.500E+01, 2.500E+01, 2.500E+01, 2.500E+01, 2.500E+01, 2.500E+01, 2.500E+01,-2.815E-05, 2.095E-01, 3.901E-04, 0.000E+00
-1.992E+01, 2.500E+01, 2.500E+01, 2.500E+01, 2.500E+01, 2.500E+01, 2.500E+01, 2.500E+01, 2.500E+01,-2.937E-05, 2.095E-01, 3.901E-04, 0.000E+00
-9.896E+00, 2.500E+01, 2.500E+01, 2.500E+01, 2.500E+01, 2.500E+01, 2.500E+01, 2.500E+01, 2.500E+01,-3.102E-05, 2.095E-01, 3.901E-04, 0.000E+00
 1.301E-02, 2.500E+01, 2.500E+01, 2.500E+01, 2.500E+01, 2.500E+01, 2.500E+01, 2.500E+01, 2.500E+01,-3.178E-05, 2.095E-01, 3.901E-04, 8.818E-05
 1.001E+01, 2.535E+01, 2.551E+01, 2.523E+01, 2.508E+01, 2.575E+01, 2.537E+01, 2.510E+01, 2.607E+01, 4.434E+00, 2.094E-01, 4.588E-04, 1.636E+01
 2.001E+01, 2.630E+01, 2.694E+01, 2.581E+01, 2.531E+01, 2.779E+01, 2.632E+01, 2.536E+01, 2.913E+01, 2.403E+01, 2.091E-01, 6.289E-04, 4.958E+01
 3.001E+01, 3.086E+01, 3.119E+01, 2.664E+01, 2.951E+01, 3.643E+01, 2.767E+01, 2.878E+01, 3.712E+01, 5.848E+01, 2.080E-01, 1.281E-03, 8.280E+01
 4.002E+01, 3.582E+01, 3.673E+01, 2.762E+01, 3.455E+01, 4.528E+01, 2.877E+01, 3.465E+01, 4.676E+01, 7.681E+01, 2.074E-01, 1.593E-03, 1.004E+02
 5.000E+01, 4.235E+01, 4.233E+01, 2.993E+01, 4.324E+01, 5.387E+01, 3.102E+01, 4.283E+01, 5.313E+01, 6.919E+01, 2.064E-01, 2.120E-03, 9.991E+01
 6.000E+01, 4.782E+01, 4.908E+01, 3.252E+01, 5.128E+01, 5.965E+01, 3.378E+01, 5.146E+01, 6.199E+01, 5.951E+01, 2.055E-01, 2.632E-03, 1.005E+02
 7.002E+01, 5.248E+01, 5.355E+01, 3.705E+01, 5.610E+01, 6.428E+01, 3.837E+01, 5.605E+01, 6.622E+01, 5.121E+01, 2.050E-01, 2.903E-03, 1.003E+02
 8.000E+01, 5.827E+01, 5.802E+01, 4.132E+01, 6.317E+01, 7.031E+01, 4.327E+01, 6.095E+01, 6.982E+01, 4.314E+01, 2.045E-01, 3.227E-03, 1.005E+02
 9.001E+01, 6.200E+01, 6.242E+01, 4.632E+01, 6.572E+01, 7.397E+01, 4.730E+01, 6.596E+01, 7.402E+01, 3.690E+01, 2.039E-01, 3.560E-03, 1.007E+02
 1.000E+02, 6.607E+01, 6.662E+01, 5.074E+01, 7.049E+01, 7.697E+01, 5.202E+01, 6.894E+01, 7.890E+01, 3.082E+01, 2.031E-01, 4.017E-03, 1.002E+02
 1.100E+02, 7.004E+01, 7.059E+01, 5.528E+01, 7.444E+01, 8.041E+01, 5.566E+01, 7.391E+01, 8.222E+01, 2.647E+01, 2.027E-01, 4.211E-03, 1.007E+02
 1.200E+02, 7.397E+01, 7.423E+01, 5.977E+01, 7.857E+01, 8.356E+01, 5.958E+01, 7.790E+01, 8.521E+01, 2.189E+01, 2.021E-01, 4.527E-03, 1.009E+02
 1.300E+02, 7.692E+01, 7.709E+01, 6.218E+01, 8.070E+01, 8.789E+01, 6.331E+01, 7.914E+01, 8.883E+01, 1.848E+01, 2.013E-01, 5.001E-03, 1.007E+02
 1.400E+02, 7.935E+01, 7.957E+01, 6.636E+01, 8.285E+01, 8.885E+01, 6.532E+01, 8.190E+01, 9.148E+01, 1.621E+01, 2.007E-01, 5.314E-03, 1.004E+02
 1.500E+02, 8.141E+01, 8.244E+01, 6.721E+01, 8.488E+01, 9.214E+01, 6.934E+01, 8.475E+01, 9.323E+01, 1.425E+01, 2.002E-01, 5.617E-03, 1.007E+02
 1.600E+02, 8.271E+01, 8.398E+01, 6.917E+01, 8.687E+01, 9.209E+01, 7.146E+01, 8.571E+01, 9.478E+01, 1.229E+01, 1.994E-01, 6.075E-03, 9.991E+01
 1.700E+02, 8.568E+01, 8.522E+01, 7.175E+01, 8.917E+01, 9.612E+01, 7.242E+01, 8.761E+01, 9.563E+01, 1.180E+01, 1.990E-01, 6.302E-03, 1.015E+02
 1.800E+02, 8.675E+01, 8.756E+01, 7.320E+01, 8.862E+01, 9.843E+01, 7.480E+01, 8.962E+01, 9.825E+01, 1.045E+01, 1.982E-01, 6.746E-03, 1.008E+02
 1.900E+02, 8.852E+01, 8.791E+01, 7.465E+01, 9.203E+01, 9.888E+01, 7.610E+01, 8.992E+01, 9.770E+01, 1.011E+01, 1.978E-01, 6.972E-03, 1.005E+02
 2.000E+02, 8.902E+01, 8.940E+01, 7.518E+01, 9.251E+01, 9.937E+01, 7.755E+01, 9.116E+01, 9.950E+01, 9.649E+00, 1.971E-01, 7.343E-03, 1.010E+02
 2.100E+02, 8.992E+01, 9.066E+01, 7.685E+01, 9.176E+01, 1.012E+02, 7.805E+01, 9.231E+01, 1.016E+02, 8.959E+00, 1.962E-01, 7.822E-03, 1.002E+02
 2.200E+02, 9.159E+01, 9.065E+01, 7.821E+01, 9.470E+01, 1.019E+02, 7.880E+01, 9.230E+01, 1.008E+02, 9.589E+00, 1.960E-01, 7.943E-03, 1.013E+02
 2.300E+02, 9.150E+01, 9.241E+01, 7.778E+01, 9.426E+01, 1.025E+02, 7.959E+01, 9.325E+01, 1.044E+02, 9.626E+00, 1.948E-01, 8.615E-03, 1.012E+02
 2.400E+02, 9.373E+01, 9.224E+01, 8.129E+01, 9.720E+01, 1.027E+02, 7.995E+01, 9.354E+01, 1.032E+02, 9.033E+00, 1.943E-01, 8.930E-03, 1.010E+02
 2.500E+02, 9.273E+01, 9.394E+01, 7.915E+01, 9.654E+01, 1.025E+02, 8.274E+01, 9.492E+01, 1.042E+02, 9.087E+00, 1.937E-01, 9.233E-03, 1.010E+02
 2.600E+02, 9.424E+01, 9.412E+01, 8.113E+01, 9.758E+01, 1.040E+02, 8.255E+01, 9.645E+01, 1.034E+02, 9.245E+00, 1.932E-01, 9.545E-03, 1.008E+02
 2.700E+02, 9.396E+01, 9.520E+01, 8.157E+01, 9.619E+01, 1.041E+02, 8.297E+01, 9.673E+01, 1.059E+02, 8.809E+00, 1.923E-01, 1.002E-02, 1.009E+02
 2.800E+02, 9.437E+01, 9.547E+01, 8.180E+01, 9.706E+01, 1.043E+02, 8.405E+01, 9.776E+01, 1.046E+02, 8.765E+00, 1.921E-01, 1.016E-02, 1.005E+02
 2.900E+02, 9.409E+01, 9.639E+01, 8.238E+01, 9.590E+01, 1.040E+02, 8.299E+01, 9.967E+01, 1.065E+02, 8.557E+00, 1.912E-01, 1.064E-02, 1.007E+02
 3.000E+02, 9.542E+01, 9.697E+01, 8.277E+01, 9.730E+01, 1.062E+02, 8.303E+01, 1.014E+02, 1.065E+02, 8.766E+00, 1.903E-01, 1.113E-02, 1.010E+02
 3.100E+02, 9.689E+01, 9.701E+01, 8.212E+01, 1.000E+02, 1.085E+02, 8.548E+01, 1.018E+02, 1.038E+02, 8.858E+00, 1.900E-01, 1.129E-02, 1.006E+02
 3.200E+02, 9.520E+01, 9.614E+01, 8.199E+01, 9.687E+01, 1.067E+02, 8.271E+01, 1.002E+02, 1.055E+02, 8.695E+00, 1.892E-01, 1.176E-02, 1.011E+02
 3.300E+02, 9.564E+01, 9.700E+01, 8.320E+01, 9.689E+01, 1.068E+02, 8.458E+01, 1.014E+02, 1.051E+02, 9.096E+00, 1.886E-01, 1.211E-02, 1.012E+02
 3.400E+02, 9.607E+01, 9.796E+01, 8.341E+01, 9.737E+01, 1.074E+02, 8.712E+01, 1.014E+02, 1.053E+02, 8.656E+00, 1.878E-01, 1.252E-02, 1.002E+02
 3.500E+02, 9.645E+01, 9.723E+01, 8.375E+01, 9.779E+01, 1.078E+02, 8.636E+01, 9.976E+01, 1.056E+02, 8.971E+00, 1.873E-01, 1.280E-02, 1.007E+02
 3.600E+02, 9.537E+01, 1.001E+02, 8.334E+01, 9.784E+01, 1.049E+02, 8.737E+01, 1.050E+02, 1.080E+02, 8.966E+00, 1.867E-01, 1.315E-02, 9.973E+01
 3.700E+02, 9.622E+01, 9.808E+01, 8.423E+01, 9.825E+01, 1.062E+02, 8.615E+01, 1.003E+02, 1.078E+02, 9.057E+00, 1.858E-01, 1.367E-02, 1.008E+02
 3.800E+02, 9.689E+01, 9.826E+01, 8.499E+01, 9.890E+01, 1.068E+02, 8.853E+01, 1.001E+02, 1.061E+02, 8.982E+00, 1.853E-01, 1.394E-02, 1.003E+02
 3.900E+02, 9.603E+01, 9.849E+01, 8.514E+01, 9.744E+01, 1.055E+02, 8.715E+01, 9.882E+01, 1.095E+02, 8.739E+00, 1.844E-01, 1.445E-02, 1.003E+02
 4.000E+02, 9.609E+01, 9.883E+01, 8.516E+01, 9.695E+01, 1.062E+02, 8.602E+01, 1.010E+02, 1.095E+02, 8.647E+00, 1.837E-01, 1.482E-02, 1.005E+02
 4.100E+02, 9.656E+01, 9.787E+01, 8.549E+01, 9.829E+01, 1.059E+02, 8.731E+01, 1.001E+02, 1.062E+02, 8.711E+00, 1.834E-01, 1.497E-02, 9.969E+01
 4.200E+02, 9.643E+01, 9.808E+01, 8.557E+01, 9.854E+01, 1.052E+02, 8.675E+01, 9.941E+01, 1.081E+02, 8.884E+00, 1.823E-01, 1.561E-02, 1.009E+02
 4.300E+02, 9.919E+01, 9.793E+01, 8.681E+01, 1.030E+02, 1.078E+02, 8.648E+01, 9.965E+01, 1.076E+02, 8.960E+00, 1.817E-01, 1.593E-02, 1.006E+02
 4.400E+02, 9.818E+01, 9.784E+01, 8.636E+01, 1.012E+02, 1.070E+02, 8.625E+01, 9.885E+01, 1.084E+02, 8.847E+00, 1.807E-01, 1.649E-02, 9.994E+01
 4.500E+02, 9.924E+01, 9.770E+01, 8.767E+01, 1.030E+02, 1.071E+02, 8.605E+01, 9.893E+01, 1.081E+02, 8.645E+00, 1.803E-01, 1.674E-02, 1.006E+02
 4.600E+02, 9.927E+01, 9.780E+01, 8.788E+01, 1.022E+02, 1.077E+02, 8.606E+01, 1.004E+02, 1.070E+02, 9.266E+00, 1.799E-01, 1.695E-02, 1.008E+02
 4.700E+02, 9.924E+01, 9.779E+01, 8.727E+01, 1.003E+02, 1.102E+02, 8.723E+01, 9.806E+01, 1.081E+02, 9.108E+00, 1.791E-01, 1.741E-02, 1.005E+02
 4.800E+02, 9.813E+01, 9.917E+01, 8.573E+01, 1.002E+02, 1.085E+02, 8.880E+01, 1.003E+02, 1.084E+02, 8.127E+00, 1.785E-01, 1.772E-02, 1.000E+02
 4.900E+02, 1.004E+02, 9.989E+01, 8.750E+01, 1.047E+02, 1.088E+02, 8.883E+01, 1.011E+02, 1.097E+02, 8.913E+00, 1.779E-01, 1.809E-02, 1.013E+02
 5.000E+02, 1.009E+02, 1.001E+02, 8.681E+01, 1.044E+02, 1.114E+02, 8.721E+01, 1.034E+02, 1.098E+02, 8.651E+00, 1.772E-01, 1.848E-02, 1.010E+02
 5.100E+02, 9.976E+01, 9.926E+01, 8.526E+01, 1.042E+02, 1.098E+02, 8.703E+01, 1.006E+02, 1.101E+02, 8.640E+00, 1.764E-01, 1.890E-02, 1.004E+02
 5.200E+02, 9.982E+01, 1.001E+02, 8.784E+01, 1.038E+02, 1.078E+02, 8.703E+01, 1.027E+02, 1.105E+02, 8.839E+00, 1.756E-01, 1.936E-02, 1.009E+02
 5.300E+02, 1.010E+02, 9.988E+01, 8.773E+01, 1.048E+02, 1.105E+02, 8.799E+01, 1.012E+02, 1.105E+02, 9.053E+00, 1.749E-01, 1.977E-02, 1.015E+02
 5.400E+02, 1.000E+02, 9.958E+01, 8.677E+01, 1.043E+02, 1.091E+02, 8.763E+01, 9.973E+01, 1.114E+02, 8.900E+00, 1.742E-01, 2.013E-02, 1.012E+02
 5.500E+02, 1.003E+02, 1.004E+02, 8.955E+01, 1.029E+02, 1.085E+02, 8.769E+01, 1.013E+02, 1.122E+02, 8.761E+00, 1.735E-01, 2.052E-02, 1.008E+02
 5.600E+02, 1.003E+02, 1.004E+02, 8.888E+01, 1.036E+02, 1.086E+02, 8.748E+01, 1.024E+02, 1.112E+02, 9.031E+00, 1.729E-01, 2.085E-02, 1.001E+02
 5.700E+02, 9.982E+01, 9.982E+01, 8.859E+01, 1.039E+02, 1.069E+02, 8.800E+01, 9.952E+01, 1.119E+02, 8.951E+00, 1.723E-01, 2.121E-02, 1.001E+02
 5.800E+02, 1.021E+02, 9.871E+01, 9.192E+01, 1.048E+02, 1.097E+02, 8.721E+01, 9.920E+01, 1.097E+02, 8.937E+00, 1.719E-01, 2.144E-02, 1.005E+02
 5.900E+02, 1.003E+02, 9.925E+01, 8.917E+01, 1.041E+02, 1.075E+02, 8.599E+01, 9.929E+01, 1.125E+02, 9.385E+00, 1.708E-01, 2.205E-02, 1.009E+02
 6.000E+02, 1.015E+02, 1.003E+02, 9.059E+01, 1.055E+02, 1.084E+02, 8.771E+01, 1.013E+02, 1.120E+02, 9.398E+00, 1.702E-01, 2.238E-02, 1.002E+02
 6.100E+02, 1.011E+02, 9.892E+01, 8.986E+01, 1.039E+02, 1.095E+02, 8.593E+01, 1.010E+02, 1.098E+02, 9.310E+00, 1.697E-01, 2.267E-02, 1.003E+02
 6.200E+02, 1.030E+02, 9.936E+01, 9.188E+01, 1.062E+02, 1.109E+02, 8.784E+01, 1.014E+02, 1.089E+02, 9.112E+00, 1.693E-01, 2.286E-02, 1.007E+02
 6.300E+02, 1.043E+02, 9.946E+01, 9.109E+01, 1.076E+02, 1.141E+02, 9.035E+01, 1.003E+02, 1.077E+02, 9.536E+00, 1.687E-01, 2.321E-02, 1.001E+02
 6.400E+02, 9.992E+01, 1.009E+02, 8.833E+01, 1.008E+02, 1.106E+02, 9.196E+01, 1.025E+02, 1.082E+02, 8.664E+00, 1.678E-01, 2.372E-02, 9.971E+01
 6.500E+02, 1.008E+02, 1.018E+02, 8.836E+01, 1.024E+02, 1.116E+02, 9.237E+01, 1.056E+02, 1.076E+02, 9.125E+00, 1.674E-01, 2.396E-02, 1.002E+02
 6.600E+02, 1.016E+02, 1.026E+02, 8.896E+01, 1.027E+02, 1.131E+02, 9.128E+01, 1.064E+02, 1.101E+02, 9.082E+00, 1.663E-01, 2.457E-02, 1.007E+02
 6.700E+02, 1.011E+02, 1.023E+02, 8.883E+01, 1.010E+02, 1.135E+02, 9.092E+01, 1.068E+02, 1.093E+02, 9.466E+00, 1.658E-01, 2.485E-02, 1.008E+02
 6.800E+02, 1.007E+02, 1.029E+02, 8.813E+01, 1.010E+02, 1.130E+02, 9.279E+01, 1.066E+02, 1.093E+02, 9.036E+00, 1.650E-01, 2.527E-02, 1.001E+02
 6.900E+02, 1.007E+02, 1.020E+02, 8.791E+01, 1.019E+02, 1.122E+02, 9.149E+01, 1.049E+02, 1.097E+02, 9.746E+00, 1.643E-01, 2.566E-02, 9.936E+01
 7.000E+02, 1.002E+02, 1.038E+02, 8.813E+01, 1.019E+02, 1.106E+02, 9.494E+01, 1.050E+02, 1.114E+02, 9.205E+00, 1.634E-01, 2.618E-02, 9.959E+01
 7.100E+02, 9.999E+01, 1.032E+02, 8.918E+01, 1.022E+02, 1.086E+02, 9.266E+01, 1.051E+02, 1.118E+02, 9.557E+00, 1.626E-01, 2.661E-02, 1.008E+02
 7.200E+02, 1.013E+02, 1.022E+02, 9.030E+01, 1.038E+02, 1.099E+02, 9.013E+01, 1.045E+02, 1.121E+02, 9.238E+00, 1.618E-01, 2.707E-02, 1.010E+02
 7.300E+02, 1.008E+02, 1.054E+02, 8.991E+01, 1.034E+02, 1.091E+02, 9.256E+01, 1.083E+02, 1.153E+02, 9.486E+00, 1.611E-01, 2.745E-02, 1.000E+02
 7.400E+02, 1.018E+02, 1.025E+02, 9.101E+01, 1.039E+02, 1.105E+02, 9.126E+01, 1.034E+02, 1.128E+02, 8.839E+00, 1.606E-01, 2.774E-02, 1.003E+02
 7.500E+02, 1.029E+02, 1.016E+02, 9.233E+01, 1.061E+02, 1.104E+02, 9.063E+01, 1.028E+02, 1.114E+02, 9.574E+00, 1.599E-01, 2.815E-02, 9.981E+01
 7.600E+02, 1.034E+02, 1.017E+02, 9.477E+01, 1.055E+02, 1.100E+02, 9.036E+01, 1.024E+02, 1.123E+02, 8.857E+00, 1.592E-01, 2.849E-02, 1.001E+02
 7.700E+02, 1.034E+02, 1.021E+02, 9.142E+01, 1.067E+02, 1.121E+02, 9.143E+01, 1.030E+02, 1.119E+02, 9.289E+00, 1.585E-01, 2.893E-02, 1.005E+02
 7.800E+02, 1.047E+02, 1.012E+02, 9.108E+01, 1.088E+02, 1.142E+02, 9.038E+01, 1.025E+02, 1.106E+02, 9.337E+00, 1.582E-01, 2.908E-02, 1.002E+02
 7.900E+02, 1.040E+02, 1.020E+02, 9.227E+01, 1.069E+02, 1.127E+02, 9.082E+01, 1.038E+02, 1.113E+02, 9.545E+00, 1.576E-01, 2.940E-02, 9.959E+01
 8.000E+02, 1.042E+02, 1.017E+02, 9.212E+01, 1.070E+02, 1.133E+02, 9.106E+01, 1.032E+02, 1.108E+02, 9.864E+00, 1.571E-01, 2.969E-02, 1.006E+02
 8.100E+02, 1.040E+02, 1.018E+02, 9.083E+01, 1.078E+02, 1.133E+02, 9.175E+01, 1.030E+02, 1.107E+02, 8.944E+00, 1.562E-01, 3.018E-02, 9.957E+01
 8.200E+02, 1.035E+02, 1.025E+02, 9.138E+01, 1.071E+02, 1.121E+02, 9.055E+01, 1.037E+02, 1.133E+02, 9.419E+00, 1.552E-01, 3.074E-02, 9.980E+01
 8.300E+02, 1.029E+02, 1.021E+02, 9.132E+01, 1.059E+02, 1.114E+02, 9.045E+01, 1.032E+02, 1.128E+02, 9.259E+00, 1.546E-01, 3.110E-02, 1.001E+02
 8.400E+02, 1.032E+02, 1.024E+02, 9.154E+01, 1.058E+02, 1.122E+02, 9.175E+01, 1.044E+02, 1.110E+02, 9.518E+00, 1.542E-01, 3.134E-02, 9.966E+01
 8.500E+02, 1.036E+02, 1.033E+02, 9.113E+01, 1.059E+02, 1.136E+02, 9.182E+01, 1.046E+02, 1.134E+02, 9.371E+00, 1.530E-01, 3.196E-02, 1.008E+02
 8.600E+02, 1.048E+02, 1.026E+02, 9.030E+01, 1.088E+02, 1.154E+02, 9.239E+01, 1.039E+02, 1.116E+02, 9.417E+00, 1.528E-01, 3.208E-02, 1.009E+02
 8.700E+02, 1.060E+02, 1.033E+02, 9.126E+01, 1.103E+02, 1.164E+02, 9.229E+01, 1.055E+02, 1.119E+02, 9.548E+00, 1.522E-01, 3.246E-02, 1.004E+02
 8.800E+02, 1.049E+02, 1.023E+02, 9.240E+01, 1.085E+02, 1.139E+02, 9.086E+01, 1.043E+02, 1.116E+02, 9.856E+00, 1.513E-01, 3.295E-02, 1.005E+02
 8.900E+02, 1.055E+02, 1.042E+02, 9.071E+01, 1.107E+02, 1.153E+02, 9.227E+01, 1.069E+02, 1.134E+02, 9.200E+00, 1.502E-01, 3.355E-02, 1.005E+02
 9.000E+02, 1.053E+02, 1.047E+02, 9.195E+01, 1.100E+02, 1.140E+02, 9.234E+01, 1.065E+02, 1.154E+02, 9.403E+00, 1.496E-01, 3.389E-02, 1.000E+02
 9.100E+02, 1.048E+02, 1.043E+02, 9.260E+01, 1.085E+02, 1.134E+02, 9.133E+01, 1.057E+02, 1.158E+02, 9.272E+00, 1.489E-01, 3.430E-02, 1.011E+02
 9.200E+02, 1.042E+02, 1.052E+02, 9.261E+01, 1.073E+02, 1.127E+02, 9.142E+01, 1.059E+02, 1.184E+02, 9.308E+00, 1.480E-01, 3.476E-02, 1.006E+02
 9.300E+02, 1.035E+02, 1.050E+02, 9.249E+01, 1.062E+02, 1.118E+02, 9.190E+01, 1.060E+02, 1.170E+02, 9.851E+00, 1.474E-01, 3.511E-02, 1.010E+02
 9.400E+02, 1.057E+02, 1.035E+02, 9.476E+01, 1.100E+02, 1.124E+02, 9.032E+01, 1.033E+02, 1.168E+02, 1.004E+01, 1.468E-01, 3.543E-02, 1.008E+02
 9.500E+02, 1.066E+02, 1.033E+02, 9.541E+01, 1.099E+02, 1.145E+02, 9.032E+01, 1.030E+02, 1.167E+02, 9.605E+00, 1.462E-01, 3.579E-02, 1.003E+02
 9.600E+02, 1.049E+02, 1.038E+02, 9.380E+01, 1.078E+02, 1.132E+02, 9.050E+01, 1.050E+02, 1.158E+02, 9.541E+00, 1.457E-01, 3.605E-02, 9.931E+01
 9.700E+02, 1.063E+02, 1.032E+02, 9.538E+01, 1.076E+02, 1.159E+02, 9.129E+01, 1.055E+02, 1.129E+02, 9.413E+00, 1.454E-01, 3.621E-02, 9.990E+01
 9.800E+02, 1.068E+02, 1.036E+02, 9.347E+01, 1.069E+02, 1.199E+02, 9.170E+01, 1.057E+02, 1.134E+02, 9.575E+00, 1.445E-01, 3.671E-02, 1.000E+02
 9.900E+02, 1.054E+02, 1.050E+02, 9.325E+01, 1.065E+02, 1.164E+02, 9.468E+01, 1.082E+02, 1.121E+02, 9.725E+00, 1.439E-01, 3.705E-02, 1.001E+02
 1.000E+03, 1.047E+02, 1.046E+02, 9.200E+01, 1.058E+02, 1.163E+02, 9.443E+01, 1.082E+02, 1.111E+02, 9.217E+00, 1.435E-01, 3.732E-02, 9.770E+01
 1.010E+03, 1.051E+02, 1.055E+02, 9.370E+01, 1.063E+02, 1.155E+02, 9.499E+01, 1.086E+02, 1.128E+02, 1.102E+01, 1.423E-01, 3.794E-02, 1.006E+02
 1.020E+03, 1.054E+02, 1.059E+02, 9.401E+01, 1.083E+02, 1.140E+02, 9.390E+01, 1.097E+02, 1.140E+02, 8.310E+00, 1.420E-01, 3.812E-02, 9.257E+01
 1.030E+03, 1.044E+02, 1.058E+02, 9.234E+01, 1.076E+02, 1.133E+02, 9.335E+01, 1.097E+02, 1.143E+02, 1.013E+01, 1.413E-01, 3.853E-02, 1.002E+02
 1.040E+03, 1.040E+02, 1.074E+02, 9.163E+01, 1.054E+02, 1.148E+02, 9.344E+01, 1.105E+02, 1.182E+02, 1.162E+01, 1.398E-01, 3.936E-02, 1.049E+02
 1.050E+03, 1.044E+02, 1.091E+02, 9.223E+01, 1.067E+02, 1.144E+02, 9.356E+01, 1.118E+02, 1.219E+02, 9.978E+00, 1.393E-01, 3.964E-02, 9.639E+01
 1.060E+03, 1.043E+02, 1.084E+02, 9.229E+01, 1.072E+02, 1.134E+02, 9.220E+01, 1.135E+02, 1.195E+02, 5.847E+00, 1.391E-01, 3.975E-02, 8.453E+01
 1.070E+03, 1.027E+02, 1.049E+02, 9.082E+01, 1.059E+02, 1.115E+02, 9.347E+01, 1.083E+02, 1.130E+02, 8.202E-01, 1.388E-01, 3.988E-02, 7.162E+01
 1.080E+03, 1.025E+02, 1.037E+02, 9.193E+01, 1.059E+02, 1.098E+02, 9.205E+01, 1.053E+02, 1.139E+02, 1.420E+01, 1.381E-01, 4.028E-02, 9.812E+01
 1.090E+03, 1.017E+02, 1.028E+02, 9.165E+01, 1.042E+02, 1.094E+02, 9.157E+01, 1.037E+02, 1.133E+02, 3.270E+00, 1.379E-01, 4.038E-02, 7.354E+01
 1.100E+03, 1.028E+02, 1.033E+02, 9.196E+01, 1.064E+02, 1.099E+02, 9.245E+01, 1.047E+02, 1.128E+02, 1.026E+01, 1.377E-01, 4.050E-02, 9.230E+01
 1.110E+03, 1.020E+02, 1.026E+02, 9.078E+01, 1.037E+02, 1.114E+02, 9.125E+01, 1.025E+02, 1.139E+02, 7.518E+00, 1.372E-01, 4.078E-02, 8.106E+01
 1.120E+03, 1.017E+02, 1.019E+02, 8.937E+01, 1.049E+02, 1.107E+02, 9.108E+01, 1.017E+02, 1.129E+02, 1.016E+01, 1.370E-01, 4.085E-02, 8.366E+01
 1.130E+03, 1.016E+02, 1.020E+02, 9.237E+01, 1.043E+02, 1.080E+02, 9.120E+01, 1.032E+02, 1.116E+02, 5.563E+00, 1.368E-01, 4.097E-02, 7.991E+01
 1.140E+03, 1.015E+02, 9.979E+01, 9.174E+01, 1.038E+02, 1.090E+02, 8.938E+01, 1.003E+02, 1.097E+02,-6.518E-01, 1.366E-01, 4.108E-02, 6.542E+01
 1.150E+03, 9.980E+01, 1.001E+02, 8.890E+01, 1.022E+02, 1.083E+02, 8.978E+01, 1.006E+02, 1.098E+02, 2.586E+01, 1.364E-01, 4.116E-02, 9.331E+01
 1.160E+03, 9.835E+01, 1.006E+02, 8.940E+01, 1.007E+02, 1.050E+02, 9.110E+01, 1.027E+02, 1.081E+02, 9.857E+00, 1.364E-01, 4.117E-02, 7.335E+01
 1.170E+03, 1.001E+02, 9.946E+01, 9.077E+01, 1.030E+02, 1.065E+02, 8.980E+01, 9.971E+01, 1.089E+02, 1.346E+01, 1.361E-01, 4.131E-02, 7.837E+01
 1.180E+03, 9.907E+01, 9.907E+01, 8.787E+01, 1.020E+02, 1.074E+02, 8.956E+01, 9.885E+01, 1.088E+02, 6.599E+00, 1.362E-01, 4.125E-02, 6.282E+01
 1.190E+03, 9.903E+01, 1.014E+02, 8.809E+01, 1.013E+02, 1.077E+02, 9.245E+01, 1.012E+02, 1.104E+02, 1.554E+01, 1.361E-01, 4.129E-02, 9.675E+01
 1.200E+03, 9.929E+01, 1.010E+02, 8.971E+01, 1.014E+02, 1.068E+02, 9.117E+01, 1.021E+02, 1.096E+02, 3.119E+01, 1.357E-01, 4.151E-02, 6.703E+01
 1.210E+03, 9.845E+01, 1.007E+02, 8.930E+01, 1.013E+02, 1.048E+02, 9.371E+01, 1.018E+02, 1.067E+02,-1.299E+01, 1.362E-01, 4.125E-02, 3.051E+01
 1.220E+03, 9.668E+01, 9.994E+01, 8.882E+01, 9.822E+01, 1.030E+02, 9.394E+01, 1.001E+02, 1.057E+02, 1.529E+01, 1.364E-01, 4.104E-02, 5.402E+01
 1.230E+03, 9.530E+01, 9.567E+01, 8.816E+01, 9.751E+01, 1.002E+02, 9.032E+01, 9.533E+01, 1.014E+02,-1.213E+00, 1.367E-01, 4.095E-02, 2.848E+01
 1.240E+03, 9.209E+01, 9.392E+01, 8.468E+01, 9.382E+01, 9.777E+01, 8.938E+01, 9.439E+01, 9.798E+01,-4.717E+00, 1.370E-01, 4.075E-02, 3.966E+00
 1.250E+03, 8.899E+01, 9.167E+01, 8.221E+01, 9.087E+01, 9.388E+01, 8.706E+01, 9.265E+01, 9.531E+01, 4.852E+00, 1.377E-01, 4.036E-02, 1.015E+01
 1.260E+03, 8.792E+01, 8.889E+01, 8.266E+01, 8.942E+01, 9.167E+01, 8.139E+01, 9.038E+01, 9.492E+01, 2.182E+00, 1.387E-01, 3.982E-02, 0.000E+00
 1.270E+03, 8.850E+01, 8.705E+01, 8.365E+01, 8.922E+01, 9.262E+01, 8.010E+01, 8.761E+01, 9.342E+01, 2.709E+00, 1.371E-01, 4.064E-02, 0.000E+00
 1.280E+03, 8.739E+01, 8.600E+01, 8.196E+01, 8.921E+01, 9.101E+01, 7.985E+01, 8.670E+01, 9.146E+01, 2.999E+00, 1.372E-01, 4.054E-02, 0.000E+00
 1.290E+03, 8.520E+01, 8.410E+01, 8.106E+01, 8.655E+01, 8.798E+01, 7.799E+01, 8.518E+01, 8.914E+01, 1.212E+00, 1.378E-01, 4.027E-02, 0.000E+00
 1.300E+03, 8.322E+01, 8.211E+01, 7.925E+01, 8.410E+01, 8.629E+01, 7.575E+01, 8.253E+01, 8.804E+01, 3.276E+00, 1.383E-01, 3.997E-02, 0.000E+00
 1.310E+03, 8.242E+01, 8.087E+01, 7.725E+01, 8.444E+01, 8.556E+01, 7.442E+01, 8.110E+01, 8.710E+01, 4.130E+00, 1.375E-01, 4.031E-02, 0.000E+00
