s,C,C,C,C,C,C,C,C,Pa,mol/mol,mol/mol,kW
Time,"West_All_TCs","East_All_TCs","West_Bottom_TCs","West_Middle_TCs","West_Upper_TCs","East_Bottom_TCs","East_Middle_TCs","East_Upper_TCs","Pressure","O2","CO2","HRR"
-6.000E+01, 4.100E+01, 4.100E+01, 4.100E+01, 4.100E+01, 4.100E+01, 4.100E+01, 4.100E+01, 4.100E+01,-9.072E-06, 2.095E-01, 3.901E-04, 0.000E+00
-4.998E+01, 4.100E+01, 4.100E+01, 4.100E+01, 4.100E+01, 4.100E+01, 4.100E+01, 4.100E+01, 4.100E+01,-1.899E-05, 2.095E-01, 3.901E-04, 0.000E+00
-3.996E+01, 4.100E+01, 4.100E+01, 4.100E+01, 4.100E+01, 4.100E+01, 4.100E+01, 4.100E+01, 4.100E+01, 4.672E-06, 2.095E-01, 3.901E-04, 0.000E+00
-2.994E+01, 4.100E+01, 4.100E+01, 4.100E+01, 4.100E+01, 4.100E+01, 4.100E+01, 4.100E+01, 4.100E+01, 2.913E-07, 2.095E-01, 3.901E-04, 0.000E+00
-1.992E+01, 4.100E+01, 4.100E+01, 4.100E+01, 4.100E+01, 4.100E+01, 4.100E+01, 4.100E+01, 4.100E+01, 6.251E-06, 2.095E-01, 3.901E-04, 0.000E+00
-9.896E+00, 4.100E+01, 4.100E+01, 4.100E+01, 4.100E+01, 4.100E+01, 4.100E+01, 4.100E+01, 4.100E+01, 3.180E-06, 2.095E-01, 3.901E-04, 0.000E+00
 1.301E-02, 4.100E+01, 4.100E+01, 4.100E+01, 4.100E+01, 4.100E+01, 4.100E+01, 4.100E+01, 4.100E+01, 4.039E-06, 2.095E-01, 3.901E-04, 8.818E-05
 1.002E+01, 4.149E+01, 4.167E+01, 4.121E+01, 4.225E+01, 4.100E+01, 4.134E+01, 4.268E+01, 4.100E+01, 2.443E-03, 2.095E-01, 3.901E-04, 1.636E+01
 2.002E+01, 4.286E+01, 4.334E+01, 4.178E+01, 4.580E+01, 4.100E+01, 4.222E+01, 4.679E+01, 4.100E+01, 4.174E-03, 2.095E-01, 3.901E-04, 4.968E+01
 3.002E+01, 4.713E+01, 4.791E+01, 4.367E+01, 5.643E+01, 4.130E+01, 4.466E+01, 5.807E+01, 4.100E+01,-1.600E-02, 2.095E-01, 3.901E-04, 8.262E+01
 4.001E+01, 5.234E+01, 5.361E+01, 4.659E+01, 6.825E+01, 4.219E+01, 4.859E+01, 7.121E+01, 4.103E+01, 7.360E-02, 2.095E-01, 3.936E-04, 1.003E+02
 5.002E+01, 5.754E+01, 5.866E+01, 5.050E+01, 7.944E+01, 4.267E+01, 5.316E+01, 8.135E+01, 4.149E+01, 1.709E-01, 2.094E-01, 4.822E-04, 9.951E+01
 6.001E+01, 6.200E+01, 6.309E+01, 5.477E+01, 8.666E+01, 4.456E+01, 5.706E+01, 8.826E+01, 4.395E+01, 1.602E-01, 2.090E-01, 6.928E-04, 1.006E+02
 7.002E+01, 6.471E+01, 6.643E+01, 5.740E+01, 9.157E+01, 4.518E+01, 6.055E+01, 9.274E+01, 4.600E+01, 1.808E-01, 2.086E-01, 9.009E-04, 1.001E+02
 8.001E+01, 6.689E+01, 6.903E+01, 5.870E+01, 9.532E+01, 4.665E+01, 6.267E+01, 9.741E+01, 4.701E+01, 1.360E-01, 2.085E-01, 9.558E-04, 9.988E+01
 9.002E+01, 6.872E+01, 7.078E+01, 6.049E+01, 9.814E+01, 4.755E+01, 6.412E+01, 1.002E+02, 4.797E+01,-6.067E-04, 2.084E-01, 1.021E-03, 1.001E+02
 1.000E+02, 7.101E+01, 7.140E+01, 6.338E+01, 1.007E+02, 4.892E+01, 6.524E+01, 1.005E+02, 4.842E+01, 1.207E-01, 2.084E-01, 1.049E-03, 1.001E+02
 1.100E+02, 7.134E+01, 7.334E+01, 6.367E+01, 1.001E+02, 5.020E+01, 6.681E+01, 1.036E+02, 4.956E+01, 2.706E-01, 2.081E-01, 1.182E-03, 9.971E+01
 1.200E+02, 7.253E+01, 7.440E+01, 6.404E+01, 1.025E+02, 5.102E+01, 6.823E+01, 1.034E+02, 5.159E+01, 2.774E-01, 2.078E-01, 1.377E-03, 1.005E+02
 1.300E+02, 7.300E+01, 7.556E+01, 6.399E+01, 1.029E+02, 5.213E+01, 6.847E+01, 1.053E+02, 5.291E+01, 5.230E-02, 2.076E-01, 1.500E-03, 9.932E+01
 1.400E+02, 7.366E+01, 7.632E+01, 6.397E+01, 1.042E+02, 5.279E+01, 6.972E+01, 1.061E+02, 5.316E+01, 2.072E-01, 2.074E-01, 1.602E-03, 1.004E+02
 1.500E+02, 7.393E+01, 7.689E+01, 6.430E+01, 1.034E+02, 5.403E+01, 6.982E+01, 1.070E+02, 5.384E+01, 2.439E-01, 2.071E-01, 1.738E-03, 9.929E+01
 1.600E+02, 7.456E+01, 7.710E+01, 6.500E+01, 1.040E+02, 5.466E+01, 6.880E+01, 1.079E+02, 5.458E+01, 2.009E-01, 2.069E-01, 1.861E-03, 1.004E+02
 1.700E+02, 7.502E+01, 7.763E+01, 6.498E+01, 1.042E+02, 5.590E+01, 7.012E+01, 1.071E+02, 5.569E+01, 3.461E-01, 2.066E-01, 2.063E-03, 1.000E+02
 1.800E+02, 7.532E+01, 7.828E+01, 6.541E+01, 1.043E+02, 5.629E+01, 7.016E+01, 1.078E+02, 5.685E+01, 3.036E-01, 2.062E-01, 2.244E-03, 1.003E+02
 1.900E+02, 7.651E+01, 7.863E+01, 6.671E+01, 1.062E+02, 5.660E+01, 7.113E+01, 1.081E+02, 5.670E+01,-1.287E-02, 2.062E-01, 2.272E-03, 1.005E+02
 2.000E+02, 7.606E+01, 7.855E+01, 6.590E+01, 1.052E+02, 5.706E+01, 7.047E+01, 1.093E+02, 5.591E+01, 2.860E-01, 2.060E-01, 2.381E-03, 9.983E+01
 2.100E+02, 7.639E+01, 7.813E+01, 6.622E+01, 1.053E+02, 5.761E+01, 6.926E+01, 1.083E+02, 5.680E+01, 4.286E-01, 2.058E-01, 2.464E-03, 9.998E+01
 2.200E+02, 7.636E+01, 7.891E+01, 6.580E+01, 1.049E+02, 5.834E+01, 7.034E+01, 1.086E+02, 5.777E+01, 3.657E-01, 2.055E-01, 2.667E-03, 1.002E+02
 2.300E+02, 7.663E+01, 7.977E+01, 6.561E+01, 1.060E+02, 5.831E+01, 7.097E+01, 1.096E+02, 5.876E+01, 3.348E-01, 2.051E-01, 2.895E-03, 9.981E+01
 2.400E+02, 7.654E+01, 7.999E+01, 6.508E+01, 1.058E+02, 5.877E+01, 7.072E+01, 1.101E+02, 5.915E+01, 4.497E-01, 2.049E-01, 2.977E-03, 1.002E+02
 2.500E+02, 7.661E+01, 8.005E+01, 6.470E+01, 1.056E+02, 5.948E+01, 7.154E+01, 1.100E+02, 5.855E+01, 4.994E-01, 2.048E-01, 3.026E-03, 1.002E+02
 2.600E+02, 7.706E+01, 8.034E+01, 6.604E+01, 1.058E+02, 5.928E+01, 7.256E+01, 1.102E+02, 5.828E+01, 1.681E-01, 2.046E-01, 3.166E-03, 1.002E+02
 2.700E+02, 7.755E+01, 8.038E+01, 6.612E+01, 1.076E+02, 5.898E+01, 7.283E+01, 1.096E+02, 5.869E+01, 2.178E-01, 2.043E-01, 3.301E-03, 1.001E+02
 2.800E+02, 7.732E+01, 8.114E+01, 6.613E+01, 1.063E+02, 5.950E+01, 7.343E+01, 1.106E+02, 5.935E+01, 3.023E-01, 2.042E-01, 3.370E-03, 1.000E+02
 2.900E+02, 7.773E+01, 8.077E+01, 6.728E+01, 1.068E+02, 5.914E+01, 7.408E+01, 1.089E+02, 5.937E+01, 2.262E-01, 2.040E-01, 3.488E-03, 1.001E+02
 3.000E+02, 7.798E+01, 8.169E+01, 6.738E+01, 1.070E+02, 5.956E+01, 7.381E+01, 1.111E+02, 6.012E+01, 4.173E-01, 2.038E-01, 3.624E-03, 1.005E+02
 3.100E+02, 7.858E+01, 8.180E+01, 6.809E+01, 1.071E+02, 6.054E+01, 7.376E+01, 1.116E+02, 6.010E+01, 2.735E-01, 2.036E-01, 3.700E-03, 9.986E+01
 3.200E+02, 7.867E+01, 8.171E+01, 6.773E+01, 1.079E+02, 6.035E+01, 7.347E+01, 1.120E+02, 5.969E+01, 4.761E-01, 2.035E-01, 3.758E-03, 1.005E+02
 3.300E+02, 7.896E+01, 8.134E+01, 6.899E+01, 1.075E+02, 6.033E+01, 7.354E+01, 1.107E+02, 5.981E+01, 2.097E-01, 2.034E-01, 3.798E-03, 1.001E+02
 3.400E+02, 7.916E+01, 8.147E+01, 6.891E+01, 1.080E+02, 6.058E+01, 7.583E+01, 1.086E+02, 5.997E+01, 3.285E-01, 2.032E-01, 3.926E-03, 9.996E+01
 3.500E+02, 7.854E+01, 8.185E+01, 6.796E+01, 1.073E+02, 6.034E+01, 7.456E+01, 1.104E+02, 6.054E+01, 3.786E-01, 2.031E-01, 4.003E-03, 1.004E+02
 3.600E+02, 7.845E+01, 8.195E+01, 6.809E+01, 1.077E+02, 5.951E+01, 7.444E+01, 1.117E+02, 5.972E+01, 3.060E-01, 2.030E-01, 4.034E-03, 9.992E+01
 3.700E+02, 7.916E+01, 8.157E+01, 6.860E+01, 1.074E+02, 6.146E+01, 7.271E+01, 1.128E+02, 5.923E+01, 4.460E-01, 2.029E-01, 4.127E-03, 1.001E+02
 3.800E+02, 7.918E+01, 8.176E+01, 6.854E+01, 1.082E+02, 6.085E+01, 7.358E+01, 1.115E+02, 6.016E+01, 4.091E-01, 2.027E-01, 4.196E-03, 1.001E+02
 3.900E+02, 8.021E+01, 8.218E+01, 6.878E+01, 1.097E+02, 6.210E+01, 7.491E+01, 1.109E+02, 6.068E+01, 5.101E-01, 2.026E-01, 4.271E-03, 9.956E+01
 4.000E+02, 7.912E+01, 8.205E+01, 6.690E+01, 1.082E+02, 6.222E+01, 7.377E+01, 1.106E+02, 6.178E+01, 5.978E-01, 2.024E-01, 4.394E-03, 1.004E+02
 4.100E+02, 7.889E+01, 8.314E+01, 6.738E+01, 1.079E+02, 6.137E+01, 7.382E+01, 1.134E+02, 6.217E+01, 4.173E-01, 2.023E-01, 4.454E-03, 1.004E+02
 4.200E+02, 7.957E+01, 8.235E+01, 6.792E+01, 1.080E+02, 6.282E+01, 7.369E+01, 1.120E+02, 6.134E+01, 4.437E-01, 2.022E-01, 4.490E-03, 1.001E+02
 4.300E+02, 8.015E+01, 8.287E+01, 6.848E+01, 1.096E+02, 6.238E+01, 7.504E+01, 1.119E+02, 6.170E+01, 2.322E-01, 2.021E-01, 4.540E-03, 9.984E+01
 4.400E+02, 8.025E+01, 8.314E+01, 6.911E+01, 1.095E+02, 6.218E+01, 7.620E+01, 1.116E+02, 6.166E+01, 2.464E-01, 2.020E-01, 4.583E-03, 9.999E+01
 4.500E+02, 8.011E+01, 8.333E+01, 6.886E+01, 1.098E+02, 6.162E+01, 7.589E+01, 1.125E+02, 6.159E+01, 3.309E-01, 2.019E-01, 4.665E-03, 9.960E+01
 4.600E+02, 7.996E+01, 8.306E+01, 6.959E+01, 1.090E+02, 6.134E+01, 7.398E+01, 1.132E+02, 6.194E+01, 4.716E-01, 2.018E-01, 4.696E-03, 1.009E+02
 4.700E+02, 8.006E+01, 8.246E+01, 6.849E+01, 1.099E+02, 6.175E+01, 7.375E+01, 1.125E+02, 6.114E+01, 2.323E-01, 2.018E-01, 4.729E-03, 9.984E+01
 4.800E+02, 8.044E+01, 8.381E+01, 6.798E+01, 1.104E+02, 6.293E+01, 7.353E+01, 1.159E+02, 6.202E+01, 4.170E-01, 2.017E-01, 4.778E-03, 9.998E+01
 4.900E+02, 8.025E+01, 8.417E+01, 6.852E+01, 1.099E+02, 6.228E+01, 7.781E+01, 1.129E+02, 6.184E+01, 5.898E-01, 2.016E-01, 4.805E-03, 9.969E+01
 5.000E+02, 7.968E+01, 8.319E+01, 6.657E+01, 1.100E+02, 6.247E+01, 7.451E+01, 1.135E+02, 6.152E+01, 3.575E-01, 2.015E-01, 4.863E-03, 1.004E+02
 5.100E+02, 7.973E+01, 8.250E+01, 6.704E+01, 1.087E+02, 6.341E+01, 7.336E+01, 1.137E+02, 6.041E+01, 4.610E-01, 2.015E-01, 4.902E-03, 9.985E+01
 5.200E+02, 8.023E+01, 8.276E+01, 6.721E+01, 1.094E+02, 6.410E+01, 7.175E+01, 1.143E+02, 6.224E+01, 5.787E-01, 2.013E-01, 5.000E-03, 1.001E+02
 5.300E+02, 8.003E+01, 8.292E+01, 6.740E+01, 1.094E+02, 6.328E+01, 7.245E+01, 1.139E+02, 6.239E+01, 3.777E-01, 2.013E-01, 5.011E-03, 1.001E+02
 5.400E+02, 7.989E+01, 8.373E+01, 6.697E+01, 1.096E+02, 6.309E+01, 7.562E+01, 1.127E+02, 6.290E+01, 3.644E-01, 2.012E-01, 5.032E-03, 1.001E+02
 5.500E+02, 7.955E+01, 8.381E+01, 6.673E+01, 1.088E+02, 6.312E+01, 7.479E+01, 1.134E+02, 6.326E+01, 4.416E-01, 2.012E-01, 5.071E-03, 1.001E+02
 5.600E+02, 8.041E+01, 8.325E+01, 6.768E+01, 1.107E+02, 6.282E+01, 7.360E+01, 1.129E+02, 6.329E+01, 2.644E-01, 2.011E-01, 5.091E-03, 9.987E+01
 5.700E+02, 8.024E+01, 8.346E+01, 6.700E+01, 1.109E+02, 6.285E+01, 7.337E+01, 1.145E+02, 6.255E+01, 3.666E-01, 2.011E-01, 5.120E-03, 9.991E+01
 5.800E+02, 8.093E+01, 8.285E+01, 6.767E+01, 1.108E+02, 6.434E+01, 7.323E+01, 1.133E+02, 6.207E+01, 4.574E-01, 2.010E-01, 5.152E-03, 1.004E+02
 5.900E+02, 8.133E+01, 8.358E+01, 6.858E+01, 1.118E+02, 6.364E+01, 7.384E+01, 1.141E+02, 6.277E+01, 4.205E-01, 2.010E-01, 5.192E-03, 1.001E+02
 6.000E+02, 8.151E+01, 8.426E+01, 6.921E+01, 1.118E+02, 6.353E+01, 7.427E+01, 1.148E+02, 6.373E+01, 2.680E-01, 2.009E-01, 5.212E-03, 9.993E+01
 6.100E+02, 8.139E+01, 8.359E+01, 6.851E+01, 1.122E+02, 6.346E+01, 7.334E+01, 1.141E+02, 6.327E+01, 4.645E-01, 2.009E-01, 5.219E-03, 1.008E+02
 6.200E+02, 8.066E+01, 8.454E+01, 6.817E+01, 1.109E+02, 6.294E+01, 7.454E+01, 1.162E+02, 6.291E+01, 5.501E-01, 2.009E-01, 5.241E-03, 1.000E+02
 6.300E+02, 8.060E+01, 8.390E+01, 6.787E+01, 1.094E+02, 6.454E+01, 7.498E+01, 1.143E+02, 6.243E+01, 7.140E-01, 2.008E-01, 5.260E-03, 1.001E+02
 6.400E+02, 8.182E+01, 8.396E+01, 6.803E+01, 1.122E+02, 6.524E+01, 7.442E+01, 1.137E+02, 6.373E+01, 5.930E-01, 2.008E-01, 5.281E-03, 1.002E+02
 6.500E+02, 8.145E+01, 8.409E+01, 6.764E+01, 1.111E+02, 6.559E+01, 7.348E+01, 1.142E+02, 6.458E+01, 5.404E-01, 2.007E-01, 5.309E-03, 9.953E+01
 6.600E+02, 8.112E+01, 8.389E+01, 6.795E+01, 1.115E+02, 6.391E+01, 7.249E+01, 1.145E+02, 6.469E+01, 6.025E-01, 2.007E-01, 5.322E-03, 1.005E+02
 6.700E+02, 8.197E+01, 8.448E+01, 6.801E+01, 1.129E+02, 6.501E+01, 7.395E+01, 1.150E+02, 6.453E+01, 4.738E-01, 2.007E-01, 5.338E-03, 9.992E+01
 6.800E+02, 8.262E+01, 8.504E+01, 6.942E+01, 1.126E+02, 6.586E+01, 7.506E+01, 1.151E+02, 6.500E+01, 5.267E-01, 2.007E-01, 5.347E-03, 1.006E+02
 6.900E+02, 8.118E+01, 8.460E+01, 6.785E+01, 1.109E+02, 6.479E+01, 7.585E+01, 1.137E+02, 6.421E+01, 5.443E-01, 2.007E-01, 5.350E-03, 9.957E+01
 7.000E+02, 8.144E+01, 8.510E+01, 6.775E+01, 1.111E+02, 6.547E+01, 7.588E+01, 1.150E+02, 6.442E+01, 4.614E-01, 2.006E-01, 5.381E-03, 1.007E+02
 7.100E+02, 8.158E+01, 8.450E+01, 6.774E+01, 1.112E+02, 6.581E+01, 7.484E+01, 1.144E+02, 6.425E+01, 4.565E-01, 2.006E-01, 5.397E-03, 9.980E+01
 7.200E+02, 8.195E+01, 8.487E+01, 6.878E+01, 1.117E+02, 6.536E+01, 7.442E+01, 1.152E+02, 6.501E+01, 6.046E-01, 2.006E-01, 5.406E-03, 1.003E+02
 7.300E+02, 8.228E+01, 8.468E+01, 6.977E+01, 1.117E+02, 6.541E+01, 7.279E+01, 1.158E+02, 6.550E+01, 2.491E-01, 2.005E-01, 5.417E-03, 1.003E+02
 7.400E+02, 8.207E+01, 8.449E+01, 6.936E+01, 1.115E+02, 6.540E+01, 7.376E+01, 1.152E+02, 6.448E+01, 4.211E-01, 2.005E-01, 5.423E-03, 1.000E+02
 7.500E+02, 8.225E+01, 8.507E+01, 6.897E+01, 1.120E+02, 6.573E+01, 7.490E+01, 1.161E+02, 6.418E+01, 5.185E-01, 2.005E-01, 5.427E-03, 9.987E+01
 7.600E+02, 8.190E+01, 8.496E+01, 6.851E+01, 1.112E+02, 6.597E+01, 7.544E+01, 1.147E+02, 6.469E+01, 4.603E-01, 2.005E-01, 5.436E-03, 1.000E+02
 7.700E+02, 8.239E+01, 8.521E+01, 6.943E+01, 1.133E+02, 6.448E+01, 7.488E+01, 1.159E+02, 6.482E+01, 2.510E-01, 2.005E-01, 5.442E-03, 1.001E+02
 7.800E+02, 8.187E+01, 8.561E+01, 6.870E+01, 1.123E+02, 6.465E+01, 7.525E+01, 1.161E+02, 6.545E+01, 3.340E-01, 2.005E-01, 5.458E-03, 9.997E+01
 7.900E+02, 8.278E+01, 8.543E+01, 6.969E+01, 1.135E+02, 6.518E+01, 7.650E+01, 1.153E+02, 6.448E+01, 3.671E-01, 2.005E-01, 5.455E-03, 1.001E+02
 8.000E+02, 8.198E+01, 8.530E+01, 6.920E+01, 1.120E+02, 6.474E+01, 7.645E+01, 1.159E+02, 6.360E+01, 4.489E-01, 2.005E-01, 5.456E-03, 1.002E+02
 8.100E+02, 8.210E+01, 8.525E+01, 6.869E+01, 1.123E+02, 6.527E+01, 7.595E+01, 1.157E+02, 6.409E+01, 7.168E-01, 2.005E-01, 5.467E-03, 9.963E+01
 8.200E+02, 8.198E+01, 8.539E+01, 6.749E+01, 1.128E+02, 6.563E+01, 7.478E+01, 1.169E+02, 6.455E+01, 6.164E-01, 2.004E-01, 5.480E-03, 1.006E+02
 8.300E+02, 8.227E+01, 8.549E+01, 6.923E+01, 1.114E+02, 6.615E+01, 7.619E+01, 1.154E+02, 6.488E+01, 1.959E-01, 2.004E-01, 5.493E-03, 1.001E+02
 8.400E+02, 8.300E+01, 8.536E+01, 6.970E+01, 1.133E+02, 6.601E+01, 7.555E+01, 1.149E+02, 6.562E+01, 1.135E-01, 2.004E-01, 5.492E-03, 1.003E+02
 8.500E+02, 8.323E+01, 8.567E+01, 6.904E+01, 1.151E+02, 6.556E+01, 7.715E+01, 1.148E+02, 6.507E+01, 3.632E-01, 2.004E-01, 5.505E-03, 1.000E+02
 8.600E+02, 8.240E+01, 8.591E+01, 6.896E+01, 1.132E+02, 6.506E+01, 7.671E+01, 1.169E+02, 6.413E+01, 3.988E-01, 2.004E-01, 5.508E-03, 1.003E+02
 8.700E+02, 8.318E+01, 8.483E+01, 7.043E+01, 1.133E+02, 6.581E+01, 7.626E+01, 1.142E+02, 6.405E+01, 4.685E-01, 2.004E-01, 5.514E-03, 1.004E+02
 8.800E+02, 8.344E+01, 8.537E+01, 7.030E+01, 1.136E+02, 6.643E+01, 7.603E+01, 1.149E+02, 6.521E+01, 5.538E-01, 2.004E-01, 5.514E-03, 1.001E+02
 8.900E+02, 8.284E+01, 8.635E+01, 6.975E+01, 1.127E+02, 6.611E+01, 7.563E+01, 1.176E+02, 6.586E+01, 2.065E-01, 2.004E-01, 5.524E-03, 1.006E+02
 9.000E+02, 8.281E+01, 8.527E+01, 6.953E+01, 1.127E+02, 6.622E+01, 7.533E+01, 1.156E+02, 6.492E+01, 4.713E-01, 2.004E-01, 5.525E-03, 9.996E+01
 9.100E+02, 8.212E+01, 8.545E+01, 6.860E+01, 1.114E+02, 6.634E+01, 7.497E+01, 1.170E+02, 6.434E+01, 5.283E-01, 2.004E-01, 5.523E-03, 9.999E+01
 9.200E+02, 8.201E+01, 8.590E+01, 6.785E+01, 1.123E+02, 6.585E+01, 7.728E+01, 1.156E+02, 6.479E+01, 4.982E-01, 2.004E-01, 5.525E-03, 1.001E+02
 9.300E+02, 8.313E+01, 8.587E+01, 6.917E+01, 1.141E+02, 6.616E+01, 7.556E+01, 1.157E+02, 6.632E+01, 6.243E-01, 2.003E-01, 5.533E-03, 9.993E+01
 9.400E+02, 8.318E+01, 8.624E+01, 6.835E+01, 1.145E+02, 6.665E+01, 7.567E+01, 1.164E+02, 6.667E+01, 4.541E-01, 2.003E-01, 5.545E-03, 1.000E+02
 9.500E+02, 8.345E+01, 8.601E+01, 7.006E+01, 1.137E+02, 6.658E+01, 7.590E+01, 1.162E+02, 6.594E+01, 4.454E-01, 2.003E-01, 5.552E-03, 1.002E+02
 9.600E+02, 8.305E+01, 8.665E+01, 6.897E+01, 1.134E+02, 6.676E+01, 7.801E+01, 1.171E+02, 6.487E+01, 4.757E-01, 2.003E-01, 5.544E-03, 1.001E+02
 9.700E+02, 8.354E+01, 8.746E+01, 6.965E+01, 1.145E+02, 6.646E+01, 7.903E+01, 1.170E+02, 6.631E+01, 4.996E-01, 2.003E-01, 5.538E-03, 9.992E+01
 9.800E+02, 8.338E+01, 8.771E+01, 7.029E+01, 1.131E+02, 6.674E+01, 7.937E+01, 1.170E+02, 6.681E+01, 4.542E-01, 2.003E-01, 5.539E-03, 1.005E+02
 9.900E+02, 8.326E+01, 8.689E+01, 6.998E+01, 1.130E+02, 6.684E+01, 7.615E+01, 1.174E+02, 6.717E+01, 1.441E-01, 2.003E-01, 5.551E-03, 1.002E+02
 1.000E+03, 8.366E+01, 8.658E+01, 7.058E+01, 1.135E+02, 6.692E+01, 7.597E+01, 1.181E+02, 6.563E+01, 5.343E-01, 2.003E-01, 5.553E-03, 1.000E+02
 1.010E+03, 8.419E+01, 8.605E+01, 7.052E+01, 1.148E+02, 6.721E+01, 7.737E+01, 1.166E+02, 6.414E+01, 4.491E-01, 2.003E-01, 5.543E-03, 9.977E+01
 1.020E+03, 8.388E+01, 8.721E+01, 7.105E+01, 1.133E+02, 6.726E+01, 7.748E+01, 1.179E+02, 6.625E+01, 4.176E-01, 2.003E-01, 5.531E-03, 1.001E+02
 1.030E+03, 8.426E+01, 8.786E+01, 7.114E+01, 1.148E+02, 6.682E+01, 7.883E+01, 1.180E+02, 6.677E+01, 5.502E-01, 2.003E-01, 5.536E-03, 1.001E+02
 1.040E+03, 8.391E+01, 8.694E+01, 7.001E+01, 1.145E+02, 6.726E+01, 7.640E+01, 1.170E+02, 6.743E+01, 6.108E-01, 2.003E-01, 5.544E-03, 9.996E+01
 1.050E+03, 8.424E+01, 8.685E+01, 7.205E+01, 1.134E+02, 6.725E+01, 7.683E+01, 1.175E+02, 6.623E+01, 3.510E-01, 2.003E-01, 5.540E-03, 1.005E+02
 1.060E+03, 8.388E+01, 8.696E+01, 6.995E+01, 1.132E+02, 6.848E+01, 7.611E+01, 1.183E+02, 6.643E+01, 5.538E-01, 2.003E-01, 5.530E-03, 9.982E+01
 1.070E+03, 8.397E+01, 8.676E+01, 6.998E+01, 1.138E+02, 6.813E+01, 7.615E+01, 1.179E+02, 6.619E+01, 6.263E-01, 2.003E-01, 5.530E-03, 9.986E+01
 1.080E+03, 8.395E+01, 8.646E+01, 6.866E+01, 1.153E+02, 6.788E+01, 7.557E+01, 1.165E+02, 6.734E+01, 5.652E-01, 2.003E-01, 5.540E-03, 9.983E+01
 1.090E+03, 8.378E+01, 8.696E+01, 7.016E+01, 1.135E+02, 6.773E+01, 7.485E+01, 1.175E+02, 6.854E+01, 4.770E-01, 2.003E-01, 5.567E-03, 1.001E+02
 1.100E+03, 8.404E+01, 8.657E+01, 6.913E+01, 1.148E+02, 6.819E+01, 7.458E+01, 1.177E+02, 6.747E+01, 6.003E-01, 2.003E-01, 5.559E-03, 1.004E+02
 1.110E+03, 8.367E+01, 8.656E+01, 6.979E+01, 1.125E+02, 6.876E+01, 7.388E+01, 1.180E+02, 6.780E+01, 8.051E-01, 2.003E-01, 5.562E-03, 1.001E+02
 1.120E+03, 8.473E+01, 8.718E+01, 7.027E+01, 1.142E+02, 6.970E+01, 7.605E+01, 1.178E+02, 6.769E+01, 6.793E-01, 2.003E-01, 5.560E-03, 1.003E+02
 1.130E+03, 8.464E+01, 8.686E+01, 6.968E+01, 1.143E+02, 6.996E+01, 7.615E+01, 1.166E+02, 6.781E+01, 6.206E-01, 2.003E-01, 5.547E-03, 1.004E+02
 1.140E+03, 8.469E+01, 8.761E+01, 6.946E+01, 1.153E+02, 6.934E+01, 7.813E+01, 1.166E+02, 6.813E+01, 4.526E-01, 2.003E-01, 5.551E-03, 9.996E+01
 1.150E+03, 8.364E+01, 8.785E+01, 6.883E+01, 1.133E+02, 6.884E+01, 7.721E+01, 1.176E+02, 6.876E+01, 6.959E-01, 2.003E-01, 5.555E-03, 1.006E+02
 1.160E+03, 8.506E+01, 8.773E+01, 7.067E+01, 1.152E+02, 6.935E+01, 7.558E+01, 1.176E+02, 7.005E+01, 7.502E-01, 2.003E-01, 5.563E-03, 9.999E+01
 1.170E+03, 8.477E+01, 8.727E+01, 7.065E+01, 1.139E+02, 6.975E+01, 7.555E+01, 1.170E+02, 6.922E+01, 6.003E-01, 2.003E-01, 5.553E-03, 9.993E+01
 1.180E+03, 8.488E+01, 8.752E+01, 6.995E+01, 1.142E+02, 7.051E+01, 7.692E+01, 1.176E+02, 6.801E+01, 6.679E-01, 2.003E-01, 5.547E-03, 1.002E+02
 1.190E+03, 8.553E+01, 8.824E+01, 7.058E+01, 1.157E+02, 7.029E+01, 7.913E+01, 1.174E+02, 6.818E+01, 6.037E-01, 2.003E-01, 5.549E-03, 1.001E+02
 1.200E+03, 8.444E+01, 8.812E+01, 6.965E+01, 1.146E+02, 6.910E+01, 7.780E+01, 1.178E+02, 6.874E+01, 7.654E-01, 2.003E-01, 5.541E-03, 9.999E+01
 1.210E+03, 8.470E+01, 8.821E+01, 7.038E+01, 1.137E+02, 7.003E+01, 7.761E+01, 1.175E+02, 6.951E+01, 6.859E-01, 2.003E-01, 5.552E-03, 1.001E+02
 1.220E+03, 8.439E+01, 8.937E+01, 6.964E+01, 1.137E+02, 6.979E+01, 7.777E+01, 1.207E+02, 6.963E+01, 7.144E-01, 2.003E-01, 5.552E-03, 1.000E+02
 1.230E+03, 8.497E+01, 8.823E+01, 7.003E+01, 1.137E+02, 7.119E+01, 7.798E+01, 1.173E+02, 6.937E+01, 6.818E-01, 2.003E-01, 5.542E-03, 1.004E+02
 1.240E+03, 8.554E+01, 8.746E+01, 7.015E+01, 1.149E+02, 7.162E+01, 7.671E+01, 1.169E+02, 6.872E+01, 7.093E-01, 2.003E-01, 5.528E-03, 9.978E+01
 1.250E+03, 8.483E+01, 8.793E+01, 6.834E+01, 1.149E+02, 7.129E+01, 7.717E+01, 1.178E+02, 6.880E+01, 6.621E-01, 2.004E-01, 5.527E-03, 1.000E+02
 1.260E+03, 8.457E+01, 8.774E+01, 6.967E+01, 1.142E+02, 6.988E+01, 7.640E+01, 1.165E+02, 7.032E+01, 5.536E-01, 2.003E-01, 5.535E-03, 1.002E+02
 1.270E+03, 8.557E+01, 8.828E+01, 7.018E+01, 1.167E+02, 6.988E+01, 7.613E+01, 1.178E+02, 7.094E+01, 5.254E-01, 2.004E-01, 5.520E-03, 9.975E+01
 1.280E+03, 8.524E+01, 8.832E+01, 7.054E+01, 1.146E+02, 7.055E+01, 7.595E+01, 1.191E+02, 6.991E+01, 4.394E-01, 2.004E-01, 5.517E-03, 1.002E+02
 1.290E+03, 8.445E+01, 8.769E+01, 6.947E+01, 1.134E+02, 7.043E+01, 7.741E+01, 1.174E+02, 6.829E+01, 4.175E-01, 2.004E-01, 5.514E-03, 9.987E+01
 1.300E+03, 8.483E+01, 8.831E+01, 6.927E+01, 1.149E+02, 7.029E+01, 7.854E+01, 1.180E+02, 6.836E+01, 7.766E-01, 2.004E-01, 5.509E-03, 1.001E+02
 1.310E+03, 8.499E+01, 8.873E+01, 6.979E+01, 1.156E+02, 6.957E+01, 7.794E+01, 1.186E+02, 6.967E+01, 5.295E-01, 2.004E-01, 5.505E-03, 9.994E+01
