s,C,C,C,C,C,C,C,C,Pa,mol/mol,mol/mol,kW
Time,"West_All_TCs","East_All_TCs","West_Bottom_TCs","West_Middle_TCs","West_Upper_TCs","East_Bottom_TCs","East_Middle_TCs","East_Upper_TCs","Pressure","O2","CO2","HRR"
-6.000E+01, 3.100E+01, 3.100E+01, 3.100E+01, 3.100E+01, 3.100E+01, 3.100E+01, 3.100E+01, 3.100E+01,-9.418E-06, 2.095E-01, 3.901E-04, 0.000E+00
-4.998E+01, 3.100E+01, 3.100E+01, 3.100E+01, 3.100E+01, 3.100E+01, 3.100E+01, 3.100E+01, 3.100E+01,-6.188E-04, 2.095E-01, 3.901E-04, 0.000E+00
-3.996E+01, 3.100E+01, 3.100E+01, 3.100E+01, 3.100E+01, 3.100E+01, 3.100E+01, 3.100E+01, 3.100E+01,-3.314E-05, 2.095E-01, 3.901E-04, 0.000E+00
-2.994E+01, 3.100E+01, 3.100E+01, 3.100E+01, 3.100E+01, 3.100E+01, 3.100E+01, 3.100E+01, 3.100E+01,-3.203E-05, 2.095E-01, 3.901E-04, 0.000E+00
-1.992E+01, 3.100E+01, 3.100E+01, 3.100E+01, 3.100E+01, 3.100E+01, 3.100E+01, 3.100E+01, 3.100E+01,-3.356E-05, 2.095E-01, 3.901E-04, 0.000E+00
-9.896E+00, 3.100E+01, 3.100E+01, 3.100E+01, 3.100E+01, 3.100E+01, 3.100E+01, 3.100E+01, 3.100E+01,-3.504E-05, 2.095E-01, 3.901E-04, 0.000E+00
 1.301E-02, 3.100E+01, 3.100E+01, 3.100E+01, 3.100E+01, 3.100E+01, 3.100E+01, 3.100E+01, 3.100E+01,-3.470E-05, 2.095E-01, 3.901E-04, 1.761E-04
 1.001E+01, 3.217E+01, 3.221E+01, 3.150E+01, 3.118E+01, 3.383E+01, 3.180E+01, 3.123E+01, 3.362E+01, 1.528E+01, 2.093E-01, 5.442E-04, 3.304E+01
 2.001E+01, 3.553E+01, 3.641E+01, 3.269E+01, 3.358E+01, 4.032E+01, 3.383E+01, 3.284E+01, 4.257E+01, 8.540E+01, 2.085E-01, 9.985E-04, 9.928E+01
 3.000E+01, 4.397E+01, 4.560E+01, 3.444E+01, 4.092E+01, 5.655E+01, 3.650E+01, 4.051E+01, 5.978E+01, 2.015E+02, 2.064E-01, 2.148E-03, 1.660E+02
 4.001E+01, 5.611E+01, 5.662E+01, 3.886E+01, 5.685E+01, 7.261E+01, 4.035E+01, 5.394E+01, 7.555E+01, 2.631E+02, 2.047E-01, 3.074E-03, 2.004E+02
 5.001E+01, 6.869E+01, 6.963E+01, 4.431E+01, 7.305E+01, 8.871E+01, 4.683E+01, 7.213E+01, 8.993E+01, 2.171E+02, 2.033E-01, 3.859E-03, 2.010E+02
 6.002E+01, 7.989E+01, 8.111E+01, 5.365E+01, 8.760E+01, 9.843E+01, 5.654E+01, 8.583E+01, 1.010E+02, 1.713E+02, 2.021E-01, 4.556E-03, 2.002E+02
 7.000E+01, 9.086E+01, 9.227E+01, 6.448E+01, 9.971E+01, 1.084E+02, 6.598E+01, 9.886E+01, 1.120E+02, 1.320E+02, 2.002E-01, 5.624E-03, 2.012E+02
 8.001E+01, 1.001E+02, 9.976E+01, 7.584E+01, 1.082E+02, 1.163E+02, 7.761E+01, 1.021E+02, 1.196E+02, 9.687E+01, 1.985E-01, 6.574E-03, 2.007E+02
 9.001E+01, 1.087E+02, 1.073E+02, 8.452E+01, 1.169E+02, 1.248E+02, 8.495E+01, 1.108E+02, 1.260E+02, 6.891E+01, 1.972E-01, 7.264E-03, 2.004E+02
 1.000E+02, 1.137E+02, 1.142E+02, 9.146E+01, 1.201E+02, 1.296E+02, 9.249E+01, 1.169E+02, 1.332E+02, 5.357E+01, 1.958E-01, 8.052E-03, 2.010E+02
 1.100E+02, 1.190E+02, 1.222E+02, 9.745E+01, 1.249E+02, 1.346E+02, 9.944E+01, 1.255E+02, 1.417E+02, 3.783E+01, 1.944E-01, 8.858E-03, 2.010E+02
 1.200E+02, 1.244E+02, 1.257E+02, 1.020E+02, 1.308E+02, 1.404E+02, 1.054E+02, 1.292E+02, 1.426E+02, 2.923E+01, 1.936E-01, 9.313E-03, 2.005E+02
 1.300E+02, 1.273E+02, 1.292E+02, 1.078E+02, 1.326E+02, 1.415E+02, 1.078E+02, 1.307E+02, 1.492E+02, 2.317E+01, 1.921E-01, 1.016E-02, 2.003E+02
 1.400E+02, 1.315E+02, 1.306E+02, 1.117E+02, 1.362E+02, 1.467E+02, 1.110E+02, 1.348E+02, 1.461E+02, 1.960E+01, 1.908E-01, 1.087E-02, 2.016E+02
 1.500E+02, 1.340E+02, 1.330E+02, 1.116E+02, 1.402E+02, 1.503E+02, 1.145E+02, 1.354E+02, 1.490E+02, 1.612E+01, 1.895E-01, 1.159E-02, 2.006E+02
 1.600E+02, 1.349E+02, 1.358E+02, 1.148E+02, 1.409E+02, 1.492E+02, 1.159E+02, 1.374E+02, 1.541E+02, 1.463E+01, 1.873E-01, 1.281E-02, 2.009E+02
 1.700E+02, 1.364E+02, 1.364E+02, 1.170E+02, 1.427E+02, 1.497E+02, 1.174E+02, 1.401E+02, 1.517E+02, 1.377E+01, 1.865E-01, 1.325E-02, 2.001E+02
 1.800E+02, 1.373E+02, 1.391E+02, 1.163E+02, 1.431E+02, 1.524E+02, 1.202E+02, 1.420E+02, 1.550E+02, 1.289E+01, 1.846E-01, 1.430E-02, 2.009E+02
 1.900E+02, 1.391E+02, 1.404E+02, 1.211E+02, 1.443E+02, 1.520E+02, 1.195E+02, 1.430E+02, 1.587E+02, 1.337E+01, 1.830E-01, 1.520E-02, 1.998E+02
 2.000E+02, 1.409E+02, 1.419E+02, 1.217E+02, 1.454E+02, 1.555E+02, 1.211E+02, 1.439E+02, 1.607E+02, 1.199E+01, 1.811E-01, 1.630E-02, 2.006E+02
 2.100E+02, 1.407E+02, 1.422E+02, 1.206E+02, 1.446E+02, 1.569E+02, 1.217E+02, 1.440E+02, 1.608E+02, 1.280E+01, 1.800E-01, 1.691E-02, 2.011E+02
 2.200E+02, 1.418E+02, 1.432E+02, 1.231E+02, 1.461E+02, 1.563E+02, 1.234E+02, 1.454E+02, 1.607E+02, 1.211E+01, 1.784E-01, 1.779E-02, 1.999E+02
 2.300E+02, 1.407E+02, 1.450E+02, 1.225E+02, 1.456E+02, 1.539E+02, 1.247E+02, 1.454E+02, 1.648E+02, 1.214E+01, 1.762E-01, 1.901E-02, 2.004E+02
 2.400E+02, 1.421E+02, 1.451E+02, 1.241E+02, 1.460E+02, 1.563E+02, 1.251E+02, 1.443E+02, 1.659E+02, 1.221E+01, 1.745E-01, 1.996E-02, 2.006E+02
 2.500E+02, 1.433E+02, 1.447E+02, 1.246E+02, 1.478E+02, 1.576E+02, 1.268E+02, 1.445E+02, 1.629E+02, 1.214E+01, 1.737E-01, 2.043E-02, 2.002E+02
 2.600E+02, 1.423E+02, 1.492E+02, 1.257E+02, 1.450E+02, 1.562E+02, 1.272E+02, 1.495E+02, 1.708E+02, 1.263E+01, 1.716E-01, 2.160E-02, 2.000E+02
 2.700E+02, 1.436E+02, 1.476E+02, 1.303E+02, 1.449E+02, 1.556E+02, 1.272E+02, 1.477E+02, 1.678E+02, 1.255E+01, 1.707E-01, 2.208E-02, 2.001E+02
 2.800E+02, 1.442E+02, 1.451E+02, 1.296E+02, 1.464E+02, 1.565E+02, 1.286E+02, 1.458E+02, 1.610E+02, 1.203E+01, 1.696E-01, 2.270E-02, 2.009E+02
 2.900E+02, 1.464E+02, 1.450E+02, 1.268E+02, 1.491E+02, 1.634E+02, 1.269E+02, 1.470E+02, 1.611E+02, 1.155E+01, 1.675E-01, 2.389E-02, 2.000E+02
 3.000E+02, 1.453E+02, 1.480E+02, 1.251E+02, 1.492E+02, 1.615E+02, 1.293E+02, 1.493E+02, 1.655E+02, 1.202E+01, 1.658E-01, 2.482E-02, 2.005E+02
 3.100E+02, 1.465E+02, 1.473E+02, 1.293E+02, 1.496E+02, 1.607E+02, 1.257E+02, 1.515E+02, 1.647E+02, 1.197E+01, 1.641E-01, 2.577E-02, 2.003E+02
 3.200E+02, 1.457E+02, 1.477E+02, 1.268E+02, 1.486E+02, 1.617E+02, 1.284E+02, 1.513E+02, 1.633E+02, 1.249E+01, 1.628E-01, 2.648E-02, 2.003E+02
 3.300E+02, 1.473E+02, 1.472E+02, 1.272E+02, 1.511E+02, 1.637E+02, 1.281E+02, 1.482E+02, 1.654E+02, 1.198E+01, 1.615E-01, 2.722E-02, 2.007E+02
 3.400E+02, 1.485E+02, 1.459E+02, 1.303E+02, 1.508E+02, 1.642E+02, 1.267E+02, 1.503E+02, 1.606E+02, 1.302E+01, 1.602E-01, 2.795E-02, 1.999E+02
 3.500E+02, 1.491E+02, 1.464E+02, 1.268E+02, 1.556E+02, 1.650E+02, 1.281E+02, 1.505E+02, 1.607E+02, 1.236E+01, 1.587E-01, 2.880E-02, 1.995E+02
 3.600E+02, 1.501E+02, 1.475E+02, 1.303E+02, 1.558E+02, 1.641E+02, 1.292E+02, 1.515E+02, 1.617E+02, 1.313E+01, 1.572E-01, 2.965E-02, 2.013E+02
 3.700E+02, 1.477E+02, 1.472E+02, 1.264E+02, 1.509E+02, 1.657E+02, 1.274E+02, 1.523E+02, 1.618E+02, 1.247E+01, 1.550E-01, 3.084E-02, 1.996E+02
 3.800E+02, 1.464E+02, 1.489E+02, 1.278E+02, 1.504E+02, 1.611E+02, 1.284E+02, 1.544E+02, 1.640E+02, 1.259E+01, 1.534E-01, 3.179E-02, 1.997E+02
 3.900E+02, 1.461E+02, 1.462E+02, 1.282E+02, 1.487E+02, 1.613E+02, 1.277E+02, 1.498E+02, 1.611E+02, 1.297E+01, 1.516E-01, 3.275E-02, 2.011E+02
 4.000E+02, 1.455E+02, 1.475E+02, 1.284E+02, 1.480E+02, 1.601E+02, 1.272E+02, 1.500E+02, 1.652E+02, 1.236E+01, 1.492E-01, 3.411E-02, 2.002E+02
 4.100E+02, 1.482E+02, 1.508E+02, 1.290E+02, 1.517E+02, 1.639E+02, 1.306E+02, 1.561E+02, 1.657E+02, 1.251E+01, 1.480E-01, 3.475E-02, 2.002E+02
 4.200E+02, 1.467E+02, 1.503E+02, 1.282E+02, 1.500E+02, 1.618E+02, 1.285E+02, 1.531E+02, 1.691E+02, 1.314E+01, 1.460E-01, 3.592E-02, 2.001E+02
 4.300E+02, 1.509E+02, 1.491E+02, 1.312E+02, 1.557E+02, 1.658E+02, 1.301E+02, 1.546E+02, 1.627E+02, 1.245E+01, 1.455E-01, 3.620E-02, 2.007E+02
 4.400E+02, 1.481E+02, 1.495E+02, 1.270E+02, 1.519E+02, 1.655E+02, 1.302E+02, 1.513E+02, 1.669E+02, 1.261E+01, 1.431E-01, 3.752E-02, 2.001E+02
 4.500E+02, 1.495E+02, 1.508E+02, 1.292E+02, 1.550E+02, 1.643E+02, 1.297E+02, 1.557E+02, 1.671E+02, 1.249E+01, 1.418E-01, 3.825E-02, 1.995E+02
 4.600E+02, 1.481E+02, 1.531E+02, 1.299E+02, 1.508E+02, 1.637E+02, 1.329E+02, 1.577E+02, 1.686E+02, 1.353E+01, 1.395E-01, 3.954E-02, 1.996E+02
 4.700E+02, 1.505E+02, 1.491E+02, 1.310E+02, 1.565E+02, 1.641E+02, 1.287E+02, 1.529E+02, 1.658E+02, 1.350E+01, 1.386E-01, 4.004E-02, 1.999E+02
 4.800E+02, 1.504E+02, 1.513E+02, 1.336E+02, 1.547E+02, 1.628E+02, 1.306E+02, 1.535E+02, 1.699E+02, 1.229E+01, 1.373E-01, 4.077E-02, 1.951E+02
 4.900E+02, 1.489E+02, 1.499E+02, 1.308E+02, 1.547E+02, 1.610E+02, 1.286E+02, 1.515E+02, 1.695E+02, 1.137E+01, 1.355E-01, 4.178E-02, 1.910E+02
 5.000E+02, 1.483E+02, 1.530E+02, 1.345E+02, 1.529E+02, 1.575E+02, 1.259E+02, 1.542E+02, 1.789E+02, 2.452E+01, 1.332E-01, 4.301E-02, 1.827E+02
 5.100E+02, 1.506E+02, 1.559E+02, 1.416E+02, 1.530E+02, 1.572E+02, 1.248E+02, 1.602E+02, 1.827E+02, 1.013E+01, 1.328E-01, 4.323E-02, 1.731E+02
 5.200E+02, 1.485E+02, 1.507E+02, 1.363E+02, 1.506E+02, 1.586E+02, 1.299E+02, 1.527E+02, 1.694E+02, 1.415E+01, 1.321E-01, 4.363E-02, 1.925E+02
 5.300E+02, 1.470E+02, 1.463E+02, 1.358E+02, 1.512E+02, 1.540E+02, 1.288E+02, 1.492E+02, 1.608E+02,-1.248E+01, 1.316E-01, 4.390E-02, 1.410E+02
 5.400E+02, 1.452E+02, 1.437E+02, 1.321E+02, 1.513E+02, 1.523E+02, 1.269E+02, 1.458E+02, 1.583E+02, 1.440E+01, 1.308E-01, 4.428E-02, 1.820E+02
 5.500E+02, 1.427E+02, 1.420E+02, 1.270E+02, 1.482E+02, 1.529E+02, 1.249E+02, 1.443E+02, 1.569E+02,-2.690E+01, 1.295E-01, 4.500E-02, 1.278E+02
 5.600E+02, 1.414E+02, 1.405E+02, 1.270E+02, 1.469E+02, 1.505E+02, 1.227E+02, 1.420E+02, 1.568E+02,-6.755E+00, 1.291E-01, 4.523E-02, 1.452E+02
 5.700E+02, 1.358E+02, 1.372E+02, 1.206E+02, 1.399E+02, 1.470E+02, 1.208E+02, 1.388E+02, 1.522E+02,-1.022E+01, 1.291E-01, 4.514E-02, 1.178E+02
 5.800E+02, 1.357E+02, 1.350E+02, 1.267E+02, 1.381E+02, 1.423E+02, 1.190E+02, 1.366E+02, 1.495E+02,-2.932E+01, 1.292E-01, 4.508E-02, 1.173E+02
 5.900E+02, 1.332E+02, 1.340E+02, 1.203E+02, 1.366E+02, 1.426E+02, 1.189E+02, 1.350E+02, 1.481E+02, 6.608E+01, 1.287E-01, 4.532E-02, 1.572E+02
 6.000E+02, 1.323E+02, 1.342E+02, 1.162E+02, 1.376E+02, 1.429E+02, 1.212E+02, 1.319E+02, 1.495E+02, 3.143E+00, 1.286E-01, 4.537E-02, 1.192E+02
 6.100E+02, 1.294E+02, 1.327E+02, 1.143E+02, 1.342E+02, 1.397E+02, 1.197E+02, 1.338E+02, 1.446E+02,-3.474E+01, 1.287E-01, 4.523E-02, 6.006E+01
 6.200E+02, 1.263E+02, 1.279E+02, 1.155E+02, 1.297E+02, 1.336E+02, 1.198E+02, 1.281E+02, 1.357E+02, 3.002E+00, 1.307E-01, 4.398E-02, 7.766E+01
 6.300E+02, 1.231E+02, 1.223E+02, 1.155E+02, 1.260E+02, 1.276E+02, 1.152E+02, 1.238E+02, 1.279E+02,-2.092E+01, 1.309E-01, 4.381E-02, 4.131E+00
 6.400E+02, 1.186E+02, 1.182E+02, 1.106E+02, 1.205E+02, 1.246E+02, 1.082E+02, 1.197E+02, 1.266E+02,-9.185E+00, 1.322E-01, 4.323E-02, 0.000E+00
 6.500E+02, 1.165E+02, 1.142E+02, 1.110E+02, 1.177E+02, 1.207E+02, 1.055E+02, 1.141E+02, 1.231E+02, 3.806E+00, 1.309E-01, 4.378E-02, 0.000E+00
 6.600E+02, 1.135E+02, 1.147E+02, 1.073E+02, 1.156E+02, 1.177E+02, 1.053E+02, 1.183E+02, 1.205E+02,-4.219E+00, 1.320E-01, 4.326E-02, 2.089E-02
 6.700E+02, 1.096E+02, 1.078E+02, 1.030E+02, 1.112E+02, 1.147E+02, 9.762E+01, 1.099E+02, 1.158E+02,-1.700E+00, 1.319E-01, 4.320E-02, 0.000E+00
 6.800E+02, 1.077E+02, 1.048E+02, 1.020E+02, 1.090E+02, 1.121E+02, 9.515E+01, 1.063E+02, 1.130E+02,-9.172E-01, 1.315E-01, 4.328E-02, 0.000E+00
 6.900E+02, 1.055E+02, 1.032E+02, 9.938E+01, 1.077E+02, 1.093E+02, 9.533E+01, 1.045E+02, 1.099E+02,-8.608E-02, 1.321E-01, 4.289E-02, 0.000E+00
 7.000E+02, 1.020E+02, 1.064E+02, 9.542E+01, 1.043E+02, 1.065E+02, 1.038E+02, 1.062E+02, 1.093E+02, 1.633E+00, 1.325E-01, 4.280E-02, 0.000E+00
 7.100E+02, 9.858E+01, 9.832E+01, 9.139E+01, 1.013E+02, 1.030E+02, 9.007E+01, 9.925E+01, 1.057E+02, 3.797E+00, 1.325E-01, 4.251E-02, 0.000E+00
 7.200E+02, 9.803E+01, 9.616E+01, 9.274E+01, 9.967E+01, 1.017E+02, 8.723E+01, 9.746E+01, 1.038E+02, 3.324E+00, 1.315E-01, 4.291E-02, 0.000E+00
 7.300E+02, 9.638E+01, 9.446E+01, 9.030E+01, 9.852E+01, 1.003E+02, 8.605E+01, 9.572E+01, 1.016E+02, 1.852E+00, 1.320E-01, 4.279E-02, 0.000E+00
 7.400E+02, 9.486E+01, 9.273E+01, 8.999E+01, 9.636E+01, 9.822E+01, 8.659E+01, 9.227E+01, 9.934E+01, 3.613E+00, 1.323E-01, 4.259E-02, 0.000E+00
 7.500E+02, 9.180E+01, 9.138E+01, 8.542E+01, 9.400E+01, 9.599E+01, 8.529E+01, 9.076E+01, 9.808E+01, 3.611E+00, 1.323E-01, 4.252E-02, 0.000E+00
 7.600E+02, 9.104E+01, 8.948E+01, 8.637E+01, 9.269E+01, 9.405E+01, 8.294E+01, 9.006E+01, 9.544E+01, 4.566E+00, 1.322E-01, 4.246E-02, 0.000E+00
 7.700E+02, 9.028E+01, 8.833E+01, 8.607E+01, 9.164E+01, 9.313E+01, 8.303E+01, 8.766E+01, 9.430E+01, 4.242E+00, 1.320E-01, 4.231E-02, 0.000E+00
 7.800E+02, 8.815E+01, 8.808E+01, 8.369E+01, 8.975E+01, 9.102E+01, 8.306E+01, 8.771E+01, 9.346E+01, 4.579E+00, 1.322E-01, 4.229E-02, 0.000E+00
 7.900E+02, 8.685E+01, 8.602E+01, 8.324E+01, 8.772E+01, 8.958E+01, 7.998E+01, 8.666E+01, 9.142E+01, 3.588E+00, 1.322E-01, 4.234E-02, 0.000E+00
 8.000E+02, 8.661E+01, 8.447E+01, 8.367E+01, 8.743E+01, 8.875E+01, 7.840E+01, 8.495E+01, 9.006E+01, 3.909E+00, 1.317E-01, 4.218E-02, 0.000E+00
 8.100E+02, 8.473E+01, 8.368E+01, 8.111E+01, 8.593E+01, 8.715E+01, 7.805E+01, 8.468E+01, 8.832E+01, 3.754E+00, 1.320E-01, 4.213E-02, 0.000E+00
 8.200E+02, 8.368E+01, 8.266E+01, 8.056E+01, 8.452E+01, 8.598E+01, 7.747E+01, 8.330E+01, 8.720E+01, 3.973E+00, 1.319E-01, 4.207E-02, 0.000E+00
 8.300E+02, 8.294E+01, 8.125E+01, 8.024E+01, 8.379E+01, 8.479E+01, 7.654E+01, 8.097E+01, 8.623E+01, 3.871E+00, 1.317E-01, 4.204E-02, 0.000E+00
 8.400E+02, 8.175E+01, 8.145E+01, 7.923E+01, 8.243E+01, 8.358E+01, 7.676E+01, 8.083E+01, 8.675E+01, 3.802E+00, 1.319E-01, 4.196E-02, 0.000E+00
 8.500E+02, 8.064E+01, 8.014E+01, 7.790E+01, 8.147E+01, 8.255E+01, 7.536E+01, 8.049E+01, 8.456E+01, 4.302E+00, 1.319E-01, 4.192E-02, 0.000E+00
 8.600E+02, 8.005E+01, 7.915E+01, 7.725E+01, 8.075E+01, 8.214E+01, 7.373E+01, 7.984E+01, 8.389E+01, 3.858E+00, 1.317E-01, 4.186E-02, 0.000E+00
 8.700E+02, 7.953E+01, 7.841E+01, 7.674E+01, 8.047E+01, 8.139E+01, 7.317E+01, 7.873E+01, 8.333E+01, 4.777E+00, 1.315E-01, 4.187E-02, 0.000E+00
 8.800E+02, 7.876E+01, 7.770E+01, 7.549E+01, 7.976E+01, 8.105E+01, 7.327E+01, 7.728E+01, 8.254E+01, 5.125E+00, 1.315E-01, 4.181E-02, 0.000E+00
 8.900E+02, 7.776E+01, 7.819E+01, 7.418E+01, 7.906E+01, 8.003E+01, 7.520E+01, 7.725E+01, 8.211E+01, 4.059E+00, 1.316E-01, 4.177E-02, 0.000E+00
 9.000E+02, 7.760E+01, 7.687E+01, 7.529E+01, 7.825E+01, 7.925E+01, 7.284E+01, 7.624E+01, 8.153E+01, 5.149E+00, 1.316E-01, 4.173E-02, 0.000E+00
 9.100E+02, 7.757E+01, 7.606E+01, 7.526E+01, 7.808E+01, 7.939E+01, 7.067E+01, 7.648E+01, 8.103E+01, 5.193E+00, 1.314E-01, 4.165E-02, 0.000E+00
 9.200E+02, 7.688E+01, 7.571E+01, 7.392E+01, 7.765E+01, 7.907E+01, 7.148E+01, 7.507E+01, 8.059E+01, 4.991E+00, 1.313E-01, 4.158E-02, 0.000E+00
 9.300E+02, 7.650E+01, 7.467E+01, 7.372E+01, 7.721E+01, 7.858E+01, 7.153E+01, 7.334E+01, 7.913E+01, 5.085E+00, 1.313E-01, 4.154E-02, 0.000E+00
 9.400E+02, 7.627E+01, 7.453E+01, 7.389E+01, 7.678E+01, 7.814E+01, 7.156E+01, 7.312E+01, 7.892E+01, 5.043E+00, 1.310E-01, 4.142E-02, 0.000E+00
 9.500E+02, 7.546E+01, 7.497E+01, 7.258E+01, 7.615E+01, 7.763E+01, 7.200E+01, 7.396E+01, 7.895E+01, 5.503E+00, 1.312E-01, 4.153E-02, 0.000E+00
 9.600E+02, 7.541E+01, 7.426E+01, 7.269E+01, 7.601E+01, 7.751E+01, 6.980E+01, 7.416E+01, 7.881E+01, 5.746E+00, 1.313E-01, 4.151E-02, 0.000E+00
 9.700E+02, 7.514E+01, 7.384E+01, 7.204E+01, 7.594E+01, 7.743E+01, 7.026E+01, 7.308E+01, 7.818E+01, 5.124E+00, 1.309E-01, 4.137E-02, 0.000E+00
 9.800E+02, 7.523E+01, 7.392E+01, 7.250E+01, 7.599E+01, 7.719E+01, 7.078E+01, 7.292E+01, 7.807E+01, 5.922E+00, 1.310E-01, 4.138E-02, 0.000E+00
 9.900E+02, 7.447E+01, 7.356E+01, 7.153E+01, 7.527E+01, 7.662E+01, 7.075E+01, 7.213E+01, 7.779E+01, 6.872E+00, 1.311E-01, 4.140E-02, 0.000E+00
 1.000E+03, 7.403E+01, 7.387E+01, 7.048E+01, 7.495E+01, 7.665E+01, 7.084E+01, 7.225E+01, 7.853E+01, 4.932E+00, 1.308E-01, 4.126E-02, 0.000E+00
