s,C,C,C,C,C,C,C,C,Pa,mol/mol,mol/mol,kW
Time,"West_All_TCs","East_All_TCs","West_Bottom_TCs","West_Middle_TCs","West_Upper_TCs","East_Bottom_TCs","East_Middle_TCs","East_Upper_TCs","Pressure","O2","CO2","HRR"
-6.000E+01, 2.200E+01, 2.200E+01, 2.200E+01, 2.200E+01, 2.200E+01, 2.200E+01, 2.200E+01, 2.200E+01,-9.732E-06, 2.095E-01, 3.901E-04, 0.000E+00
-4.998E+01, 2.200E+01, 2.200E+01, 2.200E+01, 2.200E+01, 2.200E+01, 2.200E+01, 2.200E+01, 2.200E+01,-1.542E-05, 2.095E-01, 3.901E-04, 0.000E+00
-3.996E+01, 2.200E+01, 2.200E+01, 2.200E+01, 2.200E+01, 2.200E+01, 2.200E+01, 2.200E+01, 2.200E+01,-9.938E-06, 2.095E-01, 3.901E-04, 0.000E+00
-2.994E+01, 2.200E+01, 2.200E+01, 2.200E+01, 2.200E+01, 2.200E+01, 2.200E+01, 2.200E+01, 2.200E+01,-2.138E-06, 2.095E-01, 3.901E-04, 0.000E+00
-1.992E+01, 2.200E+01, 2.200E+01, 2.200E+01, 2.200E+01, 2.200E+01, 2.200E+01, 2.200E+01, 2.200E+01,-3.352E-08, 2.095E-01, 3.901E-04, 0.000E+00
-9.896E+00, 2.200E+01, 2.200E+01, 2.200E+01, 2.200E+01, 2.200E+01, 2.200E+01, 2.200E+01, 2.200E+01, 7.378E-07, 2.095E-01, 3.901E-04, 0.000E+00
 1.301E-02, 2.200E+01, 2.200E+01, 2.200E+01, 2.200E+01, 2.200E+01, 2.200E+01, 2.200E+01, 2.200E+01,-4.477E-07, 2.095E-01, 3.901E-04, 8.818E-05
 1.002E+01, 2.235E+01, 2.248E+01, 2.223E+01, 2.208E+01, 2.274E+01, 2.236E+01, 2.210E+01, 2.297E+01, 2.314E-02, 2.094E-01, 4.510E-04, 1.639E+01
 2.003E+01, 2.368E+01, 2.437E+01, 2.283E+01, 2.231E+01, 2.591E+01, 2.327E+01, 2.238E+01, 2.747E+01, 6.396E-02, 2.089E-01, 7.712E-04, 4.967E+01
 3.002E+01, 2.804E+01, 2.807E+01, 2.365E+01, 2.607E+01, 3.440E+01, 2.442E+01, 2.538E+01, 3.440E+01, 4.899E-01, 2.081E-01, 1.178E-03, 8.298E+01
 4.002E+01, 3.358E+01, 3.357E+01, 2.445E+01, 3.130E+01, 4.498E+01, 2.523E+01, 3.116E+01, 4.433E+01, 1.139E+00, 2.072E-01, 1.700E-03, 1.000E+02
 5.001E+01, 3.893E+01, 3.923E+01, 2.589E+01, 3.857E+01, 5.232E+01, 2.676E+01, 3.892E+01, 5.201E+01, 1.910E+00, 2.063E-01, 2.194E-03, 1.001E+02
 6.002E+01, 4.498E+01, 4.492E+01, 2.745E+01, 4.759E+01, 5.989E+01, 2.870E+01, 4.762E+01, 5.844E+01, 2.664E+00, 2.056E-01, 2.617E-03, 1.000E+02
 7.003E+01, 4.887E+01, 4.926E+01, 3.028E+01, 5.269E+01, 6.365E+01, 3.142E+01, 5.328E+01, 6.307E+01, 3.150E+00, 2.051E-01, 2.862E-03, 1.001E+02
 8.001E+01, 5.326E+01, 5.345E+01, 3.311E+01, 5.988E+01, 6.679E+01, 3.425E+01, 5.897E+01, 6.712E+01, 3.594E+00, 2.047E-01, 3.115E-03, 1.003E+02
 9.002E+01, 5.637E+01, 5.685E+01, 3.552E+01, 6.340E+01, 7.017E+01, 3.683E+01, 6.312E+01, 7.060E+01, 3.938E+00, 2.042E-01, 3.373E-03, 1.001E+02
 1.000E+02, 5.914E+01, 5.953E+01, 3.838E+01, 6.536E+01, 7.368E+01, 3.904E+01, 6.590E+01, 7.365E+01, 4.176E+00, 2.037E-01, 3.655E-03, 1.001E+02
 1.100E+02, 6.171E+01, 6.161E+01, 4.028E+01, 6.828E+01, 7.656E+01, 4.058E+01, 6.839E+01, 7.588E+01, 4.433E+00, 2.032E-01, 3.921E-03, 1.002E+02
 1.200E+02, 6.328E+01, 6.335E+01, 4.212E+01, 6.983E+01, 7.790E+01, 4.141E+01, 7.083E+01, 7.782E+01, 4.595E+00, 2.029E-01, 4.101E-03, 1.002E+02
 1.300E+02, 6.503E+01, 6.498E+01, 4.240E+01, 7.296E+01, 7.974E+01, 4.291E+01, 7.360E+01, 7.843E+01, 4.821E+00, 2.025E-01, 4.306E-03, 1.001E+02
 1.400E+02, 6.616E+01, 6.608E+01, 4.277E+01, 7.527E+01, 8.044E+01, 4.353E+01, 7.431E+01, 8.039E+01, 4.945E+00, 2.021E-01, 4.566E-03, 1.001E+02
 1.500E+02, 6.616E+01, 6.706E+01, 4.336E+01, 7.404E+01, 8.108E+01, 4.381E+01, 7.604E+01, 8.134E+01, 5.107E+00, 2.020E-01, 4.606E-03, 1.001E+02
 1.600E+02, 6.719E+01, 6.807E+01, 4.405E+01, 7.512E+01, 8.239E+01, 4.490E+01, 7.703E+01, 8.226E+01, 5.113E+00, 2.018E-01, 4.696E-03, 1.002E+02
 1.700E+02, 6.763E+01, 6.883E+01, 4.442E+01, 7.560E+01, 8.288E+01, 4.638E+01, 7.758E+01, 8.252E+01, 5.145E+00, 2.015E-01, 4.880E-03, 1.001E+02
 1.800E+02, 6.834E+01, 6.988E+01, 4.528E+01, 7.620E+01, 8.352E+01, 4.755E+01, 7.817E+01, 8.392E+01, 5.307E+00, 2.014E-01, 4.942E-03, 1.004E+02
 1.900E+02, 6.818E+01, 6.957E+01, 4.553E+01, 7.563E+01, 8.337E+01, 4.758E+01, 7.859E+01, 8.253E+01, 5.280E+00, 2.012E-01, 5.057E-03, 9.992E+01
 2.000E+02, 6.939E+01, 6.982E+01, 4.529E+01, 7.769E+01, 8.518E+01, 4.772E+01, 7.868E+01, 8.307E+01, 5.292E+00, 2.011E-01, 5.116E-03, 1.003E+02
 2.100E+02, 6.944E+01, 7.061E+01, 4.563E+01, 7.712E+01, 8.556E+01, 4.846E+01, 8.012E+01, 8.325E+01, 5.284E+00, 2.009E-01, 5.238E-03, 1.003E+02
 2.200E+02, 6.964E+01, 7.127E+01, 4.722E+01, 7.693E+01, 8.478E+01, 4.923E+01, 7.952E+01, 8.505E+01, 5.260E+00, 2.006E-01, 5.390E-03, 1.000E+02
 2.300E+02, 7.031E+01, 7.073E+01, 4.662E+01, 7.824E+01, 8.607E+01, 5.037E+01, 7.845E+01, 8.337E+01, 5.334E+00, 2.005E-01, 5.424E-03, 1.001E+02
 2.400E+02, 7.106E+01, 7.103E+01, 4.625E+01, 8.012E+01, 8.680E+01, 4.975E+01, 7.846E+01, 8.489E+01, 5.361E+00, 2.002E-01, 5.584E-03, 1.002E+02
 2.500E+02, 7.081E+01, 7.149E+01, 4.734E+01, 7.965E+01, 8.544E+01, 4.972E+01, 8.039E+01, 8.437E+01, 5.358E+00, 2.003E-01, 5.577E-03, 1.005E+02
 2.600E+02, 7.048E+01, 7.133E+01, 4.729E+01, 7.925E+01, 8.489E+01, 5.033E+01, 8.077E+01, 8.290E+01, 5.424E+00, 2.003E-01, 5.556E-03, 1.001E+02
 2.700E+02, 7.052E+01, 7.152E+01, 4.660E+01, 7.863E+01, 8.633E+01, 4.847E+01, 8.119E+01, 8.491E+01, 5.421E+00, 1.999E-01, 5.776E-03, 1.003E+02
 2.800E+02, 7.045E+01, 7.289E+01, 4.605E+01, 7.810E+01, 8.721E+01, 5.048E+01, 8.225E+01, 8.594E+01, 5.431E+00, 1.999E-01, 5.788E-03, 1.005E+02
 2.900E+02, 7.077E+01, 7.253E+01, 4.605E+01, 7.820E+01, 8.806E+01, 4.981E+01, 8.165E+01, 8.612E+01, 5.474E+00, 1.996E-01, 5.948E-03, 1.003E+02
 3.000E+02, 7.046E+01, 7.207E+01, 4.677E+01, 7.970E+01, 8.492E+01, 4.884E+01, 8.164E+01, 8.572E+01, 5.507E+00, 1.997E-01, 5.889E-03, 1.002E+02
 3.100E+02, 7.090E+01, 7.202E+01, 4.669E+01, 7.966E+01, 8.636E+01, 4.899E+01, 8.120E+01, 8.586E+01, 5.503E+00, 1.996E-01, 5.937E-03, 1.002E+02
 3.200E+02, 7.170E+01, 7.222E+01, 4.601E+01, 8.174E+01, 8.735E+01, 5.053E+01, 8.073E+01, 8.539E+01, 5.484E+00, 1.996E-01, 5.956E-03, 1.003E+02
 3.300E+02, 7.148E+01, 7.282E+01, 4.752E+01, 8.051E+01, 8.641E+01, 4.969E+01, 8.248E+01, 8.629E+01, 5.531E+00, 1.995E-01, 5.997E-03, 1.003E+02
 3.400E+02, 7.099E+01, 7.331E+01, 4.750E+01, 7.920E+01, 8.626E+01, 5.070E+01, 8.194E+01, 8.730E+01, 5.502E+00, 1.995E-01, 5.992E-03, 1.000E+02
 3.500E+02, 7.139E+01, 7.292E+01, 4.772E+01, 7.980E+01, 8.667E+01, 4.953E+01, 8.330E+01, 8.594E+01, 5.478E+00, 1.995E-01, 6.014E-03, 1.002E+02
 3.600E+02, 7.119E+01, 7.158E+01, 4.582E+01, 7.964E+01, 8.810E+01, 4.912E+01, 8.118E+01, 8.444E+01, 5.582E+00, 1.997E-01, 5.911E-03, 1.002E+02
 3.700E+02, 7.127E+01, 7.319E+01, 4.743E+01, 7.974E+01, 8.663E+01, 5.164E+01, 8.109E+01, 8.684E+01, 5.419E+00, 1.994E-01, 6.064E-03, 1.003E+02
 3.800E+02, 7.161E+01, 7.318E+01, 4.770E+01, 7.956E+01, 8.756E+01, 5.037E+01, 8.192E+01, 8.724E+01, 5.457E+00, 1.994E-01, 6.072E-03, 1.002E+02
 3.900E+02, 7.269E+01, 7.314E+01, 4.705E+01, 8.284E+01, 8.817E+01, 5.106E+01, 8.181E+01, 8.656E+01, 5.573E+00, 1.993E-01, 6.129E-03, 1.002E+02
 4.000E+02, 7.258E+01, 7.322E+01, 4.751E+01, 8.206E+01, 8.817E+01, 5.020E+01, 8.205E+01, 8.741E+01, 5.543E+00, 1.992E-01, 6.197E-03, 1.002E+02
 4.100E+02, 7.171E+01, 7.417E+01, 4.724E+01, 8.106E+01, 8.684E+01, 5.069E+01, 8.334E+01, 8.847E+01, 5.545E+00, 1.990E-01, 6.257E-03, 1.004E+02
 4.200E+02, 7.231E+01, 7.367E+01, 4.684E+01, 8.125E+01, 8.886E+01, 5.043E+01, 8.262E+01, 8.795E+01, 5.503E+00, 1.991E-01, 6.206E-03, 1.004E+02
 4.300E+02, 7.255E+01, 7.337E+01, 4.661E+01, 8.192E+01, 8.912E+01, 5.095E+01, 8.235E+01, 8.681E+01, 5.673E+00, 1.992E-01, 6.166E-03, 1.003E+02
 4.400E+02, 7.138E+01, 7.362E+01, 4.730E+01, 7.887E+01, 8.798E+01, 5.045E+01, 8.327E+01, 8.714E+01, 5.601E+00, 1.990E-01, 6.270E-03, 1.001E+02
 4.500E+02, 7.221E+01, 7.355E+01, 4.773E+01, 7.974E+01, 8.917E+01, 5.083E+01, 8.394E+01, 8.589E+01, 5.538E+00, 1.991E-01, 6.210E-03, 1.002E+02
 4.600E+02, 7.253E+01, 7.301E+01, 4.723E+01, 8.086E+01, 8.949E+01, 5.199E+01, 8.154E+01, 8.550E+01, 5.615E+00, 1.991E-01, 6.245E-03, 1.003E+02
 4.700E+02, 7.239E+01, 7.387E+01, 4.812E+01, 7.995E+01, 8.909E+01, 5.262E+01, 8.289E+01, 8.609E+01, 5.638E+00, 1.992E-01, 6.190E-03, 1.003E+02
 4.800E+02, 7.170E+01, 7.351E+01, 4.687E+01, 8.077E+01, 8.745E+01, 5.155E+01, 8.169E+01, 8.728E+01, 5.581E+00, 1.991E-01, 6.240E-03, 1.003E+02
 4.900E+02, 7.213E+01, 7.326E+01, 4.642E+01, 8.164E+01, 8.832E+01, 5.105E+01, 8.233E+01, 8.638E+01, 5.533E+00, 1.990E-01, 6.287E-03, 9.997E+01
 5.000E+02, 7.258E+01, 7.318E+01, 4.691E+01, 8.214E+01, 8.869E+01, 4.916E+01, 8.368E+01, 8.671E+01, 5.579E+00, 1.989E-01, 6.315E-03, 1.004E+02
 5.100E+02, 7.241E+01, 7.403E+01, 4.733E+01, 8.146E+01, 8.845E+01, 4.962E+01, 8.390E+01, 8.857E+01, 5.654E+00, 1.989E-01, 6.339E-03, 1.002E+02
 5.200E+02, 7.217E+01, 7.449E+01, 4.698E+01, 8.130E+01, 8.823E+01, 5.171E+01, 8.366E+01, 8.810E+01, 5.654E+00, 1.990E-01, 6.309E-03, 1.002E+02
 5.300E+02, 7.294E+01, 7.429E+01, 4.726E+01, 8.212E+01, 8.945E+01, 5.121E+01, 8.460E+01, 8.706E+01, 5.569E+00, 1.988E-01, 6.390E-03, 1.002E+02
 5.400E+02, 7.343E+01, 7.434E+01, 4.744E+01, 8.282E+01, 9.002E+01, 5.154E+01, 8.375E+01, 8.774E+01, 5.575E+00, 1.988E-01, 6.415E-03, 1.003E+02
 5.500E+02, 7.392E+01, 7.438E+01, 4.798E+01, 8.367E+01, 9.010E+01, 5.048E+01, 8.377E+01, 8.889E+01, 5.616E+00, 1.989E-01, 6.348E-03, 1.002E+02
 5.600E+02, 7.397E+01, 7.406E+01, 4.811E+01, 8.414E+01, 8.967E+01, 5.078E+01, 8.386E+01, 8.756E+01, 5.631E+00, 1.989E-01, 6.335E-03, 1.001E+02
 5.700E+02, 7.311E+01, 7.402E+01, 4.675E+01, 8.339E+01, 8.918E+01, 5.007E+01, 8.362E+01, 8.838E+01, 5.787E+00, 1.989E-01, 6.366E-03, 1.002E+02
 5.800E+02, 7.236E+01, 7.475E+01, 4.688E+01, 8.155E+01, 8.866E+01, 5.069E+01, 8.476E+01, 8.881E+01, 5.803E+00, 1.989E-01, 6.339E-03, 1.006E+02
 5.900E+02, 7.251E+01, 7.367E+01, 4.782E+01, 8.057E+01, 8.915E+01, 4.992E+01, 8.343E+01, 8.768E+01, 5.664E+00, 1.990E-01, 6.310E-03, 1.002E+02
 6.000E+02, 7.312E+01, 7.310E+01, 4.837E+01, 8.215E+01, 8.885E+01, 4.977E+01, 8.152E+01, 8.801E+01, 5.693E+00, 1.992E-01, 6.195E-03, 1.001E+02
 6.100E+02, 7.264E+01, 7.387E+01, 4.786E+01, 8.098E+01, 8.907E+01, 5.130E+01, 8.168E+01, 8.861E+01, 5.621E+00, 1.990E-01, 6.288E-03, 1.002E+02
 6.200E+02, 7.321E+01, 7.454E+01, 4.782E+01, 8.302E+01, 8.880E+01, 5.076E+01, 8.373E+01, 8.911E+01, 5.682E+00, 1.991E-01, 6.217E-03, 1.003E+02
 6.300E+02, 7.337E+01, 7.517E+01, 4.857E+01, 8.340E+01, 8.815E+01, 5.067E+01, 8.513E+01, 8.971E+01, 5.837E+00, 1.991E-01, 6.236E-03, 1.000E+02
 6.400E+02, 7.246E+01, 7.499E+01, 4.818E+01, 8.210E+01, 8.710E+01, 5.132E+01, 8.350E+01, 9.017E+01, 5.674E+00, 1.991E-01, 6.251E-03, 1.002E+02
 6.500E+02, 7.332E+01, 7.393E+01, 4.841E+01, 8.336E+01, 8.818E+01, 5.010E+01, 8.198E+01, 8.970E+01, 5.644E+00, 1.992E-01, 6.147E-03, 1.005E+02
 6.600E+02, 7.343E+01, 7.363E+01, 4.857E+01, 8.352E+01, 8.818E+01, 5.107E+01, 8.060E+01, 8.923E+01, 5.639E+00, 1.993E-01, 6.135E-03, 1.002E+02
 6.700E+02, 7.445E+01, 7.435E+01, 5.010E+01, 8.425E+01, 8.900E+01, 5.148E+01, 8.177E+01, 8.979E+01, 5.616E+00, 1.994E-01, 6.035E-03, 1.001E+02
 6.800E+02, 7.462E+01, 7.470E+01, 4.834E+01, 8.598E+01, 8.954E+01, 5.106E+01, 8.231E+01, 9.074E+01, 5.691E+00, 1.992E-01, 6.180E-03, 1.003E+02
 6.900E+02, 7.450E+01, 7.416E+01, 4.943E+01, 8.496E+01, 8.910E+01, 5.056E+01, 8.125E+01, 9.068E+01, 5.674E+00, 1.991E-01, 6.236E-03, 1.003E+02
 7.000E+02, 7.449E+01, 7.442E+01, 4.948E+01, 8.523E+01, 8.877E+01, 5.055E+01, 8.115E+01, 9.157E+01, 5.655E+00, 1.991E-01, 6.237E-03, 1.000E+02
 7.100E+02, 7.506E+01, 7.454E+01, 5.109E+01, 8.600E+01, 8.810E+01, 5.100E+01, 8.226E+01, 9.035E+01, 5.723E+00, 1.992E-01, 6.186E-03, 1.008E+02
 7.200E+02, 7.431E+01, 7.586E+01, 5.133E+01, 8.474E+01, 8.686E+01, 5.232E+01, 8.380E+01, 9.144E+01, 5.694E+00, 1.993E-01, 6.100E-03, 1.003E+02
 7.300E+02, 7.428E+01, 7.504E+01, 5.162E+01, 8.341E+01, 8.780E+01, 5.128E+01, 8.284E+01, 9.101E+01, 5.604E+00, 1.993E-01, 6.102E-03, 1.005E+02
 7.400E+02, 7.465E+01, 7.465E+01, 4.969E+01, 8.563E+01, 8.862E+01, 5.057E+01, 8.247E+01, 9.090E+01, 5.795E+00, 1.991E-01, 6.216E-03, 1.001E+02
 7.500E+02, 7.405E+01, 7.464E+01, 4.946E+01, 8.437E+01, 8.832E+01, 5.055E+01, 8.187E+01, 9.149E+01, 5.717E+00, 1.993E-01, 6.129E-03, 1.002E+02
 7.600E+02, 7.445E+01, 7.395E+01, 5.025E+01, 8.519E+01, 8.792E+01, 4.985E+01, 8.146E+01, 9.053E+01, 5.708E+00, 1.995E-01, 6.029E-03, 1.002E+02
 7.700E+02, 7.477E+01, 7.478E+01, 4.883E+01, 8.675E+01, 8.872E+01, 5.100E+01, 8.209E+01, 9.125E+01, 5.719E+00, 1.994E-01, 6.054E-03, 1.002E+02
 7.800E+02, 7.490E+01, 7.534E+01, 4.981E+01, 8.616E+01, 8.872E+01, 5.115E+01, 8.239E+01, 9.249E+01, 5.694E+00, 1.994E-01, 6.066E-03, 1.002E+02
 7.900E+02, 7.504E+01, 7.518E+01, 4.991E+01, 8.671E+01, 8.851E+01, 5.187E+01, 8.219E+01, 9.149E+01, 5.766E+00, 1.993E-01, 6.103E-03, 1.002E+02
 8.000E+02, 7.442E+01, 7.461E+01, 4.921E+01, 8.637E+01, 8.770E+01, 5.071E+01, 8.194E+01, 9.119E+01, 5.754E+00, 1.993E-01, 6.124E-03, 1.001E+02
 8.100E+02, 7.482E+01, 7.451E+01, 4.973E+01, 8.583E+01, 8.890E+01, 4.999E+01, 8.198E+01, 9.155E+01, 5.736E+00, 1.994E-01, 6.052E-03, 1.002E+02
 8.200E+02, 7.447E+01, 7.489E+01, 5.011E+01, 8.486E+01, 8.844E+01, 5.048E+01, 8.231E+01, 9.188E+01, 5.730E+00, 1.993E-01, 6.128E-03, 1.000E+02
 8.300E+02, 7.498E+01, 7.487E+01, 5.055E+01, 8.556E+01, 8.883E+01, 4.994E+01, 8.247E+01, 9.220E+01, 5.746E+00, 1.995E-01, 6.012E-03, 1.002E+02
 8.400E+02, 7.450E+01, 7.503E+01, 4.862E+01, 8.669E+01, 8.819E+01, 5.073E+01, 8.250E+01, 9.185E+01, 5.763E+00, 1.994E-01, 6.058E-03, 1.003E+02
 8.500E+02, 7.474E+01, 7.478E+01, 4.897E+01, 8.628E+01, 8.896E+01, 5.008E+01, 8.171E+01, 9.254E+01, 5.688E+00, 1.993E-01, 6.140E-03, 1.000E+02
 8.600E+02, 7.529E+01, 7.493E+01, 5.030E+01, 8.617E+01, 8.941E+01, 4.979E+01, 8.340E+01, 9.159E+01, 5.755E+00, 1.995E-01, 6.018E-03, 1.008E+02
 8.700E+02, 7.514E+01, 7.568E+01, 4.964E+01, 8.644E+01, 8.933E+01, 4.985E+01, 8.392E+01, 9.327E+01, 5.765E+00, 1.993E-01, 6.095E-03, 9.983E+01
 8.800E+02, 7.524E+01, 7.525E+01, 5.134E+01, 8.557E+01, 8.881E+01, 5.057E+01, 8.333E+01, 9.186E+01, 5.795E+00, 1.996E-01, 5.941E-03, 1.002E+02
 8.900E+02, 7.520E+01, 7.570E+01, 5.123E+01, 8.467E+01, 8.971E+01, 5.266E+01, 8.280E+01, 9.165E+01, 5.733E+00, 1.995E-01, 5.997E-03, 1.001E+02
 9.000E+02, 7.514E+01, 7.611E+01, 5.210E+01, 8.551E+01, 8.783E+01, 5.300E+01, 8.491E+01, 9.043E+01, 5.748E+00, 1.996E-01, 5.944E-03, 9.991E+01
 9.100E+02, 7.490E+01, 7.526E+01, 5.016E+01, 8.588E+01, 8.866E+01, 5.090E+01, 8.420E+01, 9.069E+01, 5.649E+00, 1.994E-01, 6.034E-03, 1.002E+02
 9.200E+02, 7.572E+01, 7.552E+01, 5.414E+01, 8.526E+01, 8.774E+01, 5.172E+01, 8.481E+01, 9.003E+01, 5.814E+00, 1.998E-01, 5.844E-03, 1.000E+02
 9.300E+02, 7.535E+01, 7.510E+01, 5.301E+01, 8.450E+01, 8.854E+01, 5.198E+01, 8.282E+01, 9.049E+01, 5.803E+00, 1.994E-01, 6.079E-03, 1.002E+02
 9.400E+02, 7.466E+01, 7.501E+01, 4.968E+01, 8.480E+01, 8.949E+01, 5.221E+01, 8.252E+01, 9.030E+01, 5.797E+00, 1.995E-01, 6.012E-03, 9.995E+01
 9.500E+02, 7.617E+01, 7.558E+01, 5.089E+01, 8.674E+01, 9.088E+01, 5.237E+01, 8.267E+01, 9.169E+01, 5.784E+00, 1.995E-01, 6.011E-03, 1.003E+02
 9.600E+02, 7.634E+01, 7.630E+01, 5.165E+01, 8.549E+01, 9.189E+01, 5.269E+01, 8.371E+01, 9.251E+01, 5.789E+00, 1.994E-01, 6.081E-03, 1.005E+02
 9.700E+02, 7.617E+01, 7.676E+01, 5.061E+01, 8.641E+01, 9.148E+01, 5.273E+01, 8.401E+01, 9.355E+01, 5.776E+00, 1.993E-01, 6.140E-03, 1.005E+02
 9.800E+02, 7.730E+01, 7.708E+01, 5.284E+01, 8.858E+01, 9.047E+01, 5.364E+01, 8.618E+01, 9.143E+01, 5.945E+00, 1.994E-01, 6.076E-03, 1.003E+02
 9.900E+02, 7.593E+01, 7.621E+01, 5.103E+01, 8.615E+01, 9.061E+01, 5.356E+01, 8.358E+01, 9.149E+01, 5.879E+00, 1.993E-01, 6.101E-03, 1.002E+02
 1.000E+03, 7.659E+01, 7.626E+01, 5.200E+01, 8.782E+01, 8.994E+01, 5.226E+01, 8.396E+01, 9.257E+01, 5.736E+00, 1.994E-01, 6.078E-03, 1.002E+02
 1.010E+03, 7.610E+01, 7.669E+01, 5.064E+01, 8.709E+01, 9.055E+01, 5.224E+01, 8.461E+01, 9.323E+01, 5.844E+00, 1.993E-01, 6.118E-03, 1.000E+02
 1.020E+03, 7.605E+01, 7.701E+01, 5.080E+01, 8.689E+01, 9.046E+01, 5.253E+01, 8.500E+01, 9.349E+01, 5.850E+00, 1.995E-01, 6.012E-03, 1.002E+02
 1.030E+03, 7.608E+01, 7.689E+01, 5.024E+01, 8.800E+01, 9.000E+01, 5.152E+01, 8.490E+01, 9.424E+01, 5.846E+00, 1.994E-01, 6.048E-03, 1.003E+02
 1.040E+03, 7.663E+01, 7.672E+01, 5.157E+01, 8.803E+01, 9.029E+01, 5.142E+01, 8.529E+01, 9.345E+01, 5.852E+00, 1.996E-01, 5.935E-03, 1.006E+02
 1.050E+03, 7.617E+01, 7.567E+01, 5.008E+01, 8.807E+01, 9.038E+01, 5.146E+01, 8.364E+01, 9.191E+01, 5.853E+00, 1.995E-01, 5.993E-03, 9.994E+01
 1.060E+03, 7.667E+01, 7.627E+01, 5.208E+01, 8.554E+01, 9.239E+01, 5.178E+01, 8.475E+01, 9.228E+01, 5.916E+00, 1.996E-01, 5.942E-03, 1.001E+02
 1.070E+03, 7.733E+01, 7.641E+01, 5.359E+01, 8.631E+01, 9.210E+01, 5.283E+01, 8.521E+01, 9.118E+01, 5.898E+00, 1.996E-01, 5.935E-03, 1.005E+02
 1.080E+03, 7.660E+01, 7.649E+01, 5.302E+01, 8.588E+01, 9.089E+01, 5.422E+01, 8.393E+01, 9.131E+01, 5.822E+00, 1.996E-01, 5.928E-03, 1.001E+02
 1.090E+03, 7.628E+01, 7.687E+01, 5.225E+01, 8.592E+01, 9.067E+01, 5.316E+01, 8.483E+01, 9.261E+01, 5.859E+00, 1.997E-01, 5.871E-03, 1.002E+02
 1.100E+03, 7.656E+01, 7.656E+01, 5.163E+01, 8.741E+01, 9.063E+01, 5.305E+01, 8.521E+01, 9.141E+01, 5.826E+00, 1.996E-01, 5.975E-03, 1.000E+02
 1.110E+03, 7.671E+01, 7.691E+01, 5.160E+01, 8.673E+01, 9.180E+01, 5.245E+01, 8.517E+01, 9.311E+01, 5.901E+00, 1.996E-01, 5.971E-03, 1.004E+02
 1.120E+03, 7.642E+01, 7.584E+01, 5.231E+01, 8.633E+01, 9.061E+01, 5.216E+01, 8.376E+01, 9.161E+01, 5.834E+00, 1.996E-01, 5.962E-03, 1.000E+02
 1.130E+03, 7.649E+01, 7.671E+01, 5.283E+01, 8.587E+01, 9.075E+01, 5.263E+01, 8.451E+01, 9.299E+01, 5.821E+00, 1.998E-01, 5.821E-03, 1.003E+02
 1.140E+03, 7.618E+01, 7.656E+01, 5.377E+01, 8.505E+01, 8.971E+01, 5.331E+01, 8.310E+01, 9.328E+01, 5.864E+00, 1.997E-01, 5.878E-03, 1.002E+02
 1.150E+03, 7.617E+01, 7.678E+01, 5.178E+01, 8.588E+01, 9.084E+01, 5.302E+01, 8.476E+01, 9.255E+01, 5.849E+00, 1.997E-01, 5.908E-03, 1.003E+02
 1.160E+03, 7.694E+01, 7.673E+01, 5.228E+01, 8.685E+01, 9.169E+01, 5.164E+01, 8.463E+01, 9.392E+01, 5.843E+00, 1.995E-01, 6.011E-03, 1.001E+02
 1.170E+03, 7.702E+01, 7.752E+01, 5.074E+01, 8.857E+01, 9.176E+01, 5.207E+01, 8.508E+01, 9.541E+01, 5.889E+00, 1.993E-01, 6.090E-03, 1.001E+02
 1.180E+03, 7.788E+01, 7.742E+01, 5.247E+01, 8.858E+01, 9.258E+01, 5.180E+01, 8.599E+01, 9.448E+01, 5.858E+00, 1.992E-01, 6.163E-03, 1.001E+02
 1.190E+03, 7.647E+01, 7.791E+01, 4.975E+01, 8.837E+01, 9.127E+01, 5.219E+01, 8.599E+01, 9.554E+01, 5.961E+00, 1.992E-01, 6.166E-03, 1.002E+02
 1.200E+03, 7.655E+01, 7.747E+01, 5.144E+01, 8.773E+01, 9.048E+01, 5.097E+01, 8.601E+01, 9.542E+01, 5.929E+00, 1.995E-01, 6.009E-03, 1.001E+02
 1.210E+03, 7.664E+01, 7.631E+01, 5.072E+01, 8.702E+01, 9.219E+01, 5.142E+01, 8.474E+01, 9.277E+01, 5.873E+00, 1.994E-01, 6.049E-03, 1.004E+02
 1.220E+03, 7.635E+01, 7.720E+01, 5.281E+01, 8.584E+01, 9.040E+01, 5.256E+01, 8.497E+01, 9.405E+01, 5.913E+00, 1.996E-01, 5.928E-03, 1.005E+02
 1.230E+03, 7.791E+01, 7.744E+01, 5.381E+01, 8.676E+01, 9.316E+01, 5.308E+01, 8.602E+01, 9.323E+01, 5.876E+00, 1.995E-01, 5.997E-03, 1.003E+02
 1.240E+03, 7.654E+01, 7.673E+01, 5.256E+01, 8.659E+01, 9.046E+01, 5.204E+01, 8.373E+01, 9.442E+01, 5.917E+00, 1.996E-01, 5.965E-03, 9.991E+01
 1.250E+03, 7.707E+01, 7.758E+01, 5.302E+01, 8.718E+01, 9.102E+01, 5.372E+01, 8.493E+01, 9.409E+01, 5.799E+00, 1.995E-01, 5.999E-03, 1.001E+02
 1.260E+03, 7.643E+01, 7.777E+01, 5.299E+01, 8.594E+01, 9.034E+01, 5.450E+01, 8.493E+01, 9.389E+01, 5.868E+00, 1.994E-01, 6.062E-03, 1.001E+02
 1.270E+03, 7.642E+01, 7.757E+01, 5.117E+01, 8.508E+01, 9.302E+01, 5.368E+01, 8.619E+01, 9.284E+01, 5.929E+00, 1.994E-01, 6.062E-03, 1.003E+02
 1.280E+03, 7.614E+01, 7.772E+01, 5.008E+01, 8.494E+01, 9.341E+01, 5.398E+01, 8.549E+01, 9.368E+01, 5.947E+00, 1.996E-01, 5.930E-03, 1.001E+02
 1.290E+03, 7.713E+01, 7.829E+01, 5.148E+01, 8.789E+01, 9.202E+01, 5.356E+01, 8.617E+01, 9.514E+01, 5.913E+00, 1.995E-01, 6.014E-03, 1.003E+02
 1.300E+03, 7.771E+01, 7.744E+01, 5.183E+01, 8.921E+01, 9.209E+01, 5.359E+01, 8.549E+01, 9.324E+01, 5.904E+00, 1.995E-01, 5.995E-03, 1.001E+02
 1.310E+03, 7.820E+01, 7.735E+01, 5.340E+01, 9.022E+01, 9.098E+01, 5.297E+01, 8.606E+01, 9.302E+01, 5.960E+00, 1.995E-01, 6.021E-03, 1.002E+02
