s,C,C,C,C,C,C,C,C,Pa,mol/mol,mol/mol,kW
Time,"West_All_TCs","East_All_TCs","West_Bottom_TCs","West_Middle_TCs","West_Upper_TCs","East_Bottom_TCs","East_Middle_TCs","East_Upper_TCs","Pressure","O2","CO2","HRR"
-6.000E+01, 2.500E+01, 2.500E+01, 2.500E+01, 2.500E+01, 2.500E+01, 2.500E+01, 2.500E+01, 2.500E+01,-9.627E-06, 2.095E-01, 3.901E-04, 0.000E+00
-4.999E+01, 2.500E+01, 2.500E+01, 2.500E+01, 2.500E+01, 2.500E+01, 2.500E+01, 2.500E+01, 2.500E+01,-6.955E-04, 2.095E-01, 3.901E-04, 0.000E+00
-3.999E+01, 2.500E+01, 2.500E+01, 2.500E+01, 2.500E+01, 2.500E+01, 2.500E+01, 2.500E+01, 2.500E+01,-3.276E-05, 2.095E-01, 3.901E-04, 0.000E+00
-2.998E+01, 2.500E+01, 2.500E+01, 2.500E+01, 2.500E+01, 2.500E+01, 2.500E+01, 2.500E+01, 2.500E+01,-2.943E-05, 2.095E-01, 3.901E-04, 0.000E+00
-1.997E+01, 2.500E+01, 2.500E+01, 2.500E+01, 2.500E+01, 2.500E+01, 2.500E+01, 2.500E+01, 2.500E+01,-3.108E-05, 2.095E-01, 3.901E-04, 0.000E+00
-9.967E+00, 2.500E+01, 2.500E+01, 2.500E+01, 2.500E+01, 2.500E+01, 2.500E+01, 2.500E+01, 2.500E+01,-3.309E-05, 2.095E-01, 3.901E-04, 0.000E+00
 3.957E-02, 2.500E+01, 2.500E+01, 2.500E+01, 2.500E+01, 2.500E+01, 2.500E+01, 2.500E+01, 2.500E+01,-3.192E-05, 2.095E-01, 3.901E-04, 3.536E-04
 1.000E+01, 2.529E+01, 2.551E+01, 2.523E+01, 2.508E+01, 2.556E+01, 2.537E+01, 2.510E+01, 2.605E+01, 4.527E+00, 2.094E-01, 4.507E-04, 1.640E+01
 2.002E+01, 2.697E+01, 2.703E+01, 2.581E+01, 2.533E+01, 2.977E+01, 2.637E+01, 2.541E+01, 2.931E+01, 2.479E+01, 2.091E-01, 6.257E-04, 4.961E+01
 3.002E+01, 3.071E+01, 3.119E+01, 2.664E+01, 2.878E+01, 3.672E+01, 2.772E+01, 2.786E+01, 3.797E+01, 6.096E+01, 2.081E-01, 1.215E-03, 8.304E+01
 4.001E+01, 3.636E+01, 3.733E+01, 2.768E+01, 3.436E+01, 4.705E+01, 2.873E+01, 3.358E+01, 4.968E+01, 8.058E+01, 2.067E-01, 1.965E-03, 1.001E+02
 5.002E+01, 4.264E+01, 4.295E+01, 2.922E+01, 4.288E+01, 5.582E+01, 3.019E+01, 4.246E+01, 5.621E+01, 7.154E+01, 2.063E-01, 2.193E-03, 1.001E+02
 6.001E+01, 4.824E+01, 4.915E+01, 3.127E+01, 5.110E+01, 6.235E+01, 3.283E+01, 5.132E+01, 6.330E+01, 6.120E+01, 2.053E-01, 2.740E-03, 1.002E+02
 7.000E+01, 5.369E+01, 5.448E+01, 3.557E+01, 5.786E+01, 6.762E+01, 3.639E+01, 5.799E+01, 6.907E+01, 5.269E+01, 2.047E-01, 3.078E-03, 1.003E+02
 8.001E+01, 5.927E+01, 5.912E+01, 4.011E+01, 6.456E+01, 7.313E+01, 4.155E+01, 6.179E+01, 7.402E+01, 4.553E+01, 2.041E-01, 3.436E-03, 1.005E+02
 9.002E+01, 6.332E+01, 6.410E+01, 4.503E+01, 6.810E+01, 7.682E+01, 4.573E+01, 6.848E+01, 7.809E+01, 3.775E+01, 2.035E-01, 3.750E-03, 1.004E+02
 1.000E+02, 6.786E+01, 6.815E+01, 4.961E+01, 7.204E+01, 8.194E+01, 5.064E+01, 7.071E+01, 8.310E+01, 3.203E+01, 2.029E-01, 4.087E-03, 1.002E+02
 1.100E+02, 7.136E+01, 7.224E+01, 5.412E+01, 7.615E+01, 8.382E+01, 5.458E+01, 7.577E+01, 8.637E+01, 2.744E+01, 2.022E-01, 4.519E-03, 1.005E+02
 1.200E+02, 7.508E+01, 7.513E+01, 5.850E+01, 7.996E+01, 8.678E+01, 5.883E+01, 7.850E+01, 8.805E+01, 2.316E+01, 2.017E-01, 4.770E-03, 1.002E+02
 1.300E+02, 7.772E+01, 7.934E+01, 6.164E+01, 8.277E+01, 8.876E+01, 6.288E+01, 8.250E+01, 9.265E+01, 1.970E+01, 2.012E-01, 5.064E-03, 1.004E+02
 1.400E+02, 8.032E+01, 8.227E+01, 6.571E+01, 8.511E+01, 9.015E+01, 6.611E+01, 8.401E+01, 9.669E+01, 1.719E+01, 2.005E-01, 5.449E-03, 1.002E+02
 1.500E+02, 8.286E+01, 8.487E+01, 6.884E+01, 8.664E+01, 9.310E+01, 6.909E+01, 8.693E+01, 9.861E+01, 1.538E+01, 1.998E-01, 5.817E-03, 1.005E+02
 1.600E+02, 8.568E+01, 8.722E+01, 7.225E+01, 8.969E+01, 9.510E+01, 7.094E+01, 8.848E+01, 1.023E+02, 1.327E+01, 1.991E-01, 6.227E-03, 1.001E+02
 1.700E+02, 8.672E+01, 8.884E+01, 7.379E+01, 9.081E+01, 9.555E+01, 7.360E+01, 8.981E+01, 1.031E+02, 1.254E+01, 1.985E-01, 6.573E-03, 1.008E+02
 1.800E+02, 8.850E+01, 8.944E+01, 7.604E+01, 9.212E+01, 9.732E+01, 7.487E+01, 9.150E+01, 1.020E+02, 1.173E+01, 1.983E-01, 6.698E-03, 1.009E+02
 1.900E+02, 9.057E+01, 9.029E+01, 7.756E+01, 9.403E+01, 1.001E+02, 7.860E+01, 9.238E+01, 9.989E+01, 1.012E+01, 1.979E-01, 6.923E-03, 1.000E+02
 2.000E+02, 9.184E+01, 9.195E+01, 7.730E+01, 9.513E+01, 1.031E+02, 8.042E+01, 9.330E+01, 1.021E+02, 9.997E+00, 1.973E-01, 7.209E-03, 1.008E+02
 2.100E+02, 9.221E+01, 9.330E+01, 7.941E+01, 9.559E+01, 1.016E+02, 8.017E+01, 9.496E+01, 1.048E+02, 9.660E+00, 1.963E-01, 7.817E-03, 1.011E+02
 2.200E+02, 9.378E+01, 9.413E+01, 8.131E+01, 9.747E+01, 1.026E+02, 8.094E+01, 9.552E+01, 1.059E+02, 8.998E+00, 1.954E-01, 8.280E-03, 1.006E+02
 2.300E+02, 9.436E+01, 9.465E+01, 8.169E+01, 9.761E+01, 1.038E+02, 8.284E+01, 9.478E+01, 1.063E+02, 8.733E+00, 1.946E-01, 8.753E-03, 1.002E+02
 2.400E+02, 9.550E+01, 9.612E+01, 8.218E+01, 1.003E+02, 1.041E+02, 8.375E+01, 9.669E+01, 1.079E+02, 8.711E+00, 1.942E-01, 8.957E-03, 1.005E+02
 2.500E+02, 9.577E+01, 9.730E+01, 8.312E+01, 9.867E+01, 1.055E+02, 8.322E+01, 9.808E+01, 1.106E+02, 8.820E+00, 1.932E-01, 9.497E-03, 1.005E+02
 2.600E+02, 9.744E+01, 9.740E+01, 8.524E+01, 1.003E+02, 1.068E+02, 8.438E+01, 9.870E+01, 1.091E+02, 8.381E+00, 1.929E-01, 9.675E-03, 1.003E+02
 2.700E+02, 9.710E+01, 9.739E+01, 8.317E+01, 1.008E+02, 1.073E+02, 8.508E+01, 9.883E+01, 1.083E+02, 8.695E+00, 1.922E-01, 1.010E-02, 1.006E+02
 2.800E+02, 9.772E+01, 9.813E+01, 8.400E+01, 1.013E+02, 1.078E+02, 8.464E+01, 1.004E+02, 1.094E+02, 8.532E+00, 1.913E-01, 1.059E-02, 1.006E+02
 2.900E+02, 9.824E+01, 9.935E+01, 8.393E+01, 1.026E+02, 1.082E+02, 8.422E+01, 1.025E+02, 1.114E+02, 8.572E+00, 1.907E-01, 1.090E-02, 1.007E+02
 3.000E+02, 9.832E+01, 1.001E+02, 8.363E+01, 1.018E+02, 1.096E+02, 8.482E+01, 1.042E+02, 1.114E+02, 8.693E+00, 1.899E-01, 1.136E-02, 1.008E+02
 3.100E+02, 9.889E+01, 1.004E+02, 8.387E+01, 1.038E+02, 1.090E+02, 8.433E+01, 1.044E+02, 1.125E+02, 8.453E+00, 1.893E-01, 1.173E-02, 1.004E+02
 3.200E+02, 9.985E+01, 1.003E+02, 8.419E+01, 1.045E+02, 1.109E+02, 8.537E+01, 1.044E+02, 1.111E+02, 8.523E+00, 1.888E-01, 1.199E-02, 1.007E+02
 3.300E+02, 1.008E+02, 1.005E+02, 8.486E+01, 1.053E+02, 1.122E+02, 8.536E+01, 1.033E+02, 1.129E+02, 8.626E+00, 1.881E-01, 1.235E-02, 1.008E+02
 3.400E+02, 9.983E+01, 1.006E+02, 8.502E+01, 1.053E+02, 1.091E+02, 8.532E+01, 1.031E+02, 1.134E+02, 8.526E+00, 1.872E-01, 1.289E-02, 1.007E+02
 3.500E+02, 1.007E+02, 1.010E+02, 8.595E+01, 1.052E+02, 1.110E+02, 8.648E+01, 1.038E+02, 1.127E+02, 8.729E+00, 1.864E-01, 1.333E-02, 1.008E+02
 3.600E+02, 1.001E+02, 1.013E+02, 8.576E+01, 1.049E+02, 1.097E+02, 8.625E+01, 1.035E+02, 1.143E+02, 8.659E+00, 1.857E-01, 1.370E-02, 1.008E+02
 3.700E+02, 1.006E+02, 1.005E+02, 8.688E+01, 1.054E+02, 1.094E+02, 8.593E+01, 1.029E+02, 1.127E+02, 8.772E+00, 1.852E-01, 1.400E-02, 1.008E+02
 3.800E+02, 1.006E+02, 1.008E+02, 8.668E+01, 1.048E+02, 1.104E+02, 8.689E+01, 1.021E+02, 1.135E+02, 8.727E+00, 1.847E-01, 1.429E-02, 1.007E+02
 3.900E+02, 1.014E+02, 1.007E+02, 8.870E+01, 1.056E+02, 1.098E+02, 8.760E+01, 1.021E+02, 1.125E+02, 8.826E+00, 1.840E-01, 1.467E-02, 1.009E+02
 4.000E+02, 1.013E+02, 9.984E+01, 8.811E+01, 1.053E+02, 1.105E+02, 8.648E+01, 9.991E+01, 1.131E+02, 8.717E+00, 1.832E-01, 1.510E-02, 1.005E+02
 4.100E+02, 1.010E+02, 9.976E+01, 8.883E+01, 1.050E+02, 1.092E+02, 8.592E+01, 1.007E+02, 1.126E+02, 9.048E+00, 1.827E-01, 1.539E-02, 1.011E+02
 4.200E+02, 1.030E+02, 9.999E+01, 8.899E+01, 1.077E+02, 1.124E+02, 8.671E+01, 1.012E+02, 1.120E+02, 8.781E+00, 1.823E-01, 1.563E-02, 1.013E+02
 4.300E+02, 1.015E+02, 1.002E+02, 8.844E+01, 1.063E+02, 1.099E+02, 8.692E+01, 1.019E+02, 1.119E+02, 8.920E+00, 1.814E-01, 1.614E-02, 9.980E+01
 4.400E+02, 1.031E+02, 1.004E+02, 9.168E+01, 1.068E+02, 1.107E+02, 8.695E+01, 1.030E+02, 1.113E+02, 9.160E+00, 1.810E-01, 1.632E-02, 1.011E+02
 4.500E+02, 1.039E+02, 1.002E+02, 9.278E+01, 1.067E+02, 1.121E+02, 8.815E+01, 1.018E+02, 1.107E+02, 8.904E+00, 1.802E-01, 1.678E-02, 1.011E+02
 4.600E+02, 1.032E+02, 1.013E+02, 9.079E+01, 1.060E+02, 1.129E+02, 9.052E+01, 1.038E+02, 1.096E+02, 8.766E+00, 1.799E-01, 1.697E-02, 1.007E+02
 4.700E+02, 1.028E+02, 1.014E+02, 9.002E+01, 1.063E+02, 1.120E+02, 9.025E+01, 1.035E+02, 1.106E+02, 8.811E+00, 1.790E-01, 1.747E-02, 1.008E+02
 4.800E+02, 1.029E+02, 1.028E+02, 9.014E+01, 1.073E+02, 1.112E+02, 8.991E+01, 1.054E+02, 1.131E+02, 8.722E+00, 1.780E-01, 1.800E-02, 1.003E+02
 4.900E+02, 1.019E+02, 1.031E+02, 8.824E+01, 1.047E+02, 1.128E+02, 8.976E+01, 1.072E+02, 1.124E+02, 8.738E+00, 1.776E-01, 1.825E-02, 1.006E+02
 5.000E+02, 1.020E+02, 1.035E+02, 8.903E+01, 1.046E+02, 1.124E+02, 8.903E+01, 1.072E+02, 1.144E+02, 8.930E+00, 1.763E-01, 1.895E-02, 1.006E+02
 5.100E+02, 1.029E+02, 1.027E+02, 8.850E+01, 1.061E+02, 1.142E+02, 8.900E+01, 1.070E+02, 1.122E+02, 8.828E+00, 1.759E-01, 1.921E-02, 1.010E+02
 5.200E+02, 1.026E+02, 1.042E+02, 8.847E+01, 1.046E+02, 1.147E+02, 8.995E+01, 1.083E+02, 1.145E+02, 8.838E+00, 1.751E-01, 1.964E-02, 1.003E+02
 5.300E+02, 1.031E+02, 1.044E+02, 8.798E+01, 1.052E+02, 1.162E+02, 9.058E+01, 1.086E+02, 1.141E+02, 8.870E+00, 1.743E-01, 2.007E-02, 1.005E+02
 5.400E+02, 1.043E+02, 1.037E+02, 8.813E+01, 1.066E+02, 1.181E+02, 9.051E+01, 1.070E+02, 1.137E+02, 8.912E+00, 1.734E-01, 2.061E-02, 1.008E+02
 5.500E+02, 1.029E+02, 1.036E+02, 8.866E+01, 1.045E+02, 1.157E+02, 9.128E+01, 1.063E+02, 1.133E+02, 8.884E+00, 1.728E-01, 2.093E-02, 1.003E+02
 5.600E+02, 1.035E+02, 1.036E+02, 8.852E+01, 1.060E+02, 1.160E+02, 9.053E+01, 1.067E+02, 1.135E+02, 9.167E+00, 1.722E-01, 2.127E-02, 1.005E+02
 5.700E+02, 1.033E+02, 1.027E+02, 8.940E+01, 1.051E+02, 1.155E+02, 8.928E+01, 1.058E+02, 1.130E+02, 9.195E+00, 1.716E-01, 2.159E-02, 1.009E+02
 5.800E+02, 1.027E+02, 1.041E+02, 8.844E+01, 1.046E+02, 1.150E+02, 9.383E+01, 1.050E+02, 1.134E+02, 9.189E+00, 1.713E-01, 2.174E-02, 1.008E+02
 5.900E+02, 1.022E+02, 1.041E+02, 8.873E+01, 1.041E+02, 1.137E+02, 9.199E+01, 1.067E+02, 1.137E+02, 9.138E+00, 1.702E-01, 2.240E-02, 1.005E+02
 6.000E+02, 1.025E+02, 1.047E+02, 8.906E+01, 1.060E+02, 1.123E+02, 9.285E+01, 1.084E+02, 1.130E+02, 9.425E+00, 1.696E-01, 2.268E-02, 1.014E+02
 6.100E+02, 1.028E+02, 1.032E+02, 8.874E+01, 1.044E+02, 1.153E+02, 9.155E+01, 1.062E+02, 1.120E+02, 9.096E+00, 1.691E-01, 2.299E-02, 1.016E+02
 6.200E+02, 1.034E+02, 1.041E+02, 8.991E+01, 1.067E+02, 1.136E+02, 9.197E+01, 1.065E+02, 1.137E+02, 8.885E+00, 1.681E-01, 2.354E-02, 9.999E+01
 6.300E+02, 1.029E+02, 1.059E+02, 9.001E+01, 1.059E+02, 1.129E+02, 9.365E+01, 1.097E+02, 1.143E+02, 9.071E+00, 1.676E-01, 2.384E-02, 1.009E+02
 6.400E+02, 1.040E+02, 1.055E+02, 9.070E+01, 1.065E+02, 1.148E+02, 9.253E+01, 1.089E+02, 1.149E+02, 9.015E+00, 1.666E-01, 2.439E-02, 1.009E+02
 6.500E+02, 1.029E+02, 1.049E+02, 9.012E+01, 1.044E+02, 1.140E+02, 9.087E+01, 1.077E+02, 1.162E+02, 9.176E+00, 1.658E-01, 2.481E-02, 1.010E+02
 6.600E+02, 1.032E+02, 1.051E+02, 9.036E+01, 1.055E+02, 1.137E+02, 9.101E+01, 1.081E+02, 1.161E+02, 9.333E+00, 1.650E-01, 2.528E-02, 1.017E+02
 6.700E+02, 1.039E+02, 1.048E+02, 9.144E+01, 1.048E+02, 1.154E+02, 9.122E+01, 1.087E+02, 1.145E+02, 9.002E+00, 1.645E-01, 2.556E-02, 1.005E+02
 6.800E+02, 1.050E+02, 1.062E+02, 9.110E+01, 1.078E+02, 1.161E+02, 9.301E+01, 1.106E+02, 1.151E+02, 9.289E+00, 1.640E-01, 2.586E-02, 1.010E+02
 6.900E+02, 1.050E+02, 1.061E+02, 9.069E+01, 1.065E+02, 1.178E+02, 9.349E+01, 1.104E+02, 1.146E+02, 9.155E+00, 1.632E-01, 2.631E-02, 1.007E+02
 7.000E+02, 1.050E+02, 1.055E+02, 9.185E+01, 1.062E+02, 1.170E+02, 9.311E+01, 1.098E+02, 1.136E+02, 9.215E+00, 1.626E-01, 2.661E-02, 1.007E+02
 7.100E+02, 1.050E+02, 1.061E+02, 9.081E+01, 1.065E+02, 1.177E+02, 9.462E+01, 1.095E+02, 1.141E+02, 9.183E+00, 1.619E-01, 2.699E-02, 1.008E+02
 7.200E+02, 1.053E+02, 1.053E+02, 9.079E+01, 1.064E+02, 1.188E+02, 9.375E+01, 1.084E+02, 1.138E+02, 9.322E+00, 1.610E-01, 2.752E-02, 1.014E+02
 7.300E+02, 1.050E+02, 1.047E+02, 9.084E+01, 1.067E+02, 1.174E+02, 9.361E+01, 1.088E+02, 1.117E+02, 9.320E+00, 1.608E-01, 2.762E-02, 1.003E+02
 7.400E+02, 1.044E+02, 1.069E+02, 8.967E+01, 1.062E+02, 1.175E+02, 9.770E+01, 1.087E+02, 1.142E+02, 9.434E+00, 1.602E-01, 2.795E-02, 1.006E+02
 7.500E+02, 1.036E+02, 1.099E+02, 8.943E+01, 1.074E+02, 1.139E+02, 9.869E+01, 1.121E+02, 1.189E+02, 9.078E+00, 1.589E-01, 2.867E-02, 1.004E+02
 7.600E+02, 1.046E+02, 1.071E+02, 9.180E+01, 1.071E+02, 1.149E+02, 9.672E+01, 1.074E+02, 1.170E+02, 9.317E+00, 1.581E-01, 2.915E-02, 1.009E+02
 7.700E+02, 1.046E+02, 1.072E+02, 9.228E+01, 1.061E+02, 1.154E+02, 9.476E+01, 1.110E+02, 1.159E+02, 9.324E+00, 1.578E-01, 2.931E-02, 1.007E+02
 7.800E+02, 1.044E+02, 1.061E+02, 9.182E+01, 1.051E+02, 1.161E+02, 9.249E+01, 1.088E+02, 1.171E+02, 9.086E+00, 1.565E-01, 3.000E-02, 1.004E+02
 7.900E+02, 1.064E+02, 1.071E+02, 9.201E+01, 1.098E+02, 1.172E+02, 9.236E+01, 1.110E+02, 1.180E+02, 9.432E+00, 1.560E-01, 3.031E-02, 1.013E+02
 8.000E+02, 1.061E+02, 1.074E+02, 9.168E+01, 1.108E+02, 1.159E+02, 9.279E+01, 1.099E+02, 1.196E+02, 9.152E+00, 1.550E-01, 3.087E-02, 1.004E+02
 8.100E+02, 1.070E+02, 1.065E+02, 9.312E+01, 1.114E+02, 1.165E+02, 9.136E+01, 1.093E+02, 1.189E+02, 9.313E+00, 1.545E-01, 3.113E-02, 1.002E+02
 8.200E+02, 1.070E+02, 1.079E+02, 9.296E+01, 1.108E+02, 1.173E+02, 9.308E+01, 1.120E+02, 1.187E+02, 9.286E+00, 1.540E-01, 3.143E-02, 1.006E+02
 8.300E+02, 1.073E+02, 1.060E+02, 9.261E+01, 1.108E+02, 1.183E+02, 9.199E+01, 1.086E+02, 1.174E+02, 9.271E+00, 1.531E-01, 3.194E-02, 1.005E+02
 8.400E+02, 1.077E+02, 1.073E+02, 9.216E+01, 1.128E+02, 1.182E+02, 9.239E+01, 1.116E+02, 1.178E+02, 9.412E+00, 1.527E-01, 3.216E-02, 1.004E+02
 8.500E+02, 1.081E+02, 1.074E+02, 9.244E+01, 1.134E+02, 1.184E+02, 9.297E+01, 1.097E+02, 1.196E+02, 9.371E+00, 1.517E-01, 3.272E-02, 1.009E+02
 8.600E+02, 1.074E+02, 1.072E+02, 9.191E+01, 1.118E+02, 1.185E+02, 9.333E+01, 1.089E+02, 1.192E+02, 9.364E+00, 1.510E-01, 3.309E-02, 1.005E+02
 8.700E+02, 1.068E+02, 1.072E+02, 9.375E+01, 1.108E+02, 1.159E+02, 9.319E+01, 1.094E+02, 1.190E+02, 9.433E+00, 1.503E-01, 3.352E-02, 1.005E+02
 8.800E+02, 1.070E+02, 1.063E+02, 9.361E+01, 1.110E+02, 1.165E+02, 9.325E+01, 1.074E+02, 1.184E+02, 9.488E+00, 1.495E-01, 3.392E-02, 1.005E+02
 8.900E+02, 1.070E+02, 1.068E+02, 9.368E+01, 1.118E+02, 1.154E+02, 9.339E+01, 1.083E+02, 1.186E+02, 9.539E+00, 1.488E-01, 3.434E-02, 1.004E+02
 9.000E+02, 1.080E+02, 1.071E+02, 9.439E+01, 1.125E+02, 1.170E+02, 9.333E+01, 1.090E+02, 1.188E+02, 9.605E+00, 1.484E-01, 3.457E-02, 1.005E+02
 9.100E+02, 1.082E+02, 1.066E+02, 9.408E+01, 1.132E+02, 1.174E+02, 9.327E+01, 1.083E+02, 1.181E+02, 9.606E+00, 1.475E-01, 3.505E-02, 1.006E+02
 9.200E+02, 1.085E+02, 1.068E+02, 9.447E+01, 1.132E+02, 1.179E+02, 9.376E+01, 1.086E+02, 1.181E+02, 9.690E+00, 1.469E-01, 3.540E-02, 1.007E+02
 9.300E+02, 1.095E+02, 1.069E+02, 9.762E+01, 1.142E+02, 1.167E+02, 9.405E+01, 1.098E+02, 1.167E+02, 9.563E+00, 1.464E-01, 3.566E-02, 1.002E+02
 9.400E+02, 1.080E+02, 1.060E+02, 9.465E+01, 1.108E+02, 1.184E+02, 9.429E+01, 1.082E+02, 1.157E+02, 9.573E+00, 1.458E-01, 3.601E-02, 1.007E+02
 9.500E+02, 1.091E+02, 1.062E+02, 9.668E+01, 1.124E+02, 1.184E+02, 9.581E+01, 1.071E+02, 1.155E+02, 9.464E+00, 1.450E-01, 3.645E-02, 1.006E+02
 9.600E+02, 1.096E+02, 1.080E+02, 9.597E+01, 1.144E+02, 1.182E+02, 9.583E+01, 1.119E+02, 1.165E+02, 9.509E+00, 1.444E-01, 3.680E-02, 1.011E+02
 9.700E+02, 1.078E+02, 1.074E+02, 9.418E+01, 1.095E+02, 1.197E+02, 9.545E+01, 1.099E+02, 1.168E+02, 9.700E+00, 1.432E-01, 3.746E-02, 1.012E+02
 9.800E+02, 1.075E+02, 1.083E+02, 9.296E+01, 1.110E+02, 1.186E+02, 9.532E+01, 1.113E+02, 1.184E+02, 9.364E+00, 1.424E-01, 3.788E-02, 1.000E+02
 9.900E+02, 1.091E+02, 1.083E+02, 9.425E+01, 1.139E+02, 1.190E+02, 9.500E+01, 1.113E+02, 1.184E+02, 9.732E+00, 1.418E-01, 3.822E-02, 1.011E+02
 1.000E+03, 1.084E+02, 1.082E+02, 9.424E+01, 1.133E+02, 1.176E+02, 9.484E+01, 1.092E+02, 1.207E+02, 9.459E+00, 1.408E-01, 3.878E-02, 1.009E+02
 1.010E+03, 1.091E+02, 1.092E+02, 9.553E+01, 1.141E+02, 1.177E+02, 9.367E+01, 1.123E+02, 1.216E+02, 9.484E+00, 1.403E-01, 3.909E-02, 1.006E+02
 1.020E+03, 1.097E+02, 1.094E+02, 9.541E+01, 1.132E+02, 1.204E+02, 9.507E+01, 1.104E+02, 1.227E+02, 9.674E+00, 1.393E-01, 3.966E-02, 1.001E+02
 1.030E+03, 1.083E+02, 1.099E+02, 9.441E+01, 1.125E+02, 1.181E+02, 9.473E+01, 1.108E+02, 1.241E+02, 9.134E+00, 1.385E-01, 4.008E-02, 9.790E+01
 1.040E+03, 1.079E+02, 1.093E+02, 9.464E+01, 1.122E+02, 1.169E+02, 9.482E+01, 1.112E+02, 1.218E+02, 7.788E+00, 1.381E-01, 4.028E-02, 8.933E+01
 1.050E+03, 1.082E+02, 1.089E+02, 9.535E+01, 1.117E+02, 1.176E+02, 9.408E+01, 1.113E+02, 1.213E+02, 9.758E+00, 1.374E-01, 4.070E-02, 9.720E+01
 1.060E+03, 1.075E+02, 1.077E+02, 9.466E+01, 1.111E+02, 1.169E+02, 9.435E+01, 1.091E+02, 1.196E+02, 9.449E+00, 1.372E-01, 4.079E-02, 9.469E+01
 1.070E+03, 1.074E+02, 1.071E+02, 9.337E+01, 1.113E+02, 1.174E+02, 9.391E+01, 1.092E+02, 1.183E+02, 3.676E+00, 1.364E-01, 4.122E-02, 8.168E+01
 1.080E+03, 1.066E+02, 1.060E+02, 9.371E+01, 1.098E+02, 1.163E+02, 9.322E+01, 1.078E+02, 1.170E+02, 9.896E+00, 1.363E-01, 4.128E-02, 9.378E+01
 1.090E+03, 1.052E+02, 1.045E+02, 9.298E+01, 1.089E+02, 1.137E+02, 9.323E+01, 1.075E+02, 1.126E+02,-4.728E+00, 1.362E-01, 4.134E-02, 6.863E+01
 1.100E+03, 1.037E+02, 1.022E+02, 9.273E+01, 1.063E+02, 1.119E+02, 9.160E+01, 1.045E+02, 1.105E+02, 3.384E-01, 1.360E-01, 4.142E-02, 6.656E+01
 1.110E+03, 1.034E+02, 1.018E+02, 9.201E+01, 1.067E+02, 1.116E+02, 9.076E+01, 1.038E+02, 1.107E+02, 1.208E+01, 1.356E-01, 4.164E-02, 8.531E+01
 1.120E+03, 1.023E+02, 1.006E+02, 9.037E+01, 1.055E+02, 1.109E+02, 9.021E+01, 1.020E+02, 1.095E+02,-9.126E-01, 1.354E-01, 4.174E-02, 5.283E+01
 1.130E+03, 1.002E+02, 9.876E+01, 9.039E+01, 1.026E+02, 1.075E+02, 8.937E+01, 1.001E+02, 1.068E+02, 5.232E+00, 1.355E-01, 4.164E-02, 6.277E+01
 1.140E+03, 9.727E+01, 9.725E+01, 8.927E+01, 9.946E+01, 1.031E+02, 8.893E+01, 9.919E+01, 1.036E+02, 2.686E+00, 1.357E-01, 4.156E-02, 4.968E+01
 1.150E+03, 9.566E+01, 9.635E+01, 8.746E+01, 9.781E+01, 1.017E+02, 8.957E+01, 9.660E+01, 1.029E+02, 8.596E-01, 1.357E-01, 4.143E-02, 5.072E+01
 1.160E+03, 9.483E+01, 9.450E+01, 8.760E+01, 9.610E+01, 1.008E+02, 8.775E+01, 9.559E+01, 1.002E+02,-1.345E+00, 1.362E-01, 4.117E-02, 4.126E+01
 1.170E+03, 9.335E+01, 9.323E+01, 8.545E+01, 9.470E+01, 9.989E+01, 8.854E+01, 9.314E+01, 9.802E+01, 9.873E+00, 1.360E-01, 4.130E-02, 3.434E+01
 1.180E+03, 9.108E+01, 9.161E+01, 8.383E+01, 9.331E+01, 9.611E+01, 8.583E+01, 9.289E+01, 9.611E+01,-1.322E+00, 1.371E-01, 4.070E-02, 7.070E+00
 1.190E+03, 8.778E+01, 8.969E+01, 8.207E+01, 8.947E+01, 9.180E+01, 8.568E+01, 9.087E+01, 9.251E+01,-2.634E+00, 1.375E-01, 4.051E-02, 2.449E+00
 1.200E+03, 8.481E+01, 8.666E+01, 7.930E+01, 8.626E+01, 8.886E+01, 8.104E+01, 8.779E+01, 9.114E+01, 4.081E-01, 1.392E-01, 3.960E-02, 0.000E+00
 1.210E+03, 8.382E+01, 8.437E+01, 7.968E+01, 8.407E+01, 8.770E+01, 7.795E+01, 8.479E+01, 9.038E+01, 6.112E+00, 1.388E-01, 3.978E-02, 0.000E+00
 1.220E+03, 8.538E+01, 8.263E+01, 8.139E+01, 8.627E+01, 8.848E+01, 7.634E+01, 8.311E+01, 8.843E+01, 2.414E+00, 1.375E-01, 4.039E-02, 0.000E+00
 1.230E+03, 8.293E+01, 8.286E+01, 7.592E+01, 8.559E+01, 8.729E+01, 7.763E+01, 8.241E+01, 8.855E+01, 4.084E+00, 1.378E-01, 4.023E-02, 0.000E+00
 1.240E+03, 8.064E+01, 8.084E+01, 7.429E+01, 8.322E+01, 8.440E+01, 7.508E+01, 8.132E+01, 8.613E+01, 3.582E+00, 1.380E-01, 4.015E-02, 0.000E+00
 1.250E+03, 8.015E+01, 7.960E+01, 7.430E+01, 8.168E+01, 8.447E+01, 7.262E+01, 8.072E+01, 8.547E+01, 4.989E+00, 1.381E-01, 4.005E-02, 0.000E+00
 1.260E+03, 7.904E+01, 7.871E+01, 7.324E+01, 8.099E+01, 8.288E+01, 7.220E+01, 7.969E+01, 8.423E+01, 4.443E+00, 1.376E-01, 4.019E-02, 0.000E+00
 1.270E+03, 7.820E+01, 7.774E+01, 7.365E+01, 7.999E+01, 8.097E+01, 7.245E+01, 7.834E+01, 8.242E+01, 4.075E+00, 1.378E-01, 4.017E-02, 0.000E+00
 1.280E+03, 7.715E+01, 7.685E+01, 7.152E+01, 7.926E+01, 8.067E+01, 7.128E+01, 7.807E+01, 8.118E+01, 4.614E+00, 1.381E-01, 3.998E-02, 0.000E+00
 1.290E+03, 7.607E+01, 7.642E+01, 7.183E+01, 7.763E+01, 7.876E+01, 7.105E+01, 7.691E+01, 8.129E+01, 5.414E+00, 1.376E-01, 4.012E-02, 0.000E+00
 1.300E+03, 7.582E+01, 7.517E+01, 7.328E+01, 7.647E+01, 7.771E+01, 6.990E+01, 7.574E+01, 7.988E+01, 4.455E+00, 1.373E-01, 4.024E-02, 0.000E+00
 1.310E+03, 7.507E+01, 7.393E+01, 7.025E+01, 7.659E+01, 7.838E+01, 6.750E+01, 7.488E+01, 7.940E+01, 4.173E+00, 1.375E-01, 4.010E-02, 0.000E+00
