s,C,C,C,C,C,C,C,C,Pa,mol/mol,mol/mol,kW
Time,"West_All_TCs","East_All_TCs","West_Bottom_TCs","West_Middle_TCs","West_Upper_TCs","East_Bottom_TCs","East_Middle_TCs","East_Upper_TCs","Pressure","O2","CO2","HRR"
-6.000E+01, 2.100E+01, 2.100E+01, 2.100E+01, 2.100E+01, 2.100E+01, 2.100E+01, 2.100E+01, 2.100E+01,-9.768E-06, 2.095E-01, 3.901E-04, 0.000E+00
-4.999E+01, 2.100E+01, 2.100E+01, 2.100E+01, 2.100E+01, 2.100E+01, 2.100E+01, 2.100E+01, 2.100E+01,-7.085E-04, 2.095E-01, 3.901E-04, 0.000E+00
-3.999E+01, 2.100E+01, 2.100E+01, 2.100E+01, 2.100E+01, 2.100E+01, 2.100E+01, 2.100E+01, 2.100E+01,-3.349E-05, 2.095E-01, 3.901E-04, 0.000E+00
-2.998E+01, 2.100E+01, 2.100E+01, 2.100E+01, 2.100E+01, 2.100E+01, 2.100E+01, 2.100E+01, 2.100E+01,-3.015E-05, 2.095E-01, 3.901E-04, 0.000E+00
-1.997E+01, 2.100E+01, 2.100E+01, 2.100E+01, 2.100E+01, 2.100E+01, 2.100E+01, 2.100E+01, 2.100E+01,-3.187E-05, 2.095E-01, 3.901E-04, 0.000E+00
-9.967E+00, 2.100E+01, 2.100E+01, 2.100E+01, 2.100E+01, 2.100E+01, 2.100E+01, 2.100E+01, 2.100E+01,-3.396E-05, 2.095E-01, 3.901E-04, 0.000E+00
 3.957E-02, 2.100E+01, 2.100E+01, 2.100E+01, 2.100E+01, 2.100E+01, 2.100E+01, 2.100E+01, 2.100E+01,-2.695E-05, 2.095E-01, 3.901E-04, 1.048E-03
 1.001E+01, 2.241E+01, 2.285E+01, 2.175E+01, 2.128E+01, 2.421E+01, 2.226E+01, 2.138E+01, 2.490E+01, 3.167E+01, 2.092E-01, 5.966E-04, 4.959E+01
 2.001E+01, 2.781E+01, 2.987E+01, 2.357E+01, 2.495E+01, 3.492E+01, 2.529E+01, 2.536E+01, 3.895E+01, 1.852E+02, 2.076E-01, 1.467E-03, 1.490E+02
 3.001E+01, 4.143E+01, 4.435E+01, 2.628E+01, 3.889E+01, 5.912E+01, 2.934E+01, 4.087E+01, 6.285E+01, 4.418E+02, 2.052E-01, 2.815E-03, 2.494E+02
 4.001E+01, 6.040E+01, 6.343E+01, 3.451E+01, 6.644E+01, 8.025E+01, 3.684E+01, 6.722E+01, 8.623E+01, 5.840E+02, 2.032E-01, 3.942E-03, 2.995E+02
 5.001E+01, 8.002E+01, 8.230E+01, 4.850E+01, 8.833E+01, 1.032E+02, 5.312E+01, 8.867E+01, 1.051E+02, 4.764E+02, 2.005E-01, 5.457E-03, 3.015E+02
 6.001E+01, 1.003E+02, 1.006E+02, 6.809E+01, 1.101E+02, 1.228E+02, 6.805E+01, 1.080E+02, 1.257E+02, 3.572E+02, 1.983E-01, 6.674E-03, 3.004E+02
 7.000E+01, 1.160E+02, 1.170E+02, 8.380E+01, 1.261E+02, 1.382E+02, 8.541E+01, 1.234E+02, 1.423E+02, 2.504E+02, 1.957E-01, 8.133E-03, 3.004E+02
 8.001E+01, 1.298E+02, 1.307E+02, 9.730E+01, 1.394E+02, 1.528E+02, 9.950E+01, 1.363E+02, 1.564E+02, 1.694E+02, 1.933E-01, 9.454E-03, 3.007E+02
 9.001E+01, 1.430E+02, 1.418E+02, 1.112E+02, 1.519E+02, 1.659E+02, 1.102E+02, 1.472E+02, 1.682E+02, 1.168E+02, 1.911E-01, 1.068E-02, 3.008E+02
 1.000E+02, 1.494E+02, 1.526E+02, 1.179E+02, 1.563E+02, 1.739E+02, 1.201E+02, 1.567E+02, 1.810E+02, 7.388E+01, 1.886E-01, 1.211E-02, 3.012E+02
 1.100E+02, 1.588E+02, 1.588E+02, 1.303E+02, 1.667E+02, 1.794E+02, 1.264E+02, 1.657E+02, 1.842E+02, 5.280E+01, 1.864E-01, 1.332E-02, 3.004E+02
 1.200E+02, 1.652E+02, 1.653E+02, 1.364E+02, 1.759E+02, 1.833E+02, 1.336E+02, 1.721E+02, 1.903E+02, 3.739E+01, 1.842E-01, 1.457E-02, 2.996E+02
 1.300E+02, 1.657E+02, 1.671E+02, 1.396E+02, 1.753E+02, 1.823E+02, 1.377E+02, 1.716E+02, 1.921E+02, 2.938E+01, 1.823E-01, 1.562E-02, 3.010E+02
 1.400E+02, 1.698E+02, 1.688E+02, 1.452E+02, 1.791E+02, 1.850E+02, 1.418E+02, 1.686E+02, 1.960E+02, 2.456E+01, 1.796E-01, 1.713E-02, 2.998E+02
 1.500E+02, 1.720E+02, 1.706E+02, 1.540E+02, 1.766E+02, 1.854E+02, 1.424E+02, 1.723E+02, 1.970E+02, 2.231E+01, 1.776E-01, 1.825E-02, 2.997E+02
 1.600E+02, 1.727E+02, 1.713E+02, 1.571E+02, 1.766E+02, 1.845E+02, 1.391E+02, 1.723E+02, 2.023E+02, 1.955E+01, 1.748E-01, 1.982E-02, 2.980E+02
 1.700E+02, 1.738E+02, 1.712E+02, 1.529E+02, 1.761E+02, 1.924E+02, 1.376E+02, 1.747E+02, 2.013E+02, 1.812E+01, 1.722E-01, 2.125E-02, 2.997E+02
 1.800E+02, 1.742E+02, 1.739E+02, 1.524E+02, 1.786E+02, 1.915E+02, 1.433E+02, 1.767E+02, 2.017E+02, 1.759E+01, 1.696E-01, 2.272E-02, 2.989E+02
 1.900E+02, 1.759E+02, 1.765E+02, 1.562E+02, 1.800E+02, 1.914E+02, 1.427E+02, 1.811E+02, 2.056E+02, 1.739E+01, 1.674E-01, 2.395E-02, 2.991E+02
 2.000E+02, 1.748E+02, 1.774E+02, 1.536E+02, 1.783E+02, 1.924E+02, 1.414E+02, 1.808E+02, 2.101E+02, 1.733E+01, 1.638E-01, 2.596E-02, 2.991E+02
 2.100E+02, 1.759E+02, 1.775E+02, 1.571E+02, 1.825E+02, 1.881E+02, 1.430E+02, 1.784E+02, 2.110E+02, 1.799E+01, 1.614E-01, 2.730E-02, 3.002E+02
 2.200E+02, 1.782E+02, 1.808E+02, 1.608E+02, 1.844E+02, 1.893E+02, 1.458E+02, 1.835E+02, 2.132E+02, 1.715E+01, 1.587E-01, 2.881E-02, 2.988E+02
 2.300E+02, 1.801E+02, 1.790E+02, 1.666E+02, 1.842E+02, 1.897E+02, 1.480E+02, 1.802E+02, 2.087E+02, 1.771E+01, 1.567E-01, 2.993E-02, 2.974E+02
 2.400E+02, 1.785E+02, 1.882E+02, 1.642E+02, 1.829E+02, 1.883E+02, 1.513E+02, 1.906E+02, 2.225E+02, 1.737E+01, 1.533E-01, 3.184E-02, 2.973E+02
 2.500E+02, 1.794E+02, 1.970E+02, 1.697E+02, 1.789E+02, 1.897E+02, 1.507E+02, 2.069E+02, 2.333E+02, 1.709E+01, 1.504E-01, 3.344E-02, 2.977E+02
 2.600E+02, 1.828E+02, 1.982E+02, 1.741E+02, 1.814E+02, 1.929E+02, 1.569E+02, 2.057E+02, 2.319E+02, 1.904E+01, 1.471E-01, 3.531E-02, 2.993E+02
 2.700E+02, 1.822E+02, 1.866E+02, 1.615E+02, 1.852E+02, 1.998E+02, 1.632E+02, 1.895E+02, 2.072E+02, 1.568E+01, 1.465E-01, 3.564E-02, 3.009E+02
 2.800E+02, 1.864E+02, 1.840E+02, 1.617E+02, 1.910E+02, 2.064E+02, 1.561E+02, 1.893E+02, 2.065E+02, 1.754E+01, 1.446E-01, 3.666E-02, 2.996E+02
 2.900E+02, 1.874E+02, 1.856E+02, 1.568E+02, 1.938E+02, 2.116E+02, 1.599E+02, 1.901E+02, 2.067E+02, 1.698E+01, 1.410E-01, 3.872E-02, 3.001E+02
 3.000E+02, 1.859E+02, 1.818E+02, 1.604E+02, 1.921E+02, 2.052E+02, 1.550E+02, 1.858E+02, 2.047E+02, 1.658E+01, 1.396E-01, 3.946E-02, 2.983E+02
 3.100E+02, 1.858E+02, 1.830E+02, 1.578E+02, 1.952E+02, 2.043E+02, 1.545E+02, 1.880E+02, 2.067E+02, 1.737E+01, 1.364E-01, 4.126E-02, 2.996E+02
 3.200E+02, 1.854E+02, 1.817E+02, 1.572E+02, 1.945E+02, 2.046E+02, 1.549E+02, 1.866E+02, 2.036E+02, 1.798E+01, 1.342E-01, 4.250E-02, 2.999E+02
 3.300E+02, 1.844E+02, 1.810E+02, 1.575E+02, 1.872E+02, 2.084E+02, 1.563E+02, 1.861E+02, 2.007E+02, 1.676E+01, 1.315E-01, 4.399E-02, 2.965E+02
 3.400E+02, 1.817E+02, 1.812E+02, 1.577E+02, 1.842E+02, 2.033E+02, 1.598E+02, 1.845E+02, 1.995E+02, 1.414E+01, 1.286E-01, 4.558E-02, 2.846E+02
 3.500E+02, 1.814E+02, 1.824E+02, 1.577E+02, 1.878E+02, 1.986E+02, 1.598E+02, 1.874E+02, 1.999E+02,-8.529E+00, 1.263E-01, 4.689E-02, 2.542E+02
 3.600E+02, 1.770E+02, 1.787E+02, 1.526E+02, 1.813E+02, 1.971E+02, 1.583E+02, 1.816E+02, 1.963E+02, 7.719E+00, 1.248E-01, 4.771E-02, 2.624E+02
 3.700E+02, 1.729E+02, 1.750E+02, 1.473E+02, 1.775E+02, 1.937E+02, 1.513E+02, 1.812E+02, 1.923E+02,-1.720E+01, 1.234E-01, 4.845E-02, 2.211E+02
 3.800E+02, 1.701E+02, 1.726E+02, 1.469E+02, 1.763E+02, 1.872E+02, 1.504E+02, 1.784E+02, 1.890E+02,-8.286E+00, 1.221E-01, 4.912E-02, 2.236E+02
 3.900E+02, 1.673E+02, 1.718E+02, 1.447E+02, 1.738E+02, 1.835E+02, 1.484E+02, 1.775E+02, 1.896E+02,-1.123E+01, 1.207E-01, 4.988E-02, 2.249E+02
 4.000E+02, 1.625E+02, 1.713E+02, 1.426E+02, 1.676E+02, 1.775E+02, 1.528E+02, 1.720E+02, 1.890E+02, 4.361E+01, 1.208E-01, 4.977E-02, 2.299E+02
 4.100E+02, 1.593E+02, 1.652E+02, 1.436E+02, 1.627E+02, 1.717E+02, 1.481E+02, 1.677E+02, 1.797E+02,-7.131E+01, 1.219E-01, 4.913E-02, 1.255E+02
 4.200E+02, 1.574E+02, 1.590E+02, 1.391E+02, 1.608E+02, 1.723E+02, 1.426E+02, 1.594E+02, 1.750E+02, 4.417E+01, 1.223E-01, 4.882E-02, 2.095E+02
 4.300E+02, 1.529E+02, 1.548E+02, 1.381E+02, 1.551E+02, 1.654E+02, 1.397E+02, 1.548E+02, 1.699E+02, 9.026E+00, 1.240E-01, 4.771E-02, 1.627E+02
 4.400E+02, 1.499E+02, 1.509E+02, 1.387E+02, 1.537E+02, 1.572E+02, 1.399E+02, 1.530E+02, 1.600E+02,-8.608E+01, 1.249E-01, 4.720E-02, 4.663E+01
 4.500E+02, 1.431E+02, 1.444E+02, 1.307E+02, 1.477E+02, 1.509E+02, 1.379E+02, 1.452E+02, 1.500E+02,-1.735E+01, 1.255E-01, 4.669E-02, 1.309E+01
 4.600E+02, 1.354E+02, 1.402E+02, 1.241E+02, 1.389E+02, 1.432E+02, 1.389E+02, 1.374E+02, 1.443E+02,-3.131E+01, 1.248E-01, 4.709E-02, 4.490E+01
 4.700E+02, 1.280E+02, 1.325E+02, 1.181E+02, 1.322E+02, 1.338E+02, 1.232E+02, 1.340E+02, 1.402E+02,-8.213E+00, 1.278E-01, 4.550E-02, 6.307E+00
 4.800E+02, 1.277E+02, 1.257E+02, 1.215E+02, 1.296E+02, 1.321E+02, 1.151E+02, 1.254E+02, 1.368E+02,-1.088E+01, 1.274E-01, 4.556E-02, 0.000E+00
 4.900E+02, 1.212E+02, 1.296E+02, 1.132E+02, 1.237E+02, 1.266E+02, 1.218E+02, 1.343E+02, 1.326E+02,-7.903E+00, 1.269E-01, 4.561E-02, 0.000E+00
 5.000E+02, 1.178E+02, 1.187E+02, 1.115E+02, 1.195E+02, 1.224E+02, 1.085E+02, 1.198E+02, 1.278E+02, 2.078E+00, 1.278E-01, 4.525E-02, 0.000E+00
 5.100E+02, 1.171E+02, 1.126E+02, 1.117E+02, 1.185E+02, 1.211E+02, 1.012E+02, 1.150E+02, 1.217E+02,-2.568E+00, 1.265E-01, 4.557E-02, 0.000E+00
 5.200E+02, 1.122E+02, 1.123E+02, 1.052E+02, 1.138E+02, 1.175E+02, 1.038E+02, 1.126E+02, 1.203E+02,-1.296E+00, 1.274E-01, 4.524E-02, 0.000E+00
 5.300E+02, 1.083E+02, 1.092E+02, 1.017E+02, 1.106E+02, 1.128E+02, 1.017E+02, 1.094E+02, 1.167E+02, 2.182E+00, 1.276E-01, 4.497E-02, 0.000E+00
 5.400E+02, 1.069E+02, 1.058E+02, 1.008E+02, 1.085E+02, 1.114E+02, 9.730E+01, 1.066E+02, 1.135E+02, 2.095E+00, 1.270E-01, 4.513E-02, 0.000E+00
 5.500E+02, 1.046E+02, 1.024E+02, 9.786E+01, 1.062E+02, 1.098E+02, 9.291E+01, 1.026E+02, 1.116E+02, 2.607E+00, 1.271E-01, 4.512E-02, 0.000E+00
 5.600E+02, 1.036E+02, 9.995E+01, 9.795E+01, 1.053E+02, 1.075E+02, 9.103E+01, 9.995E+01, 1.089E+02, 2.490E+00, 1.268E-01, 4.500E-02, 0.000E+00
 5.700E+02, 1.005E+02, 9.969E+01, 9.324E+01, 1.031E+02, 1.051E+02, 9.180E+01, 9.979E+01, 1.075E+02, 3.792E+00, 1.270E-01, 4.494E-02, 0.000E+00
 5.800E+02, 9.900E+01, 9.654E+01, 9.263E+01, 1.010E+02, 1.033E+02, 8.950E+01, 9.637E+01, 1.037E+02, 3.843E+00, 1.272E-01, 4.485E-02, 0.000E+00
 5.900E+02, 9.618E+01, 9.529E+01, 8.917E+01, 9.857E+01, 1.008E+02, 8.747E+01, 9.577E+01, 1.026E+02, 4.629E+00, 1.271E-01, 4.462E-02, 0.000E+00
 6.000E+02, 9.500E+01, 9.250E+01, 9.074E+01, 9.615E+01, 9.811E+01, 8.475E+01, 9.220E+01, 1.005E+02, 4.491E+00, 1.271E-01, 4.465E-02, 0.000E+00
