s,C,C,C,C,C,C,C,C,Pa,mol/mol,mol/mol,kW
Time,"West_All_TCs","East_All_TCs","West_Bottom_TCs","West_Middle_TCs","West_Upper_TCs","East_Bottom_TCs","East_Middle_TCs","East_Upper_TCs","Pressure","O2","CO2","HRR"
-6.000E+01, 2.900E+01, 2.900E+01, 2.900E+01, 2.900E+01, 2.900E+01, 2.900E+01, 2.900E+01, 2.900E+01,-9.487E-06, 2.095E-01, 3.901E-04, 0.000E+00
-4.997E+01, 2.877E+01, 2.878E+01, 2.878E+01, 2.877E+01, 2.877E+01, 2.876E+01, 2.878E+01, 2.879E+01,-3.729E+02, 2.095E-01, 3.901E-04, 0.000E+00
-4.000E+01, 2.870E+01, 2.872E+01, 2.870E+01, 2.869E+01, 2.870E+01, 2.872E+01, 2.871E+01, 2.872E+01,-4.093E+02, 2.095E-01, 3.901E-04, 0.000E+00
-2.999E+01, 2.869E+01, 2.873E+01, 2.869E+01, 2.868E+01, 2.869E+01, 2.874E+01, 2.872E+01, 2.872E+01,-4.094E+02, 2.095E-01, 3.901E-04, 0.000E+00
-1.998E+01, 2.870E+01, 2.875E+01, 2.871E+01, 2.869E+01, 2.870E+01, 2.876E+01, 2.875E+01, 2.873E+01,-4.095E+02, 2.095E-01, 3.901E-04, 0.000E+00
-9.971E+00, 2.872E+01, 2.877E+01, 2.873E+01, 2.871E+01, 2.871E+01, 2.880E+01, 2.878E+01, 2.873E+01,-4.096E+02, 2.095E-01, 3.901E-04, 0.000E+00
 3.842E-02, 2.874E+01, 2.879E+01, 2.875E+01, 2.874E+01, 2.873E+01, 2.884E+01, 2.878E+01, 2.874E+01,-4.097E+02, 2.095E-01, 3.901E-04, 1.389E-04
 1.002E+01, 2.950E+01, 2.969E+01, 2.931E+01, 2.899E+01, 3.020E+01, 2.948E+01, 2.905E+01, 3.054E+01,-3.170E+02, 2.093E-01, 5.168E-04, 3.271E+01
 2.001E+01, 3.321E+01, 3.294E+01, 3.079E+01, 3.122E+01, 3.763E+01, 3.081E+01, 2.981E+01, 3.819E+01,-1.512E+02, 2.082E-01, 1.128E-03, 9.943E+01
 3.001E+01, 4.148E+01, 4.218E+01, 3.267E+01, 3.936E+01, 5.242E+01, 3.331E+01, 4.049E+01, 5.275E+01,-5.625E+01, 2.071E-01, 1.739E-03, 1.663E+02
 4.001E+01, 5.214E+01, 5.336E+01, 3.614E+01, 5.179E+01, 6.848E+01, 3.750E+01, 5.363E+01, 6.895E+01,-4.254E+01, 2.057E-01, 2.513E-03, 2.006E+02
 5.001E+01, 6.245E+01, 6.306E+01, 3.986E+01, 6.549E+01, 8.201E+01, 4.223E+01, 6.503E+01, 8.192E+01,-7.278E+01, 2.040E-01, 3.486E-03, 2.004E+02
 6.001E+01, 7.084E+01, 7.269E+01, 4.475E+01, 7.502E+01, 9.273E+01, 4.862E+01, 7.649E+01, 9.295E+01,-1.130E+02, 2.028E-01, 4.159E-03, 2.007E+02
 7.000E+01, 7.778E+01, 8.081E+01, 5.050E+01, 8.320E+01, 9.964E+01, 5.414E+01, 8.587E+01, 1.024E+02,-1.549E+02, 2.012E-01, 5.044E-03, 2.002E+02
 8.000E+01, 8.389E+01, 8.717E+01, 5.565E+01, 8.957E+01, 1.064E+02, 5.998E+01, 9.466E+01, 1.069E+02,-1.842E+02, 2.005E-01, 5.467E-03, 2.006E+02
 9.001E+01, 8.962E+01, 9.160E+01, 6.080E+01, 9.423E+01, 1.138E+02, 6.488E+01, 1.001E+02, 1.098E+02,-2.201E+02, 1.998E-01, 5.839E-03, 2.007E+02
 1.000E+02, 9.276E+01, 9.752E+01, 6.500E+01, 9.846E+01, 1.148E+02, 7.003E+01, 1.068E+02, 1.158E+02,-2.502E+02, 1.991E-01, 6.244E-03, 2.004E+02
 1.100E+02, 9.651E+01, 1.021E+02, 6.724E+01, 1.022E+02, 1.201E+02, 7.360E+01, 1.089E+02, 1.238E+02,-2.732E+02, 1.980E-01, 6.853E-03, 2.005E+02
 1.200E+02, 9.973E+01, 1.039E+02, 6.999E+01, 1.052E+02, 1.240E+02, 7.551E+01, 1.107E+02, 1.254E+02,-2.914E+02, 1.970E-01, 7.396E-03, 2.009E+02
 1.300E+02, 1.019E+02, 1.070E+02, 7.159E+01, 1.076E+02, 1.264E+02, 7.915E+01, 1.160E+02, 1.259E+02,-3.015E+02, 1.963E-01, 7.798E-03, 2.010E+02
 1.400E+02, 1.037E+02, 1.085E+02, 7.378E+01, 1.096E+02, 1.277E+02, 7.753E+01, 1.177E+02, 1.302E+02,-3.170E+02, 1.954E-01, 8.317E-03, 2.006E+02
 1.500E+02, 1.050E+02, 1.093E+02, 7.485E+01, 1.103E+02, 1.299E+02, 8.137E+01, 1.168E+02, 1.297E+02,-3.232E+02, 1.948E-01, 8.654E-03, 2.006E+02
 1.600E+02, 1.058E+02, 1.107E+02, 7.673E+01, 1.121E+02, 1.286E+02, 8.375E+01, 1.179E+02, 1.305E+02,-3.241E+02, 1.942E-01, 8.986E-03, 2.008E+02
 1.700E+02, 1.068E+02, 1.110E+02, 7.767E+01, 1.126E+02, 1.301E+02, 8.485E+01, 1.191E+02, 1.291E+02,-3.284E+02, 1.938E-01, 9.186E-03, 2.010E+02
 1.800E+02, 1.080E+02, 1.130E+02, 7.907E+01, 1.143E+02, 1.307E+02, 8.454E+01, 1.224E+02, 1.321E+02,-3.378E+02, 1.929E-01, 9.664E-03, 2.014E+02
 1.900E+02, 1.088E+02, 1.135E+02, 7.893E+01, 1.163E+02, 1.314E+02, 8.517E+01, 1.226E+02, 1.327E+02,-3.392E+02, 1.926E-01, 9.855E-03, 2.012E+02
 2.000E+02, 1.093E+02, 1.155E+02, 7.982E+01, 1.163E+02, 1.318E+02, 8.913E+01, 1.237E+02, 1.338E+02,-3.312E+02, 1.922E-01, 1.008E-02, 2.005E+02
 2.100E+02, 1.103E+02, 1.152E+02, 8.072E+01, 1.175E+02, 1.327E+02, 8.931E+01, 1.245E+02, 1.318E+02,-3.421E+02, 1.918E-01, 1.032E-02, 2.010E+02
 2.200E+02, 1.110E+02, 1.158E+02, 8.193E+01, 1.183E+02, 1.328E+02, 8.809E+01, 1.243E+02, 1.349E+02,-3.383E+02, 1.911E-01, 1.071E-02, 2.012E+02
 2.300E+02, 1.116E+02, 1.160E+02, 8.110E+01, 1.180E+02, 1.358E+02, 9.011E+01, 1.246E+02, 1.333E+02,-3.408E+02, 1.909E-01, 1.080E-02, 2.005E+02
 2.400E+02, 1.120E+02, 1.163E+02, 8.197E+01, 1.188E+02, 1.352E+02, 8.969E+01, 1.229E+02, 1.363E+02,-3.381E+02, 1.900E-01, 1.129E-02, 2.009E+02
 2.500E+02, 1.107E+02, 1.170E+02, 8.234E+01, 1.169E+02, 1.328E+02, 9.042E+01, 1.242E+02, 1.365E+02,-3.322E+02, 1.899E-01, 1.137E-02, 2.008E+02
 2.600E+02, 1.129E+02, 1.172E+02, 8.309E+01, 1.183E+02, 1.374E+02, 9.118E+01, 1.240E+02, 1.364E+02,-3.311E+02, 1.895E-01, 1.159E-02, 2.013E+02
 2.700E+02, 1.135E+02, 1.177E+02, 8.384E+01, 1.200E+02, 1.367E+02, 9.048E+01, 1.262E+02, 1.365E+02,-3.364E+02, 1.891E-01, 1.180E-02, 2.010E+02
 2.800E+02, 1.144E+02, 1.181E+02, 8.333E+01, 1.200E+02, 1.399E+02, 9.050E+01, 1.259E+02, 1.380E+02,-3.362E+02, 1.886E-01, 1.211E-02, 2.009E+02
 2.900E+02, 1.136E+02, 1.187E+02, 8.340E+01, 1.198E+02, 1.377E+02, 9.017E+01, 1.274E+02, 1.385E+02,-3.361E+02, 1.881E-01, 1.237E-02, 2.009E+02
 3.000E+02, 1.144E+02, 1.194E+02, 8.413E+01, 1.215E+02, 1.376E+02, 9.217E+01, 1.273E+02, 1.386E+02,-3.278E+02, 1.880E-01, 1.243E-02, 2.003E+02
 3.100E+02, 1.165E+02, 1.186E+02, 8.484E+01, 1.248E+02, 1.397E+02, 9.198E+01, 1.281E+02, 1.357E+02,-3.244E+02, 1.880E-01, 1.241E-02, 2.009E+02
 3.200E+02, 1.154E+02, 1.184E+02, 8.488E+01, 1.215E+02, 1.400E+02, 9.017E+01, 1.285E+02, 1.366E+02,-3.283E+02, 1.877E-01, 1.260E-02, 2.005E+02
 3.300E+02, 1.163E+02, 1.203E+02, 8.447E+01, 1.220E+02, 1.424E+02, 9.264E+01, 1.297E+02, 1.386E+02,-3.255E+02, 1.873E-01, 1.283E-02, 2.008E+02
 3.400E+02, 1.167E+02, 1.193E+02, 8.444E+01, 1.240E+02, 1.417E+02, 9.226E+01, 1.292E+02, 1.364E+02,-3.287E+02, 1.872E-01, 1.285E-02, 2.007E+02
 3.500E+02, 1.153E+02, 1.207E+02, 8.553E+01, 1.220E+02, 1.385E+02, 9.313E+01, 1.314E+02, 1.375E+02,-3.213E+02, 1.869E-01, 1.303E-02, 2.002E+02
 3.600E+02, 1.163E+02, 1.198E+02, 8.552E+01, 1.231E+02, 1.402E+02, 9.286E+01, 1.296E+02, 1.369E+02,-3.230E+02, 1.865E-01, 1.328E-02, 2.005E+02
 3.700E+02, 1.158E+02, 1.207E+02, 8.461E+01, 1.232E+02, 1.395E+02, 9.231E+01, 1.300E+02, 1.399E+02,-3.194E+02, 1.863E-01, 1.337E-02, 2.012E+02
 3.800E+02, 1.175E+02, 1.201E+02, 8.560E+01, 1.243E+02, 1.426E+02, 9.137E+01, 1.310E+02, 1.379E+02,-3.178E+02, 1.862E-01, 1.342E-02, 2.004E+02
 3.900E+02, 1.177E+02, 1.218E+02, 8.618E+01, 1.230E+02, 1.439E+02, 9.343E+01, 1.309E+02, 1.410E+02,-3.146E+02, 1.859E-01, 1.362E-02, 2.006E+02
 4.000E+02, 1.180E+02, 1.215E+02, 8.557E+01, 1.253E+02, 1.431E+02, 9.566E+01, 1.289E+02, 1.399E+02,-3.151E+02, 1.856E-01, 1.377E-02, 2.011E+02
 4.100E+02, 1.178E+02, 1.227E+02, 8.644E+01, 1.243E+02, 1.428E+02, 9.386E+01, 1.339E+02, 1.402E+02,-3.097E+02, 1.856E-01, 1.375E-02, 2.008E+02
 4.200E+02, 1.175E+02, 1.231E+02, 8.563E+01, 1.239E+02, 1.431E+02, 9.612E+01, 1.322E+02, 1.410E+02,-3.157E+02, 1.856E-01, 1.380E-02, 2.007E+02
 4.300E+02, 1.191E+02, 1.224E+02, 8.743E+01, 1.248E+02, 1.450E+02, 9.473E+01, 1.320E+02, 1.406E+02,-3.032E+02, 1.854E-01, 1.388E-02, 2.005E+02
 4.400E+02, 1.189E+02, 1.222E+02, 8.827E+01, 1.248E+02, 1.437E+02, 9.509E+01, 1.316E+02, 1.398E+02,-3.023E+02, 1.851E-01, 1.407E-02, 2.016E+02
 4.500E+02, 1.191E+02, 1.228E+02, 8.811E+01, 1.263E+02, 1.430E+02, 9.681E+01, 1.319E+02, 1.396E+02,-3.037E+02, 1.850E-01, 1.408E-02, 2.006E+02
 4.600E+02, 1.190E+02, 1.240E+02, 8.758E+01, 1.270E+02, 1.424E+02, 9.766E+01, 1.318E+02, 1.427E+02,-3.039E+02, 1.848E-01, 1.423E-02, 2.007E+02
 4.700E+02, 1.191E+02, 1.248E+02, 8.703E+01, 1.253E+02, 1.450E+02, 9.610E+01, 1.351E+02, 1.433E+02,-3.074E+02, 1.847E-01, 1.430E-02, 2.011E+02
 4.800E+02, 1.200E+02, 1.242E+02, 8.782E+01, 1.261E+02, 1.461E+02, 9.614E+01, 1.339E+02, 1.427E+02,-3.007E+02, 1.844E-01, 1.442E-02, 2.005E+02
 4.900E+02, 1.203E+02, 1.257E+02, 8.812E+01, 1.258E+02, 1.469E+02, 9.740E+01, 1.352E+02, 1.446E+02,-2.958E+02, 1.844E-01, 1.445E-02, 2.014E+02
 5.000E+02, 1.206E+02, 1.247E+02, 8.868E+01, 1.284E+02, 1.447E+02, 9.888E+01, 1.341E+02, 1.413E+02,-2.997E+02, 1.842E-01, 1.458E-02, 2.006E+02
 5.100E+02, 1.204E+02, 1.246E+02, 8.946E+01, 1.268E+02, 1.450E+02, 9.787E+01, 1.337E+02, 1.421E+02,-2.909E+02, 1.840E-01, 1.468E-02, 2.010E+02
 5.200E+02, 1.210E+02, 1.258E+02, 8.925E+01, 1.266E+02, 1.472E+02, 9.740E+01, 1.356E+02, 1.444E+02,-2.964E+02, 1.840E-01, 1.469E-02, 2.009E+02
 5.300E+02, 1.216E+02, 1.249E+02, 9.046E+01, 1.275E+02, 1.467E+02, 9.449E+01, 1.345E+02, 1.458E+02,-2.937E+02, 1.838E-01, 1.476E-02, 2.006E+02
 5.400E+02, 1.211E+02, 1.247E+02, 8.994E+01, 1.276E+02, 1.457E+02, 9.664E+01, 1.343E+02, 1.431E+02,-2.966E+02, 1.839E-01, 1.471E-02, 2.011E+02
 5.500E+02, 1.210E+02, 1.259E+02, 9.043E+01, 1.282E+02, 1.445E+02, 9.722E+01, 1.358E+02, 1.447E+02,-2.923E+02, 1.837E-01, 1.486E-02, 2.008E+02
 5.600E+02, 1.214E+02, 1.272E+02, 9.007E+01, 1.283E+02, 1.459E+02, 9.824E+01, 1.371E+02, 1.463E+02,-2.966E+02, 1.836E-01, 1.487E-02, 2.009E+02
 5.700E+02, 1.221E+02, 1.270E+02, 9.097E+01, 1.283E+02, 1.469E+02, 9.747E+01, 1.375E+02, 1.460E+02,-2.902E+02, 1.834E-01, 1.500E-02, 2.015E+02
 5.800E+02, 1.217E+02, 1.275E+02, 9.126E+01, 1.277E+02, 1.461E+02, 9.854E+01, 1.370E+02, 1.470E+02,-2.951E+02, 1.835E-01, 1.494E-02, 2.007E+02
 5.900E+02, 1.226E+02, 1.273E+02, 9.154E+01, 1.292E+02, 1.472E+02, 9.758E+01, 1.368E+02, 1.475E+02,-2.952E+02, 1.831E-01, 1.517E-02, 2.002E+02
 6.000E+02, 1.220E+02, 1.268E+02, 9.030E+01, 1.286E+02, 1.471E+02, 9.782E+01, 1.369E+02, 1.456E+02,-2.992E+02, 1.831E-01, 1.515E-02, 2.007E+02
 6.100E+02, 1.231E+02, 1.272E+02, 9.089E+01, 1.293E+02, 1.493E+02, 9.757E+01, 1.369E+02, 1.470E+02,-2.918E+02, 1.831E-01, 1.517E-02, 2.011E+02
 6.200E+02, 1.233E+02, 1.270E+02, 9.117E+01, 1.306E+02, 1.480E+02, 9.722E+01, 1.365E+02, 1.474E+02,-2.949E+02, 1.830E-01, 1.523E-02, 2.007E+02
 6.300E+02, 1.241E+02, 1.276E+02, 9.055E+01, 1.301E+02, 1.516E+02, 9.748E+01, 1.372E+02, 1.480E+02,-2.943E+02, 1.828E-01, 1.535E-02, 2.006E+02
 6.400E+02, 1.236E+02, 1.274E+02, 8.996E+01, 1.322E+02, 1.487E+02, 9.890E+01, 1.365E+02, 1.467E+02,-2.898E+02, 1.827E-01, 1.536E-02, 2.013E+02
 6.500E+02, 1.235E+02, 1.285E+02, 9.023E+01, 1.303E+02, 1.500E+02, 9.766E+01, 1.392E+02, 1.485E+02,-2.935E+02, 1.827E-01, 1.540E-02, 2.004E+02
 6.600E+02, 1.237E+02, 1.277E+02, 9.089E+01, 1.325E+02, 1.478E+02, 9.995E+01, 1.383E+02, 1.449E+02,-2.915E+02, 1.826E-01, 1.547E-02, 2.006E+02
 6.700E+02, 1.228E+02, 1.292E+02, 9.102E+01, 1.303E+02, 1.471E+02, 9.846E+01, 1.400E+02, 1.493E+02,-2.899E+02, 1.824E-01, 1.555E-02, 2.009E+02
 6.800E+02, 1.242E+02, 1.284E+02, 9.146E+01, 1.305E+02, 1.507E+02, 9.987E+01, 1.386E+02, 1.467E+02,-2.879E+02, 1.824E-01, 1.556E-02, 2.006E+02
 6.900E+02, 1.255E+02, 1.276E+02, 9.317E+01, 1.329E+02, 1.505E+02, 1.000E+02, 1.381E+02, 1.445E+02,-2.827E+02, 1.827E-01, 1.542E-02, 2.004E+02
 7.000E+02, 1.243E+02, 1.283E+02, 9.175E+01, 1.313E+02, 1.500E+02, 1.012E+02, 1.385E+02, 1.450E+02,-2.852E+02, 1.825E-01, 1.552E-02, 2.009E+02
 7.100E+02, 1.249E+02, 1.298E+02, 9.316E+01, 1.320E+02, 1.494E+02, 1.010E+02, 1.393E+02, 1.490E+02,-2.881E+02, 1.825E-01, 1.550E-02, 2.010E+02
 7.200E+02, 1.253E+02, 1.296E+02, 9.278E+01, 1.315E+02, 1.515E+02, 1.006E+02, 1.407E+02, 1.475E+02,-2.914E+02, 1.823E-01, 1.563E-02, 2.004E+02
 7.300E+02, 1.253E+02, 1.297E+02, 9.267E+01, 1.314E+02, 1.518E+02, 1.000E+02, 1.405E+02, 1.485E+02,-2.977E+02, 1.822E-01, 1.569E-02, 2.008E+02
 7.400E+02, 1.257E+02, 1.287E+02, 9.353E+01, 1.328E+02, 1.507E+02, 9.988E+01, 1.381E+02, 1.482E+02,-2.867E+02, 1.822E-01, 1.570E-02, 2.008E+02
 7.500E+02, 1.251E+02, 1.288E+02, 9.377E+01, 1.320E+02, 1.496E+02, 9.867E+01, 1.401E+02, 1.476E+02,-2.873E+02, 1.819E-01, 1.584E-02, 2.014E+02
 7.600E+02, 1.253E+02, 1.303E+02, 9.307E+01, 1.322E+02, 1.505E+02, 1.024E+02, 1.408E+02, 1.477E+02,-2.813E+02, 1.822E-01, 1.569E-02, 2.011E+02
 7.700E+02, 1.257E+02, 1.311E+02, 9.412E+01, 1.325E+02, 1.505E+02, 1.019E+02, 1.403E+02, 1.512E+02,-2.815E+02, 1.820E-01, 1.575E-02, 2.007E+02
 7.800E+02, 1.257E+02, 1.309E+02, 9.358E+01, 1.324E+02, 1.512E+02, 1.024E+02, 1.396E+02, 1.505E+02,-2.899E+02, 1.820E-01, 1.576E-02, 2.007E+02
 7.900E+02, 1.267E+02, 1.298E+02, 9.392E+01, 1.328E+02, 1.535E+02, 1.010E+02, 1.396E+02, 1.487E+02,-2.857E+02, 1.821E-01, 1.575E-02, 2.012E+02
 8.000E+02, 1.265E+02, 1.302E+02, 9.405E+01, 1.327E+02, 1.526E+02, 1.008E+02, 1.402E+02, 1.496E+02,-2.924E+02, 1.818E-01, 1.588E-02, 2.007E+02
 8.100E+02, 1.276E+02, 1.316E+02, 9.344E+01, 1.344E+02, 1.551E+02, 1.025E+02, 1.397E+02, 1.527E+02,-2.888E+02, 1.818E-01, 1.591E-02, 2.012E+02
 8.200E+02, 1.275E+02, 1.312E+02, 9.441E+01, 1.348E+02, 1.534E+02, 1.026E+02, 1.413E+02, 1.497E+02,-2.793E+02, 1.820E-01, 1.580E-02, 2.004E+02
 8.300E+02, 1.269E+02, 1.313E+02, 9.466E+01, 1.343E+02, 1.518E+02, 1.028E+02, 1.437E+02, 1.474E+02,-2.871E+02, 1.820E-01, 1.580E-02, 2.004E+02
 8.400E+02, 1.275E+02, 1.318E+02, 9.484E+01, 1.338E+02, 1.538E+02, 1.033E+02, 1.419E+02, 1.504E+02,-2.846E+02, 1.820E-01, 1.576E-02, 2.006E+02
 8.500E+02, 1.285E+02, 1.306E+02, 9.564E+01, 1.348E+02, 1.551E+02, 1.019E+02, 1.408E+02, 1.492E+02,-2.867E+02, 1.819E-01, 1.586E-02, 2.007E+02
 8.600E+02, 1.280E+02, 1.328E+02, 9.436E+01, 1.358E+02, 1.537E+02, 1.046E+02, 1.420E+02, 1.519E+02,-2.820E+02, 1.817E-01, 1.594E-02, 2.014E+02
 8.700E+02, 1.283E+02, 1.321E+02, 9.567E+01, 1.366E+02, 1.528E+02, 1.033E+02, 1.425E+02, 1.505E+02,-2.847E+02, 1.818E-01, 1.588E-02, 2.006E+02
 8.800E+02, 1.280E+02, 1.319E+02, 9.604E+01, 1.360E+02, 1.521E+02, 1.039E+02, 1.411E+02, 1.505E+02,-2.797E+02, 1.819E-01, 1.585E-02, 1.997E+02
 8.900E+02, 1.290E+02, 1.319E+02, 9.594E+01, 1.364E+02, 1.545E+02, 1.048E+02, 1.420E+02, 1.490E+02,-2.819E+02, 1.818E-01, 1.590E-02, 2.007E+02
 9.000E+02, 1.284E+02, 1.320E+02, 9.584E+01, 1.352E+02, 1.540E+02, 1.017E+02, 1.431E+02, 1.513E+02,-2.870E+02, 1.814E-01, 1.610E-02, 2.006E+02
 9.100E+02, 1.283E+02, 1.330E+02, 9.557E+01, 1.357E+02, 1.538E+02, 1.034E+02, 1.423E+02, 1.532E+02,-2.799E+02, 1.815E-01, 1.605E-02, 2.010E+02
 9.200E+02, 1.293E+02, 1.317E+02, 9.604E+01, 1.370E+02, 1.549E+02, 1.019E+02, 1.413E+02, 1.521E+02,-2.818E+02, 1.815E-01, 1.608E-02, 2.010E+02
 9.300E+02, 1.286E+02, 1.334E+02, 9.649E+01, 1.359E+02, 1.534E+02, 1.034E+02, 1.432E+02, 1.536E+02,-2.803E+02, 1.816E-01, 1.603E-02, 2.002E+02
 9.400E+02, 1.289E+02, 1.332E+02, 9.568E+01, 1.360E+02, 1.549E+02, 1.028E+02, 1.426E+02, 1.542E+02,-2.827E+02, 1.815E-01, 1.604E-02, 2.004E+02
 9.500E+02, 1.291E+02, 1.321E+02, 9.553E+01, 1.351E+02, 1.566E+02, 1.031E+02, 1.406E+02, 1.525E+02,-2.846E+02, 1.813E-01, 1.617E-02, 2.007E+02
 9.600E+02, 1.287E+02, 1.335E+02, 9.520E+01, 1.348E+02, 1.562E+02, 1.047E+02, 1.421E+02, 1.537E+02,-2.794E+02, 1.813E-01, 1.616E-02, 2.008E+02
 9.700E+02, 1.292E+02, 1.331E+02, 9.659E+01, 1.353E+02, 1.555E+02, 1.030E+02, 1.427E+02, 1.537E+02,-2.805E+02, 1.814E-01, 1.613E-02, 2.009E+02
 9.800E+02, 1.295E+02, 1.336E+02, 9.702E+01, 1.356E+02, 1.559E+02, 1.022E+02, 1.444E+02, 1.543E+02,-2.817E+02, 1.814E-01, 1.611E-02, 2.006E+02
 9.900E+02, 1.288E+02, 1.343E+02, 9.679E+01, 1.349E+02, 1.547E+02, 1.021E+02, 1.449E+02, 1.559E+02,-2.832E+02, 1.812E-01, 1.625E-02, 2.006E+02
 1.000E+03, 1.286E+02, 1.327E+02, 9.640E+01, 1.364E+02, 1.532E+02, 1.021E+02, 1.438E+02, 1.523E+02,-2.772E+02, 1.813E-01, 1.620E-02, 2.013E+02
 1.010E+03, 1.304E+02, 1.332E+02, 9.744E+01, 1.375E+02, 1.562E+02, 1.038E+02, 1.441E+02, 1.518E+02,-2.711E+02, 1.815E-01, 1.607E-02, 2.013E+02
 1.020E+03, 1.301E+02, 1.349E+02, 9.816E+01, 1.367E+02, 1.554E+02, 1.047E+02, 1.457E+02, 1.544E+02,-2.794E+02, 1.812E-01, 1.624E-02, 2.001E+02
 1.030E+03, 1.301E+02, 1.356E+02, 9.822E+01, 1.364E+02, 1.557E+02, 1.070E+02, 1.457E+02, 1.539E+02,-2.744E+02, 1.812E-01, 1.621E-02, 2.007E+02
 1.040E+03, 1.301E+02, 1.353E+02, 9.803E+01, 1.364E+02, 1.558E+02, 1.066E+02, 1.445E+02, 1.549E+02,-2.783E+02, 1.812E-01, 1.624E-02, 2.004E+02
 1.050E+03, 1.307E+02, 1.352E+02, 9.865E+01, 1.373E+02, 1.561E+02, 1.055E+02, 1.440E+02, 1.561E+02,-2.804E+02, 1.812E-01, 1.625E-02, 2.008E+02
 1.060E+03, 1.293E+02, 1.357E+02, 9.777E+01, 1.365E+02, 1.537E+02, 1.072E+02, 1.454E+02, 1.545E+02,-2.691E+02, 1.814E-01, 1.610E-02, 2.015E+02
 1.070E+03, 1.302E+02, 1.373E+02, 9.924E+01, 1.375E+02, 1.539E+02, 1.078E+02, 1.462E+02, 1.579E+02,-2.750E+02, 1.814E-01, 1.613E-02, 2.007E+02
 1.080E+03, 1.303E+02, 1.363E+02, 9.926E+01, 1.372E+02, 1.545E+02, 1.071E+02, 1.454E+02, 1.565E+02,-2.735E+02, 1.814E-01, 1.613E-02, 2.009E+02
 1.090E+03, 1.310E+02, 1.369E+02, 9.927E+01, 1.383E+02, 1.554E+02, 1.080E+02, 1.456E+02, 1.572E+02,-2.789E+02, 1.813E-01, 1.617E-02, 2.002E+02
 1.100E+03, 1.304E+02, 1.376E+02, 9.976E+01, 1.367E+02, 1.548E+02, 1.067E+02, 1.482E+02, 1.578E+02,-2.768E+02, 1.812E-01, 1.624E-02, 2.011E+02
 1.110E+03, 1.313E+02, 1.368E+02, 9.940E+01, 1.377E+02, 1.569E+02, 1.067E+02, 1.470E+02, 1.568E+02,-2.826E+02, 1.812E-01, 1.621E-02, 2.003E+02
 1.120E+03, 1.317E+02, 1.355E+02, 1.003E+02, 1.376E+02, 1.572E+02, 1.045E+02, 1.459E+02, 1.562E+02,-2.829E+02, 1.811E-01, 1.628E-02, 2.003E+02
 1.130E+03, 1.314E+02, 1.376E+02, 9.998E+01, 1.390E+02, 1.554E+02, 1.083E+02, 1.460E+02, 1.587E+02,-2.773E+02, 1.809E-01, 1.637E-02, 2.006E+02
 1.140E+03, 1.319E+02, 1.362E+02, 1.001E+02, 1.394E+02, 1.562E+02, 1.071E+02, 1.442E+02, 1.572E+02,-2.706E+02, 1.810E-01, 1.635E-02, 2.010E+02
 1.150E+03, 1.318E+02, 1.385E+02, 1.002E+02, 1.388E+02, 1.562E+02, 1.090E+02, 1.465E+02, 1.599E+02,-2.749E+02, 1.811E-01, 1.630E-02, 2.008E+02
 1.160E+03, 1.310E+02, 1.370E+02, 9.935E+01, 1.392E+02, 1.544E+02, 1.065E+02, 1.454E+02, 1.591E+02,-2.745E+02, 1.813E-01, 1.619E-02, 2.016E+02
 1.170E+03, 1.325E+02, 1.387E+02, 1.004E+02, 1.391E+02, 1.579E+02, 1.075E+02, 1.495E+02, 1.589E+02,-2.753E+02, 1.813E-01, 1.619E-02, 2.002E+02
 1.180E+03, 1.317E+02, 1.394E+02, 1.000E+02, 1.386E+02, 1.565E+02, 1.096E+02, 1.490E+02, 1.595E+02,-2.774E+02, 1.813E-01, 1.618E-02, 2.011E+02
 1.190E+03, 1.329E+02, 1.388E+02, 1.001E+02, 1.414E+02, 1.572E+02, 1.090E+02, 1.503E+02, 1.571E+02,-2.785E+02, 1.813E-01, 1.620E-02, 2.001E+02
 1.200E+03, 1.334E+02, 1.380E+02, 9.972E+01, 1.429E+02, 1.575E+02, 1.078E+02, 1.480E+02, 1.583E+02,-2.722E+02, 1.810E-01, 1.631E-02, 2.010E+02
 1.210E+03, 1.332E+02, 1.364E+02, 1.007E+02, 1.407E+02, 1.582E+02, 1.067E+02, 1.465E+02, 1.560E+02,-2.731E+02, 1.810E-01, 1.631E-02, 2.013E+02
 1.220E+03, 1.328E+02, 1.383E+02, 1.008E+02, 1.396E+02, 1.581E+02, 1.078E+02, 1.497E+02, 1.574E+02,-2.810E+02, 1.809E-01, 1.638E-02, 2.004E+02
 1.230E+03, 1.329E+02, 1.374E+02, 1.009E+02, 1.388E+02, 1.589E+02, 1.058E+02, 1.469E+02, 1.594E+02,-2.780E+02, 1.811E-01, 1.628E-02, 2.009E+02
 1.240E+03, 1.336E+02, 1.380E+02, 1.006E+02, 1.409E+02, 1.594E+02, 1.052E+02, 1.496E+02, 1.592E+02,-2.750E+02, 1.809E-01, 1.642E-02, 2.009E+02
 1.250E+03, 1.349E+02, 1.380E+02, 1.004E+02, 1.428E+02, 1.616E+02, 1.067E+02, 1.485E+02, 1.588E+02,-2.770E+02, 1.810E-01, 1.634E-02, 2.005E+02
 1.260E+03, 1.341E+02, 1.384E+02, 9.971E+01, 1.409E+02, 1.615E+02, 1.068E+02, 1.489E+02, 1.593E+02,-2.812E+02, 1.809E-01, 1.641E-02, 2.006E+02
 1.270E+03, 1.342E+02, 1.376E+02, 9.968E+01, 1.410E+02, 1.619E+02, 1.053E+02, 1.490E+02, 1.584E+02,-2.808E+02, 1.810E-01, 1.636E-02, 2.005E+02
 1.280E+03, 1.346E+02, 1.380E+02, 1.002E+02, 1.417E+02, 1.618E+02, 1.050E+02, 1.483E+02, 1.606E+02,-2.749E+02, 1.808E-01, 1.647E-02, 2.007E+02
 1.290E+03, 1.339E+02, 1.385E+02, 1.008E+02, 1.408E+02, 1.600E+02, 1.057E+02, 1.501E+02, 1.595E+02,-2.750E+02, 1.811E-01, 1.628E-02, 2.009E+02
 1.300E+03, 1.336E+02, 1.389E+02, 9.928E+01, 1.418E+02, 1.596E+02, 1.072E+02, 1.489E+02, 1.607E+02,-2.751E+02, 1.809E-01, 1.640E-02, 2.009E+02
 1.310E+03, 1.346E+02, 1.381E+02, 1.008E+02, 1.450E+02, 1.579E+02, 1.088E+02, 1.493E+02, 1.564E+02,-2.667E+02, 1.810E-01, 1.636E-02, 2.012E+02
