s,C,C,C,C,C,C,C,C,Pa,mol/mol,mol/mol,kW
Time,"West_All_TCs","East_All_TCs","West_Bottom_TCs","West_Middle_TCs","West_Upper_TCs","East_Bottom_TCs","East_Middle_TCs","East_Upper_TCs","Pressure","O2","CO2","HRR"
-6.000E+01, 2.500E+01, 2.500E+01, 2.500E+01, 2.500E+01, 2.500E+01, 2.500E+01, 2.500E+01, 2.500E+01,-9.627E-06, 2.095E-01, 3.901E-04, 0.000E+00
-5.000E+01, 2.484E+01, 2.486E+01, 2.486E+01, 2.484E+01, 2.483E+01, 2.487E+01, 2.485E+01, 2.486E+01,-2.575E+02, 2.095E-01, 3.901E-04, 0.000E+00
-4.000E+01, 2.479E+01, 2.483E+01, 2.480E+01, 2.479E+01, 2.479E+01, 2.486E+01, 2.481E+01, 2.481E+01,-2.758E+02, 2.095E-01, 3.901E-04, 0.000E+00
-2.999E+01, 2.478E+01, 2.482E+01, 2.479E+01, 2.478E+01, 2.479E+01, 2.485E+01, 2.480E+01, 2.481E+01,-2.759E+02, 2.095E-01, 3.901E-04, 0.000E+00
-1.998E+01, 2.479E+01, 2.484E+01, 2.479E+01, 2.480E+01, 2.479E+01, 2.485E+01, 2.484E+01, 2.482E+01,-2.761E+02, 2.095E-01, 3.901E-04, 0.000E+00
-9.987E+00, 2.481E+01, 2.486E+01, 2.481E+01, 2.484E+01, 2.480E+01, 2.491E+01, 2.486E+01, 2.482E+01,-2.761E+02, 2.095E-01, 3.901E-04, 0.000E+00
 2.431E-02, 2.483E+01, 2.488E+01, 2.483E+01, 2.484E+01, 2.481E+01, 2.495E+01, 2.488E+01, 2.482E+01,-2.761E+02, 2.095E-01, 3.901E-04, 3.643E-05
 1.002E+01, 2.528E+01, 2.548E+01, 2.514E+01, 2.584E+01, 2.486E+01, 2.525E+01, 2.631E+01, 2.486E+01,-2.359E+02, 2.095E-01, 3.901E-04, 1.620E+01
 2.003E+01, 2.741E+01, 2.705E+01, 2.580E+01, 3.128E+01, 2.515E+01, 2.627E+01, 3.000E+01, 2.489E+01,-1.592E+02, 2.095E-01, 3.901E-04, 4.945E+01
 3.002E+01, 3.051E+01, 3.143E+01, 2.714E+01, 3.868E+01, 2.569E+01, 2.970E+01, 3.969E+01, 2.491E+01,-1.009E+02, 2.095E-01, 3.901E-04, 8.306E+01
 4.001E+01, 3.636E+01, 3.664E+01, 3.089E+01, 4.992E+01, 2.827E+01, 3.192E+01, 5.307E+01, 2.493E+01,-8.550E+01, 2.095E-01, 3.901E-04, 1.002E+02
 5.001E+01, 4.155E+01, 4.173E+01, 3.521E+01, 6.002E+01, 2.942E+01, 3.605E+01, 6.333E+01, 2.582E+01,-1.005E+02, 2.094E-01, 4.949E-04, 9.975E+01
 6.000E+01, 4.646E+01, 4.795E+01, 4.093E+01, 6.756E+01, 3.088E+01, 4.445E+01, 6.991E+01, 2.949E+01,-1.182E+02, 2.087E-01, 8.633E-04, 9.974E+01
 7.002E+01, 5.081E+01, 5.173E+01, 4.480E+01, 7.494E+01, 3.269E+01, 4.781E+01, 7.548E+01, 3.191E+01,-1.346E+02, 2.085E-01, 9.715E-04, 9.995E+01
 8.001E+01, 5.455E+01, 5.604E+01, 4.925E+01, 7.969E+01, 3.472E+01, 5.410E+01, 8.006E+01, 3.396E+01,-1.472E+02, 2.082E-01, 1.156E-03, 1.003E+02
 9.000E+01, 5.780E+01, 5.887E+01, 5.372E+01, 8.276E+01, 3.692E+01, 5.565E+01, 8.452E+01, 3.645E+01,-1.562E+02, 2.077E-01, 1.399E-03, 9.995E+01
 1.000E+02, 6.108E+01, 6.246E+01, 5.809E+01, 8.589E+01, 3.925E+01, 6.057E+01, 8.767E+01, 3.913E+01,-1.721E+02, 2.073E-01, 1.623E-03, 1.005E+02
 1.100E+02, 6.350E+01, 6.538E+01, 6.025E+01, 8.897E+01, 4.128E+01, 6.651E+01, 8.911E+01, 4.053E+01,-1.889E+02, 2.071E-01, 1.756E-03, 9.980E+01
 1.200E+02, 6.518E+01, 6.762E+01, 6.117E+01, 9.039E+01, 4.397E+01, 6.934E+01, 9.160E+01, 4.192E+01,-2.020E+02, 2.067E-01, 1.976E-03, 1.000E+02
 1.300E+02, 6.693E+01, 7.069E+01, 6.246E+01, 9.267E+01, 4.566E+01, 7.358E+01, 9.515E+01, 4.334E+01,-2.084E+02, 2.063E-01, 2.176E-03, 1.002E+02
 1.400E+02, 6.766E+01, 7.259E+01, 6.495E+01, 9.148E+01, 4.654E+01, 7.521E+01, 9.671E+01, 4.584E+01,-2.157E+02, 2.058E-01, 2.459E-03, 1.001E+02
 1.500E+02, 6.976E+01, 7.286E+01, 6.602E+01, 9.400E+01, 4.925E+01, 7.522E+01, 9.706E+01, 4.631E+01,-2.252E+02, 2.055E-01, 2.628E-03, 1.000E+02
 1.600E+02, 7.093E+01, 7.432E+01, 6.760E+01, 9.575E+01, 4.945E+01, 7.732E+01, 9.849E+01, 4.715E+01,-2.321E+02, 2.051E-01, 2.865E-03, 9.996E+01
 1.700E+02, 7.170E+01, 7.515E+01, 6.911E+01, 9.654E+01, 4.946E+01, 7.573E+01, 1.009E+02, 4.880E+01,-2.356E+02, 2.047E-01, 3.112E-03, 1.004E+02
 1.800E+02, 7.227E+01, 7.568E+01, 7.043E+01, 9.593E+01, 5.046E+01, 7.729E+01, 1.008E+02, 4.890E+01,-2.422E+02, 2.045E-01, 3.231E-03, 1.001E+02
 1.900E+02, 7.286E+01, 7.597E+01, 7.017E+01, 9.690E+01, 5.152E+01, 7.860E+01, 9.948E+01, 4.983E+01,-2.455E+02, 2.039E-01, 3.542E-03, 1.001E+02
 2.000E+02, 7.324E+01, 7.640E+01, 7.088E+01, 9.718E+01, 5.167E+01, 7.917E+01, 1.003E+02, 4.973E+01,-2.456E+02, 2.036E-01, 3.698E-03, 9.975E+01
 2.100E+02, 7.444E+01, 7.737E+01, 7.175E+01, 1.002E+02, 5.142E+01, 7.913E+01, 1.023E+02, 5.070E+01,-2.471E+02, 2.032E-01, 3.939E-03, 9.982E+01
 2.200E+02, 7.490E+01, 7.760E+01, 7.098E+01, 1.004E+02, 5.336E+01, 7.842E+01, 1.028E+02, 5.160E+01,-2.556E+02, 2.028E-01, 4.140E-03, 1.005E+02
 2.300E+02, 7.474E+01, 7.838E+01, 7.189E+01, 9.968E+01, 5.264E+01, 7.826E+01, 1.054E+02, 5.150E+01,-2.470E+02, 2.024E-01, 4.404E-03, 9.952E+01
 2.400E+02, 7.523E+01, 7.796E+01, 7.227E+01, 9.945E+01, 5.396E+01, 7.942E+01, 1.028E+02, 5.167E+01,-2.545E+02, 2.021E-01, 4.566E-03, 1.005E+02
 2.500E+02, 7.522E+01, 7.835E+01, 7.249E+01, 9.976E+01, 5.340E+01, 7.953E+01, 1.034E+02, 5.215E+01,-2.524E+02, 2.016E-01, 4.820E-03, 1.000E+02
 2.600E+02, 7.558E+01, 7.873E+01, 7.258E+01, 1.004E+02, 5.374E+01, 8.008E+01, 1.029E+02, 5.322E+01,-2.511E+02, 2.013E-01, 4.998E-03, 1.003E+02
 2.700E+02, 7.596E+01, 7.944E+01, 7.267E+01, 1.010E+02, 5.418E+01, 8.133E+01, 1.047E+02, 5.231E+01,-2.429E+02, 2.012E-01, 5.051E-03, 9.990E+01
 2.800E+02, 7.620E+01, 8.077E+01, 7.292E+01, 1.014E+02, 5.434E+01, 8.348E+01, 1.045E+02, 5.432E+01,-2.456E+02, 2.008E-01, 5.294E-03, 1.006E+02
 2.900E+02, 7.683E+01, 8.007E+01, 7.383E+01, 1.013E+02, 5.541E+01, 8.150E+01, 1.058E+02, 5.287E+01,-2.575E+02, 2.006E-01, 5.389E-03, 9.981E+01
 3.000E+02, 7.690E+01, 7.993E+01, 7.439E+01, 1.010E+02, 5.529E+01, 8.232E+01, 1.049E+02, 5.261E+01,-2.522E+02, 2.002E-01, 5.622E-03, 9.977E+01
 3.100E+02, 7.731E+01, 8.042E+01, 7.429E+01, 1.017E+02, 5.591E+01, 8.275E+01, 1.053E+02, 5.322E+01,-2.561E+02, 1.999E-01, 5.756E-03, 9.969E+01
 3.200E+02, 7.702E+01, 8.045E+01, 7.385E+01, 1.011E+02, 5.614E+01, 8.325E+01, 1.057E+02, 5.242E+01,-2.553E+02, 1.996E-01, 5.929E-03, 1.008E+02
 3.300E+02, 7.777E+01, 8.094E+01, 7.455E+01, 1.031E+02, 5.568E+01, 8.350E+01, 1.061E+02, 5.320E+01,-2.448E+02, 1.994E-01, 6.070E-03, 9.987E+01
 3.400E+02, 7.807E+01, 8.015E+01, 7.439E+01, 1.034E+02, 5.643E+01, 8.314E+01, 1.038E+02, 5.347E+01,-2.487E+02, 1.991E-01, 6.238E-03, 1.000E+02
 3.500E+02, 7.835E+01, 8.183E+01, 7.432E+01, 1.041E+02, 5.657E+01, 8.422E+01, 1.073E+02, 5.395E+01,-2.473E+02, 1.988E-01, 6.381E-03, 9.981E+01
 3.600E+02, 7.837E+01, 8.219E+01, 7.458E+01, 1.052E+02, 5.529E+01, 8.313E+01, 1.079E+02, 5.555E+01,-2.429E+02, 1.983E-01, 6.677E-03, 1.003E+02
 3.700E+02, 7.841E+01, 8.229E+01, 7.495E+01, 1.041E+02, 5.614E+01, 8.548E+01, 1.052E+02, 5.620E+01,-2.474E+02, 1.981E-01, 6.758E-03, 1.003E+02
 3.800E+02, 7.865E+01, 8.161E+01, 7.562E+01, 1.053E+02, 5.501E+01, 8.410E+01, 1.066E+02, 5.415E+01,-2.492E+02, 1.980E-01, 6.829E-03, 9.969E+01
 3.900E+02, 7.831E+01, 8.178E+01, 7.485E+01, 1.032E+02, 5.689E+01, 8.500E+01, 1.062E+02, 5.415E+01,-2.487E+02, 1.977E-01, 6.983E-03, 1.004E+02
 4.000E+02, 7.822E+01, 8.248E+01, 7.579E+01, 1.024E+02, 5.649E+01, 8.445E+01, 1.077E+02, 5.534E+01,-2.489E+02, 1.975E-01, 7.137E-03, 9.954E+01
 4.100E+02, 7.884E+01, 8.324E+01, 7.583E+01, 1.049E+02, 5.576E+01, 8.510E+01, 1.082E+02, 5.647E+01,-2.444E+02, 1.973E-01, 7.253E-03, 1.001E+02
 4.200E+02, 7.969E+01, 8.240E+01, 7.566E+01, 1.058E+02, 5.760E+01, 8.453E+01, 1.073E+02, 5.540E+01,-2.489E+02, 1.972E-01, 7.295E-03, 1.000E+02
 4.300E+02, 8.005E+01, 8.323E+01, 7.625E+01, 1.055E+02, 5.836E+01, 8.514E+01, 1.084E+02, 5.610E+01,-2.489E+02, 1.970E-01, 7.399E-03, 9.998E+01
 4.400E+02, 7.989E+01, 8.326E+01, 7.522E+01, 1.066E+02, 5.781E+01, 8.520E+01, 1.091E+02, 5.553E+01,-2.503E+02, 1.967E-01, 7.551E-03, 9.998E+01
 4.500E+02, 7.978E+01, 8.400E+01, 7.601E+01, 1.055E+02, 5.782E+01, 8.552E+01, 1.101E+02, 5.639E+01,-2.450E+02, 1.966E-01, 7.646E-03, 1.004E+02
 4.600E+02, 7.997E+01, 8.304E+01, 7.686E+01, 1.057E+02, 5.737E+01, 8.478E+01, 1.076E+02, 5.669E+01,-2.457E+02, 1.964E-01, 7.710E-03, 9.957E+01
 4.700E+02, 8.071E+01, 8.281E+01, 7.702E+01, 1.066E+02, 5.845E+01, 8.576E+01, 1.067E+02, 5.596E+01,-2.527E+02, 1.963E-01, 7.775E-03, 1.001E+02
 4.800E+02, 8.082E+01, 8.241E+01, 7.691E+01, 1.075E+02, 5.804E+01, 8.425E+01, 1.067E+02, 5.624E+01,-2.445E+02, 1.960E-01, 7.963E-03, 1.000E+02
 4.900E+02, 7.947E+01, 8.236E+01, 7.638E+01, 1.058E+02, 5.625E+01, 8.275E+01, 1.074E+02, 5.695E+01,-2.465E+02, 1.959E-01, 8.009E-03, 1.000E+02
 5.000E+02, 8.059E+01, 8.355E+01, 7.685E+01, 1.074E+02, 5.751E+01, 8.434E+01, 1.105E+02, 5.582E+01,-2.402E+02, 1.960E-01, 7.940E-03, 1.001E+02
 5.100E+02, 8.137E+01, 8.351E+01, 7.745E+01, 1.072E+02, 5.949E+01, 8.374E+01, 1.109E+02, 5.592E+01,-2.413E+02, 1.958E-01, 8.065E-03, 9.999E+01
 5.200E+02, 8.098E+01, 8.494E+01, 7.830E+01, 1.067E+02, 5.797E+01, 8.725E+01, 1.114E+02, 5.616E+01,-2.375E+02, 1.958E-01, 8.096E-03, 1.003E+02
 5.300E+02, 8.097E+01, 8.422E+01, 7.829E+01, 1.076E+02, 5.705E+01, 8.552E+01, 1.096E+02, 5.752E+01,-2.369E+02, 1.955E-01, 8.212E-03, 1.004E+02
 5.400E+02, 8.114E+01, 8.474E+01, 7.762E+01, 1.073E+02, 5.850E+01, 8.628E+01, 1.108E+02, 5.711E+01,-2.492E+02, 1.955E-01, 8.230E-03, 9.967E+01
 5.500E+02, 8.129E+01, 8.490E+01, 7.837E+01, 1.082E+02, 5.731E+01, 8.773E+01, 1.099E+02, 5.706E+01,-2.464E+02, 1.955E-01, 8.247E-03, 1.002E+02
 5.600E+02, 8.175E+01, 8.517E+01, 7.814E+01, 1.084E+02, 5.866E+01, 8.706E+01, 1.123E+02, 5.614E+01,-2.414E+02, 1.954E-01, 8.287E-03, 1.001E+02
 5.700E+02, 8.183E+01, 8.492E+01, 7.853E+01, 1.080E+02, 5.899E+01, 8.765E+01, 1.098E+02, 5.730E+01,-2.458E+02, 1.954E-01, 8.309E-03, 9.998E+01
 5.800E+02, 8.272E+01, 8.476E+01, 7.959E+01, 1.092E+02, 5.943E+01, 8.609E+01, 1.105E+02, 5.766E+01,-2.471E+02, 1.953E-01, 8.330E-03, 9.947E+01
 5.900E+02, 8.223E+01, 8.473E+01, 7.866E+01, 1.096E+02, 5.842E+01, 8.614E+01, 1.110E+02, 5.708E+01,-2.398E+02, 1.954E-01, 8.318E-03, 1.003E+02
 6.000E+02, 8.242E+01, 8.472E+01, 7.915E+01, 1.093E+02, 5.887E+01, 8.599E+01, 1.108E+02, 5.731E+01,-2.451E+02, 1.952E-01, 8.421E-03, 1.006E+02
 6.100E+02, 8.275E+01, 8.499E+01, 7.895E+01, 1.098E+02, 5.945E+01, 8.663E+01, 1.116E+02, 5.672E+01,-2.435E+02, 1.952E-01, 8.416E-03, 9.990E+01
 6.200E+02, 8.293E+01, 8.593E+01, 7.909E+01, 1.095E+02, 6.022E+01, 8.693E+01, 1.132E+02, 5.766E+01,-2.436E+02, 1.951E-01, 8.454E-03, 1.002E+02
 6.300E+02, 8.256E+01, 8.512E+01, 7.931E+01, 1.092E+02, 5.919E+01, 8.810E+01, 1.103E+02, 5.691E+01,-2.433E+02, 1.951E-01, 8.466E-03, 1.000E+02
 6.400E+02, 8.200E+01, 8.569E+01, 7.959E+01, 1.079E+02, 5.848E+01, 8.785E+01, 1.122E+02, 5.701E+01,-2.423E+02, 1.951E-01, 8.458E-03, 9.967E+01
 6.500E+02, 8.231E+01, 8.567E+01, 7.972E+01, 1.088E+02, 5.841E+01, 8.814E+01, 1.119E+02, 5.695E+01,-2.376E+02, 1.950E-01, 8.497E-03, 1.003E+02
 6.600E+02, 8.330E+01, 8.576E+01, 8.032E+01, 1.095E+02, 6.002E+01, 8.720E+01, 1.122E+02, 5.792E+01,-2.373E+02, 1.951E-01, 8.484E-03, 1.001E+02
 6.700E+02, 8.336E+01, 8.594E+01, 8.001E+01, 1.099E+02, 6.021E+01, 8.643E+01, 1.140E+02, 5.739E+01,-2.370E+02, 1.950E-01, 8.522E-03, 1.005E+02
 6.800E+02, 8.324E+01, 8.641E+01, 7.992E+01, 1.102E+02, 5.957E+01, 8.698E+01, 1.145E+02, 5.768E+01,-2.400E+02, 1.949E-01, 8.551E-03, 9.990E+01
 6.900E+02, 8.408E+01, 8.685E+01, 8.027E+01, 1.117E+02, 6.024E+01, 8.934E+01, 1.124E+02, 5.880E+01,-2.423E+02, 1.948E-01, 8.608E-03, 1.003E+02
 7.000E+02, 8.431E+01, 8.663E+01, 8.063E+01, 1.113E+02, 6.101E+01, 8.933E+01, 1.121E+02, 5.844E+01,-2.477E+02, 1.948E-01, 8.636E-03, 9.996E+01
 7.100E+02, 8.450E+01, 8.543E+01, 8.076E+01, 1.129E+02, 5.986E+01, 8.550E+01, 1.127E+02, 5.806E+01,-2.378E+02, 1.948E-01, 8.626E-03, 1.002E+02
 7.200E+02, 8.415E+01, 8.681E+01, 8.057E+01, 1.116E+02, 6.029E+01, 8.777E+01, 1.135E+02, 5.917E+01,-2.378E+02, 1.948E-01, 8.657E-03, 1.002E+02
 7.300E+02, 8.459E+01, 8.653E+01, 8.133E+01, 1.121E+02, 6.030E+01, 8.867E+01, 1.118E+02, 5.911E+01,-2.429E+02, 1.947E-01, 8.662E-03, 1.002E+02
 7.400E+02, 8.420E+01, 8.734E+01, 8.074E+01, 1.121E+02, 5.976E+01, 8.876E+01, 1.144E+02, 5.881E+01,-2.369E+02, 1.947E-01, 8.710E-03, 9.966E+01
 7.500E+02, 8.433E+01, 8.662E+01, 8.105E+01, 1.108E+02, 6.110E+01, 8.804E+01, 1.129E+02, 5.892E+01,-2.427E+02, 1.946E-01, 8.715E-03, 1.001E+02
 7.600E+02, 8.408E+01, 8.777E+01, 8.009E+01, 1.115E+02, 6.063E+01, 8.917E+01, 1.147E+02, 5.945E+01,-2.373E+02, 1.945E-01, 8.770E-03, 1.006E+02
 7.700E+02, 8.467E+01, 8.740E+01, 8.024E+01, 1.129E+02, 6.088E+01, 8.789E+01, 1.143E+02, 5.998E+01,-2.430E+02, 1.946E-01, 8.761E-03, 9.991E+01
 7.800E+02, 8.426E+01, 8.753E+01, 8.084E+01, 1.110E+02, 6.095E+01, 8.924E+01, 1.140E+02, 5.930E+01,-2.391E+02, 1.945E-01, 8.784E-03, 1.005E+02
 7.900E+02, 8.461E+01, 8.765E+01, 8.161E+01, 1.103E+02, 6.191E+01, 9.004E+01, 1.146E+02, 5.832E+01,-2.396E+02, 1.945E-01, 8.776E-03, 9.984E+01
 8.000E+02, 8.484E+01, 8.792E+01, 8.226E+01, 1.113E+02, 6.094E+01, 9.072E+01, 1.133E+02, 5.978E+01,-2.349E+02, 1.945E-01, 8.824E-03, 1.006E+02
 8.100E+02, 8.576E+01, 8.782E+01, 8.257E+01, 1.133E+02, 6.147E+01, 8.977E+01, 1.151E+02, 5.863E+01,-2.347E+02, 1.945E-01, 8.813E-03, 1.003E+02
 8.200E+02, 8.555E+01, 8.801E+01, 8.175E+01, 1.130E+02, 6.194E+01, 9.095E+01, 1.140E+02, 5.912E+01,-2.393E+02, 1.945E-01, 8.806E-03, 9.984E+01
 8.300E+02, 8.639E+01, 8.894E+01, 8.229E+01, 1.144E+02, 6.245E+01, 9.195E+01, 1.149E+02, 5.995E+01,-2.354E+02, 1.944E-01, 8.839E-03, 1.003E+02
 8.400E+02, 8.575E+01, 8.764E+01, 8.244E+01, 1.131E+02, 6.174E+01, 8.892E+01, 1.131E+02, 6.095E+01,-2.389E+02, 1.943E-01, 8.915E-03, 9.996E+01
 8.500E+02, 8.606E+01, 8.850E+01, 8.250E+01, 1.124E+02, 6.326E+01, 8.997E+01, 1.153E+02, 6.029E+01,-2.354E+02, 1.944E-01, 8.876E-03, 1.002E+02
 8.600E+02, 8.677E+01, 8.905E+01, 8.299E+01, 1.136E+02, 6.369E+01, 9.019E+01, 1.161E+02, 6.085E+01,-2.344E+02, 1.945E-01, 8.818E-03, 1.003E+02
 8.700E+02, 8.653E+01, 8.878E+01, 8.177E+01, 1.142E+02, 6.357E+01, 9.055E+01, 1.157E+02, 6.006E+01,-2.440E+02, 1.943E-01, 8.887E-03, 1.002E+02
 8.800E+02, 8.592E+01, 8.853E+01, 8.180E+01, 1.132E+02, 6.276E+01, 9.050E+01, 1.151E+02, 6.004E+01,-2.433E+02, 1.943E-01, 8.912E-03, 9.968E+01
 8.900E+02, 8.673E+01, 8.955E+01, 8.222E+01, 1.148E+02, 6.318E+01, 9.149E+01, 1.163E+02, 6.081E+01,-2.317E+02, 1.943E-01, 8.886E-03, 1.005E+02
 9.000E+02, 8.647E+01, 9.000E+01, 8.297E+01, 1.130E+02, 6.348E+01, 9.064E+01, 1.182E+02, 6.110E+01,-2.367E+02, 1.943E-01, 8.912E-03, 1.003E+02
 9.100E+02, 8.682E+01, 8.971E+01, 8.315E+01, 1.135E+02, 6.380E+01, 9.136E+01, 1.169E+02, 6.088E+01,-2.402E+02, 1.942E-01, 8.966E-03, 9.999E+01
 9.200E+02, 8.577E+01, 9.025E+01, 8.233E+01, 1.132E+02, 6.183E+01, 9.304E+01, 1.162E+02, 6.147E+01,-2.374E+02, 1.942E-01, 8.957E-03, 1.001E+02
 9.300E+02, 8.645E+01, 9.124E+01, 8.321E+01, 1.131E+02, 6.306E+01, 9.301E+01, 1.183E+02, 6.236E+01,-2.288E+02, 1.942E-01, 8.959E-03, 1.003E+02
 9.400E+02, 8.696E+01, 9.008E+01, 8.354E+01, 1.135E+02, 6.386E+01, 9.039E+01, 1.177E+02, 6.210E+01,-2.377E+02, 1.942E-01, 8.961E-03, 1.002E+02
 9.500E+02, 8.754E+01, 8.983E+01, 8.368E+01, 1.140E+02, 6.493E+01, 9.148E+01, 1.164E+02, 6.158E+01,-2.443E+02, 1.942E-01, 8.941E-03, 1.001E+02
 9.600E+02, 8.695E+01, 9.056E+01, 8.306E+01, 1.136E+02, 6.421E+01, 9.210E+01, 1.187E+02, 6.086E+01,-2.408E+02, 1.942E-01, 8.956E-03, 9.962E+01
 9.700E+02, 8.747E+01, 8.987E+01, 8.329E+01, 1.152E+02, 6.395E+01, 9.069E+01, 1.178E+02, 6.113E+01,-2.361E+02, 1.943E-01, 8.928E-03, 9.979E+01
 9.800E+02, 8.687E+01, 8.988E+01, 8.333E+01, 1.136E+02, 6.366E+01, 8.991E+01, 1.182E+02, 6.156E+01,-2.332E+02, 1.943E-01, 8.916E-03, 1.004E+02
 9.900E+02, 8.742E+01, 9.059E+01, 8.362E+01, 1.152E+02, 6.348E+01, 9.209E+01, 1.172E+02, 6.250E+01,-2.335E+02, 1.941E-01, 8.998E-03, 1.002E+02
 1.000E+03, 8.740E+01, 9.072E+01, 8.347E+01, 1.151E+02, 6.367E+01, 9.257E+01, 1.167E+02, 6.294E+01,-2.429E+02, 1.942E-01, 8.983E-03, 9.982E+01
 1.010E+03, 8.764E+01, 8.981E+01, 8.362E+01, 1.141E+02, 6.516E+01, 9.127E+01, 1.165E+02, 6.165E+01,-2.335E+02, 1.942E-01, 8.962E-03, 1.004E+02
 1.020E+03, 8.769E+01, 9.082E+01, 8.366E+01, 1.142E+02, 6.523E+01, 9.224E+01, 1.188E+02, 6.139E+01,-2.372E+02, 1.942E-01, 8.979E-03, 1.001E+02
 1.030E+03, 8.781E+01, 9.118E+01, 8.352E+01, 1.153E+02, 6.458E+01, 9.191E+01, 1.195E+02, 6.210E+01,-2.345E+02, 1.943E-01, 8.904E-03, 9.993E+01
 1.040E+03, 8.757E+01, 9.186E+01, 8.340E+01, 1.157E+02, 6.359E+01, 9.478E+01, 1.186E+02, 6.215E+01,-2.344E+02, 1.942E-01, 8.939E-03, 9.952E+01
 1.050E+03, 8.767E+01, 9.203E+01, 8.397E+01, 1.147E+02, 6.437E+01, 9.449E+01, 1.193E+02, 6.226E+01,-2.375E+02, 1.942E-01, 8.969E-03, 1.005E+02
 1.060E+03, 8.736E+01, 9.126E+01, 8.425E+01, 1.145E+02, 6.332E+01, 9.139E+01, 1.193E+02, 6.307E+01,-2.356E+02, 1.943E-01, 8.915E-03, 9.997E+01
 1.070E+03, 8.824E+01, 9.205E+01, 8.383E+01, 1.150E+02, 6.588E+01, 9.372E+01, 1.191E+02, 6.331E+01,-2.283E+02, 1.942E-01, 8.946E-03, 1.000E+02
 1.080E+03, 8.779E+01, 9.222E+01, 8.418E+01, 1.145E+02, 6.474E+01, 9.359E+01, 1.194E+02, 6.368E+01,-2.312E+02, 1.943E-01, 8.909E-03, 1.006E+02
 1.090E+03, 8.861E+01, 9.161E+01, 8.484E+01, 1.156E+02, 6.534E+01, 9.221E+01, 1.198E+02, 6.285E+01,-2.330E+02, 1.942E-01, 8.948E-03, 9.991E+01
 1.100E+03, 8.863E+01, 9.155E+01, 8.550E+01, 1.160E+02, 6.437E+01, 9.384E+01, 1.182E+02, 6.266E+01,-2.381E+02, 1.942E-01, 8.971E-03, 9.976E+01
 1.110E+03, 8.840E+01, 9.153E+01, 8.527E+01, 1.149E+02, 6.504E+01, 9.346E+01, 1.183E+02, 6.285E+01,-2.398E+02, 1.942E-01, 8.964E-03, 1.003E+02
 1.120E+03, 8.857E+01, 9.188E+01, 8.534E+01, 1.157E+02, 6.466E+01, 9.289E+01, 1.198E+02, 6.299E+01,-2.340E+02, 1.943E-01, 8.894E-03, 1.002E+02
 1.130E+03, 8.877E+01, 9.194E+01, 8.541E+01, 1.169E+02, 6.404E+01, 9.458E+01, 1.187E+02, 6.252E+01,-2.326E+02, 1.943E-01, 8.918E-03, 9.976E+01
 1.140E+03, 8.955E+01, 9.214E+01, 8.526E+01, 1.173E+02, 6.614E+01, 9.344E+01, 1.205E+02, 6.251E+01,-2.357E+02, 1.942E-01, 8.960E-03, 1.010E+02
 1.150E+03, 8.892E+01, 9.156E+01, 8.482E+01, 1.168E+02, 6.511E+01, 9.242E+01, 1.198E+02, 6.249E+01,-2.360E+02, 1.941E-01, 9.001E-03, 1.002E+02
 1.160E+03, 8.911E+01, 9.299E+01, 8.533E+01, 1.180E+02, 6.396E+01, 9.538E+01, 1.195E+02, 6.413E+01,-2.366E+02, 1.941E-01, 9.011E-03, 9.971E+01
 1.170E+03, 8.941E+01, 9.232E+01, 8.567E+01, 1.168E+02, 6.581E+01, 9.338E+01, 1.200E+02, 6.359E+01,-2.387E+02, 1.942E-01, 8.985E-03, 1.003E+02
 1.180E+03, 8.939E+01, 9.255E+01, 8.573E+01, 1.174E+02, 6.503E+01, 9.448E+01, 1.187E+02, 6.446E+01,-2.302E+02, 1.941E-01, 8.996E-03, 9.980E+01
 1.190E+03, 8.967E+01, 9.250E+01, 8.575E+01, 1.175E+02, 6.578E+01, 9.418E+01, 1.198E+02, 6.351E+01,-2.298E+02, 1.942E-01, 8.975E-03, 9.992E+01
 1.200E+03, 8.978E+01, 9.254E+01, 8.580E+01, 1.172E+02, 6.637E+01, 9.509E+01, 1.199E+02, 6.264E+01,-2.380E+02, 1.942E-01, 8.978E-03, 1.001E+02
 1.210E+03, 8.931E+01, 9.352E+01, 8.543E+01, 1.171E+02, 6.534E+01, 9.573E+01, 1.210E+02, 6.377E+01,-2.368E+02, 1.941E-01, 9.024E-03, 9.954E+01
 1.220E+03, 8.974E+01, 9.292E+01, 8.594E+01, 1.170E+02, 6.633E+01, 9.456E+01, 1.197E+02, 6.451E+01,-2.291E+02, 1.942E-01, 8.991E-03, 1.008E+02
 1.230E+03, 8.965E+01, 9.248E+01, 8.620E+01, 1.169E+02, 6.585E+01, 9.346E+01, 1.195E+02, 6.452E+01,-2.333E+02, 1.942E-01, 8.979E-03, 1.003E+02
 1.240E+03, 9.029E+01, 9.289E+01, 8.649E+01, 1.184E+02, 6.593E+01, 9.397E+01, 1.216E+02, 6.308E+01,-2.319E+02, 1.942E-01, 8.937E-03, 9.945E+01
 1.250E+03, 8.953E+01, 9.253E+01, 8.563E+01, 1.161E+02, 6.689E+01, 9.466E+01, 1.198E+02, 6.314E+01,-2.412E+02, 1.942E-01, 8.985E-03, 1.003E+02
 1.260E+03, 8.971E+01, 9.392E+01, 8.606E+01, 1.169E+02, 6.617E+01, 9.710E+01, 1.204E+02, 6.425E+01,-2.336E+02, 1.942E-01, 8.968E-03, 1.000E+02
 1.270E+03, 8.929E+01, 9.432E+01, 8.634E+01, 1.160E+02, 6.555E+01, 9.622E+01, 1.215E+02, 6.519E+01,-2.321E+02, 1.942E-01, 8.983E-03, 1.005E+02
 1.280E+03, 9.024E+01, 9.362E+01, 8.741E+01, 1.169E+02, 6.638E+01, 9.599E+01, 1.207E+02, 6.420E+01,-2.360E+02, 1.942E-01, 8.969E-03, 9.956E+01
 1.290E+03, 9.030E+01, 9.293E+01, 8.648E+01, 1.176E+02, 6.685E+01, 9.629E+01, 1.198E+02, 6.269E+01,-2.275E+02, 1.942E-01, 8.954E-03, 1.006E+02
 1.300E+03, 9.053E+01, 9.279E+01, 8.692E+01, 1.180E+02, 6.668E+01, 9.269E+01, 1.222E+02, 6.344E+01,-2.378E+02, 1.942E-01, 8.986E-03, 1.000E+02
 1.310E+03, 9.018E+01, 9.337E+01, 8.664E+01, 1.189E+02, 6.504E+01, 9.326E+01, 1.218E+02, 6.510E+01,-2.388E+02, 1.941E-01, 9.015E-03, 9.963E+01
