s,C,C,C,C,C,C,C,C,Pa,mol/mol,mol/mol,kW
Time,"West_All_TCs","East_All_TCs","West_Bottom_TCs","West_Middle_TCs","West_Upper_TCs","East_Bottom_TCs","East_Middle_TCs","East_Upper_TCs","Pressure","O2","CO2","HRR"
-6.000E+01, 3.400E+01, 3.400E+01, 3.400E+01, 3.400E+01, 3.400E+01, 3.400E+01, 3.400E+01, 3.400E+01,-9.314E-06, 2.095E-01, 3.901E-04, 0.000E+00
-4.998E+01, 3.396E+01, 3.396E+01, 3.396E+01, 3.395E+01, 3.396E+01, 3.396E+01, 3.395E+01, 3.396E+01,-7.896E+01, 2.095E-01, 3.901E-04, 0.000E+00
-4.000E+01, 3.394E+01, 3.395E+01, 3.394E+01, 3.394E+01, 3.393E+01, 3.396E+01, 3.394E+01, 3.394E+01,-7.987E+01, 2.095E-01, 3.901E-04, 0.000E+00
-2.995E+01, 3.393E+01, 3.395E+01, 3.394E+01, 3.393E+01, 3.393E+01, 3.398E+01, 3.394E+01, 3.394E+01,-7.998E+01, 2.095E-01, 3.901E-04, 0.000E+00
-1.991E+01, 3.393E+01, 3.396E+01, 3.393E+01, 3.393E+01, 3.394E+01, 3.399E+01, 3.394E+01, 3.394E+01,-8.004E+01, 2.095E-01, 3.901E-04, 0.000E+00
-9.960E+00, 3.393E+01, 3.396E+01, 3.393E+01, 3.393E+01, 3.393E+01, 3.399E+01, 3.395E+01, 3.394E+01,-8.007E+01, 2.095E-01, 3.901E-04, 0.000E+00
 1.841E-02, 3.393E+01, 3.396E+01, 3.394E+01, 3.393E+01, 3.393E+01, 3.399E+01, 3.395E+01, 3.394E+01,-8.008E+01, 2.095E-01, 3.901E-04, 2.393E-04
 1.002E+01, 3.504E+01, 3.503E+01, 3.446E+01, 3.667E+01, 3.398E+01, 3.467E+01, 3.646E+01, 3.398E+01,-3.893E+01, 2.095E-01, 3.901E-04, 3.259E+01
 2.000E+01, 3.961E+01, 3.984E+01, 3.597E+01, 4.806E+01, 3.481E+01, 3.681E+01, 4.874E+01, 3.397E+01, 1.091E+00, 2.095E-01, 3.901E-04, 9.917E+01
 3.001E+01, 4.870E+01, 4.895E+01, 3.960E+01, 7.031E+01, 3.620E+01, 4.166E+01, 7.134E+01, 3.385E+01, 2.956E+01, 2.095E-01, 3.901E-04, 1.660E+02
 4.000E+01, 6.006E+01, 5.949E+01, 4.814E+01, 9.603E+01, 3.602E+01, 4.898E+01, 9.493E+01, 3.456E+01, 4.043E+01, 2.094E-01, 4.919E-04, 2.000E+02
 5.001E+01, 7.118E+01, 7.199E+01, 5.962E+01, 1.149E+02, 3.904E+01, 6.090E+01, 1.170E+02, 3.807E+01, 2.117E+01, 2.089E-01, 7.690E-04, 2.003E+02
 6.001E+01, 8.098E+01, 8.128E+01, 7.121E+01, 1.315E+02, 4.019E+01, 7.364E+01, 1.299E+02, 4.024E+01, 8.840E+00, 2.085E-01, 9.688E-04, 1.990E+02
 7.002E+01, 9.021E+01, 9.045E+01, 8.738E+01, 1.403E+02, 4.297E+01, 8.638E+01, 1.419E+02, 4.311E+01, 1.774E+00, 2.079E-01, 1.286E-03, 2.003E+02
 8.000E+01, 9.856E+01, 9.671E+01, 9.723E+01, 1.505E+02, 4.797E+01, 9.893E+01, 1.460E+02, 4.516E+01,-7.468E+00, 2.075E-01, 1.535E-03, 2.001E+02
 9.002E+01, 1.035E+02, 1.033E+02, 1.064E+02, 1.566E+02, 4.746E+01, 1.089E+02, 1.542E+02, 4.666E+01,-1.303E+01, 2.072E-01, 1.721E-03, 1.990E+02
 1.000E+02, 1.080E+02, 1.091E+02, 1.141E+02, 1.601E+02, 4.982E+01, 1.157E+02, 1.628E+02, 4.871E+01,-2.119E+01, 2.066E-01, 2.029E-03, 1.996E+02
 1.100E+02, 1.112E+02, 1.145E+02, 1.204E+02, 1.621E+02, 5.116E+01, 1.215E+02, 1.703E+02, 5.190E+01,-3.168E+01, 2.059E-01, 2.449E-03, 1.995E+02
 1.200E+02, 1.142E+02, 1.171E+02, 1.244E+02, 1.652E+02, 5.304E+01, 1.258E+02, 1.728E+02, 5.286E+01,-3.754E+01, 2.055E-01, 2.651E-03, 2.002E+02
 1.300E+02, 1.159E+02, 1.202E+02, 1.255E+02, 1.683E+02, 5.405E+01, 1.303E+02, 1.759E+02, 5.443E+01,-4.833E+01, 2.051E-01, 2.899E-03, 1.991E+02
 1.400E+02, 1.179E+02, 1.216E+02, 1.262E+02, 1.719E+02, 5.556E+01, 1.316E+02, 1.769E+02, 5.621E+01,-5.573E+01, 2.044E-01, 3.278E-03, 2.003E+02
 1.500E+02, 1.194E+02, 1.228E+02, 1.278E+02, 1.738E+02, 5.671E+01, 1.328E+02, 1.789E+02, 5.673E+01,-5.432E+01, 2.039E-01, 3.545E-03, 1.997E+02
 1.600E+02, 1.200E+02, 1.251E+02, 1.293E+02, 1.736E+02, 5.711E+01, 1.326E+02, 1.846E+02, 5.815E+01,-5.671E+01, 2.031E-01, 3.984E-03, 1.994E+02
 1.700E+02, 1.214E+02, 1.250E+02, 1.302E+02, 1.752E+02, 5.879E+01, 1.363E+02, 1.800E+02, 5.875E+01,-6.017E+01, 2.023E-01, 4.435E-03, 1.991E+02
 1.800E+02, 1.219E+02, 1.273E+02, 1.290E+02, 1.768E+02, 6.002E+01, 1.373E+02, 1.847E+02, 5.997E+01,-6.143E+01, 2.014E-01, 4.918E-03, 1.996E+02
 1.900E+02, 1.229E+02, 1.279E+02, 1.308E+02, 1.767E+02, 6.104E+01, 1.362E+02, 1.872E+02, 6.038E+01,-5.961E+01, 2.006E-01, 5.415E-03, 2.005E+02
 2.000E+02, 1.238E+02, 1.288E+02, 1.317E+02, 1.777E+02, 6.194E+01, 1.384E+02, 1.872E+02, 6.077E+01,-6.620E+01, 2.000E-01, 5.726E-03, 1.995E+02
 2.100E+02, 1.241E+02, 1.284E+02, 1.320E+02, 1.777E+02, 6.267E+01, 1.373E+02, 1.860E+02, 6.191E+01,-6.744E+01, 1.989E-01, 6.356E-03, 1.993E+02
 2.200E+02, 1.249E+02, 1.308E+02, 1.329E+02, 1.789E+02, 6.286E+01, 1.405E+02, 1.889E+02, 6.309E+01,-6.138E+01, 1.983E-01, 6.698E-03, 2.000E+02
 2.300E+02, 1.242E+02, 1.310E+02, 1.330E+02, 1.763E+02, 6.337E+01, 1.404E+02, 1.892E+02, 6.345E+01,-6.360E+01, 1.975E-01, 7.138E-03, 2.006E+02
 2.400E+02, 1.265E+02, 1.311E+02, 1.339E+02, 1.804E+02, 6.501E+01, 1.399E+02, 1.902E+02, 6.304E+01,-6.313E+01, 1.968E-01, 7.517E-03, 1.996E+02
 2.500E+02, 1.263E+02, 1.313E+02, 1.341E+02, 1.812E+02, 6.364E+01, 1.402E+02, 1.884E+02, 6.520E+01,-7.090E+01, 1.953E-01, 8.322E-03, 1.999E+02
 2.600E+02, 1.278E+02, 1.332E+02, 1.356E+02, 1.831E+02, 6.467E+01, 1.428E+02, 1.938E+02, 6.300E+01,-6.771E+01, 1.951E-01, 8.482E-03, 1.998E+02
 2.700E+02, 1.276E+02, 1.330E+02, 1.358E+02, 1.834E+02, 6.366E+01, 1.438E+02, 1.912E+02, 6.394E+01,-6.636E+01, 1.942E-01, 8.981E-03, 1.989E+02
 2.800E+02, 1.267E+02, 1.342E+02, 1.350E+02, 1.805E+02, 6.446E+01, 1.440E+02, 1.936E+02, 6.495E+01,-6.437E+01, 1.933E-01, 9.494E-03, 2.003E+02
 2.900E+02, 1.285E+02, 1.344E+02, 1.376E+02, 1.831E+02, 6.473E+01, 1.447E+02, 1.935E+02, 6.500E+01,-6.968E+01, 1.920E-01, 1.017E-02, 1.982E+02
 3.000E+02, 1.279E+02, 1.345E+02, 1.359E+02, 1.834E+02, 6.429E+01, 1.459E+02, 1.931E+02, 6.444E+01,-6.835E+01, 1.915E-01, 1.046E-02, 2.016E+02
 3.100E+02, 1.284E+02, 1.344E+02, 1.373E+02, 1.835E+02, 6.447E+01, 1.420E+02, 1.974E+02, 6.378E+01,-6.379E+01, 1.907E-01, 1.094E-02, 1.992E+02
 3.200E+02, 1.298E+02, 1.342E+02, 1.376E+02, 1.857E+02, 6.623E+01, 1.447E+02, 1.925E+02, 6.536E+01,-7.040E+01, 1.899E-01, 1.137E-02, 2.003E+02
 3.300E+02, 1.292E+02, 1.359E+02, 1.377E+02, 1.846E+02, 6.530E+01, 1.467E+02, 1.958E+02, 6.520E+01,-6.861E+01, 1.888E-01, 1.197E-02, 1.994E+02
 3.400E+02, 1.310E+02, 1.341E+02, 1.397E+02, 1.869E+02, 6.660E+01, 1.453E+02, 1.924E+02, 6.464E+01,-6.755E+01, 1.882E-01, 1.232E-02, 2.001E+02
 3.500E+02, 1.314E+02, 1.351E+02, 1.396E+02, 1.893E+02, 6.525E+01, 1.470E+02, 1.934E+02, 6.487E+01,-6.435E+01, 1.873E-01, 1.283E-02, 1.995E+02
 3.600E+02, 1.310E+02, 1.380E+02, 1.415E+02, 1.874E+02, 6.406E+01, 1.490E+02, 1.999E+02, 6.516E+01,-6.155E+01, 1.863E-01, 1.339E-02, 2.003E+02
 3.700E+02, 1.318E+02, 1.368E+02, 1.417E+02, 1.879E+02, 6.567E+01, 1.501E+02, 1.953E+02, 6.505E+01,-7.009E+01, 1.851E-01, 1.402E-02, 1.988E+02
 3.800E+02, 1.311E+02, 1.384E+02, 1.417E+02, 1.863E+02, 6.548E+01, 1.506E+02, 1.982E+02, 6.630E+01,-6.629E+01, 1.845E-01, 1.439E-02, 2.004E+02
 3.900E+02, 1.319E+02, 1.368E+02, 1.413E+02, 1.880E+02, 6.628E+01, 1.499E+02, 1.957E+02, 6.479E+01,-6.712E+01, 1.838E-01, 1.475E-02, 1.985E+02
 4.000E+02, 1.317E+02, 1.396E+02, 1.411E+02, 1.876E+02, 6.633E+01, 1.506E+02, 2.017E+02, 6.639E+01,-6.186E+01, 1.822E-01, 1.568E-02, 2.006E+02
 4.100E+02, 1.334E+02, 1.388E+02, 1.431E+02, 1.901E+02, 6.694E+01, 1.519E+02, 1.982E+02, 6.627E+01,-6.908E+01, 1.814E-01, 1.612E-02, 1.996E+02
 4.200E+02, 1.337E+02, 1.381E+02, 1.421E+02, 1.913E+02, 6.763E+01, 1.523E+02, 1.955E+02, 6.656E+01,-6.879E+01, 1.807E-01, 1.649E-02, 1.993E+02
 4.300E+02, 1.338E+02, 1.392E+02, 1.435E+02, 1.915E+02, 6.637E+01, 1.514E+02, 1.986E+02, 6.762E+01,-6.446E+01, 1.800E-01, 1.689E-02, 2.008E+02
 4.400E+02, 1.349E+02, 1.380E+02, 1.458E+02, 1.922E+02, 6.662E+01, 1.486E+02, 1.985E+02, 6.695E+01,-6.424E+01, 1.794E-01, 1.726E-02, 2.002E+02
 4.500E+02, 1.356E+02, 1.353E+02, 1.449E+02, 1.947E+02, 6.712E+01, 1.474E+02, 1.916E+02, 6.683E+01,-6.465E+01, 1.786E-01, 1.767E-02, 1.977E+02
 4.600E+02, 1.347E+02, 1.400E+02, 1.448E+02, 1.923E+02, 6.692E+01, 1.552E+02, 1.972E+02, 6.753E+01,-6.777E+01, 1.778E-01, 1.815E-02, 1.993E+02
 4.700E+02, 1.355E+02, 1.406E+02, 1.452E+02, 1.946E+02, 6.677E+01, 1.575E+02, 1.976E+02, 6.665E+01,-5.999E+01, 1.770E-01, 1.859E-02, 2.008E+02
 4.800E+02, 1.338E+02, 1.408E+02, 1.447E+02, 1.901E+02, 6.668E+01, 1.547E+02, 2.001E+02, 6.771E+01,-6.715E+01, 1.759E-01, 1.922E-02, 1.998E+02
 4.900E+02, 1.350E+02, 1.428E+02, 1.456E+02, 1.933E+02, 6.624E+01, 1.606E+02, 2.016E+02, 6.624E+01,-6.130E+01, 1.754E-01, 1.948E-02, 1.991E+02
 5.000E+02, 1.365E+02, 1.412E+02, 1.481E+02, 1.946E+02, 6.682E+01, 1.579E+02, 1.982E+02, 6.769E+01,-6.294E+01, 1.746E-01, 1.992E-02, 1.997E+02
 5.100E+02, 1.379E+02, 1.429E+02, 1.470E+02, 1.978E+02, 6.890E+01, 1.578E+02, 2.030E+02, 6.804E+01,-6.795E+01, 1.739E-01, 2.030E-02, 2.003E+02
 5.200E+02, 1.384E+02, 1.423E+02, 1.480E+02, 1.981E+02, 6.909E+01, 1.552E+02, 2.046E+02, 6.713E+01,-6.755E+01, 1.730E-01, 2.083E-02, 1.987E+02
 5.300E+02, 1.383E+02, 1.409E+02, 1.498E+02, 1.963E+02, 6.874E+01, 1.541E+02, 2.009E+02, 6.761E+01,-6.404E+01, 1.724E-01, 2.117E-02, 2.006E+02
 5.400E+02, 1.388E+02, 1.414E+02, 1.485E+02, 1.996E+02, 6.832E+01, 1.581E+02, 1.971E+02, 6.907E+01,-6.276E+01, 1.716E-01, 2.160E-02, 1.991E+02
 5.500E+02, 1.369E+02, 1.441E+02, 1.456E+02, 1.974E+02, 6.780E+01, 1.601E+02, 2.032E+02, 6.913E+01,-6.617E+01, 1.709E-01, 2.200E-02, 1.989E+02
 5.600E+02, 1.364E+02, 1.452E+02, 1.454E+02, 1.951E+02, 6.871E+01, 1.601E+02, 2.070E+02, 6.860E+01,-6.365E+01, 1.704E-01, 2.224E-02, 1.997E+02
 5.700E+02, 1.374E+02, 1.451E+02, 1.488E+02, 1.940E+02, 6.940E+01, 1.581E+02, 2.096E+02, 6.765E+01,-5.864E+01, 1.697E-01, 2.267E-02, 1.994E+02
 5.800E+02, 1.399E+02, 1.441E+02, 1.500E+02, 1.999E+02, 6.973E+01, 1.579E+02, 2.044E+02, 6.989E+01,-6.425E+01, 1.689E-01, 2.310E-02, 2.008E+02
 5.900E+02, 1.404E+02, 1.438E+02, 1.509E+02, 1.995E+02, 7.075E+01, 1.590E+02, 2.022E+02, 7.024E+01,-6.680E+01, 1.680E-01, 2.363E-02, 1.980E+02
 6.000E+02, 1.405E+02, 1.443E+02, 1.502E+02, 1.999E+02, 7.141E+01, 1.577E+02, 2.047E+02, 7.053E+01,-6.907E+01, 1.672E-01, 2.406E-02, 2.006E+02
 6.100E+02, 1.395E+02, 1.438E+02, 1.503E+02, 1.985E+02, 6.974E+01, 1.585E+02, 2.039E+02, 6.904E+01,-6.576E+01, 1.665E-01, 2.442E-02, 1.991E+02
 6.200E+02, 1.402E+02, 1.468E+02, 1.503E+02, 1.991E+02, 7.124E+01, 1.618E+02, 2.081E+02, 7.041E+01,-5.657E+01, 1.659E-01, 2.476E-02, 1.994E+02
 6.300E+02, 1.418E+02, 1.473E+02, 1.560E+02, 1.982E+02, 7.114E+01, 1.610E+02, 2.107E+02, 7.018E+01,-6.070E+01, 1.649E-01, 2.534E-02, 2.006E+02
 6.400E+02, 1.414E+02, 1.468E+02, 1.525E+02, 2.003E+02, 7.140E+01, 1.638E+02, 2.066E+02, 7.015E+01,-6.844E+01, 1.645E-01, 2.554E-02, 1.982E+02
 6.500E+02, 1.415E+02, 1.473E+02, 1.522E+02, 2.015E+02, 7.098E+01, 1.619E+02, 2.090E+02, 7.109E+01,-6.843E+01, 1.639E-01, 2.589E-02, 1.992E+02
 6.600E+02, 1.417E+02, 1.470E+02, 1.517E+02, 2.033E+02, 7.011E+01, 1.619E+02, 2.082E+02, 7.074E+01,-7.040E+01, 1.633E-01, 2.623E-02, 1.973E+02
 6.700E+02, 1.409E+02, 1.476E+02, 1.512E+02, 2.004E+02, 7.117E+01, 1.630E+02, 2.098E+02, 7.013E+01,-6.465E+01, 1.628E-01, 2.650E-02, 2.016E+02
 6.800E+02, 1.416E+02, 1.479E+02, 1.534E+02, 2.000E+02, 7.136E+01, 1.618E+02, 2.117E+02, 7.026E+01,-6.022E+01, 1.624E-01, 2.675E-02, 1.993E+02
 6.900E+02, 1.415E+02, 1.476E+02, 1.529E+02, 1.992E+02, 7.228E+01, 1.619E+02, 2.090E+02, 7.176E+01,-6.526E+01, 1.616E-01, 2.720E-02, 1.970E+02
 7.000E+02, 1.425E+02, 1.506E+02, 1.538E+02, 2.014E+02, 7.233E+01, 1.638E+02, 2.168E+02, 7.121E+01,-6.159E+01, 1.612E-01, 2.740E-02, 1.997E+02
 7.100E+02, 1.433E+02, 1.495E+02, 1.542E+02, 2.029E+02, 7.285E+01, 1.599E+02, 2.169E+02, 7.165E+01,-6.127E+01, 1.607E-01, 2.768E-02, 2.008E+02
 7.200E+02, 1.440E+02, 1.496E+02, 1.526E+02, 2.051E+02, 7.447E+01, 1.643E+02, 2.112E+02, 7.337E+01,-6.370E+01, 1.602E-01, 2.799E-02, 1.990E+02
 7.300E+02, 1.445E+02, 1.496E+02, 1.542E+02, 2.052E+02, 7.396E+01, 1.620E+02, 2.128E+02, 7.389E+01,-6.563E+01, 1.594E-01, 2.843E-02, 2.006E+02
 7.400E+02, 1.440E+02, 1.523E+02, 1.536E+02, 2.036E+02, 7.473E+01, 1.636E+02, 2.200E+02, 7.314E+01,-6.375E+01, 1.592E-01, 2.850E-02, 1.989E+02
 7.500E+02, 1.440E+02, 1.520E+02, 1.542E+02, 2.027E+02, 7.499E+01, 1.639E+02, 2.186E+02, 7.360E+01,-6.091E+01, 1.585E-01, 2.893E-02, 2.001E+02
 7.600E+02, 1.440E+02, 1.534E+02, 1.538E+02, 2.029E+02, 7.516E+01, 1.645E+02, 2.204E+02, 7.541E+01,-6.327E+01, 1.576E-01, 2.940E-02, 1.988E+02
 7.700E+02, 1.448E+02, 1.530E+02, 1.556E+02, 2.029E+02, 7.596E+01, 1.658E+02, 2.181E+02, 7.504E+01,-5.846E+01, 1.573E-01, 2.957E-02, 2.008E+02
 7.800E+02, 1.459E+02, 1.513E+02, 1.560E+02, 2.051E+02, 7.670E+01, 1.656E+02, 2.141E+02, 7.430E+01,-6.959E+01, 1.565E-01, 3.003E-02, 1.990E+02
 7.900E+02, 1.465E+02, 1.518E+02, 1.588E+02, 2.052E+02, 7.546E+01, 1.612E+02, 2.198E+02, 7.427E+01,-6.559E+01, 1.560E-01, 3.029E-02, 2.009E+02
 8.000E+02, 1.521E+02, 1.471E+02, 1.627E+02, 2.183E+02, 7.550E+01, 1.607E+02, 2.058E+02, 7.480E+01,-6.202E+01, 1.557E-01, 3.046E-02, 1.989E+02
 8.100E+02, 1.502E+02, 1.499E+02, 1.627E+02, 2.138E+02, 7.398E+01, 1.691E+02, 2.055E+02, 7.525E+01,-7.255E+01, 1.553E-01, 3.072E-02, 1.989E+02
 8.200E+02, 1.472E+02, 1.514E+02, 1.559E+02, 2.112E+02, 7.445E+01, 1.719E+02, 2.080E+02, 7.421E+01,-7.309E+01, 1.552E-01, 3.077E-02, 1.984E+02
 8.300E+02, 1.475E+02, 1.519E+02, 1.574E+02, 2.109E+02, 7.419E+01, 1.729E+02, 2.097E+02, 7.307E+01,-7.165E+01, 1.548E-01, 3.096E-02, 2.005E+02
 8.400E+02, 1.469E+02, 1.513E+02, 1.566E+02, 2.087E+02, 7.553E+01, 1.679E+02, 2.118E+02, 7.432E+01,-6.775E+01, 1.544E-01, 3.120E-02, 1.992E+02
 8.500E+02, 1.460E+02, 1.533E+02, 1.565E+02, 2.067E+02, 7.473E+01, 1.699E+02, 2.157E+02, 7.428E+01,-6.671E+01, 1.542E-01, 3.129E-02, 1.985E+02
 8.600E+02, 1.470E+02, 1.541E+02, 1.575E+02, 2.087E+02, 7.461E+01, 1.708E+02, 2.166E+02, 7.491E+01,-6.661E+01, 1.539E-01, 3.149E-02, 1.942E+02
 8.700E+02, 1.478E+02, 1.526E+02, 1.589E+02, 2.080E+02, 7.638E+01, 1.672E+02, 2.160E+02, 7.479E+01,-5.674E+01, 1.535E-01, 3.170E-02, 2.043E+02
 8.800E+02, 1.483E+02, 1.535E+02, 1.584E+02, 2.097E+02, 7.668E+01, 1.675E+02, 2.191E+02, 7.397E+01,-6.621E+01, 1.532E-01, 3.187E-02, 2.005E+02
 8.900E+02, 1.491E+02, 1.563E+02, 1.599E+02, 2.104E+02, 7.705E+01, 1.668E+02, 2.259E+02, 7.616E+01,-6.513E+01, 1.527E-01, 3.215E-02, 1.990E+02
 9.000E+02, 1.493E+02, 1.536E+02, 1.620E+02, 2.096E+02, 7.626E+01, 1.674E+02, 2.173E+02, 7.601E+01,-5.993E+01, 1.527E-01, 3.213E-02, 1.992E+02
 9.100E+02, 1.489E+02, 1.541E+02, 1.595E+02, 2.095E+02, 7.754E+01, 1.709E+02, 2.150E+02, 7.650E+01,-6.812E+01, 1.522E-01, 3.241E-02, 2.002E+02
 9.200E+02, 1.491E+02, 1.543E+02, 1.586E+02, 2.120E+02, 7.663E+01, 1.718E+02, 2.157E+02, 7.545E+01,-6.835E+01, 1.522E-01, 3.241E-02, 1.996E+02
 9.300E+02, 1.482E+02, 1.540E+02, 1.573E+02, 2.114E+02, 7.608E+01, 1.702E+02, 2.155E+02, 7.617E+01,-6.349E+01, 1.520E-01, 3.253E-02, 1.995E+02
 9.400E+02, 1.488E+02, 1.546E+02, 1.578E+02, 2.112E+02, 7.726E+01, 1.695E+02, 2.181E+02, 7.624E+01,-6.647E+01, 1.517E-01, 3.272E-02, 1.989E+02
 9.500E+02, 1.491E+02, 1.553E+02, 1.585E+02, 2.114E+02, 7.733E+01, 1.719E+02, 2.171E+02, 7.676E+01,-6.829E+01, 1.514E-01, 3.290E-02, 2.008E+02
 9.600E+02, 1.499E+02, 1.557E+02, 1.588E+02, 2.139E+02, 7.711E+01, 1.748E+02, 2.175E+02, 7.471E+01,-6.575E+01, 1.513E-01, 3.293E-02, 1.980E+02
 9.700E+02, 1.507E+02, 1.546E+02, 1.595E+02, 2.144E+02, 7.800E+01, 1.681E+02, 2.187E+02, 7.719E+01,-6.077E+01, 1.507E-01, 3.329E-02, 2.011E+02
 9.800E+02, 1.506E+02, 1.588E+02, 1.611E+02, 2.126E+02, 7.818E+01, 1.691E+02, 2.289E+02, 7.845E+01,-5.934E+01, 1.505E-01, 3.339E-02, 1.983E+02
 9.900E+02, 1.526E+02, 1.552E+02, 1.636E+02, 2.148E+02, 7.939E+01, 1.682E+02, 2.194E+02, 7.818E+01,-6.231E+01, 1.504E-01, 3.345E-02, 2.008E+02
 1.000E+03, 1.521E+02, 1.562E+02, 1.611E+02, 2.155E+02, 7.960E+01, 1.714E+02, 2.183E+02, 7.878E+01,-6.727E+01, 1.501E-01, 3.362E-02, 1.985E+02
 1.010E+03, 1.508E+02, 1.565E+02, 1.596E+02, 2.141E+02, 7.881E+01, 1.734E+02, 2.173E+02, 7.884E+01,-6.393E+01, 1.499E-01, 3.374E-02, 1.990E+02
 1.020E+03, 1.500E+02, 1.568E+02, 1.606E+02, 2.102E+02, 7.930E+01, 1.690E+02, 2.220E+02, 7.942E+01,-6.234E+01, 1.497E-01, 3.383E-02, 2.006E+02
 1.030E+03, 1.517E+02, 1.582E+02, 1.636E+02, 2.128E+02, 7.883E+01, 1.745E+02, 2.231E+02, 7.714E+01,-6.174E+01, 1.498E-01, 3.378E-02, 2.004E+02
 1.040E+03, 1.538E+02, 1.570E+02, 1.651E+02, 2.167E+02, 7.969E+01, 1.747E+02, 2.173E+02, 7.884E+01,-6.654E+01, 1.495E-01, 3.395E-02, 1.996E+02
 1.050E+03, 1.530E+02, 1.579E+02, 1.632E+02, 2.154E+02, 8.034E+01, 1.731E+02, 2.209E+02, 7.969E+01,-6.816E+01, 1.490E-01, 3.424E-02, 1.987E+02
 1.060E+03, 1.525E+02, 1.589E+02, 1.632E+02, 2.134E+02, 8.075E+01, 1.735E+02, 2.244E+02, 7.888E+01,-5.780E+01, 1.489E-01, 3.428E-02, 1.999E+02
 1.070E+03, 1.540E+02, 1.586E+02, 1.634E+02, 2.176E+02, 8.110E+01, 1.728E+02, 2.226E+02, 8.023E+01,-6.103E+01, 1.485E-01, 3.451E-02, 1.995E+02
 1.080E+03, 1.540E+02, 1.598E+02, 1.625E+02, 2.183E+02, 8.120E+01, 1.758E+02, 2.236E+02, 7.991E+01,-6.919E+01, 1.481E-01, 3.473E-02, 1.995E+02
 1.090E+03, 1.541E+02, 1.595E+02, 1.642E+02, 2.172E+02, 8.105E+01, 1.738E+02, 2.255E+02, 7.930E+01,-6.733E+01, 1.480E-01, 3.478E-02, 1.990E+02
 1.100E+03, 1.531E+02, 1.605E+02, 1.624E+02, 2.160E+02, 8.093E+01, 1.767E+02, 2.240E+02, 8.089E+01,-6.074E+01, 1.478E-01, 3.488E-02, 1.989E+02
 1.110E+03, 1.545E+02, 1.605E+02, 1.642E+02, 2.168E+02, 8.238E+01, 1.748E+02, 2.258E+02, 8.090E+01,-6.074E+01, 1.476E-01, 3.501E-02, 1.989E+02
 1.120E+03, 1.546E+02, 1.591E+02, 1.650E+02, 2.165E+02, 8.228E+01, 1.739E+02, 2.214E+02, 8.209E+01,-6.253E+01, 1.472E-01, 3.524E-02, 2.002E+02
 1.130E+03, 1.557E+02, 1.620E+02, 1.673E+02, 2.166E+02, 8.317E+01, 1.748E+02, 2.300E+02, 8.125E+01,-6.382E+01, 1.470E-01, 3.532E-02, 2.012E+02
 1.140E+03, 1.560E+02, 1.595E+02, 1.665E+02, 2.193E+02, 8.215E+01, 1.746E+02, 2.226E+02, 8.140E+01,-6.974E+01, 1.470E-01, 3.536E-02, 1.988E+02
 1.150E+03, 1.564E+02, 1.608E+02, 1.653E+02, 2.222E+02, 8.189E+01, 1.778E+02, 2.244E+02, 8.028E+01,-6.840E+01, 1.470E-01, 3.534E-02, 1.989E+02
 1.160E+03, 1.545E+02, 1.602E+02, 1.640E+02, 2.189E+02, 8.070E+01, 1.782E+02, 2.219E+02, 8.063E+01,-6.153E+01, 1.471E-01, 3.529E-02, 1.982E+02
 1.170E+03, 1.544E+02, 1.623E+02, 1.638E+02, 2.178E+02, 8.143E+01, 1.789E+02, 2.260E+02, 8.199E+01,-6.319E+01, 1.469E-01, 3.538E-02, 2.006E+02
 1.180E+03, 1.549E+02, 1.613E+02, 1.659E+02, 2.165E+02, 8.224E+01, 1.784E+02, 2.242E+02, 8.114E+01,-6.415E+01, 1.470E-01, 3.534E-02, 2.002E+02
 1.190E+03, 1.563E+02, 1.608E+02, 1.662E+02, 2.197E+02, 8.315E+01, 1.774E+02, 2.251E+02, 7.993E+01,-6.076E+01, 1.471E-01, 3.530E-02, 1.998E+02
 1.200E+03, 1.564E+02, 1.620E+02, 1.661E+02, 2.186E+02, 8.453E+01, 1.782E+02, 2.263E+02, 8.132E+01,-6.574E+01, 1.467E-01, 3.549E-02, 1.977E+02
 1.210E+03, 1.567E+02, 1.640E+02, 1.664E+02, 2.200E+02, 8.383E+01, 1.783E+02, 2.310E+02, 8.282E+01,-5.785E+01, 1.464E-01, 3.565E-02, 2.005E+02
 1.220E+03, 1.574E+02, 1.616E+02, 1.676E+02, 2.207E+02, 8.404E+01, 1.772E+02, 2.251E+02, 8.238E+01,-6.778E+01, 1.466E-01, 3.554E-02, 1.981E+02
 1.230E+03, 1.561E+02, 1.639E+02, 1.652E+02, 2.199E+02, 8.326E+01, 1.796E+02, 2.303E+02, 8.175E+01,-6.497E+01, 1.466E-01, 3.557E-02, 2.004E+02
 1.240E+03, 1.563E+02, 1.643E+02, 1.652E+02, 2.198E+02, 8.400E+01, 1.778E+02, 2.330E+02, 8.194E+01,-6.011E+01, 1.465E-01, 3.562E-02, 1.991E+02
 1.250E+03, 1.579E+02, 1.638E+02, 1.680E+02, 2.214E+02, 8.444E+01, 1.787E+02, 2.279E+02, 8.491E+01,-6.111E+01, 1.462E-01, 3.580E-02, 1.995E+02
 1.260E+03, 1.590E+02, 1.626E+02, 1.678E+02, 2.225E+02, 8.668E+01, 1.792E+02, 2.262E+02, 8.241E+01,-6.330E+01, 1.463E-01, 3.572E-02, 2.014E+02
 1.270E+03, 1.594E+02, 1.634E+02, 1.686E+02, 2.240E+02, 8.570E+01, 1.781E+02, 2.304E+02, 8.183E+01,-5.913E+01, 1.463E-01, 3.575E-02, 1.984E+02
 1.280E+03, 1.581E+02, 1.653E+02, 1.681E+02, 2.199E+02, 8.641E+01, 1.790E+02, 2.322E+02, 8.476E+01,-6.586E+01, 1.459E-01, 3.596E-02, 2.002E+02
 1.290E+03, 1.571E+02, 1.648E+02, 1.667E+02, 2.189E+02, 8.556E+01, 1.805E+02, 2.285E+02, 8.521E+01,-5.988E+01, 1.460E-01, 3.591E-02, 1.985E+02
 1.300E+03, 1.575E+02, 1.655E+02, 1.678E+02, 2.183E+02, 8.649E+01, 1.783E+02, 2.329E+02, 8.536E+01,-6.640E+01, 1.459E-01, 3.597E-02, 2.008E+02
 1.310E+03, 1.581E+02, 1.638E+02, 1.689E+02, 2.194E+02, 8.600E+01, 1.782E+02, 2.286E+02, 8.459E+01,-6.117E+01, 1.459E-01, 3.597E-02, 1.997E+02
