s,C,C,C,C,C,C,C,C,Pa,mol/mol,mol/mol,kW
Time,"West_All_TCs","East_All_TCs","West_Bottom_TCs","West_Middle_TCs","West_Upper_TCs","East_Bottom_TCs","East_Middle_TCs","East_Upper_TCs","Pressure","O2","CO2","HRR"
-6.000E+01, 2.000E+01, 2.000E+01, 2.000E+01, 2.000E+01, 2.000E+01, 2.000E+01, 2.000E+01, 2.000E+01,-9.812E-06, 2.095E-01, 3.901E-04, 0.000E+00
-4.998E+01, 2.000E+01, 2.000E+01, 2.000E+01, 2.000E+01, 2.000E+01, 2.000E+01, 2.000E+01, 2.000E+01, 1.371E-02, 2.095E-01, 3.901E-04, 0.000E+00
-3.996E+01, 2.000E+01, 2.000E+01, 2.000E+01, 2.000E+01, 2.000E+01, 2.000E+01, 2.000E+01, 2.000E+01, 1.872E-02, 2.095E-01, 3.901E-04, 0.000E+00
-2.994E+01, 2.000E+01, 2.000E+01, 2.000E+01, 2.000E+01, 2.000E+01, 2.000E+01, 2.000E+01, 2.000E+01,-2.126E-02, 2.095E-01, 3.901E-04, 0.000E+00
-1.992E+01, 2.000E+01, 2.000E+01, 2.000E+01, 2.000E+01, 2.000E+01, 2.000E+01, 2.000E+01, 2.000E+01, 6.446E-02, 2.095E-01, 3.901E-04, 0.000E+00
-9.896E+00, 2.000E+01, 2.000E+01, 2.000E+01, 2.000E+01, 2.000E+01, 2.000E+01, 2.000E+01, 2.000E+01,-2.805E-02, 2.095E-01, 3.901E-04, 0.000E+00
 1.301E-02, 2.000E+01, 2.000E+01, 2.000E+01, 2.000E+01, 2.000E+01, 2.000E+01, 2.000E+01, 2.000E+01, 2.751E-03, 2.095E-01, 3.901E-04, 8.762E-05
 1.001E+01, 2.035E+01, 2.050E+01, 2.024E+01, 2.008E+01, 2.073E+01, 2.038E+01, 2.010E+01, 2.100E+01, 4.532E+00, 2.094E-01, 4.450E-04, 1.709E+01
 2.001E+01, 2.171E+01, 2.221E+01, 2.082E+01, 2.044E+01, 2.386E+01, 2.135E+01, 2.036E+01, 2.493E+01, 2.390E+01, 2.091E-01, 6.638E-04, 4.964E+01
 3.001E+01, 2.565E+01, 2.646E+01, 2.163E+01, 2.291E+01, 3.242E+01, 2.266E+01, 2.270E+01, 3.402E+01, 5.803E+01, 2.079E-01, 1.317E-03, 8.300E+01
 4.002E+01, 3.076E+01, 3.191E+01, 2.232E+01, 2.798E+01, 4.197E+01, 2.356E+01, 2.846E+01, 4.370E+01, 7.571E+01, 2.072E-01, 1.726E-03, 9.977E+01
 5.002E+01, 3.675E+01, 3.749E+01, 2.331E+01, 3.593E+01, 5.103E+01, 2.452E+01, 3.670E+01, 5.125E+01, 6.812E+01, 2.064E-01, 2.174E-03, 1.001E+02
 6.001E+01, 4.267E+01, 4.305E+01, 2.545E+01, 4.442E+01, 5.814E+01, 2.609E+01, 4.383E+01, 5.924E+01, 5.916E+01, 2.054E-01, 2.721E-03, 1.002E+02
 7.000E+01, 4.765E+01, 4.839E+01, 2.785E+01, 5.150E+01, 6.360E+01, 2.985E+01, 5.029E+01, 6.504E+01, 5.137E+01, 2.047E-01, 3.081E-03, 9.998E+01
 8.002E+01, 5.229E+01, 5.322E+01, 3.266E+01, 5.848E+01, 6.571E+01, 3.397E+01, 5.695E+01, 6.873E+01, 4.462E+01, 2.043E-01, 3.301E-03, 9.981E+01
 9.002E+01, 5.645E+01, 5.778E+01, 3.783E+01, 6.216E+01, 6.936E+01, 3.937E+01, 6.177E+01, 7.221E+01, 3.877E+01, 2.038E-01, 3.619E-03, 9.999E+01
 1.000E+02, 6.062E+01, 6.204E+01, 4.348E+01, 6.606E+01, 7.233E+01, 4.392E+01, 6.577E+01, 7.643E+01, 3.339E+01, 2.032E-01, 3.963E-03, 9.987E+01
 1.100E+02, 6.411E+01, 6.550E+01, 4.805E+01, 6.962E+01, 7.464E+01, 4.847E+01, 6.890E+01, 7.915E+01, 2.922E+01, 2.028E-01, 4.174E-03, 1.002E+02
 1.200E+02, 6.807E+01, 6.886E+01, 5.210E+01, 7.303E+01, 7.908E+01, 5.313E+01, 7.173E+01, 8.173E+01, 2.465E+01, 2.022E-01, 4.504E-03, 9.997E+01
 1.300E+02, 7.070E+01, 7.221E+01, 5.611E+01, 7.471E+01, 8.129E+01, 5.779E+01, 7.508E+01, 8.377E+01, 2.120E+01, 2.016E-01, 4.817E-03, 1.000E+02
 1.400E+02, 7.353E+01, 7.435E+01, 5.975E+01, 7.685E+01, 8.399E+01, 5.995E+01, 7.657E+01, 8.653E+01, 1.865E+01, 2.010E-01, 5.190E-03, 1.000E+02
 1.500E+02, 7.611E+01, 7.624E+01, 6.287E+01, 7.954E+01, 8.591E+01, 6.292E+01, 7.808E+01, 8.772E+01, 1.585E+01, 2.003E-01, 5.577E-03, 9.995E+01
 1.600E+02, 7.836E+01, 7.858E+01, 6.359E+01, 8.212E+01, 8.938E+01, 6.671E+01, 8.009E+01, 8.894E+01, 1.360E+01, 2.001E-01, 5.651E-03, 9.999E+01
 1.700E+02, 8.040E+01, 8.067E+01, 6.654E+01, 8.365E+01, 9.102E+01, 6.776E+01, 8.266E+01, 9.158E+01, 1.219E+01, 1.994E-01, 6.034E-03, 9.991E+01
 1.800E+02, 8.239E+01, 8.244E+01, 6.891E+01, 8.571E+01, 9.256E+01, 6.957E+01, 8.452E+01, 9.323E+01, 1.161E+01, 1.987E-01, 6.434E-03, 9.957E+01
 1.900E+02, 8.387E+01, 8.379E+01, 7.064E+01, 8.640E+01, 9.457E+01, 7.151E+01, 8.608E+01, 9.378E+01, 1.081E+01, 1.982E-01, 6.756E-03, 1.001E+02
 2.000E+02, 8.446E+01, 8.476E+01, 7.066E+01, 8.709E+01, 9.562E+01, 7.351E+01, 8.658E+01, 9.421E+01, 1.048E+01, 1.977E-01, 7.036E-03, 9.988E+01
 2.100E+02, 8.522E+01, 8.600E+01, 7.310E+01, 8.738E+01, 9.518E+01, 7.367E+01, 8.908E+01, 9.525E+01, 9.866E+00, 1.969E-01, 7.449E-03, 9.999E+01
 2.200E+02, 8.650E+01, 8.730E+01, 7.418E+01, 8.847E+01, 9.686E+01, 7.440E+01, 8.938E+01, 9.812E+01, 9.638E+00, 1.962E-01, 7.822E-03, 1.003E+02
 2.300E+02, 8.791E+01, 8.763E+01, 7.470E+01, 9.006E+01, 9.896E+01, 7.503E+01, 8.963E+01, 9.823E+01, 9.237E+00, 1.955E-01, 8.222E-03, 9.967E+01
 2.400E+02, 8.828E+01, 8.800E+01, 7.416E+01, 9.079E+01, 9.989E+01, 7.599E+01, 9.017E+01, 9.785E+01, 9.084E+00, 1.950E-01, 8.522E-03, 1.002E+02
 2.500E+02, 8.836E+01, 8.872E+01, 7.534E+01, 9.032E+01, 9.942E+01, 7.607E+01, 9.104E+01, 9.905E+01, 9.248E+00, 1.944E-01, 8.872E-03, 9.989E+01
 2.600E+02, 8.968E+01, 8.924E+01, 7.669E+01, 9.133E+01, 1.010E+02, 7.614E+01, 9.172E+01, 9.986E+01, 9.090E+00, 1.937E-01, 9.235E-03, 9.990E+01
 2.700E+02, 9.007E+01, 9.002E+01, 7.701E+01, 9.258E+01, 1.006E+02, 7.776E+01, 9.312E+01, 9.918E+01, 9.088E+00, 1.932E-01, 9.538E-03, 9.994E+01
 2.800E+02, 9.041E+01, 9.089E+01, 7.622E+01, 9.321E+01, 1.018E+02, 7.882E+01, 9.272E+01, 1.011E+02, 9.133E+00, 1.924E-01, 9.978E-03, 1.002E+02
 2.900E+02, 9.063E+01, 9.153E+01, 7.782E+01, 9.354E+01, 1.005E+02, 7.888E+01, 9.436E+01, 1.014E+02, 9.096E+00, 1.916E-01, 1.039E-02, 9.985E+01
 3.000E+02, 9.150E+01, 9.011E+01, 7.840E+01, 9.402E+01, 1.021E+02, 7.836E+01, 9.183E+01, 1.001E+02, 8.992E+00, 1.910E-01, 1.076E-02, 9.990E+01
 3.100E+02, 9.173E+01, 9.218E+01, 7.803E+01, 9.492E+01, 1.023E+02, 7.939E+01, 9.436E+01, 1.028E+02, 9.359E+00, 1.903E-01, 1.114E-02, 1.002E+02
 3.200E+02, 9.135E+01, 9.203E+01, 7.866E+01, 9.299E+01, 1.024E+02, 7.905E+01, 9.398E+01, 1.031E+02, 8.988E+00, 1.895E-01, 1.157E-02, 9.977E+01
 3.300E+02, 9.200E+01, 9.179E+01, 7.892E+01, 9.449E+01, 1.026E+02, 7.949E+01, 9.436E+01, 1.015E+02, 9.128E+00, 1.891E-01, 1.182E-02, 9.996E+01
 3.400E+02, 9.260E+01, 9.221E+01, 7.924E+01, 9.501E+01, 1.036E+02, 8.029E+01, 9.453E+01, 1.018E+02, 8.956E+00, 1.885E-01, 1.217E-02, 9.974E+01
 3.500E+02, 9.215E+01, 9.307E+01, 7.962E+01, 9.486E+01, 1.020E+02, 8.112E+01, 9.552E+01, 1.026E+02, 9.176E+00, 1.877E-01, 1.260E-02, 1.003E+02
 3.600E+02, 9.283E+01, 9.283E+01, 8.002E+01, 9.579E+01, 1.027E+02, 8.036E+01, 9.523E+01, 1.029E+02, 9.240E+00, 1.872E-01, 1.289E-02, 9.976E+01
 3.700E+02, 9.296E+01, 9.278E+01, 7.985E+01, 9.586E+01, 1.032E+02, 8.123E+01, 9.479E+01, 1.023E+02, 9.200E+00, 1.866E-01, 1.320E-02, 1.003E+02
 3.800E+02, 9.333E+01, 9.333E+01, 8.019E+01, 9.519E+01, 1.046E+02, 8.060E+01, 9.634E+01, 1.030E+02, 9.062E+00, 1.859E-01, 1.361E-02, 9.968E+01
 3.900E+02, 9.311E+01, 9.319E+01, 7.994E+01, 9.492E+01, 1.045E+02, 8.194E+01, 9.620E+01, 1.014E+02, 9.367E+00, 1.853E-01, 1.395E-02, 1.002E+02
 4.000E+02, 9.339E+01, 9.323E+01, 8.077E+01, 9.485E+01, 1.046E+02, 8.136E+01, 9.590E+01, 1.024E+02, 9.026E+00, 1.845E-01, 1.437E-02, 9.996E+01
 4.100E+02, 9.354E+01, 9.303E+01, 8.072E+01, 9.593E+01, 1.040E+02, 8.164E+01, 9.490E+01, 1.025E+02, 9.134E+00, 1.840E-01, 1.465E-02, 1.002E+02
 4.200E+02, 9.394E+01, 9.291E+01, 8.116E+01, 9.685E+01, 1.038E+02, 8.111E+01, 9.425E+01, 1.034E+02, 9.111E+00, 1.832E-01, 1.513E-02, 9.981E+01
 4.300E+02, 9.381E+01, 9.414E+01, 8.064E+01, 9.644E+01, 1.043E+02, 8.289E+01, 9.571E+01, 1.038E+02, 9.247E+00, 1.825E-01, 1.549E-02, 9.989E+01
 4.400E+02, 9.380E+01, 9.494E+01, 8.168E+01, 9.631E+01, 1.034E+02, 8.155E+01, 9.841E+01, 1.049E+02, 9.128E+00, 1.817E-01, 1.595E-02, 9.984E+01
 4.500E+02, 9.459E+01, 9.349E+01, 8.209E+01, 9.706E+01, 1.046E+02, 8.166E+01, 9.559E+01, 1.032E+02, 9.186E+00, 1.813E-01, 1.616E-02, 1.001E+02
 4.600E+02, 9.392E+01, 9.521E+01, 8.112E+01, 9.659E+01, 1.041E+02, 8.286E+01, 9.721E+01, 1.056E+02, 9.591E+00, 1.803E-01, 1.671E-02, 1.002E+02
 4.700E+02, 9.393E+01, 9.453E+01, 8.183E+01, 9.640E+01, 1.036E+02, 8.248E+01, 9.690E+01, 1.042E+02, 9.318E+00, 1.800E-01, 1.691E-02, 9.999E+01
 4.800E+02, 9.568E+01, 9.477E+01, 8.266E+01, 9.922E+01, 1.052E+02, 8.219E+01, 9.739E+01, 1.047E+02, 9.450E+00, 1.794E-01, 1.721E-02, 9.995E+01
 4.900E+02, 9.532E+01, 9.517E+01, 8.237E+01, 9.847E+01, 1.051E+02, 8.332E+01, 9.655E+01, 1.056E+02, 9.315E+00, 1.785E-01, 1.774E-02, 9.987E+01
 5.000E+02, 9.596E+01, 9.523E+01, 8.336E+01, 9.786E+01, 1.066E+02, 8.315E+01, 9.681E+01, 1.057E+02, 9.042E+00, 1.779E-01, 1.807E-02, 9.973E+01
 5.100E+02, 9.660E+01, 9.474E+01, 8.171E+01, 9.997E+01, 1.081E+02, 8.390E+01, 9.581E+01, 1.045E+02, 9.133E+00, 1.771E-01, 1.851E-02, 9.994E+01
 5.200E+02, 9.555E+01, 9.520E+01, 8.240E+01, 9.886E+01, 1.054E+02, 8.301E+01, 9.721E+01, 1.054E+02, 9.584E+00, 1.765E-01, 1.883E-02, 1.003E+02
 5.300E+02, 9.632E+01, 9.534E+01, 8.219E+01, 9.958E+01, 1.072E+02, 8.312E+01, 9.709E+01, 1.058E+02, 9.256E+00, 1.758E-01, 1.923E-02, 9.999E+01
 5.400E+02, 9.601E+01, 9.618E+01, 8.164E+01, 9.904E+01, 1.073E+02, 8.306E+01, 9.893E+01, 1.066E+02, 9.339E+00, 1.750E-01, 1.967E-02, 9.951E+01
 5.500E+02, 9.580E+01, 9.529E+01, 8.263E+01, 9.871E+01, 1.061E+02, 8.306E+01, 9.724E+01, 1.056E+02, 9.384E+00, 1.748E-01, 1.981E-02, 1.001E+02
 5.600E+02, 9.645E+01, 9.609E+01, 8.194E+01, 1.003E+02, 1.071E+02, 8.375E+01, 9.797E+01, 1.066E+02, 9.086E+00, 1.738E-01, 2.037E-02, 9.994E+01
 5.700E+02, 9.666E+01, 9.549E+01, 8.303E+01, 9.967E+01, 1.073E+02, 8.263E+01, 9.735E+01, 1.065E+02, 9.431E+00, 1.732E-01, 2.070E-02, 1.002E+02
 5.800E+02, 9.613E+01, 9.615E+01, 8.233E+01, 9.950E+01, 1.066E+02, 8.376E+01, 9.836E+01, 1.063E+02, 9.611E+00, 1.725E-01, 2.111E-02, 1.000E+02
 5.900E+02, 9.685E+01, 9.577E+01, 8.327E+01, 1.002E+02, 1.071E+02, 8.339E+01, 9.719E+01, 1.067E+02, 9.487E+00, 1.720E-01, 2.138E-02, 9.991E+01
 6.000E+02, 9.568E+01, 9.676E+01, 8.241E+01, 9.918E+01, 1.054E+02, 8.326E+01, 9.881E+01, 1.082E+02, 9.322E+00, 1.709E-01, 2.198E-02, 9.989E+01
 6.100E+02, 9.616E+01, 9.703E+01, 8.242E+01, 9.983E+01, 1.062E+02, 8.345E+01, 9.942E+01, 1.082E+02, 9.252E+00, 1.702E-01, 2.236E-02, 9.981E+01
 6.200E+02, 9.696E+01, 9.722E+01, 8.238E+01, 1.012E+02, 1.073E+02, 8.376E+01, 9.983E+01, 1.081E+02, 9.830E+00, 1.695E-01, 2.276E-02, 1.004E+02
 6.300E+02, 9.694E+01, 9.691E+01, 8.394E+01, 1.011E+02, 1.058E+02, 8.332E+01, 9.868E+01, 1.087E+02, 9.750E+00, 1.691E-01, 2.297E-02, 9.989E+01
 6.400E+02, 9.620E+01, 9.606E+01, 8.363E+01, 1.002E+02, 1.048E+02, 8.396E+01, 9.663E+01, 1.076E+02, 9.304E+00, 1.684E-01, 2.335E-02, 9.978E+01
 6.500E+02, 9.644E+01, 9.726E+01, 8.319E+01, 1.003E+02, 1.059E+02, 8.520E+01, 9.868E+01, 1.079E+02, 9.528E+00, 1.677E-01, 2.377E-02, 9.987E+01
 6.600E+02, 9.707E+01, 9.732E+01, 8.354E+01, 1.012E+02, 1.064E+02, 8.493E+01, 9.934E+01, 1.077E+02, 9.883E+00, 1.674E-01, 2.393E-02, 1.003E+02
 6.700E+02, 9.697E+01, 9.748E+01, 8.353E+01, 1.010E+02, 1.064E+02, 8.475E+01, 1.001E+02, 1.076E+02, 9.585E+00, 1.665E-01, 2.444E-02, 9.989E+01
 6.800E+02, 9.704E+01, 9.780E+01, 8.476E+01, 1.004E+02, 1.060E+02, 8.426E+01, 1.007E+02, 1.084E+02, 9.671E+00, 1.656E-01, 2.492E-02, 9.996E+01
 6.900E+02, 9.725E+01, 9.794E+01, 8.413E+01, 1.017E+02, 1.060E+02, 8.604E+01, 9.953E+01, 1.083E+02, 9.889E+00, 1.649E-01, 2.533E-02, 1.002E+02
 7.000E+02, 9.737E+01, 9.793E+01, 8.539E+01, 9.981E+01, 1.069E+02, 8.544E+01, 1.006E+02, 1.077E+02, 9.792E+00, 1.646E-01, 2.550E-02, 9.988E+01
 7.100E+02, 9.767E+01, 9.767E+01, 8.556E+01, 1.003E+02, 1.072E+02, 8.494E+01, 9.885E+01, 1.092E+02, 9.568E+00, 1.634E-01, 2.618E-02, 9.994E+01
 7.200E+02, 9.780E+01, 9.784E+01, 8.473E+01, 1.015E+02, 1.071E+02, 8.585E+01, 9.945E+01, 1.082E+02, 9.745E+00, 1.633E-01, 2.623E-02, 1.000E+02
 7.300E+02, 9.758E+01, 9.912E+01, 8.512E+01, 1.007E+02, 1.069E+02, 8.667E+01, 1.008E+02, 1.099E+02, 9.701E+00, 1.623E-01, 2.679E-02, 1.000E+02
 7.400E+02, 9.874E+01, 9.736E+01, 8.638E+01, 1.013E+02, 1.085E+02, 8.574E+01, 9.867E+01, 1.077E+02, 9.859E+00, 1.616E-01, 2.715E-02, 1.001E+02
 7.500E+02, 9.761E+01, 9.819E+01, 8.540E+01, 9.972E+01, 1.077E+02, 8.682E+01, 1.007E+02, 1.070E+02, 9.587E+00, 1.612E-01, 2.738E-02, 9.975E+01
 7.600E+02, 9.846E+01, 9.845E+01, 8.724E+01, 1.012E+02, 1.070E+02, 8.631E+01, 1.012E+02, 1.078E+02, 9.971E+00, 1.605E-01, 2.779E-02, 9.994E+01
 7.700E+02, 9.970E+01, 9.818E+01, 8.637E+01, 1.041E+02, 1.086E+02, 8.643E+01, 9.979E+01, 1.083E+02, 9.924E+00, 1.599E-01, 2.814E-02, 1.001E+02
 7.800E+02, 9.969E+01, 9.867E+01, 8.638E+01, 1.040E+02, 1.087E+02, 8.743E+01, 1.010E+02, 1.076E+02, 9.840E+00, 1.591E-01, 2.859E-02, 9.953E+01
 7.900E+02, 1.000E+02, 9.839E+01, 8.723E+01, 1.040E+02, 1.088E+02, 8.626E+01, 1.011E+02, 1.078E+02, 9.747E+00, 1.583E-01, 2.900E-02, 1.001E+02
 8.000E+02, 9.955E+01, 9.878E+01, 8.679E+01, 1.033E+02, 1.086E+02, 8.649E+01, 1.007E+02, 1.092E+02, 9.810E+00, 1.577E-01, 2.933E-02, 1.000E+02
 8.100E+02, 9.837E+01, 9.973E+01, 8.614E+01, 1.028E+02, 1.062E+02, 8.651E+01, 1.021E+02, 1.106E+02, 9.949E+00, 1.567E-01, 2.992E-02, 1.001E+02
 8.200E+02, 1.005E+02, 9.908E+01, 8.638E+01, 1.048E+02, 1.102E+02, 8.615E+01, 1.016E+02, 1.095E+02, 9.877E+00, 1.563E-01, 3.012E-02, 1.000E+02
 8.300E+02, 9.872E+01, 9.912E+01, 8.623E+01, 1.019E+02, 1.080E+02, 8.736E+01, 1.003E+02, 1.097E+02, 9.949E+00, 1.554E-01, 3.064E-02, 9.999E+01
 8.400E+02, 9.918E+01, 1.002E+02, 8.710E+01, 1.013E+02, 1.091E+02, 8.799E+01, 1.023E+02, 1.102E+02, 1.008E+01, 1.550E-01, 3.085E-02, 1.001E+02
 8.500E+02, 1.005E+02, 9.965E+01, 8.873E+01, 1.032E+02, 1.095E+02, 8.765E+01, 1.010E+02, 1.103E+02, 9.675E+00, 1.541E-01, 3.136E-02, 9.993E+01
 8.600E+02, 9.985E+01, 9.960E+01, 8.781E+01, 1.022E+02, 1.095E+02, 8.768E+01, 1.013E+02, 1.098E+02, 9.914E+00, 1.537E-01, 3.159E-02, 9.993E+01
 8.700E+02, 1.000E+02, 9.918E+01, 8.753E+01, 1.018E+02, 1.107E+02, 8.760E+01, 1.014E+02, 1.085E+02, 1.003E+01, 1.530E-01, 3.196E-02, 1.001E+02
 8.800E+02, 9.999E+01, 9.967E+01, 8.777E+01, 1.017E+02, 1.105E+02, 8.865E+01, 1.021E+02, 1.083E+02, 1.001E+01, 1.525E-01, 3.224E-02, 9.984E+01
 8.900E+02, 1.002E+02, 9.999E+01, 8.819E+01, 1.030E+02, 1.093E+02, 8.884E+01, 1.020E+02, 1.092E+02, 1.005E+01, 1.517E-01, 3.271E-02, 9.960E+01
 9.000E+02, 1.001E+02, 9.980E+01, 8.840E+01, 1.032E+02, 1.086E+02, 8.817E+01, 1.024E+02, 1.088E+02, 1.009E+01, 1.512E-01, 3.301E-02, 1.001E+02
 9.100E+02, 1.001E+02, 1.008E+02, 8.822E+01, 1.019E+02, 1.101E+02, 8.860E+01, 1.028E+02, 1.110E+02, 1.023E+01, 1.502E-01, 3.355E-02, 1.002E+02
 9.200E+02, 1.002E+02, 1.002E+02, 8.826E+01, 1.028E+02, 1.094E+02, 8.883E+01, 1.026E+02, 1.093E+02, 9.721E+00, 1.499E-01, 3.370E-02, 1.001E+02
 9.300E+02, 1.006E+02, 9.967E+01, 8.813E+01, 1.049E+02, 1.087E+02, 8.756E+01, 1.015E+02, 1.099E+02, 1.008E+01, 1.489E-01, 3.425E-02, 9.999E+01
 9.400E+02, 1.011E+02, 1.005E+02, 8.765E+01, 1.051E+02, 1.106E+02, 8.831E+01, 1.029E+02, 1.103E+02, 1.012E+01, 1.484E-01, 3.458E-02, 9.973E+01
 9.500E+02, 1.003E+02, 1.005E+02, 8.801E+01, 1.045E+02, 1.084E+02, 8.775E+01, 1.024E+02, 1.112E+02, 9.824E+00, 1.474E-01, 3.509E-02, 9.998E+01
 9.600E+02, 1.006E+02, 1.004E+02, 8.745E+01, 1.048E+02, 1.096E+02, 8.800E+01, 1.025E+02, 1.107E+02, 9.936E+00, 1.470E-01, 3.533E-02, 1.000E+02
 9.700E+02, 1.011E+02, 1.005E+02, 8.751E+01, 1.048E+02, 1.110E+02, 8.856E+01, 1.023E+02, 1.105E+02, 1.032E+01, 1.462E-01, 3.581E-02, 9.995E+01
 9.800E+02, 1.001E+02, 1.014E+02, 8.870E+01, 1.025E+02, 1.092E+02, 8.783E+01, 1.038E+02, 1.125E+02, 1.001E+01, 1.454E-01, 3.625E-02, 1.001E+02
 9.900E+02, 1.014E+02, 1.001E+02, 8.873E+01, 1.052E+02, 1.102E+02, 8.750E+01, 1.016E+02, 1.111E+02, 1.019E+01, 1.448E-01, 3.657E-02, 9.977E+01
 1.000E+03, 1.009E+02, 1.005E+02, 8.879E+01, 1.036E+02, 1.102E+02, 8.954E+01, 1.009E+02, 1.112E+02, 1.028E+01, 1.440E-01, 3.700E-02, 1.002E+02
 1.010E+03, 1.009E+02, 1.009E+02, 8.962E+01, 1.037E+02, 1.094E+02, 8.906E+01, 1.028E+02, 1.108E+02, 1.021E+01, 1.435E-01, 3.727E-02, 9.961E+01
 1.020E+03, 1.024E+02, 1.008E+02, 8.932E+01, 1.056E+02, 1.123E+02, 8.895E+01, 1.026E+02, 1.108E+02, 1.019E+01, 1.429E-01, 3.763E-02, 1.000E+02
 1.030E+03, 1.020E+02, 1.006E+02, 8.825E+01, 1.057E+02, 1.122E+02, 8.991E+01, 1.030E+02, 1.089E+02, 1.032E+01, 1.424E-01, 3.792E-02, 9.980E+01
 1.040E+03, 1.019E+02, 1.003E+02, 9.065E+01, 1.035E+02, 1.115E+02, 8.884E+01, 1.019E+02, 1.102E+02, 9.983E+00, 1.417E-01, 3.833E-02, 9.993E+01
 1.050E+03, 1.020E+02, 1.019E+02, 8.953E+01, 1.046E+02, 1.119E+02, 9.015E+01, 1.035E+02, 1.119E+02, 1.019E+01, 1.406E-01, 3.894E-02, 9.976E+01
 1.060E+03, 1.026E+02, 1.013E+02, 8.973E+01, 1.070E+02, 1.112E+02, 8.909E+01, 1.036E+02, 1.114E+02, 1.060E+01, 1.402E-01, 3.911E-02, 9.995E+01
 1.070E+03, 1.024E+02, 1.011E+02, 8.767E+01, 1.063E+02, 1.132E+02, 8.864E+01, 1.035E+02, 1.113E+02, 1.021E+01, 1.393E-01, 3.963E-02, 9.958E+01
 1.080E+03, 1.023E+02, 1.022E+02, 8.969E+01, 1.053E+02, 1.118E+02, 8.933E+01, 1.047E+02, 1.125E+02, 8.554E+00, 1.387E-01, 3.998E-02, 9.351E+01
 1.090E+03, 1.016E+02, 9.980E+01, 8.838E+01, 1.037E+02, 1.127E+02, 8.781E+01, 1.020E+02, 1.096E+02, 5.424E+00, 1.387E-01, 3.999E-02, 8.467E+01
 1.100E+03, 1.005E+02, 1.008E+02, 8.772E+01, 1.034E+02, 1.104E+02, 8.904E+01, 1.032E+02, 1.103E+02, 1.024E+01, 1.381E-01, 4.031E-02, 1.002E+02
 1.110E+03, 1.001E+02, 9.902E+01, 8.895E+01, 1.042E+02, 1.072E+02, 8.661E+01, 1.015E+02, 1.090E+02,-1.986E+01, 1.376E-01, 4.057E-02, 5.583E+01
 1.120E+03, 9.890E+01, 9.855E+01, 8.576E+01, 1.026E+02, 1.084E+02, 8.711E+01, 1.003E+02, 1.082E+02, 2.893E+01, 1.374E-01, 4.067E-02, 1.162E+02
 1.130E+03, 9.998E+01, 9.950E+01, 8.951E+01, 1.031E+02, 1.074E+02, 8.726E+01, 1.028E+02, 1.085E+02, 9.946E+00, 1.372E-01, 4.082E-02, 9.633E+01
 1.140E+03, 9.879E+01, 9.772E+01, 8.652E+01, 1.015E+02, 1.084E+02, 8.624E+01, 1.008E+02, 1.061E+02,-1.332E+01, 1.367E-01, 4.104E-02, 5.447E+01
 1.150E+03, 9.702E+01, 9.862E+01, 8.404E+01, 1.005E+02, 1.066E+02, 8.772E+01, 9.939E+01, 1.087E+02, 1.553E+01, 1.361E-01, 4.135E-02, 9.348E+01
 1.160E+03, 9.840E+01, 9.766E+01, 8.679E+01, 1.007E+02, 1.077E+02, 8.655E+01, 9.847E+01, 1.080E+02, 9.822E+00, 1.361E-01, 4.140E-02, 9.637E+01
 1.170E+03, 9.640E+01, 9.670E+01, 8.404E+01, 9.904E+01, 1.061E+02, 8.660E+01, 9.807E+01, 1.054E+02, 3.490E+00, 1.357E-01, 4.161E-02, 5.066E+01
 1.180E+03, 9.531E+01, 9.709E+01, 8.470E+01, 9.709E+01, 1.041E+02, 8.546E+01, 9.699E+01, 1.088E+02, 7.080E+00, 1.353E-01, 4.179E-02, 6.920E+01
 1.190E+03, 9.532E+01, 9.585E+01, 8.500E+01, 9.754E+01, 1.034E+02, 8.528E+01, 9.686E+01, 1.054E+02, 1.162E+01, 1.355E-01, 4.166E-02, 7.499E+01
 1.200E+03, 9.433E+01, 9.440E+01, 8.281E+01, 9.790E+01, 1.023E+02, 8.447E+01, 9.540E+01, 1.033E+02, 1.796E+00, 1.356E-01, 4.163E-02, 4.999E+01
 1.210E+03, 9.357E+01, 9.479E+01, 8.294E+01, 9.580E+01, 1.020E+02, 8.488E+01, 9.505E+01, 1.045E+02, 2.033E+01, 1.351E-01, 4.187E-02, 9.475E+01
 1.220E+03, 9.304E+01, 9.322E+01, 8.226E+01, 9.607E+01, 1.008E+02, 8.314E+01, 9.456E+01, 1.019E+02,-5.162E+00, 1.350E-01, 4.191E-02, 4.887E+01
 1.230E+03, 9.046E+01, 9.223E+01, 7.960E+01, 9.372E+01, 9.804E+01, 8.348E+01, 9.392E+01, 9.929E+01,-5.288E+00, 1.353E-01, 4.173E-02, 1.668E+01
 1.240E+03, 8.890E+01, 9.185E+01, 8.003E+01, 9.097E+01, 9.570E+01, 8.440E+01, 9.214E+01, 9.902E+01, 7.796E+00, 1.357E-01, 4.142E-02, 3.905E+01
 1.250E+03, 8.724E+01, 9.957E+01, 7.975E+01, 8.957E+01, 9.241E+01, 1.041E+02, 9.695E+01, 9.766E+01,-2.167E-02, 1.361E-01, 4.124E-02, 2.478E+01
 1.260E+03, 8.566E+01, 9.091E+01, 7.849E+01, 8.776E+01, 9.072E+01, 8.728E+01, 9.209E+01, 9.335E+01, 8.055E+00, 1.366E-01, 4.091E-02, 2.046E+01
 1.270E+03, 8.447E+01, 8.636E+01, 7.745E+01, 8.744E+01, 8.852E+01, 7.964E+01, 8.723E+01, 9.220E+01, 1.047E+01, 1.379E-01, 4.026E-02, 0.000E+00
 1.280E+03, 8.581E+01, 8.355E+01, 8.154E+01, 8.626E+01, 8.964E+01, 7.609E+01, 8.426E+01, 9.030E+01, 1.151E+00, 1.367E-01, 4.081E-02, 0.000E+00
 1.290E+03, 8.299E+01, 8.880E+01, 7.647E+01, 8.526E+01, 8.725E+01, 8.910E+01, 8.994E+01, 8.737E+01, 2.539E+00, 1.364E-01, 4.100E-02, 0.000E+00
 1.300E+03, 8.025E+01, 8.174E+01, 7.374E+01, 8.249E+01, 8.453E+01, 7.645E+01, 8.247E+01, 8.630E+01, 8.138E+00, 1.373E-01, 4.054E-02, 0.000E+00
 1.310E+03, 8.107E+01, 7.987E+01, 7.608E+01, 8.200E+01, 8.513E+01, 7.254E+01, 8.008E+01, 8.699E+01, 5.867E+00, 1.367E-01, 4.080E-02, 0.000E+00
