s,C,C,C,C,C,C,C,C,Pa,mol/mol,mol/mol,kW
Time,"West_All_TCs","East_All_TCs","West_Bottom_TCs","West_Middle_TCs","West_Upper_TCs","East_Bottom_TCs","East_Middle_TCs","East_Upper_TCs","Pressure","O2","CO2","HRR"
-6.000E+01, 2.600E+01, 2.600E+01, 2.600E+01, 2.600E+01, 2.600E+01, 2.600E+01, 2.600E+01, 2.600E+01,-9.592E-06, 2.095E-01, 3.901E-04, 0.000E+00
-4.998E+01, 2.599E+01, 2.599E+01, 2.599E+01, 2.599E+01, 2.599E+01, 2.599E+01, 2.599E+01, 2.599E+01,-2.115E+01, 2.095E-01, 3.901E-04, 0.000E+00
-3.996E+01, 2.598E+01, 2.599E+01, 2.598E+01, 2.598E+01, 2.598E+01, 2.599E+01, 2.598E+01, 2.598E+01,-2.081E+01, 2.095E-01, 3.901E-04, 0.000E+00
-2.994E+01, 2.598E+01, 2.599E+01, 2.598E+01, 2.598E+01, 2.598E+01, 2.599E+01, 2.598E+01, 2.598E+01,-2.080E+01, 2.095E-01, 3.901E-04, 0.000E+00
-1.992E+01, 2.598E+01, 2.599E+01, 2.598E+01, 2.598E+01, 2.598E+01, 2.600E+01, 2.598E+01, 2.598E+01,-2.080E+01, 2.095E-01, 3.901E-04, 0.000E+00
-9.896E+00, 2.598E+01, 2.599E+01, 2.598E+01, 2.598E+01, 2.598E+01, 2.600E+01, 2.599E+01, 2.598E+01,-2.079E+01, 2.095E-01, 3.901E-04, 0.000E+00
 1.301E-02, 2.598E+01, 2.599E+01, 2.598E+01, 2.597E+01, 2.598E+01, 2.601E+01, 2.599E+01, 2.599E+01,-2.080E+01, 2.095E-01, 3.901E-04, 1.761E-04
 1.002E+01, 2.666E+01, 2.699E+01, 2.646E+01, 2.614E+01, 2.738E+01, 2.674E+01, 2.620E+01, 2.804E+01,-3.762E+00, 2.094E-01, 4.727E-04, 3.274E+01
 2.001E+01, 2.995E+01, 3.069E+01, 2.757E+01, 2.794E+01, 3.433E+01, 2.867E+01, 2.764E+01, 3.576E+01, 2.656E+01, 2.084E-01, 1.024E-03, 9.875E+01
 3.000E+01, 3.837E+01, 3.937E+01, 2.909E+01, 3.608E+01, 4.992E+01, 3.139E+01, 3.555E+01, 5.117E+01, 1.023E+02, 2.068E-01, 1.950E-03, 1.662E+02
 4.001E+01, 5.087E+01, 5.051E+01, 3.361E+01, 5.215E+01, 6.686E+01, 3.525E+01, 5.074E+01, 6.555E+01, 1.460E+02, 2.053E-01, 2.759E-03, 1.992E+02
 5.001E+01, 6.254E+01, 6.258E+01, 3.967E+01, 6.863E+01, 7.931E+01, 4.142E+01, 6.545E+01, 8.086E+01, 1.079E+02, 2.037E-01, 3.650E-03, 1.999E+02
 6.001E+01, 7.181E+01, 7.423E+01, 4.865E+01, 7.644E+01, 9.034E+01, 5.051E+01, 7.927E+01, 9.292E+01, 7.613E+01, 2.022E-01, 4.493E-03, 2.015E+02
 7.001E+01, 8.267E+01, 8.404E+01, 5.927E+01, 8.726E+01, 1.015E+02, 6.071E+01, 8.875E+01, 1.027E+02, 5.192E+01, 2.013E-01, 4.985E-03, 1.996E+02
 8.002E+01, 9.330E+01, 9.339E+01, 6.928E+01, 9.828E+01, 1.124E+02, 7.267E+01, 9.721E+01, 1.103E+02, 3.283E+01, 1.997E-01, 5.894E-03, 1.993E+02
 9.001E+01, 1.008E+02, 1.008E+02, 7.855E+01, 1.070E+02, 1.167E+02, 7.993E+01, 1.040E+02, 1.183E+02, 2.125E+01, 1.983E-01, 6.656E-03, 2.014E+02
 1.000E+02, 1.085E+02, 1.072E+02, 8.543E+01, 1.149E+02, 1.251E+02, 8.708E+01, 1.103E+02, 1.243E+02, 1.517E+01, 1.971E-01, 7.321E-03, 2.001E+02
 1.100E+02, 1.130E+02, 1.124E+02, 9.006E+01, 1.192E+02, 1.297E+02, 9.403E+01, 1.145E+02, 1.286E+02, 1.019E+01, 1.960E-01, 7.933E-03, 1.994E+02
 1.200E+02, 1.155E+02, 1.178E+02, 9.504E+01, 1.196E+02, 1.318E+02, 9.723E+01, 1.216E+02, 1.346E+02, 8.950E+00, 1.946E-01, 8.744E-03, 2.006E+02
 1.300E+02, 1.207E+02, 1.220E+02, 9.862E+01, 1.252E+02, 1.381E+02, 1.011E+02, 1.248E+02, 1.402E+02, 5.388E+00, 1.931E-01, 9.571E-03, 2.001E+02
 1.400E+02, 1.228E+02, 1.247E+02, 1.005E+02, 1.273E+02, 1.408E+02, 1.051E+02, 1.276E+02, 1.415E+02, 1.439E+00, 1.920E-01, 1.022E-02, 1.994E+02
 1.500E+02, 1.250E+02, 1.270E+02, 1.031E+02, 1.289E+02, 1.430E+02, 1.066E+02, 1.306E+02, 1.438E+02, 4.544E-01, 1.905E-01, 1.105E-02, 1.998E+02
 1.600E+02, 1.286E+02, 1.283E+02, 1.043E+02, 1.331E+02, 1.482E+02, 1.097E+02, 1.312E+02, 1.441E+02,-2.589E+00, 1.893E-01, 1.168E-02, 2.001E+02
 1.700E+02, 1.278E+02, 1.309E+02, 1.042E+02, 1.313E+02, 1.480E+02, 1.114E+02, 1.356E+02, 1.456E+02,-2.531E+00, 1.880E-01, 1.241E-02, 2.002E+02
 1.800E+02, 1.291E+02, 1.311E+02, 1.071E+02, 1.322E+02, 1.480E+02, 1.096E+02, 1.361E+02, 1.476E+02,-4.233E+00, 1.867E-01, 1.316E-02, 2.006E+02
 1.900E+02, 1.298E+02, 1.330E+02, 1.061E+02, 1.331E+02, 1.501E+02, 1.125E+02, 1.396E+02, 1.469E+02,-4.478E+00, 1.862E-01, 1.342E-02, 1.999E+02
 2.000E+02, 1.302E+02, 1.349E+02, 1.070E+02, 1.327E+02, 1.509E+02, 1.133E+02, 1.415E+02, 1.500E+02,-5.510E+00, 1.843E-01, 1.447E-02, 1.997E+02
 2.100E+02, 1.313E+02, 1.346E+02, 1.081E+02, 1.344E+02, 1.515E+02, 1.132E+02, 1.416E+02, 1.491E+02,-5.579E+00, 1.830E-01, 1.522E-02, 1.998E+02
 2.200E+02, 1.299E+02, 1.361E+02, 1.073E+02, 1.336E+02, 1.486E+02, 1.166E+02, 1.414E+02, 1.502E+02,-4.188E+00, 1.820E-01, 1.576E-02, 1.994E+02
 2.300E+02, 1.317E+02, 1.364E+02, 1.106E+02, 1.348E+02, 1.497E+02, 1.178E+02, 1.398E+02, 1.517E+02,-8.577E+00, 1.807E-01, 1.649E-02, 1.994E+02
 2.400E+02, 1.328E+02, 1.352E+02, 1.124E+02, 1.348E+02, 1.510E+02, 1.156E+02, 1.375E+02, 1.524E+02,-9.130E+00, 1.796E-01, 1.714E-02, 1.982E+02
 2.500E+02, 1.336E+02, 1.396E+02, 1.122E+02, 1.373E+02, 1.512E+02, 1.192E+02, 1.443E+02, 1.553E+02,-7.524E+00, 1.784E-01, 1.781E-02, 1.999E+02
 2.600E+02, 1.345E+02, 1.379E+02, 1.131E+02, 1.398E+02, 1.507E+02, 1.173E+02, 1.427E+02, 1.537E+02,-5.795E+00, 1.775E-01, 1.830E-02, 2.004E+02
 2.700E+02, 1.346E+02, 1.379E+02, 1.122E+02, 1.406E+02, 1.511E+02, 1.169E+02, 1.430E+02, 1.538E+02,-1.332E+01, 1.761E-01, 1.905E-02, 1.987E+02
 2.800E+02, 1.348E+02, 1.360E+02, 1.127E+02, 1.383E+02, 1.534E+02, 1.159E+02, 1.375E+02, 1.545E+02,-7.615E+00, 1.747E-01, 1.989E-02, 2.001E+02
 2.900E+02, 1.351E+02, 1.364E+02, 1.129E+02, 1.387E+02, 1.538E+02, 1.144E+02, 1.394E+02, 1.553E+02,-9.719E+00, 1.735E-01, 2.051E-02, 1.993E+02
 3.000E+02, 1.374E+02, 1.368E+02, 1.149E+02, 1.441E+02, 1.533E+02, 1.161E+02, 1.398E+02, 1.547E+02,-9.574E+00, 1.727E-01, 2.098E-02, 1.992E+02
 3.100E+02, 1.354E+02, 1.367E+02, 1.127E+02, 1.404E+02, 1.530E+02, 1.157E+02, 1.401E+02, 1.543E+02,-9.370E+00, 1.715E-01, 2.167E-02, 1.998E+02
 3.200E+02, 1.387E+02, 1.371E+02, 1.169E+02, 1.448E+02, 1.545E+02, 1.147E+02, 1.398E+02, 1.569E+02,-7.144E+00, 1.707E-01, 2.209E-02, 1.992E+02
 3.300E+02, 1.385E+02, 1.377E+02, 1.173E+02, 1.463E+02, 1.520E+02, 1.166E+02, 1.403E+02, 1.562E+02,-6.609E+00, 1.698E-01, 2.259E-02, 2.003E+02
 3.400E+02, 1.389E+02, 1.384E+02, 1.218E+02, 1.457E+02, 1.491E+02, 1.166E+02, 1.417E+02, 1.568E+02,-8.720E+00, 1.691E-01, 2.299E-02, 1.983E+02
 3.500E+02, 1.393E+02, 1.394E+02, 1.206E+02, 1.455E+02, 1.519E+02, 1.163E+02, 1.427E+02, 1.592E+02,-7.368E+00, 1.677E-01, 2.375E-02, 1.990E+02
 3.600E+02, 1.383E+02, 1.379E+02, 1.216E+02, 1.440E+02, 1.491E+02, 1.154E+02, 1.386E+02, 1.596E+02,-8.896E+00, 1.667E-01, 2.433E-02, 1.999E+02
 3.700E+02, 1.390E+02, 1.384E+02, 1.207E+02, 1.439E+02, 1.524E+02, 1.155E+02, 1.413E+02, 1.583E+02,-1.014E+01, 1.657E-01, 2.489E-02, 1.984E+02
 3.800E+02, 1.387E+02, 1.387E+02, 1.217E+02, 1.440E+02, 1.503E+02, 1.156E+02, 1.408E+02, 1.595E+02,-9.570E+00, 1.645E-01, 2.555E-02, 1.990E+02
 3.900E+02, 1.379E+02, 1.383E+02, 1.210E+02, 1.417E+02, 1.510E+02, 1.138E+02, 1.393E+02, 1.617E+02,-1.000E+01, 1.635E-01, 2.610E-02, 1.998E+02
 4.000E+02, 1.381E+02, 1.392E+02, 1.179E+02, 1.409E+02, 1.555E+02, 1.177E+02, 1.413E+02, 1.586E+02,-1.083E+01, 1.629E-01, 2.642E-02, 1.981E+02
 4.100E+02, 1.397E+02, 1.384E+02, 1.191E+02, 1.415E+02, 1.584E+02, 1.182E+02, 1.404E+02, 1.566E+02,-9.814E+00, 1.620E-01, 2.698E-02, 1.972E+02
 4.200E+02, 1.405E+02, 1.369E+02, 1.185E+02, 1.462E+02, 1.568E+02, 1.184E+02, 1.388E+02, 1.533E+02,-1.011E+01, 1.612E-01, 2.743E-02, 1.984E+02
 4.300E+02, 1.379E+02, 1.396E+02, 1.168E+02, 1.418E+02, 1.553E+02, 1.205E+02, 1.415E+02, 1.567E+02,-1.047E+01, 1.597E-01, 2.822E-02, 1.989E+02
 4.400E+02, 1.396E+02, 1.402E+02, 1.181E+02, 1.430E+02, 1.577E+02, 1.208E+02, 1.423E+02, 1.576E+02,-8.227E+00, 1.590E-01, 2.862E-02, 2.008E+02
 4.500E+02, 1.389E+02, 1.406E+02, 1.176E+02, 1.422E+02, 1.568E+02, 1.213E+02, 1.444E+02, 1.562E+02,-9.547E+00, 1.581E-01, 2.912E-02, 2.003E+02
 4.600E+02, 1.419E+02, 1.410E+02, 1.177E+02, 1.468E+02, 1.612E+02, 1.210E+02, 1.441E+02, 1.578E+02,-1.090E+01, 1.570E-01, 2.978E-02, 1.987E+02
 4.700E+02, 1.407E+02, 1.403E+02, 1.175E+02, 1.441E+02, 1.604E+02, 1.198E+02, 1.435E+02, 1.577E+02,-9.333E+00, 1.558E-01, 3.040E-02, 1.990E+02
 4.800E+02, 1.419E+02, 1.412E+02, 1.186E+02, 1.486E+02, 1.585E+02, 1.213E+02, 1.450E+02, 1.573E+02,-9.786E+00, 1.554E-01, 3.065E-02, 2.010E+02
 4.900E+02, 1.415E+02, 1.428E+02, 1.176E+02, 1.477E+02, 1.592E+02, 1.211E+02, 1.468E+02, 1.606E+02,-1.083E+01, 1.541E-01, 3.139E-02, 2.003E+02
 5.000E+02, 1.434E+02, 1.434E+02, 1.221E+02, 1.513E+02, 1.567E+02, 1.205E+02, 1.484E+02, 1.611E+02,-9.823E+00, 1.532E-01, 3.185E-02, 2.002E+02
 5.100E+02, 1.455E+02, 1.436E+02, 1.222E+02, 1.514E+02, 1.629E+02, 1.200E+02, 1.473E+02, 1.637E+02,-9.775E+00, 1.524E-01, 3.233E-02, 1.985E+02
 5.200E+02, 1.450E+02, 1.449E+02, 1.211E+02, 1.517E+02, 1.623E+02, 1.236E+02, 1.484E+02, 1.628E+02,-1.162E+01, 1.517E-01, 3.274E-02, 2.005E+02
 5.300E+02, 1.431E+02, 1.447E+02, 1.210E+02, 1.490E+02, 1.593E+02, 1.212E+02, 1.489E+02, 1.640E+02,-9.989E+00, 1.508E-01, 3.321E-02, 1.991E+02
 5.400E+02, 1.434E+02, 1.453E+02, 1.217E+02, 1.474E+02, 1.611E+02, 1.225E+02, 1.494E+02, 1.641E+02,-8.768E+00, 1.501E-01, 3.361E-02, 1.989E+02
 5.500E+02, 1.441E+02, 1.451E+02, 1.216E+02, 1.475E+02, 1.633E+02, 1.244E+02, 1.492E+02, 1.618E+02,-8.004E+00, 1.492E-01, 3.409E-02, 2.009E+02
 5.600E+02, 1.440E+02, 1.445E+02, 1.230E+02, 1.468E+02, 1.623E+02, 1.252E+02, 1.491E+02, 1.592E+02,-1.014E+01, 1.489E-01, 3.427E-02, 1.992E+02
 5.700E+02, 1.443E+02, 1.444E+02, 1.228E+02, 1.485E+02, 1.618E+02, 1.257E+02, 1.487E+02, 1.586E+02,-1.026E+01, 1.481E-01, 3.471E-02, 2.003E+02
 5.800E+02, 1.437E+02, 1.452E+02, 1.226E+02, 1.471E+02, 1.615E+02, 1.247E+02, 1.505E+02, 1.604E+02,-1.009E+01, 1.474E-01, 3.514E-02, 1.992E+02
 5.900E+02, 1.454E+02, 1.454E+02, 1.240E+02, 1.494E+02, 1.627E+02, 1.255E+02, 1.506E+02, 1.600E+02,-1.010E+01, 1.464E-01, 3.568E-02, 1.967E+02
 6.000E+02, 1.448E+02, 1.465E+02, 1.234E+02, 1.494E+02, 1.616E+02, 1.284E+02, 1.499E+02, 1.611E+02,-1.006E+01, 1.454E-01, 3.621E-02, 1.997E+02
 6.100E+02, 1.450E+02, 1.477E+02, 1.249E+02, 1.481E+02, 1.621E+02, 1.248E+02, 1.520E+02, 1.663E+02,-1.074E+01, 1.445E-01, 3.673E-02, 1.999E+02
 6.200E+02, 1.468E+02, 1.464E+02, 1.241E+02, 1.502E+02, 1.660E+02, 1.269E+02, 1.513E+02, 1.609E+02,-9.266E+00, 1.439E-01, 3.704E-02, 1.991E+02
 6.300E+02, 1.449E+02, 1.474E+02, 1.220E+02, 1.484E+02, 1.644E+02, 1.289E+02, 1.519E+02, 1.613E+02,-9.092E+00, 1.432E-01, 3.749E-02, 1.994E+02
 6.400E+02, 1.443E+02, 1.485E+02, 1.223E+02, 1.485E+02, 1.622E+02, 1.261E+02, 1.551E+02, 1.644E+02,-8.132E+00, 1.422E-01, 3.804E-02, 1.992E+02
 6.500E+02, 1.434E+02, 1.466E+02, 1.212E+02, 1.483E+02, 1.606E+02, 1.265E+02, 1.535E+02, 1.599E+02,-9.842E+00, 1.416E-01, 3.835E-02, 1.988E+02
 6.600E+02, 1.434E+02, 1.477E+02, 1.220E+02, 1.468E+02, 1.615E+02, 1.273E+02, 1.518E+02, 1.640E+02,-7.061E+00, 1.405E-01, 3.895E-02, 1.994E+02
 6.700E+02, 1.440E+02, 1.467E+02, 1.247E+02, 1.463E+02, 1.609E+02, 1.262E+02, 1.495E+02, 1.643E+02,-1.013E+01, 1.396E-01, 3.949E-02, 2.006E+02
 6.800E+02, 1.452E+02, 1.481E+02, 1.236E+02, 1.483E+02, 1.637E+02, 1.272E+02, 1.510E+02, 1.661E+02,-1.053E+01, 1.393E-01, 3.962E-02, 1.977E+02
 6.900E+02, 1.451E+02, 1.476E+02, 1.235E+02, 1.480E+02, 1.637E+02, 1.280E+02, 1.522E+02, 1.627E+02,-1.150E+01, 1.384E-01, 4.013E-02, 1.989E+02
 7.000E+02, 1.454E+02, 1.505E+02, 1.232E+02, 1.506E+02, 1.625E+02, 1.316E+02, 1.561E+02, 1.639E+02,-8.933E+00, 1.381E-01, 4.033E-02, 1.998E+02
 7.100E+02, 1.453E+02, 1.479E+02, 1.239E+02, 1.477E+02, 1.643E+02, 1.279E+02, 1.522E+02, 1.636E+02,-8.701E+00, 1.375E-01, 4.067E-02, 2.009E+02
 7.200E+02, 1.458E+02, 1.509E+02, 1.235E+02, 1.500E+02, 1.638E+02, 1.299E+02, 1.580E+02, 1.647E+02,-8.629E+00, 1.366E-01, 4.114E-02, 1.991E+02
 7.300E+02, 1.458E+02, 1.488E+02, 1.234E+02, 1.484E+02, 1.656E+02, 1.278E+02, 1.542E+02, 1.643E+02,-1.018E+01, 1.359E-01, 4.154E-02, 1.990E+02
 7.400E+02, 1.464E+02, 1.506E+02, 1.246E+02, 1.496E+02, 1.651E+02, 1.300E+02, 1.553E+02, 1.667E+02,-1.170E+01, 1.349E-01, 4.211E-02, 1.970E+02
 7.500E+02, 1.463E+02, 1.487E+02, 1.256E+02, 1.494E+02, 1.639E+02, 1.277E+02, 1.532E+02, 1.653E+02,-9.623E+00, 1.342E-01, 4.248E-02, 2.015E+02
 7.600E+02, 1.464E+02, 1.481E+02, 1.242E+02, 1.498E+02, 1.653E+02, 1.268E+02, 1.522E+02, 1.652E+02,-1.344E+01, 1.337E-01, 4.280E-02, 1.963E+02
 7.700E+02, 1.480E+02, 1.464E+02, 1.249E+02, 1.524E+02, 1.668E+02, 1.262E+02, 1.506E+02, 1.624E+02,-9.610E+00, 1.335E-01, 4.287E-02, 1.979E+02
 7.800E+02, 1.474E+02, 1.479E+02, 1.241E+02, 1.518E+02, 1.663E+02, 1.295E+02, 1.505E+02, 1.637E+02,-1.023E+01, 1.326E-01, 4.337E-02, 1.977E+02
 7.900E+02, 1.502E+02, 1.477E+02, 1.272E+02, 1.554E+02, 1.680E+02, 1.282E+02, 1.529E+02, 1.620E+02,-1.089E+01, 1.320E-01, 4.369E-02, 1.988E+02
 8.000E+02, 1.498E+02, 1.474E+02, 1.264E+02, 1.577E+02, 1.652E+02, 1.280E+02, 1.518E+02, 1.624E+02,-1.329E+01, 1.315E-01, 4.398E-02, 1.926E+02
 8.100E+02, 1.470E+02, 1.478E+02, 1.246E+02, 1.512E+02, 1.653E+02, 1.279E+02, 1.514E+02, 1.642E+02,-1.215E+01, 1.309E-01, 4.432E-02, 1.961E+02
 8.200E+02, 1.472E+02, 1.497E+02, 1.261E+02, 1.507E+02, 1.648E+02, 1.304E+02, 1.547E+02, 1.640E+02,-1.321E+01, 1.305E-01, 4.453E-02, 1.968E+02
 8.300E+02, 1.474E+02, 1.506E+02, 1.254E+02, 1.514E+02, 1.654E+02, 1.297E+02, 1.562E+02, 1.659E+02,-8.987E+00, 1.299E-01, 4.490E-02, 1.962E+02
 8.400E+02, 1.480E+02, 1.529E+02, 1.254E+02, 1.545E+02, 1.642E+02, 1.316E+02, 1.572E+02, 1.699E+02,-8.320E+00, 1.290E-01, 4.536E-02, 1.972E+02
 8.500E+02, 1.489E+02, 1.514E+02, 1.258E+02, 1.514E+02, 1.696E+02, 1.294E+02, 1.586E+02, 1.661E+02,-1.458E+01, 1.286E-01, 4.560E-02, 1.916E+02
 8.600E+02, 1.492E+02, 1.522E+02, 1.253E+02, 1.524E+02, 1.699E+02, 1.329E+02, 1.594E+02, 1.643E+02,-8.092E+00, 1.285E-01, 4.567E-02, 1.961E+02
 8.700E+02, 1.488E+02, 1.525E+02, 1.255E+02, 1.528E+02, 1.681E+02, 1.350E+02, 1.598E+02, 1.626E+02,-1.352E+01, 1.281E-01, 4.590E-02, 1.919E+02
 8.800E+02, 1.482E+02, 1.524E+02, 1.243E+02, 1.518E+02, 1.684E+02, 1.377E+02, 1.579E+02, 1.617E+02,-1.600E+01, 1.279E-01, 4.599E-02, 1.902E+02
 8.900E+02, 1.466E+02, 1.501E+02, 1.244E+02, 1.494E+02, 1.662E+02, 1.387E+02, 1.526E+02, 1.592E+02,-1.860E+01, 1.277E-01, 4.607E-02, 1.847E+02
 9.000E+02, 1.478E+02, 1.499E+02, 1.237E+02, 1.523E+02, 1.673E+02, 1.353E+02, 1.521E+02, 1.622E+02,-1.087E+01, 1.275E-01, 4.623E-02, 1.944E+02
 9.100E+02, 1.466E+02, 1.505E+02, 1.230E+02, 1.494E+02, 1.674E+02, 1.347E+02, 1.539E+02, 1.630E+02,-1.717E+01, 1.271E-01, 4.645E-02, 1.799E+02
 9.200E+02, 1.464E+02, 1.486E+02, 1.243E+02, 1.498E+02, 1.652E+02, 1.337E+02, 1.514E+02, 1.609E+02,-1.565E+01, 1.268E-01, 4.659E-02, 1.871E+02
 9.300E+02, 1.460E+02, 1.488E+02, 1.258E+02, 1.501E+02, 1.622E+02, 1.316E+02, 1.525E+02, 1.624E+02,-2.819E+01, 1.265E-01, 4.673E-02, 1.664E+02
 9.400E+02, 1.437E+02, 1.483E+02, 1.261E+02, 1.464E+02, 1.586E+02, 1.322E+02, 1.507E+02, 1.621E+02,-2.194E+01, 1.266E-01, 4.667E-02, 1.787E+02
 9.500E+02, 1.425E+02, 1.460E+02, 1.258E+02, 1.448E+02, 1.569E+02, 1.272E+02, 1.495E+02, 1.612E+02,-5.026E+01, 1.264E-01, 4.679E-02, 1.469E+02
 9.600E+02, 1.418E+02, 1.488E+02, 1.260E+02, 1.436E+02, 1.558E+02, 1.300E+02, 1.525E+02, 1.638E+02,-8.729E+00, 1.270E-01, 4.643E-02, 1.888E+02
 9.700E+02, 1.446E+02, 1.479E+02, 1.272E+02, 1.507E+02, 1.558E+02, 1.290E+02, 1.511E+02, 1.636E+02,-4.775E+01, 1.266E-01, 4.664E-02, 1.478E+02
 9.800E+02, 1.418E+02, 1.492E+02, 1.285E+02, 1.455E+02, 1.512E+02, 1.304E+02, 1.546E+02, 1.626E+02,-4.983E+01, 1.275E-01, 4.609E-02, 1.549E+02
 9.900E+02, 1.432E+02, 1.489E+02, 1.326E+02, 1.454E+02, 1.515E+02, 1.299E+02, 1.503E+02, 1.666E+02, 1.319E+01, 1.271E-01, 4.630E-02, 1.847E+02
 1.000E+03, 1.452E+02, 1.497E+02, 1.385E+02, 1.452E+02, 1.520E+02, 1.297E+02, 1.523E+02, 1.671E+02,-4.263E+01, 1.274E-01, 4.609E-02, 1.543E+02
 1.010E+03, 1.443E+02, 1.579E+02, 1.377E+02, 1.458E+02, 1.495E+02, 1.414E+02, 1.599E+02, 1.723E+02,-1.906E+01, 1.276E-01, 4.602E-02, 1.554E+02
 1.020E+03, 1.415E+02, 1.503E+02, 1.337E+02, 1.445E+02, 1.463E+02, 1.347E+02, 1.557E+02, 1.606E+02,-4.709E+01, 1.287E-01, 4.529E-02, 1.207E+02
 1.030E+03, 1.409E+02, 1.478E+02, 1.338E+02, 1.423E+02, 1.466E+02, 1.342E+02, 1.515E+02, 1.577E+02,-7.173E+01, 1.285E-01, 4.546E-02, 1.234E+02
 1.040E+03, 1.405E+02, 1.427E+02, 1.331E+02, 1.418E+02, 1.466E+02, 1.310E+02, 1.447E+02, 1.524E+02,-4.059E+01, 1.291E-01, 4.505E-02, 1.383E+02
 1.050E+03, 1.408E+02, 1.430E+02, 1.310E+02, 1.438E+02, 1.476E+02, 1.338E+02, 1.425E+02, 1.526E+02,-4.673E+00, 1.291E-01, 4.508E-02, 1.454E+02
 1.060E+03, 1.388E+02, 1.722E+02, 1.294E+02, 1.421E+02, 1.450E+02, 1.747E+02, 1.713E+02, 1.705E+02,-2.508E+01, 1.306E-01, 4.429E-02, 1.124E+02
 1.070E+03, 1.387E+02, 1.483E+02, 1.282E+02, 1.410E+02, 1.469E+02, 1.325E+02, 1.545E+02, 1.578E+02,-7.650E+01, 1.311E-01, 4.397E-02, 4.911E+01
 1.080E+03, 1.395E+02, 1.503E+02, 1.288E+02, 1.415E+02, 1.482E+02, 1.377E+02, 1.481E+02, 1.651E+02, 1.023E+01, 1.292E-01, 4.495E-02, 1.511E+02
 1.090E+03, 1.407E+02, 1.646E+02, 1.290E+02, 1.431E+02, 1.502E+02, 1.570E+02, 1.659E+02, 1.710E+02,-5.188E+01, 1.292E-01, 4.500E-02, 1.246E+02
 1.100E+03, 1.430E+02, 1.561E+02, 1.347E+02, 1.448E+02, 1.494E+02, 1.554E+02, 1.558E+02, 1.571E+02,-3.317E+01, 1.303E-01, 4.435E-02, 1.261E+02
 1.110E+03, 1.425E+02, 1.510E+02, 1.350E+02, 1.435E+02, 1.491E+02, 1.440E+02, 1.500E+02, 1.591E+02,-3.112E+01, 1.311E-01, 4.397E-02, 1.775E+01
 1.120E+03, 1.464E+02, 1.426E+02, 1.374E+02, 1.489E+02, 1.531E+02, 1.292E+02, 1.431E+02, 1.554E+02,-2.222E+01, 1.302E-01, 4.446E-02, 1.922E-02
 1.130E+03, 1.431E+02, 1.449E+02, 1.270E+02, 1.465E+02, 1.557E+02, 1.339E+02, 1.426E+02, 1.582E+02, 2.300E+01, 1.297E-01, 4.468E-02, 7.021E+01
 1.140E+03, 1.396E+02, 1.454E+02, 1.264E+02, 1.435E+02, 1.488E+02, 1.380E+02, 1.411E+02, 1.572E+02,-1.702E+01, 1.315E-01, 4.374E-02, 8.755E+00
 1.150E+03, 1.444E+02, 1.431E+02, 1.346E+02, 1.458E+02, 1.528E+02, 1.330E+02, 1.403E+02, 1.559E+02,-4.751E+01, 1.309E-01, 4.410E-02, 2.328E-01
 1.160E+03, 1.387E+02, 1.425E+02, 1.246E+02, 1.428E+02, 1.486E+02, 1.355E+02, 1.417E+02, 1.501E+02,-3.527E+01, 1.308E-01, 4.411E-02, 6.209E+01
 1.170E+03, 1.443E+02, 1.701E+02, 1.309E+02, 1.477E+02, 1.543E+02, 1.527E+02, 1.833E+02, 1.744E+02, 1.087E+02, 1.320E-01, 4.344E-02, 5.547E+01
 1.180E+03, 1.492E+02, 1.831E+02, 1.409E+02, 1.500E+02, 1.566E+02, 1.813E+02, 1.899E+02, 1.782E+02,-1.295E+01, 1.308E-01, 4.406E-02, 4.776E+01
 1.190E+03, 1.469E+02, 1.585E+02, 1.358E+02, 1.502E+02, 1.546E+02, 1.467E+02, 1.577E+02, 1.711E+02,-5.272E+01, 1.296E-01, 4.464E-02, 8.061E+01
 1.200E+03, 1.427E+02, 1.506E+02, 1.329E+02, 1.466E+02, 1.484E+02, 1.394E+02, 1.534E+02, 1.591E+02,-4.954E+01, 1.317E-01, 4.353E-02, 2.747E+01
 1.210E+03, 1.474E+02, 1.433E+02, 1.388E+02, 1.482E+02, 1.553E+02, 1.302E+02, 1.434E+02, 1.564E+02,-2.636E+01, 1.317E-01, 4.361E-02, 1.292E+00
 1.220E+03, 1.416E+02, 1.566E+02, 1.312E+02, 1.455E+02, 1.482E+02, 1.607E+02, 1.517E+02, 1.576E+02,-3.742E+01, 1.317E-01, 4.355E-02, 3.255E+01
 1.230E+03, 1.457E+02, 1.563E+02, 1.352E+02, 1.483E+02, 1.535E+02, 1.440E+02, 1.547E+02, 1.704E+02, 4.419E+01, 1.305E-01, 4.412E-02, 4.722E+01
 1.240E+03, 1.474E+02, 1.453E+02, 1.315E+02, 1.527E+02, 1.579E+02, 1.290E+02, 1.458E+02, 1.611E+02,-1.473E+01, 1.305E-01, 4.421E-02, 0.000E+00
 1.250E+03, 1.434E+02, 1.947E+02, 1.285E+02, 1.492E+02, 1.526E+02, 1.806E+02, 2.175E+02, 1.861E+02, 7.441E+01, 1.304E-01, 4.428E-02, 5.387E+01
 1.260E+03, 1.477E+02, 1.567E+02, 1.305E+02, 1.533E+02, 1.592E+02, 1.376E+02, 1.577E+02, 1.746E+02,-1.646E+01, 1.294E-01, 4.475E-02, 0.000E+00
 1.270E+03, 1.462E+02, 1.618E+02, 1.287E+02, 1.518E+02, 1.581E+02, 1.527E+02, 1.630E+02, 1.696E+02,-3.209E+01, 1.297E-01, 4.465E-02, 0.000E+00
 1.280E+03, 1.501E+02, 1.486E+02, 1.397E+02, 1.530E+02, 1.576E+02, 1.343E+02, 1.482E+02, 1.634E+02,-2.537E+01, 1.299E-01, 4.450E-02, 0.000E+00
 1.290E+03, 1.462E+02, 1.599E+02, 1.300E+02, 1.507E+02, 1.580E+02, 1.535E+02, 1.548E+02, 1.714E+02,-5.765E+00, 1.287E-01, 4.505E-02, 1.182E+02
 1.300E+03, 1.468E+02, 1.613E+02, 1.320E+02, 1.520E+02, 1.563E+02, 1.559E+02, 1.605E+02, 1.674E+02, 1.445E+01, 1.295E-01, 4.464E-02, 3.265E+01
 1.310E+03, 1.504E+02, 1.596E+02, 1.378E+02, 1.541E+02, 1.592E+02, 1.544E+02, 1.569E+02, 1.674E+02, 5.686E+00, 1.286E-01, 4.516E-02, 1.573E-01
