s,C,C,C,C,C,C,C,C,Pa,mol/mol,mol/mol,kW
Time,"West_All_TCs","East_All_TCs","West_Bottom_TCs","West_Middle_TCs","West_Upper_TCs","East_Bottom_TCs","East_Middle_TCs","East_Upper_TCs","Pressure","O2","CO2","HRR"
-6.000E+01, 2.500E+01, 2.500E+01, 2.500E+01, 2.500E+01, 2.500E+01, 2.500E+01, 2.500E+01, 2.500E+01,-9.627E-06, 2.095E-01, 3.901E-04, 0.000E+00
-5.000E+01, 2.484E+01, 2.486E+01, 2.486E+01, 2.484E+01, 2.483E+01, 2.487E+01, 2.485E+01, 2.486E+01,-2.575E+02, 2.095E-01, 3.901E-04, 0.000E+00
-4.000E+01, 2.479E+01, 2.483E+01, 2.480E+01, 2.479E+01, 2.479E+01, 2.486E+01, 2.481E+01, 2.481E+01,-2.758E+02, 2.095E-01, 3.901E-04, 0.000E+00
-3.000E+01, 2.478E+01, 2.482E+01, 2.479E+01, 2.478E+01, 2.479E+01, 2.485E+01, 2.480E+01, 2.481E+01,-2.759E+02, 2.095E-01, 3.901E-04, 0.000E+00
-2.000E+01, 2.479E+01, 2.484E+01, 2.479E+01, 2.480E+01, 2.479E+01, 2.485E+01, 2.484E+01, 2.482E+01,-2.761E+02, 2.095E-01, 3.901E-04, 0.000E+00
-1.000E+01, 2.481E+01, 2.486E+01, 2.481E+01, 2.484E+01, 2.480E+01, 2.491E+01, 2.486E+01, 2.482E+01,-2.761E+02, 2.095E-01, 3.901E-04, 0.000E+00
 2.502E-02, 2.483E+01, 2.488E+01, 2.483E+01, 2.484E+01, 2.481E+01, 2.495E+01, 2.488E+01, 2.482E+01,-2.762E+02, 2.095E-01, 3.901E-04, 5.536E-05
 1.003E+01, 2.530E+01, 2.551E+01, 2.514E+01, 2.590E+01, 2.485E+01, 2.525E+01, 2.641E+01, 2.487E+01,-2.357E+02, 2.095E-01, 3.901E-04, 1.624E+01
 2.002E+01, 2.742E+01, 2.707E+01, 2.583E+01, 3.110E+01, 2.534E+01, 2.630E+01, 3.002E+01, 2.491E+01,-1.574E+02, 2.095E-01, 3.901E-04, 4.960E+01
 3.002E+01, 3.103E+01, 3.163E+01, 2.736E+01, 3.919E+01, 2.655E+01, 3.068E+01, 3.927E+01, 2.493E+01,-1.002E+02, 2.095E-01, 3.901E-04, 8.293E+01
 4.000E+01, 3.644E+01, 3.662E+01, 3.033E+01, 5.094E+01, 2.804E+01, 3.275E+01, 5.211E+01, 2.499E+01,-8.669E+01, 2.095E-01, 3.955E-04, 9.986E+01
 5.000E+01, 4.187E+01, 4.220E+01, 3.607E+01, 6.008E+01, 2.947E+01, 3.793E+01, 6.220E+01, 2.645E+01,-9.686E+01, 2.093E-01, 5.392E-04, 9.977E+01
 6.001E+01, 4.680E+01, 4.723E+01, 3.974E+01, 6.858E+01, 3.208E+01, 4.176E+01, 6.952E+01, 3.042E+01,-1.165E+02, 2.086E-01, 9.337E-04, 1.004E+02
 7.001E+01, 5.046E+01, 5.160E+01, 4.461E+01, 7.373E+01, 3.304E+01, 4.680E+01, 7.529E+01, 3.271E+01,-1.285E+02, 2.083E-01, 1.064E-03, 1.002E+02
 8.000E+01, 5.583E+01, 5.508E+01, 4.962E+01, 8.115E+01, 3.672E+01, 4.966E+01, 8.038E+01, 3.522E+01,-1.436E+02, 2.079E-01, 1.297E-03, 9.990E+01
 9.001E+01, 5.863E+01, 6.001E+01, 5.357E+01, 8.318E+01, 3.913E+01, 5.680E+01, 8.565E+01, 3.758E+01,-1.624E+02, 2.075E-01, 1.523E-03, 1.003E+02
 1.000E+02, 6.159E+01, 6.216E+01, 5.733E+01, 8.560E+01, 4.183E+01, 5.937E+01, 8.760E+01, 3.952E+01,-1.808E+02, 2.072E-01, 1.695E-03, 9.971E+01
 1.100E+02, 6.342E+01, 6.650E+01, 5.950E+01, 8.764E+01, 4.312E+01, 6.565E+01, 9.266E+01, 4.119E+01,-1.877E+02, 2.069E-01, 1.871E-03, 9.998E+01
 1.200E+02, 6.570E+01, 6.808E+01, 6.217E+01, 9.046E+01, 4.447E+01, 6.741E+01, 9.363E+01, 4.320E+01,-1.988E+02, 2.065E-01, 2.086E-03, 1.003E+02
 1.300E+02, 6.683E+01, 6.999E+01, 6.361E+01, 9.130E+01, 4.558E+01, 7.090E+01, 9.496E+01, 4.410E+01,-2.083E+02, 2.062E-01, 2.281E-03, 9.967E+01
 1.400E+02, 6.820E+01, 7.226E+01, 6.538E+01, 9.243E+01, 4.678E+01, 7.317E+01, 9.775E+01, 4.585E+01,-2.179E+02, 2.058E-01, 2.507E-03, 9.982E+01
 1.500E+02, 6.938E+01, 7.232E+01, 6.701E+01, 9.274E+01, 4.838E+01, 7.442E+01, 9.616E+01, 4.638E+01,-2.224E+02, 2.056E-01, 2.592E-03, 1.008E+02
 1.600E+02, 7.059E+01, 7.442E+01, 6.761E+01, 9.421E+01, 4.993E+01, 7.732E+01, 9.745E+01, 4.850E+01,-2.306E+02, 2.050E-01, 2.946E-03, 1.000E+02
 1.700E+02, 7.134E+01, 7.555E+01, 6.830E+01, 9.473E+01, 5.100E+01, 7.770E+01, 9.992E+01, 4.904E+01,-2.354E+02, 2.047E-01, 3.106E-03, 9.965E+01
 1.800E+02, 7.260E+01, 7.514E+01, 6.959E+01, 9.597E+01, 5.223E+01, 7.618E+01, 1.009E+02, 4.837E+01,-2.459E+02, 2.044E-01, 3.254E-03, 1.004E+02
 1.900E+02, 7.368E+01, 7.580E+01, 7.055E+01, 9.708E+01, 5.342E+01, 7.695E+01, 1.015E+02, 4.892E+01,-2.468E+02, 2.037E-01, 3.637E-03, 1.000E+02
 2.000E+02, 7.434E+01, 7.692E+01, 7.065E+01, 9.988E+01, 5.249E+01, 7.838E+01, 1.021E+02, 5.026E+01,-2.445E+02, 2.034E-01, 3.839E-03, 1.002E+02
 2.100E+02, 7.460E+01, 7.751E+01, 7.096E+01, 9.929E+01, 5.356E+01, 7.826E+01, 1.034E+02, 5.084E+01,-2.439E+02, 2.030E-01, 4.041E-03, 1.001E+02
 2.200E+02, 7.461E+01, 7.830E+01, 7.244E+01, 9.945E+01, 5.193E+01, 7.921E+01, 1.038E+02, 5.195E+01,-2.518E+02, 2.027E-01, 4.218E-03, 1.000E+02
 2.300E+02, 7.490E+01, 7.835E+01, 7.244E+01, 9.958E+01, 5.268E+01, 8.017E+01, 1.031E+02, 5.176E+01,-2.495E+02, 2.024E-01, 4.382E-03, 1.001E+02
 2.400E+02, 7.483E+01, 7.948E+01, 7.199E+01, 1.000E+02, 5.245E+01, 8.154E+01, 1.042E+02, 5.270E+01,-2.610E+02, 2.019E-01, 4.672E-03, 9.995E+01
 2.500E+02, 7.515E+01, 7.803E+01, 7.209E+01, 1.004E+02, 5.295E+01, 8.068E+01, 1.010E+02, 5.244E+01,-2.519E+02, 2.017E-01, 4.759E-03, 1.003E+02
 2.600E+02, 7.575E+01, 7.841E+01, 7.245E+01, 1.017E+02, 5.312E+01, 7.966E+01, 1.029E+02, 5.268E+01,-2.547E+02, 2.014E-01, 4.943E-03, 9.965E+01
 2.700E+02, 7.559E+01, 7.912E+01, 7.285E+01, 1.001E+02, 5.380E+01, 8.013E+01, 1.051E+02, 5.217E+01,-2.472E+02, 2.012E-01, 5.055E-03, 1.002E+02
 2.800E+02, 7.656E+01, 7.994E+01, 7.340E+01, 1.010E+02, 5.526E+01, 8.058E+01, 1.054E+02, 5.381E+01,-2.435E+02, 2.006E-01, 5.371E-03, 9.986E+01
 2.900E+02, 7.671E+01, 7.931E+01, 7.335E+01, 1.014E+02, 5.538E+01, 8.026E+01, 1.046E+02, 5.310E+01,-2.499E+02, 2.005E-01, 5.444E-03, 1.001E+02
 3.000E+02, 7.738E+01, 7.979E+01, 7.337E+01, 1.032E+02, 5.561E+01, 8.094E+01, 1.060E+02, 5.240E+01,-2.497E+02, 2.002E-01, 5.621E-03, 1.006E+02
 3.100E+02, 7.698E+01, 8.054E+01, 7.315E+01, 1.029E+02, 5.492E+01, 8.103E+01, 1.061E+02, 5.452E+01,-2.548E+02, 1.994E-01, 6.035E-03, 9.997E+01
 3.200E+02, 7.763E+01, 8.085E+01, 7.389E+01, 1.036E+02, 5.539E+01, 8.260E+01, 1.055E+02, 5.447E+01,-2.552E+02, 1.994E-01, 6.052E-03, 9.958E+01
 3.300E+02, 7.735E+01, 8.106E+01, 7.405E+01, 1.018E+02, 5.617E+01, 8.347E+01, 1.063E+02, 5.340E+01,-2.488E+02, 1.992E-01, 6.165E-03, 1.006E+02
 3.400E+02, 7.812E+01, 8.068E+01, 7.396E+01, 1.043E+02, 5.611E+01, 8.239E+01, 1.058E+02, 5.389E+01,-2.519E+02, 1.988E-01, 6.376E-03, 9.972E+01
 3.500E+02, 7.839E+01, 8.128E+01, 7.497E+01, 1.028E+02, 5.741E+01, 8.259E+01, 1.073E+02, 5.390E+01,-2.522E+02, 1.986E-01, 6.500E-03, 1.001E+02
 3.600E+02, 7.824E+01, 8.194E+01, 7.484E+01, 1.021E+02, 5.783E+01, 8.191E+01, 1.092E+02, 5.474E+01,-2.469E+02, 1.984E-01, 6.618E-03, 1.004E+02
 3.700E+02, 7.842E+01, 8.175E+01, 7.581E+01, 1.024E+02, 5.708E+01, 8.362E+01, 1.072E+02, 5.444E+01,-2.515E+02, 1.982E-01, 6.721E-03, 1.002E+02
 3.800E+02, 7.805E+01, 8.252E+01, 7.561E+01, 1.024E+02, 5.612E+01, 8.419E+01, 1.096E+02, 5.374E+01,-2.528E+02, 1.980E-01, 6.820E-03, 1.000E+02
 3.900E+02, 7.804E+01, 8.126E+01, 7.584E+01, 1.030E+02, 5.524E+01, 8.265E+01, 1.075E+02, 5.366E+01,-2.503E+02, 1.979E-01, 6.881E-03, 9.997E+01
 4.000E+02, 7.907E+01, 8.236E+01, 7.589E+01, 1.042E+02, 5.716E+01, 8.477E+01, 1.082E+02, 5.412E+01,-2.477E+02, 1.977E-01, 7.000E-03, 9.996E+01
 4.100E+02, 7.832E+01, 8.217E+01, 7.528E+01, 1.042E+02, 5.544E+01, 8.481E+01, 1.077E+02, 5.402E+01,-2.497E+02, 1.976E-01, 7.068E-03, 1.006E+02
 4.200E+02, 7.998E+01, 8.161E+01, 7.572E+01, 1.075E+02, 5.672E+01, 8.362E+01, 1.062E+02, 5.497E+01,-2.418E+02, 1.973E-01, 7.228E-03, 9.973E+01
 4.300E+02, 7.929E+01, 8.312E+01, 7.597E+01, 1.055E+02, 5.638E+01, 8.458E+01, 1.090E+02, 5.574E+01,-2.422E+02, 1.970E-01, 7.376E-03, 1.003E+02
 4.400E+02, 7.957E+01, 8.282E+01, 7.647E+01, 1.054E+02, 5.683E+01, 8.451E+01, 1.085E+02, 5.543E+01,-2.395E+02, 1.969E-01, 7.445E-03, 1.000E+02
 4.500E+02, 7.978E+01, 8.381E+01, 7.614E+01, 1.065E+02, 5.672E+01, 8.604E+01, 1.089E+02, 5.653E+01,-2.433E+02, 1.965E-01, 7.661E-03, 9.997E+01
 4.600E+02, 8.073E+01, 8.281E+01, 7.673E+01, 1.070E+02, 5.847E+01, 8.464E+01, 1.076E+02, 5.617E+01,-2.468E+02, 1.966E-01, 7.627E-03, 9.974E+01
 4.700E+02, 8.093E+01, 8.349E+01, 7.689E+01, 1.079E+02, 5.800E+01, 8.585E+01, 1.097E+02, 5.489E+01,-2.429E+02, 1.965E-01, 7.657E-03, 1.003E+02
 4.800E+02, 8.100E+01, 8.492E+01, 7.633E+01, 1.077E+02, 5.899E+01, 8.719E+01, 1.108E+02, 5.682E+01,-2.487E+02, 1.962E-01, 7.865E-03, 1.004E+02
 4.900E+02, 8.128E+01, 8.463E+01, 7.676E+01, 1.086E+02, 5.847E+01, 8.641E+01, 1.108E+02, 5.669E+01,-2.502E+02, 1.961E-01, 7.918E-03, 1.002E+02
 5.000E+02, 8.166E+01, 8.371E+01, 7.660E+01, 1.075E+02, 6.084E+01, 8.562E+01, 1.096E+02, 5.589E+01,-2.463E+02, 1.960E-01, 7.962E-03, 9.977E+01
 5.100E+02, 8.094E+01, 8.378E+01, 7.783E+01, 1.065E+02, 5.851E+01, 8.483E+01, 1.101E+02, 5.637E+01,-2.484E+02, 1.958E-01, 8.061E-03, 1.002E+02
 5.200E+02, 8.097E+01, 8.432E+01, 7.789E+01, 1.066E+02, 5.839E+01, 8.481E+01, 1.116E+02, 5.656E+01,-2.424E+02, 1.958E-01, 8.081E-03, 1.006E+02
 5.300E+02, 8.066E+01, 8.483E+01, 7.795E+01, 1.061E+02, 5.792E+01, 8.635E+01, 1.119E+02, 5.622E+01,-2.417E+02, 1.958E-01, 8.070E-03, 9.965E+01
 5.400E+02, 8.087E+01, 8.422E+01, 7.820E+01, 1.059E+02, 5.854E+01, 8.603E+01, 1.101E+02, 5.650E+01,-2.439E+02, 1.957E-01, 8.142E-03, 1.002E+02
 5.500E+02, 8.152E+01, 8.498E+01, 7.905E+01, 1.078E+02, 5.773E+01, 8.684E+01, 1.123E+02, 5.577E+01,-2.441E+02, 1.956E-01, 8.155E-03, 9.987E+01
 5.600E+02, 8.150E+01, 8.527E+01, 7.822E+01, 1.088E+02, 5.747E+01, 8.731E+01, 1.127E+02, 5.577E+01,-2.472E+02, 1.955E-01, 8.227E-03, 1.002E+02
 5.700E+02, 8.100E+01, 8.495E+01, 7.822E+01, 1.081E+02, 5.669E+01, 8.748E+01, 1.111E+02, 5.626E+01,-2.461E+02, 1.955E-01, 8.236E-03, 1.001E+02
 5.800E+02, 8.146E+01, 8.480E+01, 7.880E+01, 1.080E+02, 5.761E+01, 8.757E+01, 1.093E+02, 5.750E+01,-2.394E+02, 1.954E-01, 8.306E-03, 9.966E+01
 5.900E+02, 8.172E+01, 8.504E+01, 7.862E+01, 1.094E+02, 5.711E+01, 8.624E+01, 1.107E+02, 5.814E+01,-2.435E+02, 1.953E-01, 8.330E-03, 1.005E+02
 6.000E+02, 8.107E+01, 8.473E+01, 7.839E+01, 1.080E+02, 5.687E+01, 8.521E+01, 1.120E+02, 5.696E+01,-2.389E+02, 1.953E-01, 8.350E-03, 1.001E+02
 6.100E+02, 8.196E+01, 8.488E+01, 7.870E+01, 1.083E+02, 5.892E+01, 8.671E+01, 1.113E+02, 5.660E+01,-2.411E+02, 1.953E-01, 8.361E-03, 9.987E+01
 6.200E+02, 8.239E+01, 8.544E+01, 7.900E+01, 1.091E+02, 5.903E+01, 8.787E+01, 1.108E+02, 5.766E+01,-2.444E+02, 1.952E-01, 8.433E-03, 1.005E+02
 6.300E+02, 8.235E+01, 8.605E+01, 7.963E+01, 1.096E+02, 5.784E+01, 8.695E+01, 1.144E+02, 5.678E+01,-2.473E+02, 1.952E-01, 8.379E-03, 9.933E+01
 6.400E+02, 8.169E+01, 8.571E+01, 7.968E+01, 1.082E+02, 5.721E+01, 8.732E+01, 1.133E+02, 5.652E+01,-2.354E+02, 1.951E-01, 8.441E-03, 1.003E+02
 6.500E+02, 8.260E+01, 8.676E+01, 8.051E+01, 1.091E+02, 5.822E+01, 8.841E+01, 1.133E+02, 5.862E+01,-2.342E+02, 1.951E-01, 8.468E-03, 1.003E+02
 6.600E+02, 8.334E+01, 8.631E+01, 8.067E+01, 1.098E+02, 5.960E+01, 8.866E+01, 1.128E+02, 5.742E+01,-2.436E+02, 1.951E-01, 8.450E-03, 1.004E+02
 6.700E+02, 8.376E+01, 8.567E+01, 8.001E+01, 1.113E+02, 5.999E+01, 8.752E+01, 1.124E+02, 5.705E+01,-2.506E+02, 1.951E-01, 8.486E-03, 1.003E+02
 6.800E+02, 8.303E+01, 8.591E+01, 7.963E+01, 1.095E+02, 5.994E+01, 8.859E+01, 1.117E+02, 5.739E+01,-2.384E+02, 1.949E-01, 8.553E-03, 9.999E+01
 6.900E+02, 8.329E+01, 8.632E+01, 7.974E+01, 1.113E+02, 5.882E+01, 8.601E+01, 1.142E+02, 5.877E+01,-2.399E+02, 1.949E-01, 8.547E-03, 1.001E+02
 7.000E+02, 8.366E+01, 8.727E+01, 8.003E+01, 1.109E+02, 6.009E+01, 8.819E+01, 1.149E+02, 5.869E+01,-2.347E+02, 1.949E-01, 8.565E-03, 1.003E+02
 7.100E+02, 8.448E+01, 8.666E+01, 8.124E+01, 1.104E+02, 6.178E+01, 8.787E+01, 1.140E+02, 5.805E+01,-2.397E+02, 1.949E-01, 8.561E-03, 1.000E+02
 7.200E+02, 8.427E+01, 8.784E+01, 8.110E+01, 1.113E+02, 6.039E+01, 8.935E+01, 1.157E+02, 5.848E+01,-2.408E+02, 1.948E-01, 8.618E-03, 1.000E+02
 7.300E+02, 8.469E+01, 8.785E+01, 8.139E+01, 1.118E+02, 6.085E+01, 8.831E+01, 1.156E+02, 5.968E+01,-2.365E+02, 1.947E-01, 8.677E-03, 1.001E+02
 7.400E+02, 8.405E+01, 8.790E+01, 8.087E+01, 1.109E+02, 6.040E+01, 8.932E+01, 1.151E+02, 5.924E+01,-2.497E+02, 1.947E-01, 8.709E-03, 1.002E+02
 7.500E+02, 8.439E+01, 8.691E+01, 8.092E+01, 1.115E+02, 6.070E+01, 8.820E+01, 1.132E+02, 5.928E+01,-2.415E+02, 1.947E-01, 8.701E-03, 1.003E+02
 7.600E+02, 8.393E+01, 8.723E+01, 8.106E+01, 1.102E+02, 6.056E+01, 8.890E+01, 1.134E+02, 5.940E+01,-2.427E+02, 1.947E-01, 8.697E-03, 1.001E+02
 7.700E+02, 8.418E+01, 8.688E+01, 8.087E+01, 1.116E+02, 6.004E+01, 8.711E+01, 1.145E+02, 5.900E+01,-2.408E+02, 1.947E-01, 8.686E-03, 1.001E+02
 7.800E+02, 8.404E+01, 8.744E+01, 8.200E+01, 1.104E+02, 5.974E+01, 8.922E+01, 1.151E+02, 5.797E+01,-2.427E+02, 1.947E-01, 8.680E-03, 1.001E+02
 7.900E+02, 8.448E+01, 8.815E+01, 8.141E+01, 1.120E+02, 6.005E+01, 9.017E+01, 1.156E+02, 5.871E+01,-2.437E+02, 1.947E-01, 8.711E-03, 1.000E+02
 8.000E+02, 8.469E+01, 8.903E+01, 8.161E+01, 1.130E+02, 5.944E+01, 9.034E+01, 1.173E+02, 5.948E+01,-2.323E+02, 1.947E-01, 8.697E-03, 1.001E+02
 8.100E+02, 8.529E+01, 8.916E+01, 8.129E+01, 1.143E+02, 6.024E+01, 9.132E+01, 1.165E+02, 5.966E+01,-2.348E+02, 1.946E-01, 8.753E-03, 9.977E+01
 8.200E+02, 8.483E+01, 8.886E+01, 8.266E+01, 1.115E+02, 6.033E+01, 9.095E+01, 1.157E+02, 5.997E+01,-2.363E+02, 1.946E-01, 8.762E-03, 1.000E+02
 8.300E+02, 8.490E+01, 8.801E+01, 8.301E+01, 1.110E+02, 6.073E+01, 9.165E+01, 1.133E+02, 5.905E+01,-2.414E+02, 1.945E-01, 8.781E-03, 9.988E+01
 8.400E+02, 8.467E+01, 8.923E+01, 8.251E+01, 1.104E+02, 6.108E+01, 9.156E+01, 1.169E+02, 5.924E+01,-2.370E+02, 1.946E-01, 8.749E-03, 1.003E+02
 8.500E+02, 8.535E+01, 8.928E+01, 8.351E+01, 1.118E+02, 6.079E+01, 9.140E+01, 1.168E+02, 5.969E+01,-2.329E+02, 1.945E-01, 8.825E-03, 1.005E+02
 8.600E+02, 8.616E+01, 8.826E+01, 8.328E+01, 1.138E+02, 6.139E+01, 8.960E+01, 1.160E+02, 5.917E+01,-2.371E+02, 1.945E-01, 8.792E-03, 1.002E+02
 8.700E+02, 8.608E+01, 8.841E+01, 8.269E+01, 1.134E+02, 6.221E+01, 9.043E+01, 1.147E+02, 6.005E+01,-2.359E+02, 1.944E-01, 8.829E-03, 9.982E+01
 8.800E+02, 8.629E+01, 8.946E+01, 8.208E+01, 1.153E+02, 6.148E+01, 9.091E+01, 1.166E+02, 6.087E+01,-2.417E+02, 1.944E-01, 8.843E-03, 9.999E+01
 8.900E+02, 8.640E+01, 8.948E+01, 8.274E+01, 1.137E+02, 6.272E+01, 9.216E+01, 1.161E+02, 6.022E+01,-2.380E+02, 1.944E-01, 8.874E-03, 1.006E+02
 9.000E+02, 8.646E+01, 8.897E+01, 8.252E+01, 1.138E+02, 6.310E+01, 9.105E+01, 1.154E+02, 6.043E+01,-2.395E+02, 1.943E-01, 8.901E-03, 1.001E+02
 9.100E+02, 8.605E+01, 8.884E+01, 8.252E+01, 1.127E+02, 6.292E+01, 9.066E+01, 1.151E+02, 6.077E+01,-2.422E+02, 1.944E-01, 8.851E-03, 9.980E+01
 9.200E+02, 8.569E+01, 8.835E+01, 8.155E+01, 1.135E+02, 6.202E+01, 9.006E+01, 1.139E+02, 6.107E+01,-2.336E+02, 1.943E-01, 8.909E-03, 1.003E+02
 9.300E+02, 8.691E+01, 8.954E+01, 8.209E+01, 1.144E+02, 6.426E+01, 9.164E+01, 1.167E+02, 6.030E+01,-2.420E+02, 1.944E-01, 8.843E-03, 1.001E+02
 9.400E+02, 8.611E+01, 8.898E+01, 8.281E+01, 1.131E+02, 6.243E+01, 9.051E+01, 1.166E+02, 5.985E+01,-2.407E+02, 1.943E-01, 8.896E-03, 9.991E+01
 9.500E+02, 8.701E+01, 8.991E+01, 8.248E+01, 1.145E+02, 6.404E+01, 9.109E+01, 1.180E+02, 6.062E+01,-2.307E+02, 1.943E-01, 8.921E-03, 9.996E+01
 9.600E+02, 8.600E+01, 8.987E+01, 8.227E+01, 1.135E+02, 6.220E+01, 9.098E+01, 1.177E+02, 6.094E+01,-2.390E+02, 1.943E-01, 8.933E-03, 1.006E+02
 9.700E+02, 8.674E+01, 9.003E+01, 8.401E+01, 1.145E+02, 6.170E+01, 9.223E+01, 1.169E+02, 6.098E+01,-2.332E+02, 1.943E-01, 8.912E-03, 9.996E+01
 9.800E+02, 8.681E+01, 9.057E+01, 8.389E+01, 1.134E+02, 6.314E+01, 9.200E+01, 1.188E+02, 6.089E+01,-2.330E+02, 1.942E-01, 8.955E-03, 1.002E+02
 9.900E+02, 8.757E+01, 9.019E+01, 8.437E+01, 1.140E+02, 6.430E+01, 9.251E+01, 1.171E+02, 6.100E+01,-2.341E+02, 1.943E-01, 8.918E-03, 1.000E+02
 1.000E+03, 8.712E+01, 8.994E+01, 8.365E+01, 1.148E+02, 6.289E+01, 9.184E+01, 1.176E+02, 6.035E+01,-2.376E+02, 1.942E-01, 8.937E-03, 1.001E+02
 1.010E+03, 8.776E+01, 9.072E+01, 8.352E+01, 1.157E+02, 6.401E+01, 9.097E+01, 1.188E+02, 6.242E+01,-2.383E+02, 1.942E-01, 8.968E-03, 1.005E+02
 1.020E+03, 8.723E+01, 9.071E+01, 8.366E+01, 1.159E+02, 6.214E+01, 9.194E+01, 1.179E+02, 6.234E+01,-2.357E+02, 1.941E-01, 8.994E-03, 1.001E+02
 1.030E+03, 8.709E+01, 9.140E+01, 8.398E+01, 1.139E+02, 6.343E+01, 9.294E+01, 1.190E+02, 6.228E+01,-2.354E+02, 1.943E-01, 8.936E-03, 9.991E+01
 1.040E+03, 8.768E+01, 9.069E+01, 8.445E+01, 1.146E+02, 6.397E+01, 9.274E+01, 1.175E+02, 6.183E+01,-2.386E+02, 1.941E-01, 8.998E-03, 1.000E+02
 1.050E+03, 8.728E+01, 8.974E+01, 8.428E+01, 1.142E+02, 6.337E+01, 9.142E+01, 1.173E+02, 6.055E+01,-2.345E+02, 1.941E-01, 8.995E-03, 1.002E+02
 1.060E+03, 8.836E+01, 9.101E+01, 8.455E+01, 1.151E+02, 6.546E+01, 9.263E+01, 1.185E+02, 6.189E+01,-2.328E+02, 1.942E-01, 8.979E-03, 1.005E+02
 1.070E+03, 8.792E+01, 9.159E+01, 8.441E+01, 1.160E+02, 6.333E+01, 9.325E+01, 1.188E+02, 6.271E+01,-2.388E+02, 1.942E-01, 8.975E-03, 9.994E+01
 1.080E+03, 8.778E+01, 9.034E+01, 8.494E+01, 1.160E+02, 6.236E+01, 9.253E+01, 1.163E+02, 6.220E+01,-2.345E+02, 1.942E-01, 8.963E-03, 9.996E+01
 1.090E+03, 8.862E+01, 9.092E+01, 8.414E+01, 1.160E+02, 6.576E+01, 9.208E+01, 1.184E+02, 6.230E+01,-2.312E+02, 1.942E-01, 8.968E-03, 1.004E+02
 1.100E+03, 8.922E+01, 9.158E+01, 8.531E+01, 1.180E+02, 6.440E+01, 9.295E+01, 1.187E+02, 6.308E+01,-2.364E+02, 1.941E-01, 9.018E-03, 9.981E+01
 1.110E+03, 8.820E+01, 9.179E+01, 8.477E+01, 1.161E+02, 6.372E+01, 9.339E+01, 1.194E+02, 6.258E+01,-2.332E+02, 1.941E-01, 9.015E-03, 9.983E+01
 1.120E+03, 8.867E+01, 9.208E+01, 8.516E+01, 1.159E+02, 6.498E+01, 9.326E+01, 1.193E+02, 6.372E+01,-2.333E+02, 1.940E-01, 9.057E-03, 1.004E+02
 1.130E+03, 8.840E+01, 9.180E+01, 8.486E+01, 1.165E+02, 6.388E+01, 9.286E+01, 1.188E+02, 6.372E+01,-2.354E+02, 1.941E-01, 9.017E-03, 9.995E+01
 1.140E+03, 8.877E+01, 9.250E+01, 8.493E+01, 1.166E+02, 6.482E+01, 9.275E+01, 1.217E+02, 6.309E+01,-2.327E+02, 1.941E-01, 9.035E-03, 1.003E+02
 1.150E+03, 8.841E+01, 9.237E+01, 8.434E+01, 1.161E+02, 6.481E+01, 9.390E+01, 1.191E+02, 6.413E+01,-2.328E+02, 1.941E-01, 9.040E-03, 9.999E+01
 1.160E+03, 8.876E+01, 9.263E+01, 8.580E+01, 1.159E+02, 6.456E+01, 9.285E+01, 1.205E+02, 6.459E+01,-2.271E+02, 1.940E-01, 9.061E-03, 9.997E+01
 1.170E+03, 8.900E+01, 9.245E+01, 8.554E+01, 1.164E+02, 6.505E+01, 9.460E+01, 1.186E+02, 6.415E+01,-2.339E+02, 1.940E-01, 9.054E-03, 1.002E+02
 1.180E+03, 8.916E+01, 9.266E+01, 8.496E+01, 1.162E+02, 6.633E+01, 9.512E+01, 1.192E+02, 6.366E+01,-2.404E+02, 1.940E-01, 9.062E-03, 9.986E+01
 1.190E+03, 8.968E+01, 9.144E+01, 8.545E+01, 1.170E+02, 6.655E+01, 9.220E+01, 1.185E+02, 6.363E+01,-2.370E+02, 1.940E-01, 9.054E-03, 1.004E+02
 1.200E+03, 8.971E+01, 9.198E+01, 8.617E+01, 1.168E+02, 6.615E+01, 9.278E+01, 1.195E+02, 6.370E+01,-2.393E+02, 1.941E-01, 9.034E-03, 9.996E+01
 1.210E+03, 8.944E+01, 9.231E+01, 8.538E+01, 1.180E+02, 6.490E+01, 9.419E+01, 1.193E+02, 6.339E+01,-2.359E+02, 1.941E-01, 9.031E-03, 9.984E+01
 1.220E+03, 8.923E+01, 9.251E+01, 8.512E+01, 1.184E+02, 6.420E+01, 9.404E+01, 1.189E+02, 6.461E+01,-2.285E+02, 1.940E-01, 9.067E-03, 1.002E+02
 1.230E+03, 9.079E+01, 9.291E+01, 8.552E+01, 1.196E+02, 6.727E+01, 9.381E+01, 1.201E+02, 6.476E+01,-2.287E+02, 1.940E-01, 9.077E-03, 1.002E+02
 1.240E+03, 8.952E+01, 9.339E+01, 8.494E+01, 1.179E+02, 6.572E+01, 9.386E+01, 1.218E+02, 6.446E+01,-2.304E+02, 1.940E-01, 9.064E-03, 1.006E+02
 1.250E+03, 8.948E+01, 9.357E+01, 8.525E+01, 1.174E+02, 6.575E+01, 9.542E+01, 1.217E+02, 6.355E+01,-2.370E+02, 1.940E-01, 9.093E-03, 9.957E+01
 1.260E+03, 9.009E+01, 9.237E+01, 8.573E+01, 1.178E+02, 6.678E+01, 9.382E+01, 1.193E+02, 6.404E+01,-2.319E+02, 1.940E-01, 9.076E-03, 1.005E+02
 1.270E+03, 9.012E+01, 9.304E+01, 8.681E+01, 1.174E+02, 6.619E+01, 9.380E+01, 1.206E+02, 6.471E+01,-2.356E+02, 1.941E-01, 9.038E-03, 9.950E+01
 1.280E+03, 9.028E+01, 9.318E+01, 8.718E+01, 1.168E+02, 6.683E+01, 9.574E+01, 1.201E+02, 6.376E+01,-2.360E+02, 1.940E-01, 9.061E-03, 1.001E+02
 1.290E+03, 9.054E+01, 9.259E+01, 8.688E+01, 1.176E+02, 6.717E+01, 9.510E+01, 1.192E+02, 6.346E+01,-2.324E+02, 1.940E-01, 9.070E-03, 1.002E+02
 1.300E+03, 9.076E+01, 9.337E+01, 8.755E+01, 1.188E+02, 6.589E+01, 9.535E+01, 1.206E+02, 6.416E+01,-2.312E+02, 1.940E-01, 9.095E-03, 1.003E+02
 1.310E+03, 9.082E+01, 9.340E+01, 8.736E+01, 1.184E+02, 6.671E+01, 9.633E+01, 1.198E+02, 6.408E+01,-2.306E+02, 1.940E-01, 9.077E-03, 1.001E+02
