s,C,C,C,C,C,C,C,C,Pa,mol/mol,mol/mol,kW
Time,"West_All_TCs","East_All_TCs","West_Bottom_TCs","West_Middle_TCs","West_Upper_TCs","East_Bottom_TCs","East_Middle_TCs","East_Upper_TCs","Pressure","O2","CO2","HRR"
-6.000E+01, 2.700E+01, 2.700E+01, 2.700E+01, 2.700E+01, 2.700E+01, 2.700E+01, 2.700E+01, 2.700E+01,-9.569E-06, 2.095E-01, 3.901E-04, 0.000E+00
-4.998E+01, 2.700E+01, 2.700E+01, 2.700E+01, 2.700E+01, 2.700E+01, 2.700E+01, 2.700E+01, 2.700E+01, 4.796E-05, 2.095E-01, 3.901E-04, 0.000E+00
-3.996E+01, 2.700E+01, 2.700E+01, 2.700E+01, 2.700E+01, 2.700E+01, 2.700E+01, 2.700E+01, 2.700E+01, 2.852E-05, 2.095E-01, 3.901E-04, 0.000E+00
-2.994E+01, 2.700E+01, 2.700E+01, 2.700E+01, 2.700E+01, 2.700E+01, 2.700E+01, 2.700E+01, 2.700E+01, 2.028E-05, 2.095E-01, 3.901E-04, 0.000E+00
-1.992E+01, 2.700E+01, 2.700E+01, 2.700E+01, 2.700E+01, 2.700E+01, 2.700E+01, 2.700E+01, 2.700E+01, 1.843E-05, 2.095E-01, 3.901E-04, 0.000E+00
-9.896E+00, 2.700E+01, 2.700E+01, 2.700E+01, 2.700E+01, 2.700E+01, 2.700E+01, 2.700E+01, 2.700E+01, 1.722E-05, 2.095E-01, 3.901E-04, 0.000E+00
 1.301E-02, 2.700E+01, 2.700E+01, 2.700E+01, 2.700E+01, 2.700E+01, 2.700E+01, 2.700E+01, 2.700E+01, 1.567E-05, 2.095E-01, 3.901E-04, 1.757E-04
 1.000E+01, 2.793E+01, 2.814E+01, 2.750E+01, 2.716E+01, 2.912E+01, 2.778E+01, 2.720E+01, 2.943E+01, 1.070E-02, 2.093E-01, 5.088E-04, 3.374E+01
 2.001E+01, 3.135E+01, 3.175E+01, 2.869E+01, 2.913E+01, 3.622E+01, 2.963E+01, 2.901E+01, 3.662E+01, 1.666E-01, 2.086E-01, 8.951E-04, 9.881E+01
 3.000E+01, 3.967E+01, 3.977E+01, 3.027E+01, 3.544E+01, 5.329E+01, 3.159E+01, 3.581E+01, 5.190E+01, 1.030E+00, 2.071E-01, 1.766E-03, 1.662E+02
 4.001E+01, 5.213E+01, 5.177E+01, 3.331E+01, 5.241E+01, 7.068E+01, 3.529E+01, 4.996E+01, 7.006E+01, 2.281E+00, 2.053E-01, 2.749E-03, 2.000E+02
 5.001E+01, 6.383E+01, 6.413E+01, 3.706E+01, 6.643E+01, 8.799E+01, 3.980E+01, 6.562E+01, 8.696E+01, 3.580E+00, 2.033E-01, 3.864E-03, 1.995E+02
 6.001E+01, 7.320E+01, 7.462E+01, 4.263E+01, 8.116E+01, 9.582E+01, 4.458E+01, 8.020E+01, 9.906E+01, 4.587E+00, 2.021E-01, 4.555E-03, 1.999E+02
 7.002E+01, 8.222E+01, 8.321E+01, 4.757E+01, 9.299E+01, 1.061E+02, 5.115E+01, 8.972E+01, 1.087E+02, 5.319E+00, 2.006E-01, 5.366E-03, 1.999E+02
 8.001E+01, 8.852E+01, 8.903E+01, 5.378E+01, 9.894E+01, 1.128E+02, 5.640E+01, 9.736E+01, 1.133E+02, 5.883E+00, 1.997E-01, 5.884E-03, 1.999E+02
 9.000E+01, 9.342E+01, 9.358E+01, 5.889E+01, 1.047E+02, 1.166E+02, 5.974E+01, 1.037E+02, 1.173E+02, 6.130E+00, 1.989E-01, 6.353E-03, 2.001E+02
 1.000E+02, 9.682E+01, 9.820E+01, 6.124E+01, 1.085E+02, 1.207E+02, 6.427E+01, 1.083E+02, 1.220E+02, 6.572E+00, 1.981E-01, 6.803E-03, 1.990E+02
 1.100E+02, 1.000E+02, 9.909E+01, 6.308E+01, 1.146E+02, 1.224E+02, 6.566E+01, 1.097E+02, 1.219E+02, 6.786E+00, 1.975E-01, 7.132E-03, 2.006E+02
 1.200E+02, 1.011E+02, 1.031E+02, 6.636E+01, 1.132E+02, 1.238E+02, 6.794E+01, 1.165E+02, 1.249E+02, 6.940E+00, 1.969E-01, 7.472E-03, 1.996E+02
 1.300E+02, 1.018E+02, 1.050E+02, 6.521E+01, 1.138E+02, 1.264E+02, 6.972E+01, 1.177E+02, 1.277E+02, 6.962E+00, 1.964E-01, 7.730E-03, 2.000E+02
 1.400E+02, 1.035E+02, 1.065E+02, 6.587E+01, 1.145E+02, 1.300E+02, 7.005E+01, 1.195E+02, 1.299E+02, 6.969E+00, 1.960E-01, 7.964E-03, 1.995E+02
 1.500E+02, 1.044E+02, 1.063E+02, 6.682E+01, 1.168E+02, 1.296E+02, 7.032E+01, 1.192E+02, 1.293E+02, 7.116E+00, 1.954E-01, 8.300E-03, 1.998E+02
 1.600E+02, 1.067E+02, 1.061E+02, 6.818E+01, 1.212E+02, 1.308E+02, 7.122E+01, 1.190E+02, 1.280E+02, 7.327E+00, 1.951E-01, 8.444E-03, 2.001E+02
 1.700E+02, 1.066E+02, 1.079E+02, 6.956E+01, 1.193E+02, 1.310E+02, 7.136E+01, 1.211E+02, 1.313E+02, 7.304E+00, 1.947E-01, 8.705E-03, 1.993E+02
 1.800E+02, 1.056E+02, 1.075E+02, 6.711E+01, 1.189E+02, 1.307E+02, 7.161E+01, 1.207E+02, 1.301E+02, 7.375E+00, 1.940E-01, 9.056E-03, 2.001E+02
 1.900E+02, 1.065E+02, 1.079E+02, 6.729E+01, 1.204E+02, 1.318E+02, 7.048E+01, 1.224E+02, 1.309E+02, 7.370E+00, 1.938E-01, 9.172E-03, 1.991E+02
 2.000E+02, 1.075E+02, 1.090E+02, 6.734E+01, 1.219E+02, 1.333E+02, 7.122E+01, 1.224E+02, 1.333E+02, 7.364E+00, 1.934E-01, 9.391E-03, 2.003E+02
 2.100E+02, 1.061E+02, 1.080E+02, 6.792E+01, 1.192E+02, 1.312E+02, 7.099E+01, 1.216E+02, 1.314E+02, 7.336E+00, 1.933E-01, 9.482E-03, 1.999E+02
 2.200E+02, 1.062E+02, 1.078E+02, 6.679E+01, 1.211E+02, 1.306E+02, 7.186E+01, 1.200E+02, 1.317E+02, 7.438E+00, 1.930E-01, 9.610E-03, 2.004E+02
 2.300E+02, 1.073E+02, 1.093E+02, 6.834E+01, 1.230E+02, 1.305E+02, 7.245E+01, 1.246E+02, 1.308E+02, 7.593E+00, 1.928E-01, 9.737E-03, 1.998E+02
 2.400E+02, 1.072E+02, 1.096E+02, 6.829E+01, 1.205E+02, 1.327E+02, 7.298E+01, 1.234E+02, 1.323E+02, 7.541E+00, 1.928E-01, 9.774E-03, 1.999E+02
 2.500E+02, 1.076E+02, 1.089E+02, 6.718E+01, 1.214E+02, 1.343E+02, 7.392E+01, 1.222E+02, 1.305E+02, 7.621E+00, 1.926E-01, 9.838E-03, 1.994E+02
 2.600E+02, 1.080E+02, 1.091E+02, 6.841E+01, 1.228E+02, 1.326E+02, 7.279E+01, 1.229E+02, 1.317E+02, 7.559E+00, 1.925E-01, 9.903E-03, 2.002E+02
 2.700E+02, 1.072E+02, 1.090E+02, 6.837E+01, 1.202E+02, 1.329E+02, 7.173E+01, 1.229E+02, 1.325E+02, 7.471E+00, 1.923E-01, 1.001E-02, 1.990E+02
 2.800E+02, 1.078E+02, 1.092E+02, 6.971E+01, 1.210E+02, 1.326E+02, 7.278E+01, 1.221E+02, 1.326E+02, 7.458E+00, 1.922E-01, 1.007E-02, 2.011E+02
 2.900E+02, 1.083E+02, 1.096E+02, 6.768E+01, 1.242E+02, 1.330E+02, 7.472E+01, 1.221E+02, 1.319E+02, 7.513E+00, 1.921E-01, 1.013E-02, 1.993E+02
 3.000E+02, 1.088E+02, 1.102E+02, 7.010E+01, 1.225E+02, 1.338E+02, 7.657E+01, 1.240E+02, 1.300E+02, 7.757E+00, 1.921E-01, 1.016E-02, 1.994E+02
 3.100E+02, 1.074E+02, 1.104E+02, 6.927E+01, 1.205E+02, 1.325E+02, 7.352E+01, 1.244E+02, 1.333E+02, 7.636E+00, 1.919E-01, 1.023E-02, 2.004E+02
 3.200E+02, 1.082E+02, 1.105E+02, 7.002E+01, 1.216E+02, 1.328E+02, 7.285E+01, 1.250E+02, 1.337E+02, 7.566E+00, 1.920E-01, 1.022E-02, 1.995E+02
 3.300E+02, 1.092E+02, 1.099E+02, 6.914E+01, 1.246E+02, 1.339E+02, 7.630E+01, 1.212E+02, 1.321E+02, 7.593E+00, 1.921E-01, 1.014E-02, 2.005E+02
 3.400E+02, 1.092E+02, 1.104E+02, 7.204E+01, 1.231E+02, 1.325E+02, 7.477E+01, 1.228E+02, 1.335E+02, 7.565E+00, 1.921E-01, 1.013E-02, 1.993E+02
 3.500E+02, 1.083E+02, 1.113E+02, 7.029E+01, 1.224E+02, 1.323E+02, 7.737E+01, 1.230E+02, 1.335E+02, 7.559E+00, 1.919E-01, 1.027E-02, 2.005E+02
 3.600E+02, 1.095E+02, 1.114E+02, 7.105E+01, 1.229E+02, 1.345E+02, 7.697E+01, 1.256E+02, 1.317E+02, 7.648E+00, 1.919E-01, 1.027E-02, 1.996E+02
 3.700E+02, 1.093E+02, 1.102E+02, 7.093E+01, 1.219E+02, 1.351E+02, 7.459E+01, 1.232E+02, 1.327E+02, 7.533E+00, 1.918E-01, 1.032E-02, 1.998E+02
 3.800E+02, 1.096E+02, 1.118E+02, 7.119E+01, 1.226E+02, 1.350E+02, 7.366E+01, 1.258E+02, 1.359E+02, 7.633E+00, 1.916E-01, 1.040E-02, 1.995E+02
 3.900E+02, 1.103E+02, 1.122E+02, 7.068E+01, 1.248E+02, 1.354E+02, 7.494E+01, 1.239E+02, 1.377E+02, 7.606E+00, 1.918E-01, 1.032E-02, 1.994E+02
 4.000E+02, 1.106E+02, 1.121E+02, 7.176E+01, 1.255E+02, 1.346E+02, 7.562E+01, 1.244E+02, 1.364E+02, 7.626E+00, 1.916E-01, 1.041E-02, 2.002E+02
 4.100E+02, 1.116E+02, 1.131E+02, 7.202E+01, 1.273E+02, 1.354E+02, 7.757E+01, 1.262E+02, 1.355E+02, 7.708E+00, 1.916E-01, 1.040E-02, 1.998E+02
 4.200E+02, 1.105E+02, 1.123E+02, 7.235E+01, 1.241E+02, 1.349E+02, 7.638E+01, 1.260E+02, 1.345E+02, 7.742E+00, 1.915E-01, 1.047E-02, 1.997E+02
 4.300E+02, 1.106E+02, 1.113E+02, 7.298E+01, 1.239E+02, 1.349E+02, 7.520E+01, 1.234E+02, 1.354E+02, 7.765E+00, 1.916E-01, 1.040E-02, 2.000E+02
 4.400E+02, 1.108E+02, 1.120E+02, 7.271E+01, 1.241E+02, 1.357E+02, 7.560E+01, 1.234E+02, 1.369E+02, 7.717E+00, 1.916E-01, 1.044E-02, 1.999E+02
 4.500E+02, 1.114E+02, 1.132E+02, 7.395E+01, 1.262E+02, 1.341E+02, 7.733E+01, 1.238E+02, 1.386E+02, 7.606E+00, 1.918E-01, 1.031E-02, 1.988E+02
 4.600E+02, 1.122E+02, 1.133E+02, 7.315E+01, 1.288E+02, 1.347E+02, 7.833E+01, 1.245E+02, 1.372E+02, 7.627E+00, 1.916E-01, 1.039E-02, 2.005E+02
 4.700E+02, 1.123E+02, 1.145E+02, 7.141E+01, 1.307E+02, 1.349E+02, 7.652E+01, 1.284E+02, 1.386E+02, 7.825E+00, 1.914E-01, 1.053E-02, 2.002E+02
 4.800E+02, 1.120E+02, 1.116E+02, 7.219E+01, 1.290E+02, 1.347E+02, 7.460E+01, 1.240E+02, 1.363E+02, 7.716E+00, 1.916E-01, 1.042E-02, 2.002E+02
 4.900E+02, 1.128E+02, 1.122E+02, 7.221E+01, 1.307E+02, 1.354E+02, 7.597E+01, 1.233E+02, 1.373E+02, 7.753E+00, 1.919E-01, 1.024E-02, 1.988E+02
 5.000E+02, 1.132E+02, 1.120E+02, 7.175E+01, 1.312E+02, 1.366E+02, 7.558E+01, 1.230E+02, 1.373E+02, 7.695E+00, 1.919E-01, 1.025E-02, 2.004E+02
 5.100E+02, 1.118E+02, 1.147E+02, 7.458E+01, 1.266E+02, 1.342E+02, 7.640E+01, 1.268E+02, 1.409E+02, 7.755E+00, 1.920E-01, 1.020E-02, 1.996E+02
 5.200E+02, 1.121E+02, 1.138E+02, 7.460E+01, 1.271E+02, 1.346E+02, 7.614E+01, 1.262E+02, 1.389E+02, 7.678E+00, 1.917E-01, 1.039E-02, 1.999E+02
 5.300E+02, 1.126E+02, 1.128E+02, 7.403E+01, 1.287E+02, 1.351E+02, 7.584E+01, 1.247E+02, 1.379E+02, 7.885E+00, 1.919E-01, 1.027E-02, 2.000E+02
 5.400E+02, 1.118E+02, 1.123E+02, 7.661E+01, 1.257E+02, 1.329E+02, 7.682E+01, 1.245E+02, 1.355E+02, 7.859E+00, 1.924E-01, 9.968E-03, 1.997E+02
 5.500E+02, 1.131E+02, 1.117E+02, 7.695E+01, 1.270E+02, 1.354E+02, 7.608E+01, 1.224E+02, 1.366E+02, 7.774E+00, 1.924E-01, 9.985E-03, 1.995E+02
 5.600E+02, 1.137E+02, 1.125E+02, 7.621E+01, 1.276E+02, 1.374E+02, 7.748E+01, 1.218E+02, 1.382E+02, 7.635E+00, 1.925E-01, 9.899E-03, 2.002E+02
 5.700E+02, 1.129E+02, 1.135E+02, 7.700E+01, 1.264E+02, 1.353E+02, 7.972E+01, 1.244E+02, 1.364E+02, 7.751E+00, 1.924E-01, 9.949E-03, 1.997E+02
 5.800E+02, 1.129E+02, 1.165E+02, 7.829E+01, 1.278E+02, 1.326E+02, 8.091E+01, 1.249E+02, 1.436E+02, 7.845E+00, 1.919E-01, 1.027E-02, 1.996E+02
 5.900E+02, 1.129E+02, 1.143E+02, 7.654E+01, 1.280E+02, 1.341E+02, 8.072E+01, 1.238E+02, 1.385E+02, 7.756E+00, 1.918E-01, 1.029E-02, 1.994E+02
 6.000E+02, 1.132E+02, 1.153E+02, 7.410E+01, 1.305E+02, 1.349E+02, 7.982E+01, 1.268E+02, 1.392E+02, 7.865E+00, 1.915E-01, 1.045E-02, 2.001E+02
 6.100E+02, 1.139E+02, 1.146E+02, 7.515E+01, 1.320E+02, 1.344E+02, 7.820E+01, 1.270E+02, 1.386E+02, 7.891E+00, 1.919E-01, 1.022E-02, 1.992E+02
 6.200E+02, 1.136E+02, 1.137E+02, 7.661E+01, 1.303E+02, 1.339E+02, 7.601E+01, 1.260E+02, 1.391E+02, 7.874E+00, 1.920E-01, 1.017E-02, 2.003E+02
 6.300E+02, 1.136E+02, 1.137E+02, 7.555E+01, 1.301E+02, 1.353E+02, 7.611E+01, 1.244E+02, 1.405E+02, 7.880E+00, 1.921E-01, 1.014E-02, 1.994E+02
 6.400E+02, 1.141E+02, 1.140E+02, 7.684E+01, 1.293E+02, 1.361E+02, 7.744E+01, 1.255E+02, 1.392E+02, 7.836E+00, 1.921E-01, 1.015E-02, 1.996E+02
 6.500E+02, 1.151E+02, 1.137E+02, 7.698E+01, 1.323E+02, 1.362E+02, 7.714E+01, 1.245E+02, 1.394E+02, 7.949E+00, 1.921E-01, 1.012E-02, 2.004E+02
 6.600E+02, 1.133E+02, 1.132E+02, 7.504E+01, 1.308E+02, 1.341E+02, 7.672E+01, 1.228E+02, 1.402E+02, 7.980E+00, 1.924E-01, 9.991E-03, 1.993E+02
 6.700E+02, 1.138E+02, 1.153E+02, 7.398E+01, 1.305E+02, 1.370E+02, 7.706E+01, 1.254E+02, 1.435E+02, 7.740E+00, 1.922E-01, 1.011E-02, 1.996E+02
 6.800E+02, 1.132E+02, 1.160E+02, 7.598E+01, 1.282E+02, 1.355E+02, 7.800E+01, 1.285E+02, 1.414E+02, 7.748E+00, 1.924E-01, 9.971E-03, 2.003E+02
 6.900E+02, 1.142E+02, 1.201E+02, 7.337E+01, 1.310E+02, 1.381E+02, 8.241E+01, 1.312E+02, 1.469E+02, 7.944E+00, 1.921E-01, 1.014E-02, 1.995E+02
 7.000E+02, 1.147E+02, 1.176E+02, 7.784E+01, 1.298E+02, 1.365E+02, 8.198E+01, 1.289E+02, 1.419E+02, 7.814E+00, 1.922E-01, 1.010E-02, 1.996E+02
 7.100E+02, 1.161E+02, 1.160E+02, 7.767E+01, 1.336E+02, 1.370E+02, 7.966E+01, 1.288E+02, 1.397E+02, 7.862E+00, 1.920E-01, 1.017E-02, 2.000E+02
 7.200E+02, 1.142E+02, 1.154E+02, 7.672E+01, 1.293E+02, 1.366E+02, 7.781E+01, 1.281E+02, 1.404E+02, 7.989E+00, 1.920E-01, 1.017E-02, 1.997E+02
 7.300E+02, 1.153E+02, 1.150E+02, 7.535E+01, 1.299E+02, 1.406E+02, 7.736E+01, 1.273E+02, 1.402E+02, 7.905E+00, 1.921E-01, 1.015E-02, 1.995E+02
 7.400E+02, 1.140E+02, 1.162E+02, 7.608E+01, 1.279E+02, 1.380E+02, 7.805E+01, 1.273E+02, 1.432E+02, 7.908E+00, 1.924E-01, 9.950E-03, 1.997E+02
 7.500E+02, 1.144E+02, 1.183E+02, 7.795E+01, 1.287E+02, 1.365E+02, 8.095E+01, 1.284E+02, 1.455E+02, 7.927E+00, 1.922E-01, 1.006E-02, 1.995E+02
 7.600E+02, 1.145E+02, 1.193E+02, 7.798E+01, 1.292E+02, 1.364E+02, 8.245E+01, 1.289E+02, 1.465E+02, 7.984E+00, 1.916E-01, 1.042E-02, 1.999E+02
 7.700E+02, 1.146E+02, 1.172E+02, 7.664E+01, 1.298E+02, 1.373E+02, 8.160E+01, 1.280E+02, 1.420E+02, 7.970E+00, 1.919E-01, 1.024E-02, 1.999E+02
 7.800E+02, 1.149E+02, 1.173E+02, 7.616E+01, 1.315E+02, 1.369E+02, 7.817E+01, 1.285E+02, 1.452E+02, 7.921E+00, 1.919E-01, 1.022E-02, 1.991E+02
 7.900E+02, 1.163E+02, 1.175E+02, 7.571E+01, 1.333E+02, 1.400E+02, 7.916E+01, 1.303E+02, 1.429E+02, 7.909E+00, 1.918E-01, 1.031E-02, 1.997E+02
 8.000E+02, 1.152E+02, 1.196E+02, 7.770E+01, 1.311E+02, 1.368E+02, 7.894E+01, 1.321E+02, 1.477E+02, 7.988E+00, 1.918E-01, 1.029E-02, 2.004E+02
 8.100E+02, 1.164E+02, 1.153E+02, 7.652E+01, 1.332E+02, 1.393E+02, 7.851E+01, 1.269E+02, 1.404E+02, 7.984E+00, 1.918E-01, 1.031E-02, 1.993E+02
 8.200E+02, 1.162E+02, 1.191E+02, 7.691E+01, 1.327E+02, 1.389E+02, 8.054E+01, 1.306E+02, 1.461E+02, 7.957E+00, 1.921E-01, 1.016E-02, 1.998E+02
 8.300E+02, 1.173E+02, 1.185E+02, 7.690E+01, 1.340E+02, 1.409E+02, 8.134E+01, 1.314E+02, 1.428E+02, 7.901E+00, 1.919E-01, 1.023E-02, 1.998E+02
 8.400E+02, 1.168E+02, 1.190E+02, 7.731E+01, 1.332E+02, 1.400E+02, 7.958E+01, 1.314E+02, 1.459E+02, 8.001E+00, 1.919E-01, 1.026E-02, 1.993E+02
 8.500E+02, 1.173E+02, 1.172E+02, 7.637E+01, 1.356E+02, 1.398E+02, 7.911E+01, 1.309E+02, 1.416E+02, 8.010E+00, 1.916E-01, 1.040E-02, 2.002E+02
 8.600E+02, 1.176E+02, 1.169E+02, 7.699E+01, 1.349E+02, 1.410E+02, 8.007E+01, 1.282E+02, 1.424E+02, 8.070E+00, 1.919E-01, 1.027E-02, 2.003E+02
 8.700E+02, 1.150E+02, 1.165E+02, 7.570E+01, 1.328E+02, 1.365E+02, 7.845E+01, 1.275E+02, 1.434E+02, 8.056E+00, 1.919E-01, 1.025E-02, 1.999E+02
 8.800E+02, 1.156E+02, 1.163E+02, 7.678E+01, 1.312E+02, 1.389E+02, 8.063E+01, 1.275E+02, 1.408E+02, 8.163E+00, 1.922E-01, 1.006E-02, 1.991E+02
 8.900E+02, 1.161E+02, 1.168E+02, 8.033E+01, 1.313E+02, 1.368E+02, 7.855E+01, 1.291E+02, 1.427E+02, 8.097E+00, 1.923E-01, 1.003E-02, 2.001E+02
 9.000E+02, 1.156E+02, 1.158E+02, 7.799E+01, 1.314E+02, 1.374E+02, 7.869E+01, 1.258E+02, 1.429E+02, 8.062E+00, 1.923E-01, 1.004E-02, 1.996E+02
 9.100E+02, 1.170E+02, 1.168E+02, 7.976E+01, 1.328E+02, 1.385E+02, 7.956E+01, 1.295E+02, 1.413E+02, 8.005E+00, 1.925E-01, 9.897E-03, 2.001E+02
 9.200E+02, 1.165E+02, 1.187E+02, 7.504E+01, 1.334E+02, 1.411E+02, 8.063E+01, 1.314E+02, 1.440E+02, 8.079E+00, 1.924E-01, 9.965E-03, 1.996E+02
 9.300E+02, 1.176E+02, 1.189E+02, 7.886E+01, 1.331E+02, 1.407E+02, 8.180E+01, 1.316E+02, 1.433E+02, 8.110E+00, 1.924E-01, 9.993E-03, 1.999E+02
 9.400E+02, 1.170E+02, 1.179E+02, 7.738E+01, 1.347E+02, 1.389E+02, 8.100E+01, 1.288E+02, 1.439E+02, 8.099E+00, 1.921E-01, 1.014E-02, 2.004E+02
 9.500E+02, 1.167E+02, 1.170E+02, 7.718E+01, 1.339E+02, 1.391E+02, 7.943E+01, 1.276E+02, 1.440E+02, 8.108E+00, 1.922E-01, 1.008E-02, 1.995E+02
 9.600E+02, 1.178E+02, 1.188E+02, 8.025E+01, 1.335E+02, 1.396E+02, 7.954E+01, 1.325E+02, 1.443E+02, 8.105E+00, 1.924E-01, 9.967E-03, 1.994E+02
 9.700E+02, 1.183E+02, 1.181E+02, 7.823E+01, 1.357E+02, 1.410E+02, 7.817E+01, 1.304E+02, 1.458E+02, 7.951E+00, 1.922E-01, 1.005E-02, 2.000E+02
 9.800E+02, 1.178E+02, 1.173E+02, 7.886E+01, 1.339E+02, 1.405E+02, 7.807E+01, 1.308E+02, 1.430E+02, 8.118E+00, 1.923E-01, 1.001E-02, 1.997E+02
 9.900E+02, 1.165E+02, 1.172E+02, 7.785E+01, 1.329E+02, 1.389E+02, 7.873E+01, 1.294E+02, 1.435E+02, 8.113E+00, 1.924E-01, 9.988E-03, 1.992E+02
 1.000E+03, 1.172E+02, 1.177E+02, 7.739E+01, 1.315E+02, 1.427E+02, 7.832E+01, 1.289E+02, 1.458E+02, 8.004E+00, 1.922E-01, 1.010E-02, 1.997E+02
 1.010E+03, 1.178E+02, 1.184E+02, 8.023E+01, 1.334E+02, 1.398E+02, 7.839E+01, 1.315E+02, 1.453E+02, 8.034E+00, 1.925E-01, 9.926E-03, 2.003E+02
 1.020E+03, 1.164E+02, 1.176E+02, 7.893E+01, 1.298E+02, 1.404E+02, 8.016E+01, 1.290E+02, 1.436E+02, 8.178E+00, 1.924E-01, 9.943E-03, 1.997E+02
 1.030E+03, 1.173E+02, 1.174E+02, 7.868E+01, 1.329E+02, 1.403E+02, 7.864E+01, 1.302E+02, 1.434E+02, 8.111E+00, 1.929E-01, 9.676E-03, 1.991E+02
 1.040E+03, 1.177E+02, 1.178E+02, 7.649E+01, 1.346E+02, 1.419E+02, 7.930E+01, 1.317E+02, 1.425E+02, 8.021E+00, 1.923E-01, 1.003E-02, 2.005E+02
 1.050E+03, 1.178E+02, 1.193E+02, 7.765E+01, 1.335E+02, 1.423E+02, 8.150E+01, 1.304E+02, 1.461E+02, 8.077E+00, 1.923E-01, 1.002E-02, 2.002E+02
 1.060E+03, 1.165E+02, 1.184E+02, 7.870E+01, 1.335E+02, 1.375E+02, 7.965E+01, 1.306E+02, 1.450E+02, 8.081E+00, 1.925E-01, 9.888E-03, 2.000E+02
 1.070E+03, 1.193E+02, 1.174E+02, 7.818E+01, 1.385E+02, 1.411E+02, 7.830E+01, 1.303E+02, 1.435E+02, 7.968E+00, 1.924E-01, 9.955E-03, 1.996E+02
 1.080E+03, 1.174E+02, 1.180E+02, 7.682E+01, 1.350E+02, 1.404E+02, 7.902E+01, 1.317E+02, 1.433E+02, 8.188E+00, 1.924E-01, 9.971E-03, 1.998E+02
 1.090E+03, 1.174E+02, 1.177E+02, 7.567E+01, 1.345E+02, 1.421E+02, 7.901E+01, 1.298E+02, 1.443E+02, 8.179E+00, 1.924E-01, 9.996E-03, 1.999E+02
 1.100E+03, 1.179E+02, 1.192E+02, 7.718E+01, 1.346E+02, 1.418E+02, 7.791E+01, 1.328E+02, 1.469E+02, 8.129E+00, 1.925E-01, 9.927E-03, 1.995E+02
 1.110E+03, 1.179E+02, 1.182E+02, 7.690E+01, 1.349E+02, 1.418E+02, 7.929E+01, 1.302E+02, 1.452E+02, 7.992E+00, 1.926E-01, 9.866E-03, 1.997E+02
 1.120E+03, 1.174E+02, 1.192E+02, 8.029E+01, 1.340E+02, 1.378E+02, 8.141E+01, 1.312E+02, 1.450E+02, 8.206E+00, 1.928E-01, 9.773E-03, 1.997E+02
 1.130E+03, 1.181E+02, 1.177E+02, 7.850E+01, 1.362E+02, 1.395E+02, 8.034E+01, 1.297E+02, 1.430E+02, 8.191E+00, 1.925E-01, 9.920E-03, 2.004E+02
 1.140E+03, 1.178E+02, 1.180E+02, 7.772E+01, 1.348E+02, 1.410E+02, 8.027E+01, 1.310E+02, 1.428E+02, 8.211E+00, 1.926E-01, 9.884E-03, 1.991E+02
 1.150E+03, 1.186E+02, 1.180E+02, 7.967E+01, 1.353E+02, 1.407E+02, 7.750E+01, 1.307E+02, 1.458E+02, 8.052E+00, 1.926E-01, 9.870E-03, 2.000E+02
 1.160E+03, 1.190E+02, 1.198E+02, 7.780E+01, 1.362E+02, 1.429E+02, 7.846E+01, 1.326E+02, 1.484E+02, 8.113E+00, 1.923E-01, 1.002E-02, 2.001E+02
 1.170E+03, 1.189E+02, 1.209E+02, 7.691E+01, 1.367E+02, 1.431E+02, 8.080E+01, 1.336E+02, 1.482E+02, 8.107E+00, 1.923E-01, 1.002E-02, 2.000E+02
 1.180E+03, 1.201E+02, 1.194E+02, 7.890E+01, 1.378E+02, 1.438E+02, 8.033E+01, 1.329E+02, 1.448E+02, 8.138E+00, 1.924E-01, 9.946E-03, 2.003E+02
 1.190E+03, 1.201E+02, 1.205E+02, 7.822E+01, 1.385E+02, 1.435E+02, 8.089E+01, 1.339E+02, 1.467E+02, 8.227E+00, 1.924E-01, 9.964E-03, 1.997E+02
 1.200E+03, 1.188E+02, 1.194E+02, 7.827E+01, 1.366E+02, 1.416E+02, 7.968E+01, 1.331E+02, 1.454E+02, 8.305E+00, 1.926E-01, 9.885E-03, 1.997E+02
 1.210E+03, 1.178E+02, 1.187E+02, 7.793E+01, 1.323E+02, 1.431E+02, 7.957E+01, 1.314E+02, 1.452E+02, 8.349E+00, 1.924E-01, 9.969E-03, 2.000E+02
 1.220E+03, 1.193E+02, 1.202E+02, 7.844E+01, 1.357E+02, 1.437E+02, 7.938E+01, 1.337E+02, 1.476E+02, 8.176E+00, 1.925E-01, 9.934E-03, 1.990E+02
 1.230E+03, 1.186E+02, 1.218E+02, 7.675E+01, 1.365E+02, 1.427E+02, 8.024E+01, 1.345E+02, 1.506E+02, 8.129E+00, 1.925E-01, 9.905E-03, 1.999E+02
 1.240E+03, 1.182E+02, 1.211E+02, 7.887E+01, 1.350E+02, 1.408E+02, 8.152E+01, 1.336E+02, 1.482E+02, 8.273E+00, 1.924E-01, 9.942E-03, 2.002E+02
 1.250E+03, 1.177E+02, 1.214E+02, 7.730E+01, 1.356E+02, 1.401E+02, 8.159E+01, 1.336E+02, 1.489E+02, 8.189E+00, 1.920E-01, 1.020E-02, 2.000E+02
 1.260E+03, 1.185E+02, 1.196E+02, 7.686E+01, 1.366E+02, 1.420E+02, 8.033E+01, 1.330E+02, 1.455E+02, 8.331E+00, 1.925E-01, 9.935E-03, 1.999E+02
 1.270E+03, 1.194E+02, 1.190E+02, 7.838E+01, 1.366E+02, 1.433E+02, 8.006E+01, 1.319E+02, 1.451E+02, 8.337E+00, 1.927E-01, 9.797E-03, 1.998E+02
 1.280E+03, 1.200E+02, 1.180E+02, 8.002E+01, 1.362E+02, 1.437E+02, 7.973E+01, 1.317E+02, 1.427E+02, 8.219E+00, 1.927E-01, 9.780E-03, 2.005E+02
 1.290E+03, 1.194E+02, 1.196E+02, 8.068E+01, 1.341E+02, 1.434E+02, 8.178E+01, 1.327E+02, 1.443E+02, 8.303E+00, 1.926E-01, 9.857E-03, 1.992E+02
 1.300E+03, 1.198E+02, 1.207E+02, 7.904E+01, 1.363E+02, 1.441E+02, 8.065E+01, 1.326E+02, 1.490E+02, 8.226E+00, 1.924E-01, 9.986E-03, 1.994E+02
 1.310E+03, 1.199E+02, 1.213E+02, 7.947E+01, 1.369E+02, 1.433E+02, 8.227E+01, 1.330E+02, 1.487E+02, 8.266E+00, 1.927E-01, 9.803E-03, 2.005E+02
