s,C,C,C,C,C,C,C,C,Pa,mol/mol,mol/mol,kW
Time,"West_All_TCs","East_All_TCs","West_Bottom_TCs","West_Middle_TCs","West_Upper_TCs","East_Bottom_TCs","East_Middle_TCs","East_Upper_TCs","Pressure","O2","CO2","HRR"
-6.000E+01, 3.400E+01, 3.400E+01, 3.400E+01, 3.400E+01, 3.400E+01, 3.400E+01, 3.400E+01, 3.400E+01,-9.314E-06, 2.095E-01, 3.901E-04, 0.000E+00
-4.991E+01, 3.395E+01, 3.396E+01, 3.396E+01, 3.395E+01, 3.396E+01, 3.396E+01, 3.395E+01, 3.396E+01,-7.902E+01, 2.095E-01, 3.901E-04, 0.000E+00
-3.995E+01, 3.394E+01, 3.395E+01, 3.394E+01, 3.394E+01, 3.393E+01, 3.396E+01, 3.394E+01, 3.394E+01,-7.999E+01, 2.095E-01, 3.901E-04, 0.000E+00
-2.997E+01, 3.393E+01, 3.395E+01, 3.394E+01, 3.393E+01, 3.393E+01, 3.397E+01, 3.394E+01, 3.394E+01,-8.010E+01, 2.095E-01, 3.901E-04, 0.000E+00
-1.994E+01, 3.393E+01, 3.395E+01, 3.393E+01, 3.393E+01, 3.393E+01, 3.398E+01, 3.394E+01, 3.394E+01,-8.013E+01, 2.095E-01, 3.901E-04, 0.000E+00
-9.961E+00, 3.393E+01, 3.396E+01, 3.393E+01, 3.393E+01, 3.393E+01, 3.398E+01, 3.395E+01, 3.394E+01,-8.013E+01, 2.095E-01, 3.901E-04, 0.000E+00
 2.212E-02, 3.393E+01, 3.396E+01, 3.394E+01, 3.393E+01, 3.393E+01, 3.399E+01, 3.394E+01, 3.394E+01,-8.020E+01, 2.095E-01, 3.901E-04, 1.627E-04
 1.003E+01, 3.509E+01, 3.526E+01, 3.445E+01, 3.687E+01, 3.396E+01, 3.466E+01, 3.715E+01, 3.397E+01,-3.870E+01, 2.095E-01, 3.901E-04, 3.259E+01
 2.000E+01, 3.951E+01, 3.947E+01, 3.607E+01, 4.784E+01, 3.461E+01, 3.667E+01, 4.780E+01, 3.393E+01, 1.302E+00, 2.095E-01, 3.901E-04, 9.935E+01
 3.001E+01, 4.799E+01, 4.818E+01, 4.049E+01, 6.830E+01, 3.518E+01, 4.218E+01, 6.850E+01, 3.387E+01, 2.995E+01, 2.095E-01, 3.901E-04, 1.660E+02
 4.000E+01, 6.073E+01, 5.995E+01, 4.869E+01, 9.651E+01, 3.699E+01, 5.097E+01, 9.425E+01, 3.464E+01, 3.960E+01, 2.094E-01, 4.845E-04, 2.001E+02
 5.001E+01, 7.095E+01, 7.193E+01, 6.068E+01, 1.133E+02, 3.886E+01, 6.296E+01, 1.151E+02, 3.774E+01, 1.873E+01, 2.088E-01, 7.995E-04, 2.000E+02
 6.000E+01, 8.129E+01, 8.361E+01, 7.379E+01, 1.299E+02, 4.017E+01, 7.719E+01, 1.335E+02, 4.018E+01, 8.765E+00, 2.085E-01, 9.760E-04, 1.998E+02
 7.002E+01, 8.916E+01, 9.152E+01, 8.742E+01, 1.373E+02, 4.276E+01, 8.926E+01, 1.429E+02, 4.239E+01, 2.804E+00, 2.081E-01, 1.201E-03, 2.001E+02
 8.002E+01, 9.646E+01, 9.921E+01, 9.721E+01, 1.471E+02, 4.507E+01, 1.015E+02, 1.510E+02, 4.510E+01,-4.746E+00, 2.075E-01, 1.517E-03, 1.999E+02
 9.002E+01, 1.031E+02, 1.059E+02, 1.071E+02, 1.547E+02, 4.744E+01, 1.089E+02, 1.613E+02, 4.771E+01,-1.110E+01, 2.070E-01, 1.790E-03, 2.004E+02
 1.000E+02, 1.073E+02, 1.108E+02, 1.137E+02, 1.595E+02, 4.879E+01, 1.170E+02, 1.662E+02, 4.916E+01,-2.199E+01, 2.067E-01, 2.008E-03, 2.002E+02
 1.100E+02, 1.109E+02, 1.148E+02, 1.198E+02, 1.622E+02, 5.072E+01, 1.234E+02, 1.697E+02, 5.129E+01,-3.010E+01, 2.060E-01, 2.377E-03, 2.001E+02
 1.200E+02, 1.128E+02, 1.174E+02, 1.222E+02, 1.639E+02, 5.244E+01, 1.278E+02, 1.723E+02, 5.200E+01,-3.847E+01, 2.057E-01, 2.553E-03, 1.999E+02
 1.300E+02, 1.161E+02, 1.188E+02, 1.258E+02, 1.678E+02, 5.472E+01, 1.287E+02, 1.734E+02, 5.441E+01,-4.831E+01, 2.050E-01, 2.929E-03, 2.001E+02
 1.400E+02, 1.181E+02, 1.199E+02, 1.279E+02, 1.709E+02, 5.556E+01, 1.292E+02, 1.748E+02, 5.586E+01,-5.061E+01, 2.042E-01, 3.375E-03, 1.998E+02
 1.500E+02, 1.198E+02, 1.230E+02, 1.299E+02, 1.726E+02, 5.687E+01, 1.341E+02, 1.782E+02, 5.664E+01,-5.539E+01, 2.037E-01, 3.652E-03, 2.004E+02
 1.600E+02, 1.199E+02, 1.253E+02, 1.293E+02, 1.729E+02, 5.741E+01, 1.376E+02, 1.809E+02, 5.730E+01,-5.863E+01, 2.029E-01, 4.119E-03, 1.998E+02
 1.700E+02, 1.218E+02, 1.233E+02, 1.327E+02, 1.746E+02, 5.823E+01, 1.345E+02, 1.773E+02, 5.796E+01,-6.270E+01, 2.023E-01, 4.421E-03, 2.003E+02
 1.800E+02, 1.219E+02, 1.244E+02, 1.310E+02, 1.755E+02, 5.902E+01, 1.362E+02, 1.780E+02, 5.909E+01,-6.285E+01, 2.014E-01, 4.953E-03, 1.997E+02
 1.900E+02, 1.231E+02, 1.261E+02, 1.316E+02, 1.779E+02, 5.971E+01, 1.377E+02, 1.808E+02, 5.964E+01,-6.384E+01, 2.008E-01, 5.281E-03, 2.001E+02
 2.000E+02, 1.231E+02, 1.282E+02, 1.323E+02, 1.766E+02, 6.056E+01, 1.386E+02, 1.859E+02, 6.033E+01,-6.332E+01, 1.997E-01, 5.868E-03, 2.003E+02
 2.100E+02, 1.250E+02, 1.271E+02, 1.340E+02, 1.801E+02, 6.095E+01, 1.367E+02, 1.838E+02, 6.083E+01,-6.711E+01, 1.992E-01, 6.195E-03, 2.002E+02
 2.200E+02, 1.247E+02, 1.276E+02, 1.348E+02, 1.785E+02, 6.093E+01, 1.408E+02, 1.812E+02, 6.088E+01,-6.195E+01, 1.984E-01, 6.611E-03, 1.997E+02
 2.300E+02, 1.265E+02, 1.280E+02, 1.373E+02, 1.809E+02, 6.131E+01, 1.394E+02, 1.832E+02, 6.141E+01,-6.571E+01, 1.974E-01, 7.193E-03, 2.001E+02
 2.400E+02, 1.261E+02, 1.290E+02, 1.360E+02, 1.798E+02, 6.265E+01, 1.409E+02, 1.838E+02, 6.232E+01,-6.717E+01, 1.964E-01, 7.743E-03, 2.003E+02
 2.500E+02, 1.265E+02, 1.304E+02, 1.361E+02, 1.819E+02, 6.153E+01, 1.429E+02, 1.865E+02, 6.175E+01,-6.402E+01, 1.960E-01, 7.974E-03, 1.995E+02
 2.600E+02, 1.264E+02, 1.321E+02, 1.377E+02, 1.804E+02, 6.106E+01, 1.442E+02, 1.905E+02, 6.171E+01,-6.516E+01, 1.950E-01, 8.528E-03, 2.004E+02
 2.700E+02, 1.272E+02, 1.320E+02, 1.386E+02, 1.816E+02, 6.147E+01, 1.456E+02, 1.887E+02, 6.176E+01,-6.656E+01, 1.941E-01, 9.035E-03, 2.001E+02
 2.800E+02, 1.270E+02, 1.331E+02, 1.382E+02, 1.813E+02, 6.159E+01, 1.455E+02, 1.912E+02, 6.263E+01,-6.456E+01, 1.935E-01, 9.355E-03, 2.004E+02
 2.900E+02, 1.284E+02, 1.328E+02, 1.381E+02, 1.847E+02, 6.246E+01, 1.482E+02, 1.884E+02, 6.170E+01,-6.775E+01, 1.925E-01, 9.933E-03, 1.996E+02
 3.000E+02, 1.287E+02, 1.317E+02, 1.395E+02, 1.842E+02, 6.257E+01, 1.437E+02, 1.892E+02, 6.217E+01,-6.835E+01, 1.917E-01, 1.039E-02, 2.002E+02
 3.100E+02, 1.285E+02, 1.328E+02, 1.402E+02, 1.831E+02, 6.207E+01, 1.447E+02, 1.910E+02, 6.273E+01,-6.449E+01, 1.906E-01, 1.097E-02, 2.002E+02
 3.200E+02, 1.300E+02, 1.336E+02, 1.403E+02, 1.872E+02, 6.247E+01, 1.489E+02, 1.898E+02, 6.202E+01,-6.995E+01, 1.903E-01, 1.114E-02, 2.002E+02
 3.300E+02, 1.304E+02, 1.339E+02, 1.394E+02, 1.890E+02, 6.293E+01, 1.492E+02, 1.897E+02, 6.269E+01,-6.636E+01, 1.888E-01, 1.201E-02, 1.998E+02
 3.400E+02, 1.307E+02, 1.362E+02, 1.404E+02, 1.893E+02, 6.237E+01, 1.546E+02, 1.913E+02, 6.275E+01,-6.595E+01, 1.882E-01, 1.229E-02, 2.009E+02
 3.500E+02, 1.308E+02, 1.340E+02, 1.418E+02, 1.868E+02, 6.373E+01, 1.478E+02, 1.920E+02, 6.222E+01,-6.091E+01, 1.876E-01, 1.267E-02, 1.998E+02
 3.600E+02, 1.311E+02, 1.362E+02, 1.411E+02, 1.873E+02, 6.495E+01, 1.480E+02, 1.963E+02, 6.444E+01,-6.274E+01, 1.862E-01, 1.342E-02, 1.998E+02
 3.700E+02, 1.321E+02, 1.361E+02, 1.428E+02, 1.883E+02, 6.501E+01, 1.515E+02, 1.932E+02, 6.370E+01,-6.406E+01, 1.860E-01, 1.357E-02, 1.998E+02
 3.800E+02, 1.317E+02, 1.358E+02, 1.432E+02, 1.876E+02, 6.428E+01, 1.474E+02, 1.962E+02, 6.390E+01,-6.640E+01, 1.852E-01, 1.401E-02, 2.003E+02
 3.900E+02, 1.316E+02, 1.361E+02, 1.429E+02, 1.878E+02, 6.397E+01, 1.474E+02, 1.956E+02, 6.521E+01,-6.469E+01, 1.843E-01, 1.450E-02, 2.001E+02
 4.000E+02, 1.325E+02, 1.368E+02, 1.446E+02, 1.883E+02, 6.450E+01, 1.499E+02, 1.960E+02, 6.436E+01,-6.209E+01, 1.832E-01, 1.509E-02, 1.999E+02
 4.100E+02, 1.348E+02, 1.370E+02, 1.449E+02, 1.939E+02, 6.567E+01, 1.518E+02, 1.953E+02, 6.405E+01,-6.926E+01, 1.825E-01, 1.553E-02, 1.998E+02
 4.200E+02, 1.338E+02, 1.388E+02, 1.447E+02, 1.916E+02, 6.504E+01, 1.529E+02, 1.986E+02, 6.502E+01,-6.603E+01, 1.814E-01, 1.613E-02, 2.005E+02
 4.300E+02, 1.336E+02, 1.385E+02, 1.445E+02, 1.913E+02, 6.481E+01, 1.544E+02, 1.963E+02, 6.472E+01,-6.440E+01, 1.803E-01, 1.672E-02, 1.999E+02
 4.400E+02, 1.332E+02, 1.387E+02, 1.449E+02, 1.905E+02, 6.425E+01, 1.528E+02, 1.992E+02, 6.430E+01,-6.587E+01, 1.796E-01, 1.711E-02, 2.000E+02
 4.500E+02, 1.336E+02, 1.385E+02, 1.444E+02, 1.916E+02, 6.462E+01, 1.536E+02, 1.976E+02, 6.423E+01,-6.424E+01, 1.790E-01, 1.747E-02, 2.003E+02
 4.600E+02, 1.361E+02, 1.388E+02, 1.474E+02, 1.950E+02, 6.609E+01, 1.514E+02, 1.999E+02, 6.506E+01,-6.630E+01, 1.781E-01, 1.798E-02, 1.998E+02
 4.700E+02, 1.353E+02, 1.398E+02, 1.459E+02, 1.950E+02, 6.497E+01, 1.555E+02, 1.992E+02, 6.467E+01,-6.705E+01, 1.775E-01, 1.830E-02, 2.002E+02
 4.800E+02, 1.359E+02, 1.403E+02, 1.470E+02, 1.953E+02, 6.531E+01, 1.551E+02, 2.017E+02, 6.422E+01,-6.191E+01, 1.768E-01, 1.869E-02, 1.999E+02
 4.900E+02, 1.357E+02, 1.391E+02, 1.482E+02, 1.933E+02, 6.566E+01, 1.522E+02, 2.005E+02, 6.448E+01,-5.935E+01, 1.763E-01, 1.895E-02, 2.002E+02
 5.000E+02, 1.372E+02, 1.394E+02, 1.485E+02, 1.964E+02, 6.681E+01, 1.511E+02, 2.012E+02, 6.612E+01,-6.280E+01, 1.754E-01, 1.946E-02, 2.000E+02
 5.100E+02, 1.379E+02, 1.421E+02, 1.483E+02, 1.981E+02, 6.745E+01, 1.561E+02, 2.039E+02, 6.627E+01,-6.099E+01, 1.744E-01, 2.003E-02, 2.004E+02
 5.200E+02, 1.378E+02, 1.418E+02, 1.501E+02, 1.956E+02, 6.779E+01, 1.541E+02, 2.042E+02, 6.723E+01,-5.952E+01, 1.735E-01, 2.054E-02, 1.996E+02
 5.300E+02, 1.368E+02, 1.433E+02, 1.483E+02, 1.948E+02, 6.735E+01, 1.580E+02, 2.047E+02, 6.713E+01,-6.170E+01, 1.730E-01, 2.079E-02, 2.001E+02
 5.400E+02, 1.395E+02, 1.433E+02, 1.499E+02, 2.004E+02, 6.828E+01, 1.558E+02, 2.064E+02, 6.771E+01,-6.495E+01, 1.721E-01, 2.130E-02, 2.001E+02
 5.500E+02, 1.386E+02, 1.438E+02, 1.504E+02, 1.981E+02, 6.745E+01, 1.544E+02, 2.082E+02, 6.869E+01,-6.145E+01, 1.711E-01, 2.189E-02, 1.997E+02
 5.600E+02, 1.380E+02, 1.436E+02, 1.505E+02, 1.949E+02, 6.852E+01, 1.559E+02, 2.069E+02, 6.797E+01,-6.599E+01, 1.703E-01, 2.230E-02, 1.999E+02
 5.700E+02, 1.401E+02, 1.437E+02, 1.522E+02, 1.994E+02, 6.870E+01, 1.594E+02, 2.038E+02, 6.787E+01,-6.274E+01, 1.698E-01, 2.262E-02, 2.002E+02
 5.800E+02, 1.401E+02, 1.442E+02, 1.508E+02, 2.005E+02, 6.888E+01, 1.605E+02, 2.034E+02, 6.875E+01,-6.188E+01, 1.689E-01, 2.309E-02, 1.996E+02
 5.900E+02, 1.385E+02, 1.437E+02, 1.496E+02, 1.978E+02, 6.814E+01, 1.600E+02, 2.017E+02, 6.928E+01,-6.527E+01, 1.684E-01, 2.339E-02, 2.002E+02
 6.000E+02, 1.393E+02, 1.442E+02, 1.519E+02, 1.969E+02, 6.905E+01, 1.593E+02, 2.043E+02, 6.889E+01,-6.421E+01, 1.677E-01, 2.378E-02, 2.001E+02
 6.100E+02, 1.399E+02, 1.444E+02, 1.509E+02, 1.996E+02, 6.917E+01, 1.588E+02, 2.050E+02, 6.929E+01,-6.620E+01, 1.667E-01, 2.433E-02, 2.003E+02
 6.200E+02, 1.406E+02, 1.450E+02, 1.530E+02, 2.001E+02, 6.881E+01, 1.599E+02, 2.063E+02, 6.861E+01,-6.878E+01, 1.662E-01, 2.460E-02, 2.004E+02
 6.300E+02, 1.413E+02, 1.441E+02, 1.520E+02, 2.029E+02, 6.915E+01, 1.608E+02, 2.020E+02, 6.941E+01,-6.617E+01, 1.656E-01, 2.496E-02, 2.002E+02
 6.400E+02, 1.411E+02, 1.444E+02, 1.508E+02, 2.032E+02, 6.919E+01, 1.607E+02, 2.036E+02, 6.876E+01,-6.352E+01, 1.654E-01, 2.506E-02, 1.998E+02
 6.500E+02, 1.418E+02, 1.458E+02, 1.514E+02, 2.044E+02, 6.973E+01, 1.610E+02, 2.073E+02, 6.900E+01,-6.643E+01, 1.645E-01, 2.554E-02, 1.993E+02
 6.600E+02, 1.414E+02, 1.477E+02, 1.505E+02, 2.036E+02, 7.009E+01, 1.646E+02, 2.096E+02, 6.898E+01,-6.167E+01, 1.639E-01, 2.588E-02, 2.004E+02
 6.700E+02, 1.420E+02, 1.461E+02, 1.524E+02, 2.025E+02, 7.108E+01, 1.608E+02, 2.078E+02, 6.979E+01,-6.209E+01, 1.631E-01, 2.635E-02, 1.998E+02
 6.800E+02, 1.429E+02, 1.484E+02, 1.530E+02, 2.047E+02, 7.109E+01, 1.625E+02, 2.110E+02, 7.160E+01,-6.311E+01, 1.621E-01, 2.689E-02, 2.002E+02
 6.900E+02, 1.427E+02, 1.468E+02, 1.547E+02, 2.030E+02, 7.057E+01, 1.620E+02, 2.081E+02, 7.031E+01,-7.135E+01, 1.620E-01, 2.697E-02, 2.003E+02
 7.000E+02, 1.432E+02, 1.476E+02, 1.541E+02, 2.064E+02, 6.931E+01, 1.651E+02, 2.089E+02, 6.863E+01,-6.666E+01, 1.617E-01, 2.711E-02, 1.998E+02
 7.100E+02, 1.429E+02, 1.485E+02, 1.543E+02, 2.050E+02, 6.944E+01, 1.660E+02, 2.098E+02, 6.970E+01,-6.548E+01, 1.609E-01, 2.759E-02, 1.997E+02
 7.200E+02, 1.425E+02, 1.475E+02, 1.545E+02, 2.037E+02, 6.933E+01, 1.618E+02, 2.111E+02, 6.968E+01,-6.009E+01, 1.608E-01, 2.764E-02, 1.997E+02
 7.300E+02, 1.423E+02, 1.488E+02, 1.537E+02, 2.030E+02, 7.028E+01, 1.641E+02, 2.111E+02, 7.107E+01,-6.154E+01, 1.601E-01, 2.799E-02, 2.003E+02
 7.400E+02, 1.419E+02, 1.492E+02, 1.537E+02, 2.011E+02, 7.101E+01, 1.668E+02, 2.099E+02, 7.078E+01,-6.209E+01, 1.597E-01, 2.823E-02, 1.997E+02
 7.500E+02, 1.457E+02, 1.487E+02, 1.561E+02, 2.102E+02, 7.081E+01, 1.641E+02, 2.111E+02, 7.085E+01,-6.494E+01, 1.593E-01, 2.846E-02, 2.001E+02
 7.600E+02, 1.446E+02, 1.498E+02, 1.573E+02, 2.045E+02, 7.196E+01, 1.660E+02, 2.133E+02, 7.004E+01,-6.209E+01, 1.589E-01, 2.870E-02, 2.003E+02
 7.700E+02, 1.448E+02, 1.493E+02, 1.574E+02, 2.048E+02, 7.207E+01, 1.661E+02, 2.107E+02, 7.119E+01,-6.718E+01, 1.585E-01, 2.893E-02, 2.000E+02
 7.800E+02, 1.446E+02, 1.508E+02, 1.556E+02, 2.064E+02, 7.172E+01, 1.700E+02, 2.115E+02, 7.077E+01,-6.337E+01, 1.581E-01, 2.915E-02, 2.000E+02
 7.900E+02, 1.469E+02, 1.500E+02, 1.583E+02, 2.102E+02, 7.214E+01, 1.674E+02, 2.100E+02, 7.253E+01,-6.064E+01, 1.574E-01, 2.951E-02, 1.999E+02
 8.000E+02, 1.461E+02, 1.517E+02, 1.581E+02, 2.068E+02, 7.319E+01, 1.664E+02, 2.157E+02, 7.299E+01,-6.219E+01, 1.570E-01, 2.977E-02, 1.999E+02
 8.100E+02, 1.452E+02, 1.509E+02, 1.582E+02, 2.041E+02, 7.328E+01, 1.693E+02, 2.115E+02, 7.186E+01,-6.467E+01, 1.567E-01, 2.989E-02, 2.003E+02
 8.200E+02, 1.455E+02, 1.514E+02, 1.578E+02, 2.053E+02, 7.349E+01, 1.691E+02, 2.131E+02, 7.197E+01,-6.400E+01, 1.565E-01, 3.004E-02, 1.995E+02
 8.300E+02, 1.471E+02, 1.516E+02, 1.593E+02, 2.084E+02, 7.351E+01, 1.656E+02, 2.162E+02, 7.313E+01,-6.668E+01, 1.557E-01, 3.047E-02, 2.005E+02
 8.400E+02, 1.465E+02, 1.509E+02, 1.587E+02, 2.064E+02, 7.456E+01, 1.693E+02, 2.112E+02, 7.213E+01,-6.034E+01, 1.556E-01, 3.051E-02, 2.002E+02
 8.500E+02, 1.475E+02, 1.519E+02, 1.605E+02, 2.075E+02, 7.442E+01, 1.686E+02, 2.142E+02, 7.291E+01,-6.678E+01, 1.551E-01, 3.081E-02, 1.998E+02
 8.600E+02, 1.483E+02, 1.523E+02, 1.610E+02, 2.103E+02, 7.356E+01, 1.697E+02, 2.143E+02, 7.294E+01,-6.278E+01, 1.547E-01, 3.104E-02, 2.004E+02
 8.700E+02, 1.485E+02, 1.520E+02, 1.605E+02, 2.096E+02, 7.517E+01, 1.705E+02, 2.120E+02, 7.342E+01,-5.826E+01, 1.545E-01, 3.116E-02, 2.002E+02
 8.800E+02, 1.472E+02, 1.540E+02, 1.598E+02, 2.071E+02, 7.478E+01, 1.710E+02, 2.166E+02, 7.448E+01,-6.255E+01, 1.541E-01, 3.138E-02, 1.996E+02
 8.900E+02, 1.480E+02, 1.538E+02, 1.597E+02, 2.087E+02, 7.559E+01, 1.704E+02, 2.171E+02, 7.383E+01,-6.539E+01, 1.539E-01, 3.148E-02, 2.003E+02
 9.000E+02, 1.488E+02, 1.537E+02, 1.602E+02, 2.106E+02, 7.557E+01, 1.701E+02, 2.169E+02, 7.417E+01,-6.353E+01, 1.533E-01, 3.180E-02, 2.001E+02
 9.100E+02, 1.493E+02, 1.539E+02, 1.606E+02, 2.110E+02, 7.640E+01, 1.682E+02, 2.185E+02, 7.516E+01,-6.204E+01, 1.531E-01, 3.192E-02, 2.002E+02
 9.200E+02, 1.494E+02, 1.533E+02, 1.607E+02, 2.114E+02, 7.591E+01, 1.686E+02, 2.166E+02, 7.469E+01,-6.220E+01, 1.531E-01, 3.194E-02, 2.001E+02
 9.300E+02, 1.508E+02, 1.550E+02, 1.613E+02, 2.136E+02, 7.741E+01, 1.729E+02, 2.163E+02, 7.582E+01,-6.088E+01, 1.523E-01, 3.235E-02, 2.001E+02
 9.400E+02, 1.490E+02, 1.564E+02, 1.592E+02, 2.100E+02, 7.783E+01, 1.750E+02, 2.171E+02, 7.718E+01,-6.354E+01, 1.519E-01, 3.259E-02, 1.996E+02
 9.500E+02, 1.499E+02, 1.544E+02, 1.620E+02, 2.095E+02, 7.825E+01, 1.666E+02, 2.192E+02, 7.736E+01,-6.220E+01, 1.514E-01, 3.285E-02, 2.006E+02
 9.600E+02, 1.496E+02, 1.556E+02, 1.602E+02, 2.105E+02, 7.792E+01, 1.707E+02, 2.202E+02, 7.584E+01,-6.645E+01, 1.511E-01, 3.303E-02, 1.998E+02
 9.700E+02, 1.503E+02, 1.555E+02, 1.623E+02, 2.110E+02, 7.757E+01, 1.704E+02, 2.201E+02, 7.621E+01,-6.401E+01, 1.510E-01, 3.312E-02, 2.003E+02
 9.800E+02, 1.505E+02, 1.559E+02, 1.634E+02, 2.106E+02, 7.746E+01, 1.720E+02, 2.190E+02, 7.668E+01,-6.395E+01, 1.507E-01, 3.325E-02, 2.003E+02
 9.900E+02, 1.514E+02, 1.551E+02, 1.637E+02, 2.135E+02, 7.710E+01, 1.722E+02, 2.174E+02, 7.570E+01,-6.103E+01, 1.508E-01, 3.324E-02, 2.004E+02
 1.000E+03, 1.512E+02, 1.561E+02, 1.629E+02, 2.124E+02, 7.850E+01, 1.725E+02, 2.188E+02, 7.708E+01,-6.738E+01, 1.502E-01, 3.353E-02, 1.996E+02
 1.010E+03, 1.509E+02, 1.560E+02, 1.631E+02, 2.113E+02, 7.813E+01, 1.705E+02, 2.204E+02, 7.716E+01,-6.352E+01, 1.500E-01, 3.366E-02, 1.995E+02
 1.020E+03, 1.505E+02, 1.566E+02, 1.619E+02, 2.112E+02, 7.848E+01, 1.734E+02, 2.187E+02, 7.757E+01,-5.996E+01, 1.499E-01, 3.369E-02, 2.004E+02
 1.030E+03, 1.517E+02, 1.564E+02, 1.628E+02, 2.136E+02, 7.872E+01, 1.697E+02, 2.211E+02, 7.830E+01,-5.832E+01, 1.497E-01, 3.380E-02, 2.005E+02
 1.040E+03, 1.526E+02, 1.567E+02, 1.641E+02, 2.145E+02, 7.915E+01, 1.720E+02, 2.209E+02, 7.729E+01,-6.980E+01, 1.494E-01, 3.397E-02, 1.997E+02
 1.050E+03, 1.523E+02, 1.575E+02, 1.635E+02, 2.136E+02, 7.980E+01, 1.768E+02, 2.189E+02, 7.672E+01,-6.770E+01, 1.492E-01, 3.410E-02, 2.002E+02
 1.060E+03, 1.530E+02, 1.567E+02, 1.642E+02, 2.156E+02, 7.909E+01, 1.734E+02, 2.180E+02, 7.875E+01,-6.449E+01, 1.489E-01, 3.428E-02, 1.996E+02
 1.070E+03, 1.529E+02, 1.569E+02, 1.638E+02, 2.155E+02, 7.933E+01, 1.732E+02, 2.197E+02, 7.772E+01,-6.038E+01, 1.488E-01, 3.434E-02, 2.010E+02
 1.080E+03, 1.531E+02, 1.603E+02, 1.642E+02, 2.147E+02, 8.043E+01, 1.787E+02, 2.242E+02, 7.797E+01,-6.512E+01, 1.485E-01, 3.448E-02, 1.997E+02
 1.090E+03, 1.533E+02, 1.579E+02, 1.647E+02, 2.163E+02, 7.902E+01, 1.738E+02, 2.226E+02, 7.748E+01,-5.898E+01, 1.484E-01, 3.455E-02, 1.996E+02
 1.100E+03, 1.542E+02, 1.593E+02, 1.657E+02, 2.164E+02, 8.055E+01, 1.762E+02, 2.226E+02, 7.898E+01,-6.046E+01, 1.483E-01, 3.461E-02, 2.003E+02
 1.110E+03, 1.553E+02, 1.588E+02, 1.659E+02, 2.185E+02, 8.142E+01, 1.740E+02, 2.229E+02, 7.937E+01,-6.656E+01, 1.483E-01, 3.458E-02, 1.998E+02
 1.120E+03, 1.552E+02, 1.594E+02, 1.657E+02, 2.194E+02, 8.059E+01, 1.753E+02, 2.248E+02, 7.802E+01,-6.684E+01, 1.482E-01, 3.468E-02, 2.002E+02
 1.130E+03, 1.551E+02, 1.595E+02, 1.660E+02, 2.187E+02, 8.073E+01, 1.768E+02, 2.231E+02, 7.877E+01,-6.162E+01, 1.476E-01, 3.502E-02, 1.996E+02
 1.140E+03, 1.546E+02, 1.597E+02, 1.644E+02, 2.184E+02, 8.087E+01, 1.793E+02, 2.199E+02, 7.981E+01,-5.939E+01, 1.476E-01, 3.500E-02, 2.004E+02
 1.150E+03, 1.554E+02, 1.606E+02, 1.648E+02, 2.200E+02, 8.131E+01, 1.814E+02, 2.206E+02, 7.971E+01,-5.750E+01, 1.476E-01, 3.500E-02, 2.000E+02
 1.160E+03, 1.573E+02, 1.619E+02, 1.671E+02, 2.234E+02, 8.127E+01, 1.776E+02, 2.282E+02, 7.996E+01,-6.480E+01, 1.475E-01, 3.507E-02, 2.000E+02
 1.170E+03, 1.555E+02, 1.608E+02, 1.667E+02, 2.166E+02, 8.304E+01, 1.772E+02, 2.269E+02, 7.839E+01,-6.378E+01, 1.474E-01, 3.513E-02, 2.002E+02
 1.180E+03, 1.569E+02, 1.613E+02, 1.680E+02, 2.202E+02, 8.239E+01, 1.763E+02, 2.267E+02, 8.092E+01,-6.261E+01, 1.471E-01, 3.528E-02, 2.001E+02
 1.190E+03, 1.574E+02, 1.623E+02, 1.669E+02, 2.219E+02, 8.329E+01, 1.814E+02, 2.250E+02, 8.064E+01,-6.125E+01, 1.471E-01, 3.527E-02, 2.002E+02
 1.200E+03, 1.563E+02, 1.618E+02, 1.662E+02, 2.191E+02, 8.349E+01, 1.770E+02, 2.266E+02, 8.188E+01,-6.440E+01, 1.466E-01, 3.557E-02, 2.002E+02
 1.210E+03, 1.557E+02, 1.607E+02, 1.675E+02, 2.174E+02, 8.218E+01, 1.760E+02, 2.242E+02, 8.182E+01,-6.250E+01, 1.466E-01, 3.555E-02, 2.001E+02
 1.220E+03, 1.580E+02, 1.596E+02, 1.694E+02, 2.216E+02, 8.309E+01, 1.770E+02, 2.217E+02, 8.016E+01,-6.262E+01, 1.466E-01, 3.558E-02, 1.997E+02
 1.230E+03, 1.580E+02, 1.621E+02, 1.680E+02, 2.232E+02, 8.295E+01, 1.798E+02, 2.251E+02, 8.133E+01,-6.401E+01, 1.463E-01, 3.574E-02, 2.002E+02
 1.240E+03, 1.576E+02, 1.614E+02, 1.688E+02, 2.225E+02, 8.152E+01, 1.779E+02, 2.255E+02, 8.068E+01,-6.223E+01, 1.463E-01, 3.573E-02, 2.004E+02
 1.250E+03, 1.568E+02, 1.616E+02, 1.676E+02, 2.195E+02, 8.335E+01, 1.779E+02, 2.264E+02, 8.033E+01,-6.143E+01, 1.462E-01, 3.576E-02, 1.999E+02
 1.260E+03, 1.578E+02, 1.619E+02, 1.672E+02, 2.223E+02, 8.393E+01, 1.780E+02, 2.260E+02, 8.183E+01,-6.229E+01, 1.461E-01, 3.587E-02, 2.000E+02
 1.270E+03, 1.577E+02, 1.638E+02, 1.685E+02, 2.211E+02, 8.356E+01, 1.822E+02, 2.276E+02, 8.158E+01,-6.124E+01, 1.463E-01, 3.575E-02, 1.998E+02
 1.280E+03, 1.577E+02, 1.623E+02, 1.694E+02, 2.193E+02, 8.445E+01, 1.796E+02, 2.253E+02, 8.203E+01,-6.210E+01, 1.460E-01, 3.591E-02, 2.008E+02
 1.290E+03, 1.595E+02, 1.620E+02, 1.707E+02, 2.227E+02, 8.509E+01, 1.801E+02, 2.231E+02, 8.276E+01,-6.037E+01, 1.460E-01, 3.589E-02, 1.999E+02
 1.300E+03, 1.587E+02, 1.633E+02, 1.689E+02, 2.227E+02, 8.443E+01, 1.793E+02, 2.280E+02, 8.250E+01,-6.159E+01, 1.459E-01, 3.596E-02, 2.000E+02
 1.310E+03, 1.575E+02, 1.637E+02, 1.685E+02, 2.198E+02, 8.422E+01, 1.840E+02, 2.253E+02, 8.168E+01,-6.173E+01, 1.460E-01, 3.591E-02, 1.996E+02
