s,C,C,C,C,C,C,C,C,Pa,mol/mol,mol/mol,kW
Time,"West_All_TCs","East_All_TCs","West_Bottom_TCs","West_Middle_TCs","West_Upper_TCs","East_Bottom_TCs","East_Middle_TCs","East_Upper_TCs","Pressure","O2","CO2","HRR"
-6.000E+01, 3.400E+01, 3.400E+01, 3.400E+01, 3.400E+01, 3.400E+01, 3.400E+01, 3.400E+01, 3.400E+01,-9.314E-06, 2.095E-01, 3.901E-04, 0.000E+00
-4.999E+01, 3.400E+01, 3.400E+01, 3.400E+01, 3.400E+01, 3.400E+01, 3.400E+01, 3.401E+01, 3.400E+01,-5.438E-03, 2.095E-01, 3.901E-04, 0.000E+00
-3.999E+01, 3.400E+01, 3.400E+01, 3.400E+01, 3.400E+01, 3.400E+01, 3.400E+01, 3.401E+01, 3.400E+01,-5.324E-03, 2.095E-01, 3.901E-04, 0.000E+00
-2.998E+01, 3.400E+01, 3.400E+01, 3.400E+01, 3.400E+01, 3.400E+01, 3.400E+01, 3.400E+01, 3.400E+01,-5.401E-03, 2.095E-01, 3.901E-04, 0.000E+00
-1.997E+01, 3.400E+01, 3.400E+01, 3.400E+01, 3.400E+01, 3.400E+01, 3.400E+01, 3.400E+01, 3.400E+01,-5.364E-03, 2.095E-01, 3.901E-04, 0.000E+00
-9.967E+00, 3.400E+01, 3.400E+01, 3.400E+01, 3.400E+01, 3.400E+01, 3.400E+01, 3.400E+01, 3.400E+01,-5.327E-03, 2.095E-01, 3.901E-04, 0.000E+00
 3.957E-02, 3.400E+01, 3.400E+01, 3.400E+01, 3.400E+01, 3.400E+01, 3.400E+01, 3.400E+01, 3.400E+01,-5.372E-03, 2.095E-01, 3.901E-04, 7.003E-04
 1.002E+01, 3.499E+01, 3.541E+01, 3.448E+01, 3.643E+01, 3.406E+01, 3.477E+01, 3.732E+01, 3.416E+01, 1.607E+01, 2.095E-01, 3.901E-04, 3.298E+01
 2.000E+01, 3.920E+01, 3.995E+01, 3.649E+01, 4.606E+01, 3.505E+01, 3.735E+01, 4.741E+01, 3.508E+01, 8.725E+01, 2.095E-01, 3.901E-04, 9.942E+01
 3.002E+01, 4.874E+01, 4.931E+01, 4.018E+01, 7.057E+01, 3.548E+01, 4.139E+01, 7.152E+01, 3.504E+01, 1.903E+02, 2.095E-01, 3.901E-04, 1.659E+02
 4.000E+01, 6.034E+01, 6.114E+01, 4.763E+01, 9.711E+01, 3.627E+01, 4.881E+01, 9.946E+01, 3.516E+01, 2.228E+02, 2.095E-01, 3.901E-04, 1.999E+02
 5.002E+01, 7.066E+01, 7.264E+01, 5.698E+01, 1.183E+02, 3.669E+01, 5.844E+01, 1.237E+02, 3.579E+01, 1.634E+02, 2.094E-01, 4.744E-04, 2.001E+02
 6.002E+01, 8.101E+01, 8.193E+01, 6.742E+01, 1.381E+02, 3.753E+01, 6.915E+01, 1.402E+02, 3.646E+01, 1.207E+02, 2.092E-01, 5.906E-04, 2.004E+02
 7.001E+01, 8.939E+01, 8.962E+01, 7.966E+01, 1.512E+02, 3.730E+01, 8.084E+01, 1.507E+02, 3.733E+01, 8.948E+01, 2.091E-01, 6.529E-04, 1.999E+02
 8.001E+01, 9.639E+01, 9.816E+01, 9.169E+01, 1.600E+02, 3.747E+01, 9.267E+01, 1.640E+02, 3.776E+01, 6.835E+01, 2.090E-01, 6.741E-04, 2.000E+02
 9.002E+01, 1.024E+02, 1.028E+02, 1.014E+02, 1.673E+02, 3.839E+01, 1.026E+02, 1.675E+02, 3.818E+01, 5.382E+01, 2.089E-01, 7.389E-04, 2.004E+02
 1.000E+02, 1.089E+02, 1.075E+02, 1.087E+02, 1.790E+02, 3.890E+01, 1.125E+02, 1.715E+02, 3.840E+01, 4.284E+01, 2.088E-01, 7.804E-04, 2.002E+02
 1.100E+02, 1.125E+02, 1.111E+02, 1.168E+02, 1.811E+02, 3.963E+01, 1.187E+02, 1.757E+02, 3.904E+01, 3.377E+01, 2.086E-01, 9.125E-04, 1.994E+02
 1.200E+02, 1.164E+02, 1.158E+02, 1.233E+02, 1.861E+02, 3.985E+01, 1.257E+02, 1.818E+02, 3.978E+01, 2.815E+01, 2.084E-01, 1.012E-03, 2.004E+02
 1.300E+02, 1.188E+02, 1.195E+02, 1.288E+02, 1.876E+02, 4.016E+01, 1.315E+02, 1.865E+02, 4.047E+01, 2.320E+01, 2.082E-01, 1.123E-03, 2.002E+02
 1.400E+02, 1.217E+02, 1.222E+02, 1.344E+02, 1.894E+02, 4.115E+01, 1.346E+02, 1.914E+02, 4.058E+01, 2.068E+01, 2.082E-01, 1.158E-03, 2.000E+02
 1.500E+02, 1.238E+02, 1.239E+02, 1.372E+02, 1.928E+02, 4.128E+01, 1.398E+02, 1.908E+02, 4.100E+01, 1.772E+01, 2.079E-01, 1.296E-03, 2.000E+02
 1.600E+02, 1.273E+02, 1.255E+02, 1.416E+02, 1.985E+02, 4.171E+01, 1.421E+02, 1.933E+02, 4.099E+01, 1.671E+01, 2.078E-01, 1.362E-03, 2.006E+02
 1.700E+02, 1.273E+02, 1.273E+02, 1.435E+02, 1.960E+02, 4.233E+01, 1.471E+02, 1.934E+02, 4.140E+01, 1.669E+01, 2.077E-01, 1.423E-03, 2.004E+02
 1.800E+02, 1.297E+02, 1.314E+02, 1.467E+02, 2.002E+02, 4.208E+01, 1.492E+02, 2.027E+02, 4.241E+01, 1.568E+01, 2.074E-01, 1.588E-03, 2.000E+02
 1.900E+02, 1.299E+02, 1.347E+02, 1.483E+02, 1.989E+02, 4.257E+01, 1.516E+02, 2.106E+02, 4.198E+01, 1.527E+01, 2.076E-01, 1.473E-03, 2.004E+02
 2.000E+02, 1.311E+02, 1.340E+02, 1.495E+02, 2.006E+02, 4.322E+01, 1.534E+02, 2.061E+02, 4.238E+01, 1.458E+01, 2.071E-01, 1.750E-03, 2.003E+02
 2.100E+02, 1.316E+02, 1.361E+02, 1.523E+02, 1.995E+02, 4.296E+01, 1.525E+02, 2.131E+02, 4.268E+01, 1.371E+01, 2.068E-01, 1.940E-03, 2.004E+02
 2.200E+02, 1.332E+02, 1.372E+02, 1.538E+02, 2.029E+02, 4.283E+01, 1.550E+02, 2.139E+02, 4.275E+01, 1.317E+01, 2.067E-01, 1.987E-03, 2.001E+02
 2.300E+02, 1.338E+02, 1.366E+02, 1.565E+02, 2.017E+02, 4.329E+01, 1.561E+02, 2.112E+02, 4.247E+01, 1.328E+01, 2.065E-01, 2.085E-03, 2.001E+02
 2.400E+02, 1.366E+02, 1.374E+02, 1.587E+02, 2.076E+02, 4.346E+01, 1.579E+02, 2.115E+02, 4.280E+01, 1.337E+01, 2.061E-01, 2.298E-03, 2.007E+02
 2.500E+02, 1.369E+02, 1.367E+02, 1.569E+02, 2.103E+02, 4.348E+01, 1.576E+02, 2.098E+02, 4.287E+01, 1.273E+01, 2.060E-01, 2.358E-03, 1.997E+02
 2.600E+02, 1.377E+02, 1.376E+02, 1.594E+02, 2.094E+02, 4.426E+01, 1.557E+02, 2.131E+02, 4.392E+01, 1.280E+01, 2.053E-01, 2.777E-03, 1.997E+02
 2.700E+02, 1.378E+02, 1.386E+02, 1.593E+02, 2.097E+02, 4.449E+01, 1.576E+02, 2.141E+02, 4.392E+01, 1.190E+01, 2.051E-01, 2.870E-03, 1.999E+02
 2.800E+02, 1.377E+02, 1.386E+02, 1.568E+02, 2.118E+02, 4.449E+01, 1.579E+02, 2.138E+02, 4.403E+01, 1.222E+01, 2.047E-01, 3.074E-03, 2.005E+02
 2.900E+02, 1.393E+02, 1.400E+02, 1.588E+02, 2.143E+02, 4.484E+01, 1.586E+02, 2.171E+02, 4.416E+01, 1.121E+01, 2.046E-01, 3.180E-03, 1.998E+02
 3.000E+02, 1.392E+02, 1.398E+02, 1.586E+02, 2.145E+02, 4.451E+01, 1.586E+02, 2.171E+02, 4.382E+01, 1.138E+01, 2.043E-01, 3.336E-03, 2.001E+02
 3.100E+02, 1.403E+02, 1.397E+02, 1.586E+02, 2.171E+02, 4.508E+01, 1.593E+02, 2.157E+02, 4.403E+01, 1.246E+01, 2.040E-01, 3.488E-03, 2.005E+02
 3.200E+02, 1.406E+02, 1.407E+02, 1.588E+02, 2.177E+02, 4.535E+01, 1.603E+02, 2.169E+02, 4.474E+01, 1.107E+01, 2.035E-01, 3.784E-03, 2.000E+02
 3.300E+02, 1.412E+02, 1.401E+02, 1.602E+02, 2.181E+02, 4.520E+01, 1.604E+02, 2.152E+02, 4.473E+01, 1.219E+01, 2.033E-01, 3.892E-03, 1.997E+02
 3.400E+02, 1.422E+02, 1.411E+02, 1.614E+02, 2.196E+02, 4.550E+01, 1.611E+02, 2.174E+02, 4.471E+01, 1.233E+01, 2.030E-01, 4.052E-03, 2.000E+02
 3.500E+02, 1.417E+02, 1.403E+02, 1.602E+02, 2.195E+02, 4.548E+01, 1.612E+02, 2.147E+02, 4.504E+01, 1.172E+01, 2.023E-01, 4.452E-03, 2.000E+02
 3.600E+02, 1.434E+02, 1.412E+02, 1.622E+02, 2.221E+02, 4.577E+01, 1.612E+02, 2.176E+02, 4.490E+01, 9.687E+00, 2.020E-01, 4.592E-03, 1.955E+02
 3.700E+02, 1.420E+02, 1.418E+02, 1.621E+02, 2.177E+02, 4.610E+01, 1.641E+02, 2.161E+02, 4.518E+01, 7.072E+00, 2.016E-01, 4.841E-03, 1.904E+02
 3.800E+02, 1.412E+02, 1.403E+02, 1.622E+02, 2.157E+02, 4.579E+01, 1.619E+02, 2.132E+02, 4.578E+01, 4.779E+00, 2.009E-01, 5.226E-03, 1.822E+02
 3.900E+02, 1.402E+02, 1.396E+02, 1.604E+02, 2.139E+02, 4.614E+01, 1.621E+02, 2.113E+02, 4.551E+01, 4.289E+00, 2.009E-01, 5.244E-03, 1.775E+02
 4.000E+02, 1.338E+02, 1.372E+02, 1.551E+02, 2.003E+02, 4.589E+01, 1.660E+02, 1.997E+02, 4.585E+01,-8.156E+01, 1.998E-01, 5.837E-03, 7.606E+01
 4.100E+02, 1.331E+02, 1.363E+02, 1.506E+02, 2.023E+02, 4.639E+01, 1.562E+02, 2.071E+02, 4.550E+01, 6.360E+01, 1.997E-01, 5.881E-03, 2.075E+02
 4.200E+02, 1.270E+02, 1.288E+02, 1.456E+02, 1.892E+02, 4.637E+01, 1.505E+02, 1.899E+02, 4.584E+01,-7.825E+01, 1.990E-01, 6.306E-03, 2.849E+01
 4.300E+02, 1.226E+02, 1.283E+02, 1.374E+02, 1.843E+02, 4.615E+01, 1.470E+02, 1.916E+02, 4.630E+01, 8.054E+01, 1.984E-01, 6.592E-03, 1.561E+02
 4.400E+02, 1.214E+02, 1.244E+02, 1.360E+02, 1.811E+02, 4.719E+01, 1.460E+02, 1.822E+02, 4.506E+01,-5.757E+01, 1.982E-01, 6.715E-03, 1.580E+01
 4.500E+02, 1.184E+02, 1.222E+02, 1.316E+02, 1.769E+02, 4.660E+01, 1.384E+02, 1.816E+02, 4.663E+01, 4.524E+01, 1.968E-01, 7.490E-03, 1.152E+02
 4.600E+02, 1.190E+02, 1.194E+02, 1.318E+02, 1.784E+02, 4.679E+01, 1.341E+02, 1.775E+02, 4.668E+01,-1.914E+01, 1.967E-01, 7.589E-03, 9.170E+00
 4.700E+02, 1.129E+02, 1.192E+02, 1.264E+02, 1.655E+02, 4.671E+01, 1.309E+02, 1.805E+02, 4.607E+01,-1.157E+00, 1.962E-01, 7.867E-03, 2.494E+01
 4.800E+02, 1.116E+02, 1.202E+02, 1.227E+02, 1.653E+02, 4.697E+01, 1.237E+02, 1.907E+02, 4.601E+01,-9.688E+00, 1.963E-01, 7.808E-03, 1.383E+01
 4.900E+02, 1.081E+02, 1.118E+02, 1.169E+02, 1.611E+02, 4.638E+01, 1.192E+02, 1.700E+02, 4.624E+01,-3.781E+00, 1.959E-01, 8.006E-03, 6.419E-01
 5.000E+02, 1.054E+02, 1.078E+02, 1.137E+02, 1.563E+02, 4.620E+01, 1.116E+02, 1.666E+02, 4.510E+01, 2.400E+00, 1.953E-01, 8.375E-03, 1.560E-01
 5.100E+02, 1.050E+02, 1.085E+02, 1.109E+02, 1.573E+02, 4.691E+01, 1.071E+02, 1.732E+02, 4.519E+01, 6.164E+00, 1.948E-01, 8.623E-03, 1.596E+00
 5.200E+02, 1.053E+02, 1.090E+02, 1.069E+02, 1.625E+02, 4.653E+01, 1.074E+02, 1.742E+02, 4.526E+01, 1.450E+01, 1.945E-01, 8.821E-03, 8.646E-01
 5.300E+02, 1.060E+02, 1.093E+02, 1.030E+02, 1.690E+02, 4.602E+01, 1.060E+02, 1.765E+02, 4.556E+01, 1.386E+00, 1.940E-01, 9.083E-03, 9.006E-01
 5.400E+02, 1.125E+02, 1.042E+02, 1.018E+02, 1.869E+02, 4.868E+01, 1.039E+02, 1.633E+02, 4.539E+01, 1.143E+01, 1.935E-01, 9.369E-03, 1.930E+00
 5.500E+02, 1.076E+02, 1.026E+02, 1.010E+02, 1.710E+02, 5.080E+01, 9.846E+01, 1.615E+02, 4.802E+01, 4.470E+00, 1.928E-01, 9.730E-03, 3.611E-01
 5.600E+02, 1.099E+02, 1.023E+02, 9.864E+01, 1.775E+02, 5.342E+01, 9.771E+01, 1.591E+02, 5.020E+01, 2.489E+01, 1.924E-01, 9.948E-03, 6.442E-01
 5.700E+02, 1.098E+02, 1.049E+02, 9.861E+01, 1.760E+02, 5.480E+01, 9.661E+01, 1.642E+02, 5.391E+01, 2.047E+01, 1.913E-01, 1.056E-02, 5.543E-01
 5.800E+02, 1.082E+02, 1.083E+02, 9.729E+01, 1.709E+02, 5.628E+01, 9.606E+01, 1.722E+02, 5.658E+01, 9.294E+00, 1.907E-01, 1.092E-02, 4.410E-01
 5.900E+02, 1.072E+02, 1.108E+02, 9.677E+01, 1.663E+02, 5.862E+01, 9.564E+01, 1.791E+02, 5.750E+01, 1.815E+01, 1.908E-01, 1.087E-02, 4.560E-01
 6.000E+02, 1.047E+02, 1.053E+02, 9.559E+01, 1.585E+02, 5.993E+01, 9.449E+01, 1.639E+02, 5.739E+01,-1.275E+00, 1.904E-01, 1.107E-02, 2.554E-01
 6.100E+02, 1.020E+02, 1.053E+02, 9.404E+01, 1.525E+02, 5.935E+01, 9.330E+01, 1.654E+02, 5.731E+01,-7.514E-02, 1.888E-01, 1.200E-02, 9.159E-01
 6.200E+02, 1.008E+02, 1.038E+02, 9.269E+01, 1.510E+02, 5.885E+01, 9.267E+01, 1.623E+02, 5.651E+01, 1.919E+00, 1.896E-01, 1.154E-02, 1.041E-01
 6.300E+02, 9.810E+01, 1.036E+02, 9.169E+01, 1.453E+02, 5.736E+01, 9.201E+01, 1.626E+02, 5.634E+01, 5.679E-01, 1.893E-01, 1.170E-02, 7.220E-01
 6.401E+02, 9.727E+01, 1.021E+02, 9.113E+01, 1.442E+02, 5.652E+01, 9.044E+01, 1.621E+02, 5.379E+01,-8.839E-01, 1.891E-01, 1.182E-02, 1.125E+00
 6.500E+02, 9.838E+01, 9.900E+01, 8.989E+01, 1.490E+02, 5.629E+01, 8.920E+01, 1.543E+02, 5.348E+01, 4.976E+00, 1.887E-01, 1.206E-02, 1.622E+00
 6.600E+02, 1.059E+02, 9.684E+01, 8.915E+01, 1.708E+02, 5.791E+01, 8.904E+01, 1.477E+02, 5.381E+01, 4.321E+01, 1.880E-01, 1.243E-02, 1.165E-01
 6.700E+02, 1.327E+02, 1.090E+02, 9.280E+01, 2.389E+02, 6.632E+01, 8.836E+01, 1.787E+02, 5.999E+01, 2.759E+02, 1.859E-01, 1.358E-02, 5.151E+00
 6.800E+02, 1.318E+02, 1.260E+02, 9.529E+01, 2.318E+02, 6.830E+01, 9.243E+01, 2.203E+02, 6.520E+01, 1.135E+02, 1.857E-01, 1.371E-02, 2.171E+00
 6.900E+02, 1.225E+02, 1.298E+02, 9.577E+01, 2.033E+02, 6.833E+01, 9.804E+01, 2.231E+02, 6.833E+01, 4.739E+00, 1.846E-01, 1.434E-02, 1.255E-02
 7.001E+02, 1.172E+02, 1.240E+02, 9.645E+01, 1.879E+02, 6.712E+01, 9.718E+01, 2.082E+02, 6.652E+01,-6.762E+00, 1.842E-01, 1.455E-02, 2.448E-01
 7.100E+02, 1.156E+02, 1.197E+02, 9.682E+01, 1.816E+02, 6.823E+01, 9.575E+01, 2.004E+02, 6.312E+01,-5.995E+00, 1.841E-01, 1.460E-02, 3.752E-01
 7.200E+02, 1.112E+02, 1.131E+02, 9.661E+01, 1.714E+02, 6.567E+01, 9.347E+01, 1.826E+02, 6.319E+01,-6.240E+00, 1.817E-01, 1.593E-02, 2.700E+00
 7.300E+02, 1.070E+02, 1.099E+02, 9.603E+01, 1.625E+02, 6.249E+01, 9.275E+01, 1.744E+02, 6.250E+01,-6.745E+00, 1.818E-01, 1.590E-02, 8.065E-01
 7.401E+02, 1.035E+02, 1.071E+02, 9.492E+01, 1.548E+02, 6.067E+01, 9.230E+01, 1.683E+02, 6.077E+01,-4.442E+00, 1.815E-01, 1.605E-02, 1.102E+00
 7.500E+02, 1.019E+02, 1.041E+02, 9.453E+01, 1.503E+02, 6.093E+01, 9.146E+01, 1.619E+02, 5.891E+01,-2.316E+00, 1.814E-01, 1.613E-02, 1.441E-01
 7.601E+02, 1.013E+02, 1.008E+02, 9.312E+01, 1.494E+02, 6.148E+01, 9.158E+01, 1.532E+02, 5.758E+01, 1.040E-01, 1.815E-01, 1.604E-02, 1.856E-01
 7.701E+02, 9.915E+01, 9.931E+01, 9.171E+01, 1.443E+02, 6.145E+01, 9.056E+01, 1.490E+02, 5.836E+01, 1.135E+00, 1.804E-01, 1.665E-02, 3.106E-02
 7.800E+02, 9.858E+01, 9.767E+01, 9.036E+01, 1.437E+02, 6.172E+01, 8.866E+01, 1.454E+02, 5.896E+01, 5.082E+00, 1.807E-01, 1.651E-02, 3.371E-01
 7.900E+02, 9.981E+01, 9.624E+01, 8.919E+01, 1.472E+02, 6.301E+01, 8.760E+01, 1.409E+02, 6.018E+01, 9.320E+00, 1.798E-01, 1.702E-02, 3.558E-03
 8.000E+02, 1.225E+02, 9.824E+01, 9.014E+01, 2.093E+02, 6.798E+01, 8.725E+01, 1.458E+02, 6.170E+01, 1.766E+02, 1.790E-01, 1.747E-02, 2.462E+00
 8.100E+02, 1.662E+02, 1.253E+02, 9.870E+01, 3.258E+02, 7.425E+01, 8.979E+01, 2.179E+02, 6.820E+01, 5.122E+02, 1.776E-01, 1.821E-02, 3.702E+01
 8.200E+02, 1.543E+02, 1.365E+02, 1.037E+02, 2.839E+02, 7.534E+01, 9.759E+01, 2.388E+02, 7.302E+01, 8.712E+01, 1.770E-01, 1.860E-02, 8.510E+00
 8.300E+02, 1.381E+02, 1.504E+02, 1.059E+02, 2.327E+02, 7.565E+01, 1.035E+02, 2.741E+02, 7.375E+01, 8.269E+00, 1.766E-01, 1.879E-02, 4.680E+00
 8.400E+02, 1.326E+02, 1.413E+02, 1.068E+02, 2.166E+02, 7.441E+01, 1.070E+02, 2.445E+02, 7.240E+01, 1.281E+01, 1.747E-01, 1.986E-02, 1.591E-01
 8.500E+02, 1.305E+02, 1.356E+02, 1.066E+02, 2.111E+02, 7.375E+01, 1.097E+02, 2.275E+02, 6.954E+01,-5.503E+00, 1.742E-01, 2.012E-02, 9.727E-01
 8.600E+02, 1.249E+02, 1.303E+02, 1.072E+02, 1.977E+02, 6.996E+01, 1.084E+02, 2.134E+02, 6.896E+01,-1.253E+01, 1.726E-01, 2.102E-02, 6.888E-01
 8.701E+02, 1.203E+02, 1.227E+02, 1.060E+02, 1.854E+02, 6.940E+01, 1.042E+02, 1.973E+02, 6.663E+01,-1.071E+01, 1.727E-01, 2.096E-02, 4.757E-01
 8.800E+02, 1.158E+02, 1.191E+02, 1.048E+02, 1.746E+02, 6.803E+01, 1.036E+02, 1.876E+02, 6.607E+01,-8.311E+00, 1.721E-01, 2.130E-02, 5.537E-01
 8.900E+02, 1.124E+02, 1.161E+02, 1.024E+02, 1.687E+02, 6.593E+01, 1.031E+02, 1.798E+02, 6.530E+01,-4.663E+00, 1.718E-01, 2.148E-02, 3.687E-01
 9.000E+02, 1.098E+02, 1.133E+02, 1.005E+02, 1.640E+02, 6.488E+01, 1.020E+02, 1.749E+02, 6.293E+01,-4.501E+00, 1.719E-01, 2.144E-02, 1.605E-01
 9.101E+02, 1.073E+02, 1.125E+02, 9.931E+01, 1.582E+02, 6.437E+01, 1.001E+02, 1.744E+02, 6.296E+01,-3.903E+00, 1.709E-01, 2.197E-02, 5.061E-01
 9.201E+02, 1.050E+02, 1.102E+02, 9.816E+01, 1.544E+02, 6.240E+01, 9.776E+01, 1.707E+02, 6.228E+01,-2.325E+00, 1.710E-01, 2.195E-02, 3.133E-01
 9.300E+02, 1.033E+02, 1.070E+02, 9.680E+01, 1.507E+02, 6.250E+01, 9.551E+01, 1.646E+02, 6.096E+01,-1.676E+00, 1.710E-01, 2.194E-02, 3.092E-01
 9.400E+02, 1.018E+02, 1.051E+02, 9.557E+01, 1.485E+02, 6.146E+01, 9.384E+01, 1.612E+02, 6.019E+01,-7.983E-01, 1.707E-01, 2.207E-02, 1.842E-01
 9.500E+02, 1.007E+02, 1.033E+02, 9.406E+01, 1.462E+02, 6.185E+01, 9.308E+01, 1.574E+02, 5.953E+01, 9.330E-01, 1.706E-01, 2.217E-02, 2.503E-02
 9.601E+02, 9.938E+01, 1.017E+02, 9.261E+01, 1.436E+02, 6.190E+01, 9.121E+01, 1.539E+02, 6.001E+01, 1.723E+00, 1.696E-01, 2.272E-02, 4.988E-07
 9.700E+02, 9.882E+01, 1.004E+02, 9.099E+01, 1.432E+02, 6.226E+01, 8.932E+01, 1.513E+02, 6.067E+01, 4.009E+00, 1.693E-01, 2.286E-02, 2.523E-07
 9.800E+02, 9.838E+01, 9.872E+01, 8.995E+01, 1.418E+02, 6.338E+01, 8.891E+01, 1.460E+02, 6.126E+01, 3.561E+00, 1.691E-01, 2.297E-02, 1.005E-06
 9.900E+02, 9.811E+01, 9.687E+01, 8.885E+01, 1.405E+02, 6.496E+01, 8.816E+01, 1.409E+02, 6.158E+01, 6.216E+00, 1.688E-01, 2.315E-02, 3.583E-06
 1.000E+03, 9.691E+01, 9.636E+01, 8.783E+01, 1.359E+02, 6.701E+01, 8.745E+01, 1.385E+02, 6.315E+01, 4.899E+00, 1.681E-01, 2.357E-02, 2.399E-06
