s,C,C,C,C,C,C,C,C,Pa,mol/mol,mol/mol,kW
Time,"West_All_TCs","East_All_TCs","West_Bottom_TCs","West_Middle_TCs","West_Upper_TCs","East_Bottom_TCs","East_Middle_TCs","East_Upper_TCs","Pressure","O2","CO2","HRR"
-6.000E+01, 3.100E+01, 3.100E+01, 3.100E+01, 3.100E+01, 3.100E+01, 3.100E+01, 3.100E+01, 3.100E+01,-9.418E-06, 2.095E-01, 3.901E-04, 0.000E+00
-4.998E+01, 3.099E+01, 3.099E+01, 3.099E+01, 3.099E+01, 3.099E+01, 3.099E+01, 3.099E+01, 3.099E+01,-1.972E+01, 2.095E-01, 3.901E-04, 0.000E+00
-3.996E+01, 3.098E+01, 3.099E+01, 3.099E+01, 3.098E+01, 3.098E+01, 3.099E+01, 3.099E+01, 3.099E+01,-1.895E+01, 2.095E-01, 3.901E-04, 0.000E+00
-2.994E+01, 3.098E+01, 3.099E+01, 3.098E+01, 3.098E+01, 3.097E+01, 3.100E+01, 3.098E+01, 3.099E+01,-1.896E+01, 2.095E-01, 3.901E-04, 0.000E+00
-1.992E+01, 3.098E+01, 3.099E+01, 3.098E+01, 3.098E+01, 3.097E+01, 3.101E+01, 3.098E+01, 3.099E+01,-1.897E+01, 2.095E-01, 3.901E-04, 0.000E+00
-9.896E+00, 3.098E+01, 3.100E+01, 3.098E+01, 3.098E+01, 3.097E+01, 3.101E+01, 3.099E+01, 3.099E+01,-1.897E+01, 2.095E-01, 3.901E-04, 0.000E+00
 1.301E-02, 3.098E+01, 3.100E+01, 3.098E+01, 3.098E+01, 3.098E+01, 3.102E+01, 3.099E+01, 3.099E+01,-1.897E+01, 2.095E-01, 3.901E-04, 8.797E-05
 1.002E+01, 3.153E+01, 3.165E+01, 3.121E+01, 3.239E+01, 3.098E+01, 3.138E+01, 3.258E+01, 3.099E+01,-7.798E+00, 2.095E-01, 3.901E-04, 1.635E+01
 2.002E+01, 3.305E+01, 3.345E+01, 3.182E+01, 3.628E+01, 3.105E+01, 3.216E+01, 3.718E+01, 3.100E+01, 1.603E+00, 2.095E-01, 3.901E-04, 4.964E+01
 3.001E+01, 3.723E+01, 3.766E+01, 3.347E+01, 4.697E+01, 3.125E+01, 3.431E+01, 4.767E+01, 3.099E+01, 1.314E+01, 2.095E-01, 3.901E-04, 8.295E+01
 4.001E+01, 4.281E+01, 4.351E+01, 3.628E+01, 6.048E+01, 3.168E+01, 3.754E+01, 6.201E+01, 3.097E+01, 1.891E+01, 2.095E-01, 3.901E-04, 1.000E+02
 5.000E+01, 4.885E+01, 4.913E+01, 4.181E+01, 7.275E+01, 3.201E+01, 4.270E+01, 7.315E+01, 3.156E+01, 1.388E+01, 2.094E-01, 4.743E-04, 1.001E+02
 6.000E+01, 5.415E+01, 5.451E+01, 4.730E+01, 8.189E+01, 3.326E+01, 4.846E+01, 8.244E+01, 3.264E+01, 9.202E+00, 2.092E-01, 5.554E-04, 1.001E+02
 7.002E+01, 5.884E+01, 5.980E+01, 5.310E+01, 9.000E+01, 3.343E+01, 5.451E+01, 9.116E+01, 3.372E+01, 7.302E+00, 2.091E-01, 6.629E-04, 1.001E+02
 8.002E+01, 6.215E+01, 6.438E+01, 5.929E+01, 9.337E+01, 3.380E+01, 6.010E+01, 9.859E+01, 3.446E+01, 5.715E+00, 2.089E-01, 7.462E-04, 1.001E+02
 9.001E+01, 6.694E+01, 6.761E+01, 6.483E+01, 1.012E+02, 3.476E+01, 6.509E+01, 1.026E+02, 3.518E+01, 4.062E+00, 2.087E-01, 8.358E-04, 1.001E+02
 1.000E+02, 7.039E+01, 7.051E+01, 7.005E+01, 1.059E+02, 3.526E+01, 7.047E+01, 1.057E+02, 3.539E+01,-9.083E-01, 2.086E-01, 9.057E-04, 9.998E+01
 1.100E+02, 7.336E+01, 7.375E+01, 7.408E+01, 1.099E+02, 3.609E+01, 7.518E+01, 1.094E+02, 3.663E+01,-1.704E+00, 2.084E-01, 1.048E-03, 1.000E+02
 1.200E+02, 7.599E+01, 7.622E+01, 7.784E+01, 1.135E+02, 3.663E+01, 7.927E+01, 1.121E+02, 3.729E+01,-2.983E+00, 2.082E-01, 1.167E-03, 1.001E+02
 1.300E+02, 7.863E+01, 7.806E+01, 8.250E+01, 1.157E+02, 3.773E+01, 8.302E+01, 1.132E+02, 3.793E+01,-3.941E+00, 2.080E-01, 1.252E-03, 1.000E+02
 1.400E+02, 8.063E+01, 8.021E+01, 8.624E+01, 1.174E+02, 3.830E+01, 8.647E+01, 1.158E+02, 3.832E+01,-5.367E+00, 2.079E-01, 1.322E-03, 1.000E+02
 1.500E+02, 8.191E+01, 8.149E+01, 8.806E+01, 1.192E+02, 3.850E+01, 8.869E+01, 1.167E+02, 3.909E+01,-6.325E+00, 2.076E-01, 1.496E-03, 1.001E+02
 1.600E+02, 8.356E+01, 8.278E+01, 9.043E+01, 1.212E+02, 3.908E+01, 9.082E+01, 1.182E+02, 3.935E+01,-7.983E+00, 2.075E-01, 1.544E-03, 1.001E+02
 1.700E+02, 8.428E+01, 8.482E+01, 9.240E+01, 1.207E+02, 3.970E+01, 9.436E+01, 1.199E+02, 4.021E+01,-9.210E+00, 2.072E-01, 1.723E-03, 9.999E+01
 1.800E+02, 8.515E+01, 8.596E+01, 9.416E+01, 1.213E+02, 3.998E+01, 9.580E+01, 1.217E+02, 4.040E+01,-1.033E+01, 2.070E-01, 1.788E-03, 1.002E+02
 1.900E+02, 8.564E+01, 8.802E+01, 9.590E+01, 1.208E+02, 4.018E+01, 9.702E+01, 1.262E+02, 4.084E+01,-1.082E+01, 2.069E-01, 1.864E-03, 1.001E+02
 2.000E+02, 8.683E+01, 8.781E+01, 9.696E+01, 1.231E+02, 4.043E+01, 9.790E+01, 1.245E+02, 4.102E+01,-1.227E+01, 2.066E-01, 2.015E-03, 1.001E+02
 2.100E+02, 8.732E+01, 8.830E+01, 9.748E+01, 1.237E+02, 4.076E+01, 9.924E+01, 1.243E+02, 4.135E+01,-1.260E+01, 2.064E-01, 2.169E-03, 1.001E+02
 2.200E+02, 8.728E+01, 8.963E+01, 9.783E+01, 1.228E+02, 4.120E+01, 9.904E+01, 1.284E+02, 4.142E+01,-1.329E+01, 2.062E-01, 2.252E-03, 1.003E+02
 2.300E+02, 8.812E+01, 9.036E+01, 9.802E+01, 1.249E+02, 4.139E+01, 9.982E+01, 1.292E+02, 4.200E+01,-1.458E+01, 2.059E-01, 2.419E-03, 1.004E+02
 2.400E+02, 8.806E+01, 9.084E+01, 9.767E+01, 1.249E+02, 4.159E+01, 1.002E+02, 1.302E+02, 4.206E+01,-1.406E+01, 2.057E-01, 2.554E-03, 1.004E+02
 2.500E+02, 8.861E+01, 9.073E+01, 9.777E+01, 1.261E+02, 4.194E+01, 1.020E+02, 1.280E+02, 4.216E+01,-1.494E+01, 2.056E-01, 2.602E-03, 1.000E+02
 2.600E+02, 8.825E+01, 9.082E+01, 9.790E+01, 1.255E+02, 4.136E+01, 1.015E+02, 1.283E+02, 4.265E+01,-1.470E+01, 2.053E-01, 2.778E-03, 1.002E+02
 2.700E+02, 8.956E+01, 9.031E+01, 9.918E+01, 1.272E+02, 4.227E+01, 1.006E+02, 1.282E+02, 4.214E+01,-1.521E+01, 2.052E-01, 2.800E-03, 1.003E+02
 2.800E+02, 8.927E+01, 9.169E+01, 9.887E+01, 1.262E+02, 4.275E+01, 1.018E+02, 1.305E+02, 4.280E+01,-1.473E+01, 2.046E-01, 3.130E-03, 1.000E+02
 2.900E+02, 8.983E+01, 9.153E+01, 9.963E+01, 1.269E+02, 4.294E+01, 1.008E+02, 1.306E+02, 4.316E+01,-1.386E+01, 2.045E-01, 3.223E-03, 1.002E+02
 3.000E+02, 9.018E+01, 9.210E+01, 9.944E+01, 1.277E+02, 4.340E+01, 1.019E+02, 1.312E+02, 4.318E+01,-1.489E+01, 2.043E-01, 3.331E-03, 9.998E+01
 3.100E+02, 9.101E+01, 9.249E+01, 1.005E+02, 1.292E+02, 4.341E+01, 1.024E+02, 1.309E+02, 4.411E+01,-1.525E+01, 2.039E-01, 3.559E-03, 1.002E+02
 3.200E+02, 9.078E+01, 9.212E+01, 1.009E+02, 1.280E+02, 4.352E+01, 1.015E+02, 1.308E+02, 4.407E+01,-1.484E+01, 2.037E-01, 3.635E-03, 9.999E+01
 3.300E+02, 9.112E+01, 9.348E+01, 1.008E+02, 1.292E+02, 4.340E+01, 1.028E+02, 1.335E+02, 4.421E+01,-1.556E+01, 2.032E-01, 3.909E-03, 1.003E+02
 3.400E+02, 9.136E+01, 9.369E+01, 1.024E+02, 1.283E+02, 4.344E+01, 1.032E+02, 1.337E+02, 4.415E+01,-1.493E+01, 2.029E-01, 4.107E-03, 1.001E+02
 3.500E+02, 9.187E+01, 9.329E+01, 1.030E+02, 1.290E+02, 4.364E+01, 1.036E+02, 1.322E+02, 4.405E+01,-1.613E+01, 2.027E-01, 4.237E-03, 9.996E+01
 3.600E+02, 9.180E+01, 9.454E+01, 1.032E+02, 1.282E+02, 4.392E+01, 1.052E+02, 1.340E+02, 4.436E+01,-1.437E+01, 2.023E-01, 4.424E-03, 1.002E+02
 3.700E+02, 9.242E+01, 9.410E+01, 1.033E+02, 1.301E+02, 4.381E+01, 1.050E+02, 1.333E+02, 4.404E+01,-1.540E+01, 2.023E-01, 4.440E-03, 1.002E+02
 3.800E+02, 9.262E+01, 9.485E+01, 1.031E+02, 1.306E+02, 4.420E+01, 1.052E+02, 1.350E+02, 4.439E+01,-1.637E+01, 2.020E-01, 4.610E-03, 1.002E+02
 3.900E+02, 9.260E+01, 9.472E+01, 1.037E+02, 1.304E+02, 4.375E+01, 1.054E+02, 1.340E+02, 4.472E+01,-1.607E+01, 2.017E-01, 4.788E-03, 1.001E+02
 4.000E+02, 9.282E+01, 9.427E+01, 1.034E+02, 1.309E+02, 4.415E+01, 1.038E+02, 1.345E+02, 4.448E+01,-1.709E+01, 2.014E-01, 4.917E-03, 1.002E+02
 4.100E+02, 9.210E+01, 9.436E+01, 1.021E+02, 1.305E+02, 4.371E+01, 1.049E+02, 1.340E+02, 4.420E+01,-1.679E+01, 2.012E-01, 5.026E-03, 1.002E+02
 4.200E+02, 9.306E+01, 9.478E+01, 1.038E+02, 1.313E+02, 4.406E+01, 1.060E+02, 1.344E+02, 4.388E+01,-1.530E+01, 2.012E-01, 5.050E-03, 1.002E+02
 4.300E+02, 9.339E+01, 9.493E+01, 1.040E+02, 1.322E+02, 4.398E+01, 1.056E+02, 1.347E+02, 4.453E+01,-1.493E+01, 2.008E-01, 5.254E-03, 1.001E+02
 4.400E+02, 9.338E+01, 9.451E+01, 1.035E+02, 1.325E+02, 4.413E+01, 1.065E+02, 1.329E+02, 4.413E+01,-1.589E+01, 2.005E-01, 5.422E-03, 1.001E+02
 4.500E+02, 9.351E+01, 9.544E+01, 1.036E+02, 1.324E+02, 4.453E+01, 1.062E+02, 1.358E+02, 4.435E+01,-1.440E+01, 2.000E-01, 5.732E-03, 1.001E+02
 4.600E+02, 9.394E+01, 9.599E+01, 1.045E+02, 1.323E+02, 4.497E+01, 1.057E+02, 1.374E+02, 4.493E+01,-1.617E+01, 1.995E-01, 5.982E-03, 1.001E+02
 4.700E+02, 9.393E+01, 9.575E+01, 1.050E+02, 1.320E+02, 4.483E+01, 1.075E+02, 1.347E+02, 4.508E+01,-1.693E+01, 1.992E-01, 6.176E-03, 1.001E+02
 4.800E+02, 9.357E+01, 9.606E+01, 1.039E+02, 1.317E+02, 4.503E+01, 1.069E+02, 1.359E+02, 4.536E+01,-1.531E+01, 1.986E-01, 6.486E-03, 1.001E+02
 4.900E+02, 9.476E+01, 9.632E+01, 1.058E+02, 1.335E+02, 4.492E+01, 1.062E+02, 1.380E+02, 4.474E+01,-1.561E+01, 1.987E-01, 6.436E-03, 1.001E+02
 5.000E+02, 9.421E+01, 9.666E+01, 1.050E+02, 1.329E+02, 4.469E+01, 1.082E+02, 1.368E+02, 4.500E+01,-1.575E+01, 1.980E-01, 6.854E-03, 1.000E+02
 5.100E+02, 9.497E+01, 9.659E+01, 1.058E+02, 1.341E+02, 4.508E+01, 1.079E+02, 1.363E+02, 4.557E+01,-1.575E+01, 1.977E-01, 7.035E-03, 1.002E+02
 5.200E+02, 9.488E+01, 9.680E+01, 1.054E+02, 1.341E+02, 4.509E+01, 1.084E+02, 1.368E+02, 4.519E+01,-1.530E+01, 1.973E-01, 7.251E-03, 1.001E+02
 5.300E+02, 9.512E+01, 9.784E+01, 1.058E+02, 1.337E+02, 4.586E+01, 1.081E+02, 1.398E+02, 4.560E+01,-1.592E+01, 1.970E-01, 7.390E-03, 1.004E+02
 5.400E+02, 9.554E+01, 9.810E+01, 1.068E+02, 1.346E+02, 4.526E+01, 1.083E+02, 1.404E+02, 4.557E+01,-1.549E+01, 1.966E-01, 7.613E-03, 1.001E+02
 5.500E+02, 9.540E+01, 9.778E+01, 1.062E+02, 1.349E+02, 4.513E+01, 1.088E+02, 1.392E+02, 4.523E+01,-1.615E+01, 1.965E-01, 7.705E-03, 1.000E+02
 5.600E+02, 9.562E+01, 9.703E+01, 1.060E+02, 1.359E+02, 4.489E+01, 1.071E+02, 1.389E+02, 4.509E+01,-1.578E+01, 1.962E-01, 7.875E-03, 1.001E+02
 5.700E+02, 9.528E+01, 9.857E+01, 1.062E+02, 1.345E+02, 4.518E+01, 1.085E+02, 1.416E+02, 4.566E+01,-1.558E+01, 1.957E-01, 8.125E-03, 1.003E+02
 5.800E+02, 9.638E+01, 9.887E+01, 1.078E+02, 1.354E+02, 4.592E+01, 1.093E+02, 1.415E+02, 4.574E+01,-1.650E+01, 1.953E-01, 8.334E-03, 1.002E+02
 5.900E+02, 9.618E+01, 9.926E+01, 1.078E+02, 1.349E+02, 4.582E+01, 1.101E+02, 1.418E+02, 4.586E+01,-1.656E+01, 1.954E-01, 8.321E-03, 1.002E+02
 6.000E+02, 9.637E+01, 9.758E+01, 1.084E+02, 1.351E+02, 4.563E+01, 1.084E+02, 1.387E+02, 4.557E+01,-1.651E+01, 1.952E-01, 8.409E-03, 1.002E+02
 6.100E+02, 9.633E+01, 9.781E+01, 1.073E+02, 1.360E+02, 4.577E+01, 1.096E+02, 1.381E+02, 4.568E+01,-1.700E+01, 1.946E-01, 8.730E-03, 1.001E+02
 6.200E+02, 9.647E+01, 9.780E+01, 1.085E+02, 1.352E+02, 4.563E+01, 1.099E+02, 1.376E+02, 4.588E+01,-1.607E+01, 1.943E-01, 8.927E-03, 1.000E+02
 6.300E+02, 9.660E+01, 9.855E+01, 1.078E+02, 1.364E+02, 4.561E+01, 1.094E+02, 1.401E+02, 4.618E+01,-1.612E+01, 1.939E-01, 9.155E-03, 1.001E+02
 6.400E+02, 9.729E+01, 9.902E+01, 1.085E+02, 1.374E+02, 4.593E+01, 1.102E+02, 1.405E+02, 4.631E+01,-1.639E+01, 1.936E-01, 9.302E-03, 1.002E+02
 6.500E+02, 9.717E+01, 9.937E+01, 1.084E+02, 1.369E+02, 4.623E+01, 1.107E+02, 1.413E+02, 4.615E+01,-1.593E+01, 1.934E-01, 9.396E-03, 1.001E+02
 6.600E+02, 9.733E+01, 9.934E+01, 1.090E+02, 1.370E+02, 4.594E+01, 1.111E+02, 1.413E+02, 4.567E+01,-1.624E+01, 1.933E-01, 9.481E-03, 1.004E+02
 6.700E+02, 9.714E+01, 9.997E+01, 1.081E+02, 1.372E+02, 4.613E+01, 1.108E+02, 1.426E+02, 4.655E+01,-1.592E+01, 1.924E-01, 9.998E-03, 1.000E+02
 6.800E+02, 9.797E+01, 9.942E+01, 1.090E+02, 1.383E+02, 4.657E+01, 1.109E+02, 1.410E+02, 4.640E+01,-1.632E+01, 1.923E-01, 1.001E-02, 1.000E+02
 6.900E+02, 9.765E+01, 9.960E+01, 1.094E+02, 1.373E+02, 4.625E+01, 1.118E+02, 1.405E+02, 4.650E+01,-1.525E+01, 1.917E-01, 1.036E-02, 1.002E+02
 7.000E+02, 9.786E+01, 9.955E+01, 1.090E+02, 1.381E+02, 4.645E+01, 1.114E+02, 1.410E+02, 4.625E+01,-1.674E+01, 1.915E-01, 1.046E-02, 1.000E+02
 7.100E+02, 9.765E+01, 9.954E+01, 1.082E+02, 1.380E+02, 4.673E+01, 1.104E+02, 1.415E+02, 4.677E+01,-1.634E+01, 1.910E-01, 1.077E-02, 1.003E+02
 7.200E+02, 9.706E+01, 9.970E+01, 1.084E+02, 1.361E+02, 4.667E+01, 1.111E+02, 1.412E+02, 4.674E+01,-1.664E+01, 1.913E-01, 1.061E-02, 1.003E+02
 7.300E+02, 9.783E+01, 1.003E+02, 1.094E+02, 1.374E+02, 4.665E+01, 1.126E+02, 1.418E+02, 4.656E+01,-1.664E+01, 1.909E-01, 1.083E-02, 1.002E+02
 7.400E+02, 9.873E+01, 1.002E+02, 1.104E+02, 1.388E+02, 4.696E+01, 1.119E+02, 1.422E+02, 4.647E+01,-1.630E+01, 1.906E-01, 1.097E-02, 1.001E+02
 7.500E+02, 9.906E+01, 1.001E+02, 1.110E+02, 1.390E+02, 4.713E+01, 1.108E+02, 1.423E+02, 4.723E+01,-1.668E+01, 1.902E-01, 1.122E-02, 1.001E+02
 7.600E+02, 9.864E+01, 1.008E+02, 1.097E+02, 1.387E+02, 4.753E+01, 1.130E+02, 1.423E+02, 4.727E+01,-1.522E+01, 1.898E-01, 1.140E-02, 1.002E+02
 7.700E+02, 9.929E+01, 1.007E+02, 1.108E+02, 1.391E+02, 4.798E+01, 1.125E+02, 1.426E+02, 4.694E+01,-1.589E+01, 1.897E-01, 1.149E-02, 1.000E+02
 7.800E+02, 9.952E+01, 1.013E+02, 1.110E+02, 1.398E+02, 4.767E+01, 1.128E+02, 1.434E+02, 4.772E+01,-1.655E+01, 1.886E-01, 1.208E-02, 1.001E+02
 7.900E+02, 9.980E+01, 1.019E+02, 1.120E+02, 1.401E+02, 4.735E+01, 1.134E+02, 1.446E+02, 4.760E+01,-1.617E+01, 1.883E-01, 1.227E-02, 1.002E+02
 8.000E+02, 9.973E+01, 1.015E+02, 1.110E+02, 1.408E+02, 4.736E+01, 1.133E+02, 1.435E+02, 4.765E+01,-1.578E+01, 1.880E-01, 1.243E-02, 1.003E+02
 8.100E+02, 9.948E+01, 1.012E+02, 1.103E+02, 1.406E+02, 4.758E+01, 1.124E+02, 1.441E+02, 4.721E+01,-1.687E+01, 1.881E-01, 1.238E-02, 1.002E+02
 8.200E+02, 9.988E+01, 1.015E+02, 1.114E+02, 1.403E+02, 4.789E+01, 1.134E+02, 1.437E+02, 4.729E+01,-1.659E+01, 1.875E-01, 1.269E-02, 1.002E+02
 8.300E+02, 9.934E+01, 1.020E+02, 1.103E+02, 1.397E+02, 4.798E+01, 1.133E+02, 1.451E+02, 4.765E+01,-1.529E+01, 1.874E-01, 1.279E-02, 1.001E+02
 8.400E+02, 1.000E+02, 1.010E+02, 1.113E+02, 1.409E+02, 4.796E+01, 1.128E+02, 1.427E+02, 4.751E+01,-1.484E+01, 1.869E-01, 1.305E-02, 1.003E+02
 8.500E+02, 1.002E+02, 1.020E+02, 1.109E+02, 1.410E+02, 4.862E+01, 1.139E+02, 1.437E+02, 4.845E+01,-1.666E+01, 1.863E-01, 1.336E-02, 9.996E+01
 8.600E+02, 9.986E+01, 1.026E+02, 1.109E+02, 1.407E+02, 4.796E+01, 1.138E+02, 1.453E+02, 4.859E+01,-1.537E+01, 1.863E-01, 1.336E-02, 1.002E+02
 8.700E+02, 1.006E+02, 1.024E+02, 1.122E+02, 1.413E+02, 4.821E+01, 1.134E+02, 1.460E+02, 4.776E+01,-1.504E+01, 1.862E-01, 1.345E-02, 1.002E+02
 8.800E+02, 1.014E+02, 1.023E+02, 1.130E+02, 1.418E+02, 4.936E+01, 1.148E+02, 1.433E+02, 4.892E+01,-1.563E+01, 1.852E-01, 1.399E-02, 1.001E+02
 8.900E+02, 1.015E+02, 1.031E+02, 1.120E+02, 1.434E+02, 4.905E+01, 1.141E+02, 1.460E+02, 4.915E+01,-1.608E+01, 1.848E-01, 1.421E-02, 1.000E+02
 9.000E+02, 1.013E+02, 1.031E+02, 1.129E+02, 1.419E+02, 4.897E+01, 1.137E+02, 1.461E+02, 4.937E+01,-1.699E+01, 1.842E-01, 1.453E-02, 1.002E+02
 9.100E+02, 1.011E+02, 1.034E+02, 1.124E+02, 1.420E+02, 4.891E+01, 1.147E+02, 1.468E+02, 4.878E+01,-1.574E+01, 1.840E-01, 1.466E-02, 1.001E+02
 9.200E+02, 1.014E+02, 1.030E+02, 1.132E+02, 1.419E+02, 4.915E+01, 1.148E+02, 1.455E+02, 4.865E+01,-1.590E+01, 1.836E-01, 1.489E-02, 1.002E+02
 9.300E+02, 1.021E+02, 1.032E+02, 1.137E+02, 1.432E+02, 4.957E+01, 1.147E+02, 1.455E+02, 4.944E+01,-1.716E+01, 1.832E-01, 1.508E-02, 1.000E+02
 9.400E+02, 1.013E+02, 1.031E+02, 1.130E+02, 1.417E+02, 4.916E+01, 1.145E+02, 1.457E+02, 4.921E+01,-1.713E+01, 1.831E-01, 1.514E-02, 1.002E+02
 9.500E+02, 1.016E+02, 1.042E+02, 1.131E+02, 1.424E+02, 4.915E+01, 1.168E+02, 1.469E+02, 4.895E+01,-1.510E+01, 1.826E-01, 1.544E-02, 1.001E+02
 9.600E+02, 1.026E+02, 1.043E+02, 1.140E+02, 1.442E+02, 4.976E+01, 1.161E+02, 1.474E+02, 4.942E+01,-1.608E+01, 1.822E-01, 1.565E-02, 1.001E+02
 9.700E+02, 1.024E+02, 1.048E+02, 1.140E+02, 1.442E+02, 4.902E+01, 1.180E+02, 1.464E+02, 4.988E+01,-1.619E+01, 1.819E-01, 1.582E-02, 1.003E+02
 9.800E+02, 1.017E+02, 1.042E+02, 1.134E+02, 1.424E+02, 4.916E+01, 1.160E+02, 1.475E+02, 4.923E+01,-1.678E+01, 1.817E-01, 1.595E-02, 1.004E+02
 9.900E+02, 1.029E+02, 1.040E+02, 1.138E+02, 1.454E+02, 4.949E+01, 1.159E+02, 1.466E+02, 4.965E+01,-1.600E+01, 1.810E-01, 1.637E-02, 1.004E+02
 1.000E+03, 1.026E+02, 1.053E+02, 1.135E+02, 1.444E+02, 4.988E+01, 1.166E+02, 1.490E+02, 5.030E+01,-1.626E+01, 1.804E-01, 1.668E-02, 1.000E+02
 1.010E+03, 1.029E+02, 1.045E+02, 1.145E+02, 1.444E+02, 4.971E+01, 1.161E+02, 1.470E+02, 5.029E+01,-1.580E+01, 1.802E-01, 1.679E-02, 9.995E+01
 1.020E+03, 1.026E+02, 1.047E+02, 1.143E+02, 1.432E+02, 5.027E+01, 1.170E+02, 1.475E+02, 4.960E+01,-1.613E+01, 1.802E-01, 1.680E-02, 1.002E+02
 1.030E+03, 1.032E+02, 1.043E+02, 1.151E+02, 1.440E+02, 5.045E+01, 1.163E+02, 1.470E+02, 4.964E+01,-1.604E+01, 1.796E-01, 1.710E-02, 1.000E+02
 1.040E+03, 1.026E+02, 1.057E+02, 1.142E+02, 1.432E+02, 5.049E+01, 1.180E+02, 1.491E+02, 4.999E+01,-1.653E+01, 1.792E-01, 1.737E-02, 1.002E+02
 1.050E+03, 1.036E+02, 1.055E+02, 1.151E+02, 1.455E+02, 5.015E+01, 1.170E+02, 1.489E+02, 5.046E+01,-1.551E+01, 1.789E-01, 1.752E-02, 1.000E+02
 1.060E+03, 1.036E+02, 1.047E+02, 1.153E+02, 1.447E+02, 5.085E+01, 1.159E+02, 1.475E+02, 5.069E+01,-1.622E+01, 1.786E-01, 1.770E-02, 1.001E+02
 1.070E+03, 1.038E+02, 1.058E+02, 1.152E+02, 1.458E+02, 5.040E+01, 1.177E+02, 1.493E+02, 5.056E+01,-1.587E+01, 1.783E-01, 1.786E-02, 1.001E+02
 1.080E+03, 1.036E+02, 1.059E+02, 1.151E+02, 1.450E+02, 5.072E+01, 1.179E+02, 1.494E+02, 5.037E+01,-1.532E+01, 1.778E-01, 1.812E-02, 1.002E+02
 1.090E+03, 1.039E+02, 1.061E+02, 1.157E+02, 1.448E+02, 5.110E+01, 1.185E+02, 1.493E+02, 5.048E+01,-1.486E+01, 1.775E-01, 1.832E-02, 1.003E+02
 1.100E+03, 1.045E+02, 1.064E+02, 1.159E+02, 1.466E+02, 5.104E+01, 1.190E+02, 1.494E+02, 5.084E+01,-1.724E+01, 1.769E-01, 1.866E-02, 1.003E+02
 1.110E+03, 1.041E+02, 1.064E+02, 1.161E+02, 1.450E+02, 5.106E+01, 1.178E+02, 1.504E+02, 5.101E+01,-1.628E+01, 1.766E-01, 1.879E-02, 1.004E+02
 1.120E+03, 1.042E+02, 1.058E+02, 1.162E+02, 1.453E+02, 5.103E+01, 1.182E+02, 1.483E+02, 5.083E+01,-1.627E+01, 1.763E-01, 1.895E-02, 1.002E+02
 1.130E+03, 1.042E+02, 1.054E+02, 1.155E+02, 1.458E+02, 5.116E+01, 1.177E+02, 1.481E+02, 5.055E+01,-1.659E+01, 1.759E-01, 1.919E-02, 1.002E+02
 1.140E+03, 1.042E+02, 1.061E+02, 1.156E+02, 1.460E+02, 5.121E+01, 1.166E+02, 1.512E+02, 5.055E+01,-1.662E+01, 1.758E-01, 1.923E-02, 1.000E+02
 1.150E+03, 1.044E+02, 1.067E+02, 1.157E+02, 1.466E+02, 5.084E+01, 1.187E+02, 1.508E+02, 5.068E+01,-1.631E+01, 1.751E-01, 1.966E-02, 1.000E+02
 1.160E+03, 1.045E+02, 1.066E+02, 1.161E+02, 1.465E+02, 5.088E+01, 1.187E+02, 1.503E+02, 5.077E+01,-1.459E+01, 1.749E-01, 1.974E-02, 1.001E+02
 1.170E+03, 1.048E+02, 1.069E+02, 1.167E+02, 1.464E+02, 5.138E+01, 1.185E+02, 1.511E+02, 5.103E+01,-1.551E+01, 1.747E-01, 1.984E-02, 1.000E+02
 1.180E+03, 1.056E+02, 1.073E+02, 1.172E+02, 1.480E+02, 5.153E+01, 1.187E+02, 1.511E+02, 5.201E+01,-1.653E+01, 1.742E-01, 2.014E-02, 9.979E+01
 1.190E+03, 1.057E+02, 1.066E+02, 1.165E+02, 1.489E+02, 5.160E+01, 1.180E+02, 1.503E+02, 5.153E+01,-1.855E+01, 1.740E-01, 2.026E-02, 9.679E+01
 1.200E+03, 1.053E+02, 1.082E+02, 1.163E+02, 1.479E+02, 5.164E+01, 1.209E+02, 1.527E+02, 5.109E+01,-1.311E+01, 1.735E-01, 2.051E-02, 1.039E+02
 1.210E+03, 1.060E+02, 1.077E+02, 1.178E+02, 1.475E+02, 5.259E+01, 1.189E+02, 1.533E+02, 5.092E+01,-1.571E+01, 1.734E-01, 2.061E-02, 1.001E+02
 1.220E+03, 1.060E+02, 1.087E+02, 1.178E+02, 1.480E+02, 5.225E+01, 1.211E+02, 1.532E+02, 5.189E+01,-1.502E+01, 1.729E-01, 2.086E-02, 1.005E+02
 1.230E+03, 1.060E+02, 1.078E+02, 1.181E+02, 1.470E+02, 5.277E+01, 1.188E+02, 1.528E+02, 5.182E+01,-1.593E+01, 1.726E-01, 2.104E-02, 1.000E+02
 1.240E+03, 1.065E+02, 1.089E+02, 1.182E+02, 1.487E+02, 5.255E+01, 1.214E+02, 1.537E+02, 5.158E+01,-1.538E+01, 1.721E-01, 2.131E-02, 1.003E+02
 1.250E+03, 1.063E+02, 1.082E+02, 1.182E+02, 1.482E+02, 5.232E+01, 1.196E+02, 1.532E+02, 5.182E+01,-1.643E+01, 1.718E-01, 2.150E-02, 1.002E+02
 1.260E+03, 1.065E+02, 1.076E+02, 1.190E+02, 1.480E+02, 5.253E+01, 1.198E+02, 1.512E+02, 5.170E+01,-1.678E+01, 1.715E-01, 2.162E-02, 9.834E+01
 1.270E+03, 1.064E+02, 1.089E+02, 1.170E+02, 1.497E+02, 5.249E+01, 1.214E+02, 1.534E+02, 5.183E+01,-1.524E+01, 1.713E-01, 2.177E-02, 1.015E+02
 1.280E+03, 1.063E+02, 1.085E+02, 1.188E+02, 1.475E+02, 5.268E+01, 1.199E+02, 1.532E+02, 5.227E+01,-1.562E+01, 1.708E-01, 2.203E-02, 9.910E+01
 1.290E+03, 1.069E+02, 1.096E+02, 1.185E+02, 1.497E+02, 5.247E+01, 1.219E+02, 1.547E+02, 5.226E+01,-1.507E+01, 1.706E-01, 2.213E-02, 9.910E+01
 1.300E+03, 1.069E+02, 1.094E+02, 1.191E+02, 1.490E+02, 5.250E+01, 1.210E+02, 1.545E+02, 5.274E+01,-1.665E+01, 1.705E-01, 2.223E-02, 9.739E+01
 1.310E+03, 1.065E+02, 1.089E+02, 1.182E+02, 1.485E+02, 5.291E+01, 1.210E+02, 1.534E+02, 5.232E+01,-1.390E+01, 1.704E-01, 2.228E-02, 1.019E+02
