s,C,C,C,C,C,C,C,C,Pa,mol/mol,mol/mol,kW
Time,"West_All_TCs","East_All_TCs","West_Bottom_TCs","West_Middle_TCs","West_Upper_TCs","East_Bottom_TCs","East_Middle_TCs","East_Upper_TCs","Pressure","O2","CO2","HRR"
-6.000E+01, 2.000E+01, 2.000E+01, 2.000E+01, 2.000E+01, 2.000E+01, 2.000E+01, 2.000E+01, 2.000E+01,-9.803E-06, 2.095E-01, 3.901E-04, 0.000E+00
-4.998E+01, 2.000E+01, 2.000E+01, 2.000E+01, 2.000E+01, 2.000E+01, 2.000E+01, 2.000E+01, 2.000E+01,-6.501E-04, 2.095E-01, 3.901E-04, 0.000E+00
-3.996E+01, 2.000E+01, 2.000E+01, 2.000E+01, 2.000E+01, 2.000E+01, 2.000E+01, 2.000E+01, 2.000E+01,-3.131E-05, 2.095E-01, 3.901E-04, 0.000E+00
-2.994E+01, 2.000E+01, 2.000E+01, 2.000E+01, 2.000E+01, 2.000E+01, 2.000E+01, 2.000E+01, 2.000E+01,-2.898E-05, 2.095E-01, 3.901E-04, 0.000E+00
-1.992E+01, 2.000E+01, 2.000E+01, 2.000E+01, 2.000E+01, 2.000E+01, 2.000E+01, 2.000E+01, 2.000E+01,-3.027E-05, 2.095E-01, 3.901E-04, 0.000E+00
-9.896E+00, 2.000E+01, 2.000E+01, 2.000E+01, 2.000E+01, 2.000E+01, 2.000E+01, 2.000E+01, 2.000E+01,-3.200E-05, 2.095E-01, 3.901E-04, 0.000E+00
 1.301E-02, 2.000E+01, 2.000E+01, 2.000E+01, 2.000E+01, 2.000E+01, 2.000E+01, 2.000E+01, 2.000E+01,-3.284E-05, 2.095E-01, 3.901E-04, 8.818E-05
 1.004E+01, 2.035E+01, 2.051E+01, 2.023E+01, 2.008E+01, 2.075E+01, 2.037E+01, 2.010E+01, 2.105E+01, 4.485E+00, 2.094E-01, 4.577E-04, 1.640E+01
 2.002E+01, 2.140E+01, 2.189E+01, 2.081E+01, 2.029E+01, 2.308E+01, 2.132E+01, 2.036E+01, 2.399E+01, 2.425E+01, 2.091E-01, 6.196E-04, 4.973E+01
 3.000E+01, 2.553E+01, 2.590E+01, 2.164E+01, 2.371E+01, 3.123E+01, 2.262E+01, 2.311E+01, 3.199E+01, 5.836E+01, 2.082E-01, 1.134E-03, 8.283E+01
 4.001E+01, 3.049E+01, 3.115E+01, 2.256E+01, 2.891E+01, 4.000E+01, 2.359E+01, 2.904E+01, 4.081E+01, 7.878E+01, 2.074E-01, 1.589E-03, 1.000E+02
 5.001E+01, 3.646E+01, 3.684E+01, 2.446E+01, 3.737E+01, 4.755E+01, 2.524E+01, 3.714E+01, 4.814E+01, 7.025E+01, 2.065E-01, 2.077E-03, 1.002E+02
 6.001E+01, 4.259E+01, 4.310E+01, 2.786E+01, 4.624E+01, 5.367E+01, 2.780E+01, 4.702E+01, 5.447E+01, 6.234E+01, 2.059E-01, 2.428E-03, 1.006E+02
 7.003E+01, 4.786E+01, 4.780E+01, 3.233E+01, 5.208E+01, 5.918E+01, 3.220E+01, 5.112E+01, 6.008E+01, 5.339E+01, 2.052E-01, 2.818E-03, 1.002E+02
 8.002E+01, 5.274E+01, 5.311E+01, 3.676E+01, 5.672E+01, 6.474E+01, 3.732E+01, 5.628E+01, 6.572E+01, 4.593E+01, 2.045E-01, 3.191E-03, 1.002E+02
 9.000E+01, 5.751E+01, 5.742E+01, 4.138E+01, 6.235E+01, 6.880E+01, 4.242E+01, 6.021E+01, 6.964E+01, 3.926E+01, 2.041E-01, 3.444E-03, 1.008E+02
 1.000E+02, 6.143E+01, 6.164E+01, 4.517E+01, 6.602E+01, 7.310E+01, 4.733E+01, 6.333E+01, 7.425E+01, 3.355E+01, 2.033E-01, 3.889E-03, 1.006E+02
 1.100E+02, 6.526E+01, 6.547E+01, 5.002E+01, 6.906E+01, 7.669E+01, 5.114E+01, 6.863E+01, 7.663E+01, 2.890E+01, 2.029E-01, 4.122E-03, 1.003E+02
 1.200E+02, 6.851E+01, 6.874E+01, 5.412E+01, 7.257E+01, 7.885E+01, 5.506E+01, 7.140E+01, 7.977E+01, 2.490E+01, 2.021E-01, 4.531E-03, 1.009E+02
 1.300E+02, 7.162E+01, 7.237E+01, 5.742E+01, 7.556E+01, 8.187E+01, 5.872E+01, 7.515E+01, 8.326E+01, 2.100E+01, 2.016E-01, 4.815E-03, 1.006E+02
 1.400E+02, 7.410E+01, 7.432E+01, 6.086E+01, 7.720E+01, 8.424E+01, 6.149E+01, 7.691E+01, 8.456E+01, 1.753E+01, 2.012E-01, 5.057E-03, 1.005E+02
 1.500E+02, 7.670E+01, 7.745E+01, 6.350E+01, 8.014E+01, 8.645E+01, 6.450E+01, 7.930E+01, 8.855E+01, 1.569E+01, 2.005E-01, 5.467E-03, 1.006E+02
 1.600E+02, 7.916E+01, 7.919E+01, 6.666E+01, 8.263E+01, 8.819E+01, 6.647E+01, 8.176E+01, 8.936E+01, 1.444E+01, 1.999E-01, 5.789E-03, 1.017E+02
 1.700E+02, 8.048E+01, 8.090E+01, 6.768E+01, 8.406E+01, 8.970E+01, 6.856E+01, 8.244E+01, 9.171E+01, 1.202E+01, 1.992E-01, 6.178E-03, 1.007E+02
 1.800E+02, 8.292E+01, 8.256E+01, 7.050E+01, 8.633E+01, 9.194E+01, 6.952E+01, 8.423E+01, 9.393E+01, 1.148E+01, 1.986E-01, 6.528E-03, 1.006E+02
 1.900E+02, 8.407E+01, 8.431E+01, 7.085E+01, 8.713E+01, 9.422E+01, 7.190E+01, 8.658E+01, 9.445E+01, 1.104E+01, 1.980E-01, 6.823E-03, 1.010E+02
 2.000E+02, 8.485E+01, 8.483E+01, 7.281E+01, 8.713E+01, 9.460E+01, 7.300E+01, 8.729E+01, 9.420E+01, 9.883E+00, 1.974E-01, 7.175E-03, 1.007E+02
 2.100E+02, 8.604E+01, 8.610E+01, 7.339E+01, 8.950E+01, 9.524E+01, 7.442E+01, 8.804E+01, 9.584E+01, 1.008E+01, 1.969E-01, 7.474E-03, 1.005E+02
 2.200E+02, 8.713E+01, 8.803E+01, 7.437E+01, 9.006E+01, 9.697E+01, 7.599E+01, 9.041E+01, 9.768E+01, 9.899E+00, 1.961E-01, 7.907E-03, 1.004E+02
 2.300E+02, 8.805E+01, 8.906E+01, 7.498E+01, 9.087E+01, 9.829E+01, 7.665E+01, 9.122E+01, 9.933E+01, 9.889E+00, 1.951E-01, 8.480E-03, 1.010E+02
 2.400E+02, 8.886E+01, 8.978E+01, 7.693E+01, 9.084E+01, 9.880E+01, 7.737E+01, 9.276E+01, 9.920E+01, 9.462E+00, 1.948E-01, 8.645E-03, 1.008E+02
 2.500E+02, 8.924E+01, 8.943E+01, 7.650E+01, 9.163E+01, 9.959E+01, 7.750E+01, 9.025E+01, 1.005E+02, 9.627E+00, 1.940E-01, 9.093E-03, 1.008E+02
 2.600E+02, 8.990E+01, 9.036E+01, 7.759E+01, 9.283E+01, 9.929E+01, 7.915E+01, 9.139E+01, 1.005E+02, 9.241E+00, 1.936E-01, 9.308E-03, 1.009E+02
 2.700E+02, 9.052E+01, 9.098E+01, 7.892E+01, 9.200E+01, 1.006E+02, 7.954E+01, 9.144E+01, 1.020E+02, 9.203E+00, 1.927E-01, 9.789E-03, 1.005E+02
 2.800E+02, 9.075E+01, 9.094E+01, 7.875E+01, 9.242E+01, 1.011E+02, 7.916E+01, 9.293E+01, 1.007E+02, 9.760E+00, 1.924E-01, 9.963E-03, 1.010E+02
 2.900E+02, 9.117E+01, 9.078E+01, 7.995E+01, 9.368E+01, 9.987E+01, 7.922E+01, 9.161E+01, 1.015E+02, 8.687E+00, 1.915E-01, 1.048E-02, 1.007E+02
 3.000E+02, 9.252E+01, 9.139E+01, 8.080E+01, 9.530E+01, 1.015E+02, 7.975E+01, 9.290E+01, 1.015E+02, 9.744E+00, 1.908E-01, 1.088E-02, 1.010E+02
 3.100E+02, 9.245E+01, 9.111E+01, 8.045E+01, 9.583E+01, 1.011E+02, 7.925E+01, 9.211E+01, 1.020E+02, 9.061E+00, 1.905E-01, 1.104E-02, 1.007E+02
 3.200E+02, 9.390E+01, 9.161E+01, 8.130E+01, 9.801E+01, 1.024E+02, 7.968E+01, 9.298E+01, 1.022E+02, 9.058E+00, 1.895E-01, 1.157E-02, 1.001E+02
 3.300E+02, 9.425E+01, 9.168E+01, 8.258E+01, 9.765E+01, 1.025E+02, 7.892E+01, 9.326E+01, 1.029E+02, 9.687E+00, 1.890E-01, 1.187E-02, 1.007E+02
 3.400E+02, 9.338E+01, 9.218E+01, 8.243E+01, 9.495E+01, 1.028E+02, 8.025E+01, 9.375E+01, 1.025E+02, 8.988E+00, 1.883E-01, 1.223E-02, 1.002E+02
 3.500E+02, 9.531E+01, 9.219E+01, 8.386E+01, 9.862E+01, 1.034E+02, 8.139E+01, 9.357E+01, 1.016E+02, 9.386E+00, 1.878E-01, 1.253E-02, 1.001E+02
 3.600E+02, 9.365E+01, 9.195E+01, 8.082E+01, 9.579E+01, 1.043E+02, 8.210E+01, 9.345E+01, 1.003E+02, 9.010E+00, 1.875E-01, 1.272E-02, 1.009E+02
 3.700E+02, 9.327E+01, 9.420E+01, 8.259E+01, 9.421E+01, 1.030E+02, 8.297E+01, 9.721E+01, 1.024E+02, 9.000E+00, 1.865E-01, 1.324E-02, 1.005E+02
 3.800E+02, 9.436E+01, 9.472E+01, 8.292E+01, 9.523E+01, 1.049E+02, 8.321E+01, 9.864E+01, 1.023E+02, 9.180E+00, 1.857E-01, 1.372E-02, 1.008E+02
 3.900E+02, 9.546E+01, 9.473E+01, 8.459E+01, 9.729E+01, 1.045E+02, 8.292E+01, 9.888E+01, 1.024E+02, 9.356E+00, 1.853E-01, 1.394E-02, 1.009E+02
 4.000E+02, 9.366E+01, 9.529E+01, 8.192E+01, 9.451E+01, 1.046E+02, 8.367E+01, 9.928E+01, 1.029E+02, 8.875E+00, 1.845E-01, 1.441E-02, 1.001E+02
 4.100E+02, 9.230E+01, 9.395E+01, 8.080E+01, 9.335E+01, 1.028E+02, 8.077E+01, 9.746E+01, 1.036E+02, 9.282E+00, 1.836E-01, 1.491E-02, 9.980E+01
 4.200E+02, 9.291E+01, 9.490E+01, 8.145E+01, 9.422E+01, 1.031E+02, 8.273E+01, 9.816E+01, 1.038E+02, 9.374E+00, 1.829E-01, 1.530E-02, 1.010E+02
 4.300E+02, 9.407E+01, 9.499E+01, 8.212E+01, 9.538E+01, 1.047E+02, 8.371E+01, 9.766E+01, 1.036E+02, 9.724E+00, 1.822E-01, 1.568E-02, 1.007E+02
 4.400E+02, 9.376E+01, 9.511E+01, 8.244E+01, 9.600E+01, 1.028E+02, 8.384E+01, 9.758E+01, 1.039E+02, 9.075E+00, 1.816E-01, 1.603E-02, 1.005E+02
 4.500E+02, 9.340E+01, 9.644E+01, 8.137E+01, 9.517E+01, 1.037E+02, 8.362E+01, 1.005E+02, 1.052E+02, 9.326E+00, 1.810E-01, 1.633E-02, 9.950E+01
 4.600E+02, 9.361E+01, 9.584E+01, 8.175E+01, 9.526E+01, 1.038E+02, 8.298E+01, 9.899E+01, 1.056E+02, 9.210E+00, 1.800E-01, 1.687E-02, 1.002E+02
 4.700E+02, 9.457E+01, 9.723E+01, 8.248E+01, 9.662E+01, 1.046E+02, 8.541E+01, 1.004E+02, 1.059E+02, 9.163E+00, 1.794E-01, 1.723E-02, 1.007E+02
 4.800E+02, 9.368E+01, 9.608E+01, 8.279E+01, 9.586E+01, 1.024E+02, 8.435E+01, 9.875E+01, 1.051E+02, 9.350E+00, 1.787E-01, 1.760E-02, 1.001E+02
 4.900E+02, 9.366E+01, 9.767E+01, 8.329E+01, 9.496E+01, 1.027E+02, 8.437E+01, 9.851E+01, 1.101E+02, 9.579E+00, 1.778E-01, 1.814E-02, 1.003E+02
 5.000E+02, 9.389E+01, 9.698E+01, 8.327E+01, 9.453E+01, 1.039E+02, 8.575E+01, 9.930E+01, 1.059E+02, 9.079E+00, 1.772E-01, 1.844E-02, 1.003E+02
 5.100E+02, 9.457E+01, 9.575E+01, 8.287E+01, 9.709E+01, 1.037E+02, 8.326E+01, 9.701E+01, 1.070E+02, 8.887E+00, 1.766E-01, 1.881E-02, 9.998E+01
 5.200E+02, 9.435E+01, 9.552E+01, 8.304E+01, 9.580E+01, 1.042E+02, 8.347E+01, 9.761E+01, 1.055E+02, 9.455E+00, 1.760E-01, 1.912E-02, 1.003E+02
 5.300E+02, 9.558E+01, 9.625E+01, 8.411E+01, 9.751E+01, 1.051E+02, 8.422E+01, 9.997E+01, 1.046E+02, 9.525E+00, 1.754E-01, 1.949E-02, 1.014E+02
 5.400E+02, 9.616E+01, 9.647E+01, 8.360E+01, 9.873E+01, 1.061E+02, 8.343E+01, 9.934E+01, 1.066E+02, 8.983E+00, 1.747E-01, 1.987E-02, 9.949E+01
 5.500E+02, 9.583E+01, 9.653E+01, 8.304E+01, 9.845E+01, 1.060E+02, 8.432E+01, 9.901E+01, 1.062E+02, 1.020E+01, 1.738E-01, 2.034E-02, 1.012E+02
 5.600E+02, 9.520E+01, 9.634E+01, 8.305E+01, 9.705E+01, 1.055E+02, 8.298E+01, 9.872E+01, 1.073E+02, 8.904E+00, 1.732E-01, 2.068E-02, 1.004E+02
 5.700E+02, 9.577E+01, 9.770E+01, 8.380E+01, 9.880E+01, 1.047E+02, 8.430E+01, 1.022E+02, 1.066E+02, 9.571E+00, 1.727E-01, 2.095E-02, 1.007E+02
 5.800E+02, 9.564E+01, 9.685E+01, 8.352E+01, 9.846E+01, 1.049E+02, 8.502E+01, 9.842E+01, 1.071E+02, 9.206E+00, 1.720E-01, 2.137E-02, 9.933E+01
 5.900E+02, 9.605E+01, 9.697E+01, 8.339E+01, 9.907E+01, 1.057E+02, 8.427E+01, 9.884E+01, 1.078E+02, 9.839E+00, 1.712E-01, 2.180E-02, 1.007E+02
 6.000E+02, 9.602E+01, 9.747E+01, 8.269E+01, 9.889E+01, 1.065E+02, 8.462E+01, 1.010E+02, 1.068E+02, 9.061E+00, 1.707E-01, 2.209E-02, 1.007E+02
 6.100E+02, 9.713E+01, 9.739E+01, 8.402E+01, 1.012E+02, 1.062E+02, 8.478E+01, 1.007E+02, 1.067E+02, 9.637E+00, 1.702E-01, 2.240E-02, 1.012E+02
 6.200E+02, 9.613E+01, 9.762E+01, 8.292E+01, 9.936E+01, 1.061E+02, 8.448E+01, 9.962E+01, 1.088E+02, 9.442E+00, 1.691E-01, 2.299E-02, 1.011E+02
 6.300E+02, 9.724E+01, 9.821E+01, 8.432E+01, 1.015E+02, 1.058E+02, 8.403E+01, 1.001E+02, 1.105E+02, 9.486E+00, 1.682E-01, 2.349E-02, 1.011E+02
 6.400E+02, 9.828E+01, 9.946E+01, 8.556E+01, 1.017E+02, 1.076E+02, 8.631E+01, 1.033E+02, 1.088E+02, 9.115E+00, 1.677E-01, 2.376E-02, 1.006E+02
 6.500E+02, 9.754E+01, 1.001E+02, 8.535E+01, 1.002E+02, 1.071E+02, 8.621E+01, 1.028E+02, 1.112E+02, 9.632E+00, 1.671E-01, 2.410E-02, 1.007E+02
 6.600E+02, 9.799E+01, 9.930E+01, 8.753E+01, 1.000E+02, 1.064E+02, 8.467E+01, 1.022E+02, 1.110E+02, 8.880E+00, 1.666E-01, 2.439E-02, 1.006E+02
 6.700E+02, 9.776E+01, 9.883E+01, 8.640E+01, 1.013E+02, 1.056E+02, 8.526E+01, 1.010E+02, 1.102E+02, 9.892E+00, 1.657E-01, 2.489E-02, 1.010E+02
 6.800E+02, 9.886E+01, 9.825E+01, 8.660E+01, 1.023E+02, 1.077E+02, 8.575E+01, 9.942E+01, 1.096E+02, 9.023E+00, 1.652E-01, 2.518E-02, 1.011E+02
 6.900E+02, 9.771E+01, 9.875E+01, 8.662E+01, 1.011E+02, 1.054E+02, 8.618E+01, 9.948E+01, 1.106E+02, 9.833E+00, 1.647E-01, 2.544E-02, 1.013E+02
 7.000E+02, 9.805E+01, 9.789E+01, 8.881E+01, 1.008E+02, 1.046E+02, 8.507E+01, 9.769E+01, 1.109E+02, 9.181E+00, 1.640E-01, 2.586E-02, 1.000E+02
 7.100E+02, 9.894E+01, 9.686E+01, 8.647E+01, 1.025E+02, 1.078E+02, 8.519E+01, 9.697E+01, 1.084E+02, 9.748E+00, 1.636E-01, 2.608E-02, 1.002E+02
 7.200E+02, 9.933E+01, 9.765E+01, 8.717E+01, 1.031E+02, 1.077E+02, 8.527E+01, 9.930E+01, 1.084E+02, 9.807E+00, 1.629E-01, 2.646E-02, 1.008E+02
 7.300E+02, 1.019E+02, 9.742E+01, 9.166E+01, 1.061E+02, 1.080E+02, 8.544E+01, 9.964E+01, 1.072E+02, 9.749E+00, 1.625E-01, 2.666E-02, 9.974E+01
 7.400E+02, 9.788E+01, 9.731E+01, 8.766E+01, 9.923E+01, 1.067E+02, 8.714E+01, 9.802E+01, 1.068E+02, 1.020E+01, 1.615E-01, 2.723E-02, 1.001E+02
 7.500E+02, 9.769E+01, 9.828E+01, 8.682E+01, 1.003E+02, 1.059E+02, 8.769E+01, 9.947E+01, 1.077E+02, 9.414E+00, 1.608E-01, 2.761E-02, 1.002E+02
 7.600E+02, 9.931E+01, 9.923E+01, 8.730E+01, 1.022E+02, 1.084E+02, 8.819E+01, 1.015E+02, 1.080E+02, 9.363E+00, 1.602E-01, 2.796E-02, 9.905E+01
 7.700E+02, 9.783E+01, 9.866E+01, 8.553E+01, 9.976E+01, 1.082E+02, 8.741E+01, 1.014E+02, 1.072E+02, 9.398E+00, 1.594E-01, 2.841E-02, 9.965E+01
 7.800E+02, 9.756E+01, 9.792E+01, 8.629E+01, 9.960E+01, 1.068E+02, 8.618E+01, 1.004E+02, 1.071E+02, 1.007E+01, 1.587E-01, 2.879E-02, 1.009E+02
 7.900E+02, 9.818E+01, 1.002E+02, 8.665E+01, 1.009E+02, 1.070E+02, 8.794E+01, 1.029E+02, 1.096E+02, 9.493E+00, 1.579E-01, 2.924E-02, 9.977E+01
 8.000E+02, 9.773E+01, 9.992E+01, 8.608E+01, 9.944E+01, 1.077E+02, 8.794E+01, 1.020E+02, 1.098E+02, 9.944E+00, 1.570E-01, 2.974E-02, 1.001E+02
 8.100E+02, 9.784E+01, 9.931E+01, 8.607E+01, 9.931E+01, 1.081E+02, 8.713E+01, 1.026E+02, 1.082E+02, 9.864E+00, 1.568E-01, 2.987E-02, 1.005E+02
 8.200E+02, 9.896E+01, 9.933E+01, 8.715E+01, 1.012E+02, 1.085E+02, 8.691E+01, 1.026E+02, 1.085E+02, 9.576E+00, 1.562E-01, 3.021E-02, 1.008E+02
 8.300E+02, 9.824E+01, 9.894E+01, 8.697E+01, 9.974E+01, 1.080E+02, 8.663E+01, 1.023E+02, 1.078E+02, 9.675E+00, 1.553E-01, 3.072E-02, 9.981E+01
 8.400E+02, 9.929E+01, 1.004E+02, 8.779E+01, 1.016E+02, 1.084E+02, 8.729E+01, 1.036E+02, 1.103E+02, 1.006E+01, 1.543E-01, 3.126E-02, 1.008E+02
 8.500E+02, 9.908E+01, 1.006E+02, 8.713E+01, 1.002E+02, 1.099E+02, 8.896E+01, 1.044E+02, 1.086E+02, 9.744E+00, 1.541E-01, 3.136E-02, 1.003E+02
 8.600E+02, 9.806E+01, 1.003E+02, 8.688E+01, 9.890E+01, 1.084E+02, 8.909E+01, 1.023E+02, 1.095E+02, 9.871E+00, 1.532E-01, 3.188E-02, 1.005E+02
 8.700E+02, 9.812E+01, 1.011E+02, 8.776E+01, 9.941E+01, 1.072E+02, 8.794E+01, 1.050E+02, 1.104E+02, 9.723E+00, 1.526E-01, 3.223E-02, 1.005E+02
 8.800E+02, 1.003E+02, 1.014E+02, 8.834E+01, 1.038E+02, 1.086E+02, 8.977E+01, 1.044E+02, 1.100E+02, 1.009E+01, 1.518E-01, 3.267E-02, 1.003E+02
 8.900E+02, 9.934E+01, 1.009E+02, 8.829E+01, 1.019E+02, 1.079E+02, 9.037E+01, 1.022E+02, 1.102E+02, 1.001E+01, 1.512E-01, 3.299E-02, 1.001E+02
 9.000E+02, 9.916E+01, 1.000E+02, 8.823E+01, 1.013E+02, 1.080E+02, 8.752E+01, 1.008E+02, 1.118E+02, 9.718E+00, 1.505E-01, 3.339E-02, 9.994E+01
 9.100E+02, 1.011E+02, 1.009E+02, 9.090E+01, 1.037E+02, 1.087E+02, 8.970E+01, 1.028E+02, 1.102E+02, 9.649E+00, 1.497E-01, 3.385E-02, 1.003E+02
 9.200E+02, 9.984E+01, 9.961E+01, 8.810E+01, 1.023E+02, 1.091E+02, 8.878E+01, 1.005E+02, 1.096E+02, 9.790E+00, 1.496E-01, 3.386E-02, 1.001E+02
 9.300E+02, 1.014E+02, 1.013E+02, 8.921E+01, 1.050E+02, 1.101E+02, 8.921E+01, 1.031E+02, 1.116E+02, 9.774E+00, 1.484E-01, 3.456E-02, 1.009E+02
 9.400E+02, 1.014E+02, 1.018E+02, 9.032E+01, 1.039E+02, 1.099E+02, 8.879E+01, 1.023E+02, 1.143E+02, 9.662E+00, 1.476E-01, 3.498E-02, 1.003E+02
 9.500E+02, 1.015E+02, 1.016E+02, 8.850E+01, 1.047E+02, 1.115E+02, 8.874E+01, 1.018E+02, 1.144E+02, 9.487E+00, 1.468E-01, 3.543E-02, 1.007E+02
 9.600E+02, 1.007E+02, 1.018E+02, 8.873E+01, 1.041E+02, 1.092E+02, 8.830E+01, 1.041E+02, 1.129E+02, 9.743E+00, 1.465E-01, 3.564E-02, 9.999E+01
 9.700E+02, 1.018E+02, 1.006E+02, 8.946E+01, 1.051E+02, 1.110E+02, 8.850E+01, 1.018E+02, 1.115E+02, 1.060E+01, 1.461E-01, 3.582E-02, 1.009E+02
 9.800E+02, 1.027E+02, 1.002E+02, 8.886E+01, 1.078E+02, 1.114E+02, 8.892E+01, 1.018E+02, 1.100E+02, 9.834E+00, 1.453E-01, 3.626E-02, 9.983E+01
 9.900E+02, 1.019E+02, 1.011E+02, 9.113E+01, 1.044E+02, 1.103E+02, 8.940E+01, 1.028E+02, 1.110E+02, 1.008E+01, 1.448E-01, 3.658E-02, 1.003E+02
 1.000E+03, 1.022E+02, 1.007E+02, 9.044E+01, 1.061E+02, 1.099E+02, 8.859E+01, 1.019E+02, 1.117E+02, 1.078E+01, 1.439E-01, 3.706E-02, 1.003E+02
 1.010E+03, 1.012E+02, 9.929E+01, 8.872E+01, 1.037E+02, 1.111E+02, 8.800E+01, 1.013E+02, 1.086E+02, 9.917E+00, 1.435E-01, 3.727E-02, 9.894E+01
 1.020E+03, 1.019E+02, 1.011E+02, 9.013E+01, 1.056E+02, 1.099E+02, 8.952E+01, 1.026E+02, 1.111E+02, 1.042E+01, 1.424E-01, 3.792E-02, 9.776E+01
 1.030E+03, 1.016E+02, 1.011E+02, 8.951E+01, 1.028E+02, 1.125E+02, 8.982E+01, 1.033E+02, 1.102E+02, 1.236E+01, 1.422E-01, 3.803E-02, 1.021E+02
 1.040E+03, 1.018E+02, 1.004E+02, 8.915E+01, 1.033E+02, 1.128E+02, 9.002E+01, 1.020E+02, 1.092E+02, 9.572E+00, 1.413E-01, 3.850E-02, 9.926E+01
 1.050E+03, 1.013E+02, 1.014E+02, 8.919E+01, 1.044E+02, 1.102E+02, 9.079E+01, 1.023E+02, 1.111E+02, 9.477E+00, 1.408E-01, 3.879E-02, 9.637E+01
 1.060E+03, 1.012E+02, 1.018E+02, 8.856E+01, 1.042E+02, 1.109E+02, 8.991E+01, 1.038E+02, 1.116E+02, 1.112E+01, 1.401E-01, 3.919E-02, 9.757E+01
 1.070E+03, 1.009E+02, 1.027E+02, 8.860E+01, 1.048E+02, 1.094E+02, 8.929E+01, 1.035E+02, 1.154E+02, 9.325E+00, 1.389E-01, 3.984E-02, 9.515E+01
 1.080E+03, 1.018E+02, 1.033E+02, 8.784E+01, 1.054E+02, 1.123E+02, 9.085E+01, 1.041E+02, 1.150E+02, 1.069E+01, 1.385E-01, 4.006E-02, 9.862E+01
 1.090E+03, 1.010E+02, 1.037E+02, 8.848E+01, 1.025E+02, 1.121E+02, 9.018E+01, 1.040E+02, 1.168E+02, 1.093E+01, 1.378E-01, 4.048E-02, 9.573E+01
 1.100E+03, 1.019E+02, 1.020E+02, 8.921E+01, 1.053E+02, 1.111E+02, 8.963E+01, 1.038E+02, 1.125E+02, 5.840E+00, 1.381E-01, 4.031E-02, 8.642E+01
 1.110E+03, 1.005E+02, 1.026E+02, 8.779E+01, 1.051E+02, 1.086E+02, 9.016E+01, 1.048E+02, 1.128E+02, 1.015E+01, 1.373E-01, 4.073E-02, 9.229E+01
 1.120E+03, 1.004E+02, 9.984E+01, 8.763E+01, 1.042E+02, 1.092E+02, 8.776E+01, 1.009E+02, 1.109E+02, 9.564E-01, 1.371E-01, 4.086E-02, 6.904E+01
 1.130E+03, 1.008E+02, 1.014E+02, 8.893E+01, 1.044E+02, 1.091E+02, 8.886E+01, 1.040E+02, 1.114E+02, 2.140E+01, 1.368E-01, 4.101E-02, 1.130E+02
 1.140E+03, 1.015E+02, 9.925E+01, 8.995E+01, 1.053E+02, 1.092E+02, 8.705E+01, 1.009E+02, 1.098E+02, 1.361E+00, 1.362E-01, 4.132E-02, 7.152E+01
 1.150E+03, 9.935E+01, 9.863E+01, 8.649E+01, 1.034E+02, 1.081E+02, 8.747E+01, 9.946E+01, 1.090E+02, 9.835E+00, 1.360E-01, 4.144E-02, 8.498E+01
 1.160E+03, 9.766E+01, 1.008E+02, 8.685E+01, 1.005E+02, 1.057E+02, 8.881E+01, 1.031E+02, 1.104E+02, 4.980E+00, 1.358E-01, 4.155E-02, 8.198E+01
 1.170E+03, 9.767E+01, 9.771E+01, 8.709E+01, 9.995E+01, 1.060E+02, 8.682E+01, 9.897E+01, 1.073E+02, 4.728E+00, 1.356E-01, 4.161E-02, 7.680E+01
 1.180E+03, 9.666E+01, 9.487E+01, 8.527E+01, 1.007E+02, 1.040E+02, 8.497E+01, 9.766E+01, 1.020E+02,-4.528E+00, 1.356E-01, 4.166E-02, 4.433E+01
 1.190E+03, 9.454E+01, 9.438E+01, 8.448E+01, 9.658E+01, 1.026E+02, 8.539E+01, 9.478E+01, 1.030E+02, 1.589E+01, 1.353E-01, 4.174E-02, 9.029E+01
 1.200E+03, 9.380E+01, 9.448E+01, 8.595E+01, 9.555E+01, 9.990E+01, 8.485E+01, 9.630E+01, 1.023E+02,-9.909E+00, 1.356E-01, 4.163E-02, 4.807E+01
 1.210E+03, 9.287E+01, 9.218E+01, 8.535E+01, 9.484E+01, 9.843E+01, 8.407E+01, 9.314E+01, 9.932E+01, 7.783E+00, 1.355E-01, 4.164E-02, 5.695E+01
 1.220E+03, 9.099E+01, 9.117E+01, 8.221E+01, 9.402E+01, 9.675E+01, 8.333E+01, 9.172E+01, 9.845E+01, 6.936E+00, 1.357E-01, 4.150E-02, 5.581E+01
 1.230E+03, 8.978E+01, 9.251E+01, 8.080E+01, 9.280E+01, 9.575E+01, 8.533E+01, 9.526E+01, 9.694E+01, 5.260E+00, 1.357E-01, 4.145E-02, 4.951E+01
 1.240E+03, 8.687E+01, 8.971E+01, 7.933E+01, 8.868E+01, 9.259E+01, 8.349E+01, 9.127E+01, 9.437E+01,-3.981E+00, 1.359E-01, 4.134E-02, 4.943E+00
 1.250E+03, 8.501E+01, 8.669E+01, 7.788E+01, 8.663E+01, 9.053E+01, 7.902E+01, 8.797E+01, 9.309E+01, 3.716E+00, 1.369E-01, 4.078E-02, 0.000E+00
 1.260E+03, 8.348E+01, 8.459E+01, 7.681E+01, 8.485E+01, 8.879E+01, 7.718E+01, 8.515E+01, 9.145E+01, 2.492E+00, 1.366E-01, 4.095E-02, 0.000E+00
 1.270E+03, 8.364E+01, 8.164E+01, 7.808E+01, 8.513E+01, 8.770E+01, 7.291E+01, 8.328E+01, 8.873E+01, 5.572E-01, 1.364E-01, 4.106E-02, 0.000E+00
 1.280E+03, 8.194E+01, 8.181E+01, 7.626E+01, 8.347E+01, 8.609E+01, 7.520E+01, 8.199E+01, 8.824E+01, 3.427E-01, 1.366E-01, 4.090E-02, 0.000E+00
 1.290E+03, 7.993E+01, 8.025E+01, 7.266E+01, 8.182E+01, 8.531E+01, 7.323E+01, 8.080E+01, 8.670E+01, 5.718E+00, 1.379E-01, 4.025E-02, 4.715E-03
 1.300E+03, 7.881E+01, 7.897E+01, 7.207E+01, 8.132E+01, 8.303E+01, 7.240E+01, 7.892E+01, 8.559E+01, 3.281E+00, 1.366E-01, 4.079E-02, 0.000E+00
 1.310E+03, 7.765E+01, 7.719E+01, 7.126E+01, 7.990E+01, 8.181E+01, 7.007E+01, 7.849E+01, 8.302E+01, 3.131E+00, 1.370E-01, 4.063E-02, 0.000E+00
