s,C,C,C,C,C,C,C,C,Pa,mol/mol,mol/mol,kW
Time,West_All_TCs,East_All_TCs,West_Bottom_TCs,West_Middle_TCs,West_Upper_TCs,East_Bottom_TCs,East_Middle_TCs,East_Upper_TCs,Pressure,O2,CO2,HRR
-6.000E+01, 3.400E+01, 3.400E+01, 3.400E+01, 3.400E+01, 3.400E+01, 3.400E+01, 3.400E+01, 3.400E+01,-9.314E-06, 2.095E-01, 3.901E-04, 0.000E+00
-4.993E+01, 3.384E+01, 3.408E+01, 3.389E+01, 3.138E+01, 3.625E+01, 3.388E+01, 3.116E+01, 3.719E+01,-7.916E+01, 2.095E-01, 3.901E-04, 0.000E+00
-4.000E+01, 3.331E+01, 3.452E+01, 3.166E+01, 3.089E+01, 3.738E+01, 3.273E+01, 3.050E+01, 4.034E+01,-8.301E+01, 2.095E-01, 3.901E-04, 0.000E+00
-2.998E+01, 3.336E+01, 3.474E+01, 3.042E+01, 3.045E+01, 3.922E+01, 3.139E+01, 3.058E+01, 4.226E+01,-8.249E+01, 2.095E-01, 3.901E-04, 0.000E+00
-1.998E+01, 3.357E+01, 3.473E+01, 3.039E+01, 3.040E+01, 3.991E+01, 3.129E+01, 3.139E+01, 4.150E+01,-8.178E+01, 2.095E-01, 3.901E-04, 0.000E+00
-9.975E+00, 3.353E+01, 3.445E+01, 3.045E+01, 3.058E+01, 3.956E+01, 3.175E+01, 3.214E+01, 3.947E+01,-8.165E+01, 2.095E-01, 3.901E-04, 0.000E+00
 3.336E-02, 3.335E+01, 3.432E+01, 3.063E+01, 3.070E+01, 3.873E+01, 3.183E+01, 3.195E+01, 3.917E+01,-8.143E+01, 2.095E-01, 3.901E-04, 2.249E-04
 1.001E+01, 3.441E+01, 3.611E+01, 3.137E+01, 3.315E+01, 3.870E+01, 3.279E+01, 3.521E+01, 4.035E+01,-3.933E+01, 2.095E-01, 3.901E-04, 3.253E+01
 2.002E+01, 3.815E+01, 4.024E+01, 3.387E+01, 4.169E+01, 3.888E+01, 3.471E+01, 4.347E+01, 4.253E+01, 2.024E+00, 2.095E-01, 3.902E-04, 9.929E+01
 3.001E+01, 4.635E+01, 4.753E+01, 3.883E+01, 6.072E+01, 3.952E+01, 4.020E+01, 6.255E+01, 3.986E+01, 3.613E+01, 2.095E-01, 3.927E-04, 1.660E+02
 4.001E+01, 5.850E+01, 5.918E+01, 4.921E+01, 8.653E+01, 3.975E+01, 4.965E+01, 8.905E+01, 3.883E+01, 5.085E+01, 2.095E-01, 3.942E-04, 2.000E+02
 5.002E+01, 7.030E+01, 7.100E+01, 6.120E+01, 1.076E+02, 4.206E+01, 6.283E+01, 1.098E+02, 4.041E+01, 2.630E+01, 2.092E-01, 6.063E-04, 2.001E+02
 6.001E+01, 8.069E+01, 8.167E+01, 7.335E+01, 1.257E+02, 4.299E+01, 7.568E+01, 1.260E+02, 4.330E+01, 1.384E+01, 2.083E-01, 1.069E-03, 2.000E+02
 7.001E+01, 8.982E+01, 9.151E+01, 8.623E+01, 1.380E+02, 4.520E+01, 8.827E+01, 1.399E+02, 4.630E+01, 6.885E+00, 2.079E-01, 1.331E-03, 2.000E+02
 8.001E+01, 9.891E+01, 1.001E+02, 9.691E+01, 1.520E+02, 4.784E+01, 1.013E+02, 1.498E+02, 4.912E+01,-1.805E+00, 2.073E-01, 1.621E-03, 2.001E+02
 9.001E+01, 1.052E+02, 1.065E+02, 1.081E+02, 1.570E+02, 5.036E+01, 1.106E+02, 1.574E+02, 5.162E+01,-7.063E+00, 2.069E-01, 1.882E-03, 2.001E+02
 1.000E+02, 1.100E+02, 1.125E+02, 1.153E+02, 1.620E+02, 5.267E+01, 1.190E+02, 1.641E+02, 5.432E+01,-1.295E+01, 2.061E-01, 2.329E-03, 1.999E+02
 1.100E+02, 1.140E+02, 1.163E+02, 1.228E+02, 1.648E+02, 5.455E+01, 1.252E+02, 1.671E+02, 5.652E+01,-2.190E+01, 2.053E-01, 2.768E-03, 2.002E+02
 1.200E+02, 1.174E+02, 1.215E+02, 1.267E+02, 1.677E+02, 5.763E+01, 1.344E+02, 1.714E+02, 5.871E+01,-3.227E+01, 2.046E-01, 3.135E-03, 2.000E+02
 1.300E+02, 1.208E+02, 1.236E+02, 1.309E+02, 1.723E+02, 5.918E+01, 1.383E+02, 1.720E+02, 6.037E+01,-4.061E+01, 2.041E-01, 3.457E-03, 2.002E+02
 1.400E+02, 1.223E+02, 1.282E+02, 1.347E+02, 1.722E+02, 6.000E+01, 1.454E+02, 1.774E+02, 6.179E+01,-4.370E+01, 2.031E-01, 4.001E-03, 1.999E+02
 1.500E+02, 1.257E+02, 1.309E+02, 1.378E+02, 1.771E+02, 6.214E+01, 1.479E+02, 1.806E+02, 6.416E+01,-5.151E+01, 2.021E-01, 4.549E-03, 1.999E+02
 1.600E+02, 1.262E+02, 1.319E+02, 1.386E+02, 1.774E+02, 6.275E+01, 1.473E+02, 1.834E+02, 6.490E+01,-5.568E+01, 2.013E-01, 4.985E-03, 2.001E+02
 1.700E+02, 1.275E+02, 1.340E+02, 1.396E+02, 1.788E+02, 6.407E+01, 1.535E+02, 1.838E+02, 6.485E+01,-5.909E+01, 2.007E-01, 5.341E-03, 2.004E+02
 1.800E+02, 1.287E+02, 1.347E+02, 1.412E+02, 1.793E+02, 6.554E+01, 1.517E+02, 1.869E+02, 6.558E+01,-5.853E+01, 1.998E-01, 5.824E-03, 1.998E+02
 1.900E+02, 1.293E+02, 1.337E+02, 1.435E+02, 1.789E+02, 6.554E+01, 1.491E+02, 1.849E+02, 6.698E+01,-5.992E+01, 1.985E-01, 6.580E-03, 1.999E+02
 2.000E+02, 1.296E+02, 1.359E+02, 1.420E+02, 1.800E+02, 6.666E+01, 1.544E+02, 1.854E+02, 6.796E+01,-6.471E+01, 1.973E-01, 7.248E-03, 2.002E+02
 2.100E+02, 1.309E+02, 1.356E+02, 1.443E+02, 1.810E+02, 6.731E+01, 1.548E+02, 1.846E+02, 6.734E+01,-6.621E+01, 1.965E-01, 7.692E-03, 2.001E+02
 2.200E+02, 1.309E+02, 1.366E+02, 1.417E+02, 1.830E+02, 6.822E+01, 1.564E+02, 1.858E+02, 6.775E+01,-6.287E+01, 1.952E-01, 8.414E-03, 2.002E+02
 2.300E+02, 1.316E+02, 1.374E+02, 1.431E+02, 1.830E+02, 6.857E+01, 1.566E+02, 1.875E+02, 6.810E+01,-6.464E+01, 1.945E-01, 8.796E-03, 1.998E+02
 2.400E+02, 1.312E+02, 1.376E+02, 1.438E+02, 1.815E+02, 6.837E+01, 1.572E+02, 1.874E+02, 6.839E+01,-6.529E+01, 1.935E-01, 9.347E-03, 1.999E+02
 2.500E+02, 1.330E+02, 1.358E+02, 1.449E+02, 1.848E+02, 6.917E+01, 1.548E+02, 1.831E+02, 6.961E+01,-6.607E+01, 1.923E-01, 1.003E-02, 2.001E+02
 2.600E+02, 1.320E+02, 1.378E+02, 1.447E+02, 1.829E+02, 6.829E+01, 1.557E+02, 1.884E+02, 6.921E+01,-6.670E+01, 1.914E-01, 1.051E-02, 2.002E+02
 2.700E+02, 1.347E+02, 1.382E+02, 1.484E+02, 1.867E+02, 6.898E+01, 1.576E+02, 1.881E+02, 6.896E+01,-6.970E+01, 1.905E-01, 1.102E-02, 1.998E+02
 2.800E+02, 1.333E+02, 1.384E+02, 1.473E+02, 1.845E+02, 6.799E+01, 1.594E+02, 1.870E+02, 6.888E+01,-6.681E+01, 1.896E-01, 1.154E-02, 2.002E+02
 2.900E+02, 1.339E+02, 1.402E+02, 1.479E+02, 1.846E+02, 6.910E+01, 1.609E+02, 1.906E+02, 6.918E+01,-6.355E+01, 1.887E-01, 1.202E-02, 2.002E+02
 3.000E+02, 1.345E+02, 1.415E+02, 1.479E+02, 1.858E+02, 6.986E+01, 1.623E+02, 1.921E+02, 7.017E+01,-6.509E+01, 1.876E-01, 1.267E-02, 1.998E+02
 3.100E+02, 1.346E+02, 1.422E+02, 1.486E+02, 1.852E+02, 6.982E+01, 1.623E+02, 1.942E+02, 7.020E+01,-6.612E+01, 1.866E-01, 1.322E-02, 1.999E+02
 3.200E+02, 1.357E+02, 1.409E+02, 1.502E+02, 1.871E+02, 6.976E+01, 1.592E+02, 1.933E+02, 7.015E+01,-6.433E+01, 1.858E-01, 1.368E-02, 2.007E+02
 3.300E+02, 1.354E+02, 1.419E+02, 1.492E+02, 1.874E+02, 6.966E+01, 1.634E+02, 1.922E+02, 7.015E+01,-6.490E+01, 1.847E-01, 1.425E-02, 1.998E+02
 3.400E+02, 1.362E+02, 1.406E+02, 1.483E+02, 1.905E+02, 6.972E+01, 1.624E+02, 1.886E+02, 7.078E+01,-6.699E+01, 1.833E-01, 1.507E-02, 2.002E+02
 3.500E+02, 1.351E+02, 1.421E+02, 1.480E+02, 1.873E+02, 6.989E+01, 1.642E+02, 1.908E+02, 7.137E+01,-6.631E+01, 1.823E-01, 1.559E-02, 1.997E+02
 3.600E+02, 1.366E+02, 1.428E+02, 1.487E+02, 1.910E+02, 6.995E+01, 1.643E+02, 1.931E+02, 7.100E+01,-6.539E+01, 1.815E-01, 1.604E-02, 1.998E+02
 3.700E+02, 1.356E+02, 1.439E+02, 1.507E+02, 1.859E+02, 7.039E+01, 1.632E+02, 1.959E+02, 7.242E+01,-6.480E+01, 1.805E-01, 1.664E-02, 2.002E+02
 3.800E+02, 1.375E+02, 1.437E+02, 1.526E+02, 1.884E+02, 7.147E+01, 1.627E+02, 1.962E+02, 7.222E+01,-6.178E+01, 1.797E-01, 1.708E-02, 2.000E+02
 3.900E+02, 1.373E+02, 1.433E+02, 1.519E+02, 1.889E+02, 7.120E+01, 1.623E+02, 1.954E+02, 7.233E+01,-6.315E+01, 1.786E-01, 1.767E-02, 2.001E+02
 4.000E+02, 1.393E+02, 1.435E+02, 1.520E+02, 1.943E+02, 7.165E+01, 1.642E+02, 1.937E+02, 7.256E+01,-6.494E+01, 1.781E-01, 1.797E-02, 2.005E+02
 4.100E+02, 1.397E+02, 1.442E+02, 1.522E+02, 1.944E+02, 7.234E+01, 1.654E+02, 1.937E+02, 7.340E+01,-6.761E+01, 1.770E-01, 1.856E-02, 2.005E+02
 4.200E+02, 1.381E+02, 1.446E+02, 1.516E+02, 1.912E+02, 7.155E+01, 1.670E+02, 1.936E+02, 7.328E+01,-6.798E+01, 1.763E-01, 1.895E-02, 1.995E+02
 4.300E+02, 1.386E+02, 1.466E+02, 1.525E+02, 1.913E+02, 7.193E+01, 1.684E+02, 1.987E+02, 7.270E+01,-6.074E+01, 1.753E-01, 1.953E-02, 2.001E+02
 4.400E+02, 1.399E+02, 1.469E+02, 1.537E+02, 1.930E+02, 7.303E+01, 1.687E+02, 1.991E+02, 7.294E+01,-6.416E+01, 1.746E-01, 1.994E-02, 2.009E+02
 4.500E+02, 1.403E+02, 1.470E+02, 1.539E+02, 1.938E+02, 7.305E+01, 1.678E+02, 2.004E+02, 7.287E+01,-6.153E+01, 1.737E-01, 2.043E-02, 1.999E+02
 4.600E+02, 1.397E+02, 1.472E+02, 1.540E+02, 1.929E+02, 7.233E+01, 1.676E+02, 2.002E+02, 7.389E+01,-6.261E+01, 1.727E-01, 2.095E-02, 2.002E+02
 4.700E+02, 1.408E+02, 1.463E+02, 1.552E+02, 1.936E+02, 7.350E+01, 1.687E+02, 1.964E+02, 7.377E+01,-6.269E+01, 1.720E-01, 2.139E-02, 2.005E+02
 4.800E+02, 1.410E+02, 1.479E+02, 1.531E+02, 1.958E+02, 7.395E+01, 1.700E+02, 1.996E+02, 7.431E+01,-6.197E+01, 1.710E-01, 2.193E-02, 2.003E+02
 4.900E+02, 1.428E+02, 1.491E+02, 1.572E+02, 1.959E+02, 7.530E+01, 1.696E+02, 2.024E+02, 7.526E+01,-6.577E+01, 1.701E-01, 2.241E-02, 1.998E+02
 5.000E+02, 1.429E+02, 1.478E+02, 1.559E+02, 1.982E+02, 7.451E+01, 1.681E+02, 2.001E+02, 7.510E+01,-6.720E+01, 1.697E-01, 2.264E-02, 1.997E+02
 5.100E+02, 1.421E+02, 1.496E+02, 1.568E+02, 1.963E+02, 7.307E+01, 1.703E+02, 2.035E+02, 7.493E+01,-6.484E+01, 1.688E-01, 2.318E-02, 2.000E+02
 5.200E+02, 1.442E+02, 1.476E+02, 1.577E+02, 2.009E+02, 7.400E+01, 1.666E+02, 2.014E+02, 7.491E+01,-6.368E+01, 1.682E-01, 2.348E-02, 2.001E+02
 5.300E+02, 1.434E+02, 1.495E+02, 1.571E+02, 1.997E+02, 7.358E+01, 1.704E+02, 2.033E+02, 7.485E+01,-6.283E+01, 1.677E-01, 2.378E-02, 2.001E+02
 5.400E+02, 1.427E+02, 1.487E+02, 1.565E+02, 1.964E+02, 7.505E+01, 1.713E+02, 1.998E+02, 7.492E+01,-6.451E+01, 1.666E-01, 2.439E-02, 2.004E+02
 5.500E+02, 1.439E+02, 1.500E+02, 1.572E+02, 1.995E+02, 7.490E+01, 1.727E+02, 2.025E+02, 7.490E+01,-6.490E+01, 1.659E-01, 2.479E-02, 1.993E+02
 5.600E+02, 1.435E+02, 1.510E+02, 1.569E+02, 1.982E+02, 7.552E+01, 1.713E+02, 2.066E+02, 7.515E+01,-6.122E+01, 1.653E-01, 2.511E-02, 2.008E+02
 5.700E+02, 1.428E+02, 1.518E+02, 1.565E+02, 1.961E+02, 7.580E+01, 1.728E+02, 2.073E+02, 7.549E+01,-6.181E+01, 1.647E-01, 2.544E-02, 2.000E+02
 5.800E+02, 1.440E+02, 1.511E+02, 1.577E+02, 1.991E+02, 7.531E+01, 1.726E+02, 2.050E+02, 7.585E+01,-6.126E+01, 1.640E-01, 2.582E-02, 2.005E+02
 5.900E+02, 1.441E+02, 1.510E+02, 1.582E+02, 1.988E+02, 7.532E+01, 1.731E+02, 2.034E+02, 7.651E+01,-6.474E+01, 1.634E-01, 2.618E-02, 2.004E+02
 6.000E+02, 1.453E+02, 1.518E+02, 1.590E+02, 2.004E+02, 7.653E+01, 1.751E+02, 2.041E+02, 7.628E+01,-6.288E+01, 1.630E-01, 2.641E-02, 1.999E+02
 6.100E+02, 1.457E+02, 1.515E+02, 1.585E+02, 2.012E+02, 7.729E+01, 1.734E+02, 2.047E+02, 7.631E+01,-6.416E+01, 1.623E-01, 2.681E-02, 1.998E+02
 6.200E+02, 1.460E+02, 1.507E+02, 1.597E+02, 2.025E+02, 7.582E+01, 1.723E+02, 2.029E+02, 7.673E+01,-6.579E+01, 1.618E-01, 2.706E-02, 2.003E+02
 6.300E+02, 1.462E+02, 1.514E+02, 1.584E+02, 2.041E+02, 7.606E+01, 1.743E+02, 2.035E+02, 7.656E+01,-6.531E+01, 1.612E-01, 2.742E-02, 2.001E+02
 6.400E+02, 1.461E+02, 1.520E+02, 1.579E+02, 2.028E+02, 7.756E+01, 1.749E+02, 2.045E+02, 7.667E+01,-6.144E+01, 1.609E-01, 2.759E-02, 2.005E+02
 6.500E+02, 1.461E+02, 1.534E+02, 1.575E+02, 2.022E+02, 7.876E+01, 1.755E+02, 2.070E+02, 7.787E+01,-6.070E+01, 1.605E-01, 2.782E-02, 2.002E+02
 6.600E+02, 1.458E+02, 1.537E+02, 1.581E+02, 2.020E+02, 7.742E+01, 1.753E+02, 2.081E+02, 7.784E+01,-6.302E+01, 1.599E-01, 2.811E-02, 2.002E+02
 6.700E+02, 1.466E+02, 1.546E+02, 1.595E+02, 2.021E+02, 7.836E+01, 1.774E+02, 2.077E+02, 7.854E+01,-6.097E+01, 1.593E-01, 2.845E-02, 1.997E+02
 6.800E+02, 1.463E+02, 1.544E+02, 1.597E+02, 2.008E+02, 7.830E+01, 1.740E+02, 2.109E+02, 7.838E+01,-6.411E+01, 1.592E-01, 2.850E-02, 2.002E+02
 6.900E+02, 1.464E+02, 1.554E+02, 1.601E+02, 1.994E+02, 7.970E+01, 1.757E+02, 2.120E+02, 7.855E+01,-6.279E+01, 1.586E-01, 2.885E-02, 2.004E+02
 7.000E+02, 1.463E+02, 1.539E+02, 1.613E+02, 1.989E+02, 7.878E+01, 1.738E+02, 2.079E+02, 8.000E+01,-6.127E+01, 1.582E-01, 2.910E-02, 2.001E+02
 7.100E+02, 1.468E+02, 1.516E+02, 1.604E+02, 2.007E+02, 7.916E+01, 1.718E+02, 2.040E+02, 7.902E+01,-6.623E+01, 1.578E-01, 2.932E-02, 2.003E+02
 7.200E+02, 1.480E+02, 1.541E+02, 1.624E+02, 2.025E+02, 7.900E+01, 1.761E+02, 2.089E+02, 7.731E+01,-6.657E+01, 1.575E-01, 2.945E-02, 2.001E+02
 7.300E+02, 1.502E+02, 1.519E+02, 1.646E+02, 2.067E+02, 7.933E+01, 1.744E+02, 2.030E+02, 7.834E+01,-6.634E+01, 1.571E-01, 2.969E-02, 2.004E+02
 7.400E+02, 1.487E+02, 1.534E+02, 1.619E+02, 2.049E+02, 7.916E+01, 1.760E+02, 2.061E+02, 7.822E+01,-6.367E+01, 1.569E-01, 2.980E-02, 2.000E+02
 7.500E+02, 1.504E+02, 1.576E+02, 1.631E+02, 2.087E+02, 7.946E+01, 1.799E+02, 2.128E+02, 8.010E+01,-6.008E+01, 1.563E-01, 3.013E-02, 2.003E+02
 7.600E+02, 1.493E+02, 1.571E+02, 1.628E+02, 2.057E+02, 7.946E+01, 1.788E+02, 2.118E+02, 8.058E+01,-6.239E+01, 1.559E-01, 3.034E-02, 2.001E+02
 7.700E+02, 1.490E+02, 1.577E+02, 1.624E+02, 2.053E+02, 7.934E+01, 1.796E+02, 2.128E+02, 8.073E+01,-6.364E+01, 1.553E-01, 3.069E-02, 2.000E+02
 7.800E+02, 1.505E+02, 1.562E+02, 1.634E+02, 2.083E+02, 7.975E+01, 1.768E+02, 2.119E+02, 7.997E+01,-6.535E+01, 1.551E-01, 3.083E-02, 2.003E+02
 7.900E+02, 1.498E+02, 1.576E+02, 1.625E+02, 2.065E+02, 8.036E+01, 1.793E+02, 2.128E+02, 8.072E+01,-6.319E+01, 1.547E-01, 3.104E-02, 1.999E+02
 8.000E+02, 1.490E+02, 1.579E+02, 1.614E+02, 2.056E+02, 7.997E+01, 1.801E+02, 2.124E+02, 8.130E+01,-6.377E+01, 1.544E-01, 3.120E-02, 1.997E+02
 8.100E+02, 1.488E+02, 1.578E+02, 1.622E+02, 2.036E+02, 8.067E+01, 1.801E+02, 2.120E+02, 8.124E+01,-6.181E+01, 1.540E-01, 3.142E-02, 2.003E+02
 8.200E+02, 1.496E+02, 1.581E+02, 1.620E+02, 2.051E+02, 8.180E+01, 1.806E+02, 2.118E+02, 8.181E+01,-6.617E+01, 1.539E-01, 3.148E-02, 2.005E+02
 8.300E+02, 1.492E+02, 1.590E+02, 1.620E+02, 2.041E+02, 8.152E+01, 1.817E+02, 2.135E+02, 8.162E+01,-6.413E+01, 1.536E-01, 3.167E-02, 1.995E+02
 8.400E+02, 1.505E+02, 1.580E+02, 1.631E+02, 2.057E+02, 8.258E+01, 1.814E+02, 2.122E+02, 8.029E+01,-6.439E+01, 1.535E-01, 3.170E-02, 2.006E+02
 8.500E+02, 1.510E+02, 1.577E+02, 1.650E+02, 2.072E+02, 8.088E+01, 1.787E+02, 2.125E+02, 8.175E+01,-6.397E+01, 1.531E-01, 3.191E-02, 2.000E+02
 8.600E+02, 1.513E+02, 1.571E+02, 1.649E+02, 2.082E+02, 8.074E+01, 1.769E+02, 2.125E+02, 8.184E+01,-6.492E+01, 1.530E-01, 3.199E-02, 1.997E+02
 8.700E+02, 1.513E+02, 1.572E+02, 1.643E+02, 2.091E+02, 8.060E+01, 1.787E+02, 2.118E+02, 8.113E+01,-6.401E+01, 1.529E-01, 3.207E-02, 1.999E+02
 8.800E+02, 1.521E+02, 1.578E+02, 1.658E+02, 2.098E+02, 8.052E+01, 1.781E+02, 2.134E+02, 8.195E+01,-6.423E+01, 1.526E-01, 3.222E-02, 2.002E+02
 8.900E+02, 1.524E+02, 1.576E+02, 1.652E+02, 2.102E+02, 8.176E+01, 1.788E+02, 2.116E+02, 8.238E+01,-6.173E+01, 1.524E-01, 3.232E-02, 2.001E+02
 9.000E+02, 1.534E+02, 1.602E+02, 1.666E+02, 2.101E+02, 8.366E+01, 1.817E+02, 2.154E+02, 8.339E+01,-6.046E+01, 1.521E-01, 3.251E-02, 1.999E+02
 9.100E+02, 1.532E+02, 1.603E+02, 1.670E+02, 2.090E+02, 8.354E+01, 1.817E+02, 2.154E+02, 8.388E+01,-6.136E+01, 1.518E-01, 3.263E-02, 1.998E+02
 9.200E+02, 1.544E+02, 1.598E+02, 1.686E+02, 2.114E+02, 8.312E+01, 1.801E+02, 2.154E+02, 8.375E+01,-6.411E+01, 1.515E-01, 3.285E-02, 2.005E+02
 9.300E+02, 1.540E+02, 1.609E+02, 1.683E+02, 2.110E+02, 8.278E+01, 1.825E+02, 2.164E+02, 8.374E+01,-6.220E+01, 1.513E-01, 3.291E-02, 2.002E+02
 9.400E+02, 1.549E+02, 1.605E+02, 1.681E+02, 2.122E+02, 8.458E+01, 1.826E+02, 2.149E+02, 8.400E+01,-6.141E+01, 1.511E-01, 3.302E-02, 2.009E+02
 9.500E+02, 1.540E+02, 1.598E+02, 1.678E+02, 2.104E+02, 8.368E+01, 1.820E+02, 2.133E+02, 8.406E+01,-6.755E+01, 1.509E-01, 3.316E-02, 1.998E+02
 9.600E+02, 1.558E+02, 1.584E+02, 1.695E+02, 2.140E+02, 8.392E+01, 1.807E+02, 2.118E+02, 8.265E+01,-6.301E+01, 1.509E-01, 3.317E-02, 2.001E+02
 9.700E+02, 1.549E+02, 1.603E+02, 1.679E+02, 2.120E+02, 8.460E+01, 1.850E+02, 2.122E+02, 8.360E+01,-6.683E+01, 1.504E-01, 3.342E-02, 1.997E+02
 9.800E+02, 1.554E+02, 1.609E+02, 1.675E+02, 2.140E+02, 8.459E+01, 1.833E+02, 2.147E+02, 8.453E+01,-6.288E+01, 1.502E-01, 3.355E-02, 2.004E+02
 9.900E+02, 1.556E+02, 1.613E+02, 1.691E+02, 2.130E+02, 8.485E+01, 1.819E+02, 2.169E+02, 8.525E+01,-6.247E+01, 1.500E-01, 3.366E-02, 1.995E+02
 1.000E+03, 1.557E+02, 1.618E+02, 1.697E+02, 2.136E+02, 8.378E+01, 1.840E+02, 2.166E+02, 8.496E+01,-6.237E+01, 1.498E-01, 3.375E-02, 2.001E+02
 1.010E+03, 1.545E+02, 1.633E+02, 1.677E+02, 2.109E+02, 8.475E+01, 1.833E+02, 2.209E+02, 8.549E+01,-6.382E+01, 1.495E-01, 3.393E-02, 1.999E+02
 1.020E+03, 1.549E+02, 1.634E+02, 1.688E+02, 2.111E+02, 8.482E+01, 1.851E+02, 2.192E+02, 8.599E+01,-5.920E+01, 1.496E-01, 3.391E-02, 2.003E+02
 1.030E+03, 1.554E+02, 1.644E+02, 1.687E+02, 2.117E+02, 8.586E+01, 1.871E+02, 2.203E+02, 8.579E+01,-5.996E+01, 1.494E-01, 3.401E-02, 2.001E+02
 1.040E+03, 1.567E+02, 1.621E+02, 1.700E+02, 2.140E+02, 8.608E+01, 1.846E+02, 2.156E+02, 8.619E+01,-6.609E+01, 1.491E-01, 3.414E-02, 2.000E+02
 1.050E+03, 1.555E+02, 1.638E+02, 1.677E+02, 2.132E+02, 8.571E+01, 1.864E+02, 2.184E+02, 8.656E+01,-6.333E+01, 1.489E-01, 3.430E-02, 1.999E+02
 1.060E+03, 1.555E+02, 1.654E+02, 1.696E+02, 2.106E+02, 8.638E+01, 1.879E+02, 2.210E+02, 8.730E+01,-6.175E+01, 1.488E-01, 3.432E-02, 1.997E+02
 1.070E+03, 1.547E+02, 1.650E+02, 1.683E+02, 2.089E+02, 8.691E+01, 1.851E+02, 2.225E+02, 8.738E+01,-6.159E+01, 1.488E-01, 3.432E-02, 1.997E+02
 1.080E+03, 1.559E+02, 1.648E+02, 1.701E+02, 2.107E+02, 8.674E+01, 1.864E+02, 2.215E+02, 8.668E+01,-6.223E+01, 1.488E-01, 3.432E-02, 2.004E+02
 1.090E+03, 1.576E+02, 1.646E+02, 1.711E+02, 2.153E+02, 8.621E+01, 1.855E+02, 2.207E+02, 8.772E+01,-6.260E+01, 1.485E-01, 3.451E-02, 2.000E+02
 1.100E+03, 1.588E+02, 1.637E+02, 1.725E+02, 2.167E+02, 8.729E+01, 1.866E+02, 2.171E+02, 8.743E+01,-6.473E+01, 1.484E-01, 3.454E-02, 2.003E+02
 1.110E+03, 1.581E+02, 1.654E+02, 1.723E+02, 2.151E+02, 8.694E+01, 1.880E+02, 2.203E+02, 8.796E+01,-6.425E+01, 1.482E-01, 3.466E-02, 1.998E+02
 1.120E+03, 1.590E+02, 1.660E+02, 1.746E+02, 2.153E+02, 8.724E+01, 1.887E+02, 2.220E+02, 8.722E+01,-6.112E+01, 1.481E-01, 3.472E-02, 2.003E+02
 1.130E+03, 1.591E+02, 1.656E+02, 1.715E+02, 2.173E+02, 8.860E+01, 1.881E+02, 2.214E+02, 8.750E+01,-6.083E+01, 1.478E-01, 3.487E-02, 1.999E+02
 1.140E+03, 1.590E+02, 1.663E+02, 1.713E+02, 2.169E+02, 8.880E+01, 1.891E+02, 2.207E+02, 8.911E+01,-6.355E+01, 1.476E-01, 3.502E-02, 2.001E+02
 1.150E+03, 1.604E+02, 1.653E+02, 1.728E+02, 2.203E+02, 8.795E+01, 1.876E+02, 2.198E+02, 8.852E+01,-6.325E+01, 1.475E-01, 3.507E-02, 2.003E+02
 1.160E+03, 1.608E+02, 1.672E+02, 1.728E+02, 2.203E+02, 8.926E+01, 1.887E+02, 2.242E+02, 8.878E+01,-6.310E+01, 1.473E-01, 3.517E-02, 1.999E+02
 1.170E+03, 1.600E+02, 1.662E+02, 1.727E+02, 2.194E+02, 8.791E+01, 1.882E+02, 2.220E+02, 8.854E+01,-6.251E+01, 1.471E-01, 3.527E-02, 2.000E+02
 1.180E+03, 1.593E+02, 1.665E+02, 1.737E+02, 2.165E+02, 8.764E+01, 1.875E+02, 2.243E+02, 8.770E+01,-6.226E+01, 1.470E-01, 3.532E-02, 1.999E+02
 1.190E+03, 1.588E+02, 1.674E+02, 1.725E+02, 2.152E+02, 8.859E+01, 1.903E+02, 2.240E+02, 8.774E+01,-6.205E+01, 1.470E-01, 3.533E-02, 2.002E+02
 1.200E+03, 1.591E+02, 1.670E+02, 1.723E+02, 2.157E+02, 8.935E+01, 1.896E+02, 2.219E+02, 8.953E+01,-6.026E+01, 1.470E-01, 3.531E-02, 1.998E+02
 1.210E+03, 1.591E+02, 1.681E+02, 1.716E+02, 2.158E+02, 9.005E+01, 1.901E+02, 2.244E+02, 8.982E+01,-6.125E+01, 1.470E-01, 3.534E-02, 2.000E+02
 1.220E+03, 1.613E+02, 1.672E+02, 1.736E+02, 2.200E+02, 9.045E+01, 1.903E+02, 2.212E+02, 9.016E+01,-6.129E+01, 1.469E-01, 3.539E-02, 1.996E+02
 1.230E+03, 1.611E+02, 1.682E+02, 1.740E+02, 2.196E+02, 8.983E+01, 1.886E+02, 2.262E+02, 8.993E+01,-6.376E+01, 1.469E-01, 3.540E-02, 2.003E+02
 1.240E+03, 1.605E+02, 1.659E+02, 1.735E+02, 2.192E+02, 8.877E+01, 1.887E+02, 2.196E+02, 8.941E+01,-6.041E+01, 1.469E-01, 3.537E-02, 2.004E+02
 1.250E+03, 1.618E+02, 1.661E+02, 1.756E+02, 2.195E+02, 9.023E+01, 1.860E+02, 2.228E+02, 8.945E+01,-6.172E+01, 1.470E-01, 3.536E-02, 1.998E+02
 1.260E+03, 1.624E+02, 1.670E+02, 1.771E+02, 2.197E+02, 9.032E+01, 1.906E+02, 2.202E+02, 9.030E+01,-6.345E+01, 1.468E-01, 3.545E-02, 2.002E+02
 1.270E+03, 1.634E+02, 1.665E+02, 1.750E+02, 2.245E+02, 9.065E+01, 1.890E+02, 2.200E+02, 9.042E+01,-6.328E+01, 1.467E-01, 3.549E-02, 2.004E+02
 1.280E+03, 1.617E+02, 1.686E+02, 1.760E+02, 2.194E+02, 8.957E+01, 1.918E+02, 2.246E+02, 8.938E+01,-6.317E+01, 1.467E-01, 3.551E-02, 2.000E+02
 1.290E+03, 1.638E+02, 1.679E+02, 1.779E+02, 2.227E+02, 9.080E+01, 1.917E+02, 2.235E+02, 8.844E+01,-6.255E+01, 1.467E-01, 3.552E-02, 2.001E+02
 1.300E+03, 1.629E+02, 1.690E+02, 1.764E+02, 2.218E+02, 9.043E+01, 1.909E+02, 2.259E+02, 9.013E+01,-6.036E+01, 1.465E-01, 3.560E-02, 1.999E+02
 1.310E+03, 1.628E+02, 1.693E+02, 1.763E+02, 2.206E+02, 9.157E+01, 1.915E+02, 2.257E+02, 9.070E+01,-6.010E+01, 1.463E-01, 3.571E-02, 1.999E+02
