s,C,C,C,C,C,C,C,C,Pa,mol/mol,mol/mol,kW
Time,"West_All_TCs","East_All_TCs","West_Bottom_TCs","West_Middle_TCs","West_Upper_TCs","East_Bottom_TCs","East_Middle_TCs","East_Upper_TCs","Pressure","O2","CO2","HRR"
-6.000E+01, 2.000E+01, 2.000E+01, 2.000E+01, 2.000E+01, 2.000E+01, 2.000E+01, 2.000E+01, 2.000E+01,-9.803E-06, 2.095E-01, 3.901E-04, 0.000E+00
-4.998E+01, 1.999E+01, 1.999E+01, 1.999E+01, 1.999E+01, 1.999E+01, 1.999E+01, 1.999E+01, 1.999E+01,-2.092E+01, 2.095E-01, 3.901E-04, 0.000E+00
-3.996E+01, 1.998E+01, 1.999E+01, 1.999E+01, 1.998E+01, 1.998E+01, 1.999E+01, 1.999E+01, 1.999E+01,-2.026E+01, 2.095E-01, 3.901E-04, 0.000E+00
-2.998E+01, 1.998E+01, 1.999E+01, 1.998E+01, 1.998E+01, 1.997E+01, 2.001E+01, 1.999E+01, 1.999E+01,-2.028E+01, 2.095E-01, 3.901E-04, 0.000E+00
-1.996E+01, 1.998E+01, 2.000E+01, 1.998E+01, 1.998E+01, 1.997E+01, 2.002E+01, 1.999E+01, 1.999E+01,-2.028E+01, 2.095E-01, 3.901E-04, 0.000E+00
-9.985E+00, 1.998E+01, 2.000E+01, 1.998E+01, 1.998E+01, 1.997E+01, 2.003E+01, 1.999E+01, 1.999E+01,-2.028E+01, 2.095E-01, 3.901E-04, 0.000E+00
 3.528E-02, 1.998E+01, 2.000E+01, 1.998E+01, 1.998E+01, 1.998E+01, 2.003E+01, 1.999E+01, 1.999E+01,-2.029E+01, 2.095E-01, 3.901E-04, 1.330E-04
 1.001E+01, 2.088E+01, 2.116E+01, 2.047E+01, 2.219E+01, 1.999E+01, 2.076E+01, 2.272E+01, 2.000E+01,-3.016E+00, 2.095E-01, 3.901E-04, 3.256E+01
 2.002E+01, 2.441E+01, 2.555E+01, 2.251E+01, 3.056E+01, 2.015E+01, 2.314E+01, 3.351E+01, 2.001E+01, 2.844E+01, 2.095E-01, 3.901E-04, 9.867E+01
 3.001E+01, 3.297E+01, 3.366E+01, 2.569E+01, 5.247E+01, 2.075E+01, 2.824E+01, 5.276E+01, 1.999E+01, 9.900E+01, 2.095E-01, 3.901E-04, 1.658E+02
 4.002E+01, 4.445E+01, 4.483E+01, 3.368E+01, 7.814E+01, 2.151E+01, 3.647E+01, 7.745E+01, 2.057E+01, 1.295E+02, 2.094E-01, 4.588E-04, 1.985E+02
 5.000E+01, 5.497E+01, 5.713E+01, 4.673E+01, 9.546E+01, 2.271E+01, 4.884E+01, 1.001E+02, 2.248E+01, 9.260E+01, 2.091E-01, 6.533E-04, 2.018E+02
 6.000E+01, 6.490E+01, 6.614E+01, 5.870E+01, 1.126E+02, 2.334E+01, 6.011E+01, 1.143E+02, 2.395E+01, 6.074E+01, 2.089E-01, 7.544E-04, 1.985E+02
 7.001E+01, 7.449E+01, 7.485E+01, 7.102E+01, 1.284E+02, 2.402E+01, 7.350E+01, 1.261E+02, 2.496E+01, 4.190E+01, 2.087E-01, 8.516E-04, 2.014E+02
 8.000E+01, 8.214E+01, 8.246E+01, 8.355E+01, 1.370E+02, 2.592E+01, 8.473E+01, 1.366E+02, 2.608E+01, 2.707E+01, 2.085E-01, 9.580E-04, 2.003E+02
 9.000E+01, 8.939E+01, 8.911E+01, 9.626E+01, 1.446E+02, 2.731E+01, 9.644E+01, 1.433E+02, 2.760E+01, 1.712E+01, 2.081E-01, 1.187E-03, 2.002E+02
 1.000E+02, 9.493E+01, 9.460E+01, 1.039E+02, 1.527E+02, 2.825E+01, 1.062E+02, 1.482E+02, 2.941E+01, 1.143E+01, 2.079E-01, 1.332E-03, 1.981E+02
 1.100E+02, 1.007E+02, 9.927E+01, 1.121E+02, 1.604E+02, 2.965E+01, 1.136E+02, 1.540E+02, 3.025E+01, 7.109E+00, 2.076E-01, 1.459E-03, 2.010E+02
 1.200E+02, 1.031E+02, 1.046E+02, 1.185E+02, 1.608E+02, 3.000E+01, 1.224E+02, 1.606E+02, 3.084E+01, 4.746E-01, 2.073E-01, 1.627E-03, 2.004E+02
 1.300E+02, 1.071E+02, 1.084E+02, 1.255E+02, 1.644E+02, 3.149E+01, 1.261E+02, 1.668E+02, 3.218E+01,-2.017E+00, 2.070E-01, 1.824E-03, 1.995E+02
 1.400E+02, 1.094E+02, 1.105E+02, 1.288E+02, 1.672E+02, 3.228E+01, 1.298E+02, 1.681E+02, 3.356E+01,-6.736E+00, 2.067E-01, 1.979E-03, 2.005E+02
 1.500E+02, 1.127E+02, 1.120E+02, 1.305E+02, 1.736E+02, 3.397E+01, 1.348E+02, 1.668E+02, 3.432E+01,-8.910E+00, 2.063E-01, 2.211E-03, 2.005E+02
 1.600E+02, 1.128E+02, 1.154E+02, 1.338E+02, 1.704E+02, 3.404E+01, 1.365E+02, 1.743E+02, 3.525E+01,-1.065E+01, 2.060E-01, 2.393E-03, 1.973E+02
 1.700E+02, 1.145E+02, 1.174E+02, 1.355E+02, 1.729E+02, 3.505E+01, 1.372E+02, 1.797E+02, 3.545E+01,-1.231E+01, 2.058E-01, 2.502E-03, 2.017E+02
 1.800E+02, 1.158E+02, 1.184E+02, 1.361E+02, 1.755E+02, 3.567E+01, 1.384E+02, 1.803E+02, 3.654E+01,-1.381E+01, 2.051E-01, 2.864E-03, 1.994E+02
 1.900E+02, 1.156E+02, 1.188E+02, 1.350E+02, 1.754E+02, 3.636E+01, 1.381E+02, 1.815E+02, 3.684E+01,-1.612E+01, 2.047E-01, 3.072E-03, 2.004E+02
 2.000E+02, 1.160E+02, 1.187E+02, 1.351E+02, 1.766E+02, 3.625E+01, 1.395E+02, 1.800E+02, 3.647E+01,-1.616E+01, 2.046E-01, 3.163E-03, 1.970E+02
 2.100E+02, 1.162E+02, 1.212E+02, 1.350E+02, 1.774E+02, 3.629E+01, 1.417E+02, 1.846E+02, 3.724E+01,-1.458E+01, 2.039E-01, 3.561E-03, 2.006E+02
 2.200E+02, 1.178E+02, 1.198E+02, 1.363E+02, 1.800E+02, 3.705E+01, 1.399E+02, 1.817E+02, 3.777E+01,-1.502E+01, 2.037E-01, 3.679E-03, 2.013E+02
 2.300E+02, 1.185E+02, 1.206E+02, 1.364E+02, 1.815E+02, 3.769E+01, 1.398E+02, 1.839E+02, 3.804E+01,-1.475E+01, 2.032E-01, 3.923E-03, 1.999E+02
 2.400E+02, 1.190E+02, 1.210E+02, 1.386E+02, 1.811E+02, 3.724E+01, 1.398E+02, 1.847E+02, 3.872E+01,-1.514E+01, 2.025E-01, 4.312E-03, 1.994E+02
 2.500E+02, 1.195E+02, 1.207E+02, 1.366E+02, 1.833E+02, 3.863E+01, 1.389E+02, 1.843E+02, 3.876E+01,-1.970E+01, 2.021E-01, 4.560E-03, 1.972E+02
 2.600E+02, 1.208E+02, 1.221E+02, 1.377E+02, 1.865E+02, 3.834E+01, 1.431E+02, 1.848E+02, 3.851E+01,-1.409E+01, 2.017E-01, 4.754E-03, 2.021E+02
 2.700E+02, 1.207E+02, 1.217E+02, 1.390E+02, 1.846E+02, 3.858E+01, 1.389E+02, 1.873E+02, 3.902E+01,-1.490E+01, 2.011E-01, 5.111E-03, 1.999E+02
 2.800E+02, 1.226E+02, 1.223E+02, 1.413E+02, 1.869E+02, 3.953E+01, 1.411E+02, 1.859E+02, 3.994E+01,-1.829E+01, 2.005E-01, 5.420E-03, 1.973E+02
 2.900E+02, 1.227E+02, 1.227E+02, 1.414E+02, 1.871E+02, 3.951E+01, 1.419E+02, 1.864E+02, 3.991E+01,-1.545E+01, 2.002E-01, 5.620E-03, 2.016E+02
 3.000E+02, 1.227E+02, 1.255E+02, 1.415E+02, 1.871E+02, 3.943E+01, 1.445E+02, 1.922E+02, 3.961E+01,-1.606E+01, 1.995E-01, 6.027E-03, 1.978E+02
 3.100E+02, 1.220E+02, 1.267E+02, 1.425E+02, 1.850E+02, 3.858E+01, 1.430E+02, 1.970E+02, 3.998E+01,-1.526E+01, 1.992E-01, 6.156E-03, 2.017E+02
 3.200E+02, 1.235E+02, 1.268E+02, 1.429E+02, 1.885E+02, 3.926E+01, 1.468E+02, 1.942E+02, 3.951E+01,-1.599E+01, 1.989E-01, 6.365E-03, 1.997E+02
 3.300E+02, 1.228E+02, 1.270E+02, 1.428E+02, 1.867E+02, 3.891E+01, 1.482E+02, 1.929E+02, 3.981E+01,-2.119E+01, 1.980E-01, 6.829E-03, 1.948E+02
 3.400E+02, 1.233E+02, 1.266E+02, 1.426E+02, 1.876E+02, 3.970E+01, 1.474E+02, 1.920E+02, 4.045E+01,-1.911E+01, 1.975E-01, 7.141E-03, 1.996E+02
 3.500E+02, 1.234E+02, 1.291E+02, 1.441E+02, 1.868E+02, 3.910E+01, 1.465E+02, 2.005E+02, 4.018E+01,-1.638E+01, 1.971E-01, 7.329E-03, 1.997E+02
 3.600E+02, 1.231E+02, 1.276E+02, 1.430E+02, 1.875E+02, 3.890E+01, 1.494E+02, 1.933E+02, 4.008E+01,-2.147E+01, 1.966E-01, 7.604E-03, 1.983E+02
 3.700E+02, 1.234E+02, 1.296E+02, 1.427E+02, 1.885E+02, 3.903E+01, 1.505E+02, 1.982E+02, 4.015E+01,-2.768E+01, 1.958E-01, 8.090E-03, 1.915E+02
 3.800E+02, 1.245E+02, 1.279E+02, 1.428E+02, 1.916E+02, 3.896E+01, 1.480E+02, 1.959E+02, 3.996E+01,-1.819E+01, 1.957E-01, 8.127E-03, 2.021E+02
 3.900E+02, 1.250E+02, 1.295E+02, 1.448E+02, 1.903E+02, 3.978E+01, 1.466E+02, 2.015E+02, 4.037E+01,-1.856E+01, 1.952E-01, 8.379E-03, 1.998E+02
 4.000E+02, 1.242E+02, 1.305E+02, 1.431E+02, 1.895E+02, 3.999E+01, 1.487E+02, 2.022E+02, 4.063E+01,-2.298E+01, 1.947E-01, 8.682E-03, 1.960E+02
 4.100E+02, 1.249E+02, 1.265E+02, 1.445E+02, 1.906E+02, 3.974E+01, 1.477E+02, 1.915E+02, 4.033E+01,-7.896E+01, 1.941E-01, 9.008E-03, 1.453E+02
 4.200E+02, 1.208E+02, 1.286E+02, 1.358E+02, 1.863E+02, 4.050E+01, 1.513E+02, 1.944E+02, 3.990E+01, 2.850E+01, 1.935E-01, 9.351E-03, 2.100E+02
 4.300E+02, 1.224E+02, 1.316E+02, 1.423E+02, 1.843E+02, 4.058E+01, 1.546E+02, 1.998E+02, 4.047E+01,-3.980E+01, 1.926E-01, 9.854E-03, 1.438E+02
 4.400E+02, 1.177E+02, 1.274E+02, 1.353E+02, 1.777E+02, 4.022E+01, 1.490E+02, 1.929E+02, 4.044E+01,-4.564E+01, 1.924E-01, 9.960E-03, 1.359E+02
 4.500E+02, 1.193E+02, 1.374E+02, 1.378E+02, 1.792E+02, 4.090E+01, 1.674E+02, 2.039E+02, 4.082E+01,-6.211E+01, 1.914E-01, 1.051E-02, 1.099E+02
 4.600E+02, 1.199E+02, 1.283E+02, 1.355E+02, 1.831E+02, 4.105E+01, 1.497E+02, 1.935E+02, 4.176E+01, 1.285E+02, 1.913E-01, 1.057E-02, 2.146E+02
 4.700E+02, 1.175E+02, 1.336E+02, 1.358E+02, 1.751E+02, 4.142E+01, 1.668E+02, 1.928E+02, 4.113E+01,-1.052E+02, 1.911E-01, 1.070E-02, 7.139E+01
 4.800E+02, 1.174E+02, 1.357E+02, 1.346E+02, 1.740E+02, 4.358E+01, 1.675E+02, 1.969E+02, 4.266E+01,-6.413E+00, 1.904E-01, 1.109E-02, 9.218E+01
 4.900E+02, 1.159E+02, 1.420E+02, 1.365E+02, 1.681E+02, 4.304E+01, 1.929E+02, 1.899E+02, 4.304E+01,-6.464E+01, 1.895E-01, 1.158E-02, 4.556E-02
 5.000E+02, 1.136E+02, 1.246E+02, 1.315E+02, 1.663E+02, 4.306E+01, 1.484E+02, 1.821E+02, 4.313E+01,-7.681E+01, 1.889E-01, 1.194E-02, 1.896E+01
 5.100E+02, 1.086E+02, 1.382E+02, 1.245E+02, 1.571E+02, 4.420E+01, 1.670E+02, 2.047E+02, 4.290E+01,-1.764E+01, 1.885E-01, 1.215E-02, 6.916E+00
 5.200E+02, 1.134E+02, 1.196E+02, 1.298E+02, 1.666E+02, 4.382E+01, 1.292E+02, 1.856E+02, 4.399E+01,-4.942E+01, 1.874E-01, 1.276E-02, 7.855E+00
 5.300E+02, 1.076E+02, 1.139E+02, 1.197E+02, 1.588E+02, 4.420E+01, 1.383E+02, 1.587E+02, 4.488E+01,-4.042E+01, 1.873E-01, 1.281E-02, 2.178E+01
 5.400E+02, 1.094E+02, 1.159E+02, 1.177E+02, 1.661E+02, 4.450E+01, 1.166E+02, 1.875E+02, 4.365E+01,-2.312E+01, 1.875E-01, 1.272E-02, 1.312E+01
 5.500E+02, 1.081E+02, 1.186E+02, 1.128E+02, 1.675E+02, 4.404E+01, 1.399E+02, 1.727E+02, 4.319E+01,-3.552E+01, 1.880E-01, 1.244E-02, 2.161E+00
 5.600E+02, 1.098E+02, 1.146E+02, 1.186E+02, 1.674E+02, 4.333E+01, 1.214E+02, 1.780E+02, 4.441E+01,-4.565E+01, 1.862E-01, 1.343E-02, 1.615E+00
 5.700E+02, 1.064E+02, 1.159E+02, 1.133E+02, 1.620E+02, 4.396E+01, 1.280E+02, 1.764E+02, 4.329E+01,-2.351E+01, 1.863E-01, 1.336E-02, 4.087E-01
 5.800E+02, 1.049E+02, 1.209E+02, 1.095E+02, 1.612E+02, 4.399E+01, 1.484E+02, 1.705E+02, 4.371E+01, 6.689E+01, 1.862E-01, 1.345E-02, 2.273E+01
 5.900E+02, 1.135E+02, 1.191E+02, 1.117E+02, 1.834E+02, 4.540E+01, 1.150E+02, 1.983E+02, 4.391E+01, 1.449E+02, 1.855E-01, 1.381E-02, 1.219E+01
 6.000E+02, 1.143E+02, 1.217E+02, 1.142E+02, 1.836E+02, 4.508E+01, 1.194E+02, 2.009E+02, 4.482E+01,-4.776E+01, 1.850E-01, 1.412E-02, 1.577E+01
 6.100E+02, 1.105E+02, 1.264E+02, 1.123E+02, 1.749E+02, 4.416E+01, 1.276E+02, 2.065E+02, 4.511E+01,-3.934E+01, 1.846E-01, 1.435E-02, 3.047E+00
 6.200E+02, 1.097E+02, 1.443E+02, 1.100E+02, 1.735E+02, 4.554E+01, 1.340E+02, 2.541E+02, 4.470E+01, 5.189E+01, 1.842E-01, 1.453E-02, 1.332E+00
 6.300E+02, 1.141E+02, 1.247E+02, 1.133E+02, 1.835E+02, 4.566E+01, 1.194E+02, 2.095E+02, 4.513E+01, 1.404E+00, 1.837E-01, 1.485E-02, 1.406E-01
 6.400E+02, 1.138E+02, 1.195E+02, 1.143E+02, 1.811E+02, 4.592E+01, 1.131E+02, 1.991E+02, 4.617E+01,-4.372E+01, 1.835E-01, 1.492E-02, 5.386E-01
 6.500E+02, 1.172E+02, 1.305E+02, 1.157E+02, 1.887E+02, 4.716E+01, 1.144E+02, 2.313E+02, 4.594E+01, 3.257E+01, 1.837E-01, 1.482E-02, 2.501E+00
 6.600E+02, 1.194E+02, 1.309E+02, 1.164E+02, 1.941E+02, 4.774E+01, 1.200E+02, 2.264E+02, 4.633E+01, 6.864E+00, 1.830E-01, 1.520E-02, 1.695E-01
 6.700E+02, 1.199E+02, 1.372E+02, 1.186E+02, 1.934E+02, 4.772E+01, 1.350E+02, 2.277E+02, 4.889E+01,-1.357E+01, 1.824E-01, 1.557E-02, 7.577E-02
 6.800E+02, 1.187E+02, 1.342E+02, 1.168E+02, 1.901E+02, 4.922E+01, 1.237E+02, 2.303E+02, 4.863E+01, 3.104E+00, 1.824E-01, 1.556E-02, 6.139E-01
 6.900E+02, 1.189E+02, 1.383E+02, 1.152E+02, 1.920E+02, 4.938E+01, 1.349E+02, 2.314E+02, 4.867E+01,-4.849E+01, 1.820E-01, 1.578E-02, 1.951E+00
 7.000E+02, 1.171E+02, 1.217E+02, 1.150E+02, 1.860E+02, 5.031E+01, 1.116E+02, 2.039E+02, 4.972E+01,-3.872E+01, 1.816E-01, 1.600E-02, 3.098E+00
 7.100E+02, 1.149E+02, 1.239E+02, 1.118E+02, 1.835E+02, 4.957E+01, 1.153E+02, 2.071E+02, 4.918E+01,-2.592E+01, 1.814E-01, 1.614E-02, 5.302E-01
 7.200E+02, 1.147E+02, 1.206E+02, 1.110E+02, 1.840E+02, 4.923E+01, 1.124E+02, 2.005E+02, 4.886E+01,-4.360E+01, 1.809E-01, 1.641E-02, 2.429E+00
 7.300E+02, 1.143E+02, 1.258E+02, 1.121E+02, 1.808E+02, 4.997E+01, 1.201E+02, 2.069E+02, 5.050E+01,-9.110E+00, 1.805E-01, 1.661E-02, 1.439E+00
 7.400E+02, 1.173E+02, 1.326E+02, 1.108E+02, 1.886E+02, 5.234E+01, 1.112E+02, 2.362E+02, 5.026E+01, 2.080E+01, 1.805E-01, 1.664E-02, 1.274E+00
 7.500E+02, 1.182E+02, 1.390E+02, 1.112E+02, 1.899E+02, 5.338E+01, 1.221E+02, 2.427E+02, 5.204E+01,-2.887E+01, 1.800E-01, 1.689E-02, 2.023E+00
 7.600E+02, 1.167E+02, 1.235E+02, 1.102E+02, 1.864E+02, 5.355E+01, 1.126E+02, 2.051E+02, 5.265E+01,-3.455E+01, 1.799E-01, 1.697E-02, 3.264E+00
 7.700E+02, 1.160E+02, 1.210E+02, 1.093E+02, 1.846E+02, 5.418E+01, 1.041E+02, 2.060E+02, 5.292E+01,-3.149E+01, 1.794E-01, 1.724E-02, 3.551E+00
 7.800E+02, 1.171E+02, 1.265E+02, 1.081E+02, 1.882E+02, 5.502E+01, 1.057E+02, 2.199E+02, 5.406E+01, 2.113E+01, 1.790E-01, 1.743E-02, 5.775E-01
 7.900E+02, 1.173E+02, 1.309E+02, 1.067E+02, 1.892E+02, 5.610E+01, 1.139E+02, 2.243E+02, 5.435E+01,-3.912E+01, 1.785E-01, 1.775E-02, 4.551E-01
 8.000E+02, 1.170E+02, 1.277E+02, 1.081E+02, 1.870E+02, 5.605E+01, 1.056E+02, 2.218E+02, 5.563E+01,-2.618E+01, 1.781E-01, 1.797E-02, 2.585E-01
 8.100E+02, 1.173E+02, 1.236E+02, 1.081E+02, 1.870E+02, 5.681E+01, 1.012E+02, 2.137E+02, 5.602E+01,-1.395E+01, 1.779E-01, 1.809E-02, 4.017E+00
 8.200E+02, 1.161E+02, 1.206E+02, 1.063E+02, 1.853E+02, 5.677E+01, 1.025E+02, 2.019E+02, 5.735E+01,-2.717E+01, 1.779E-01, 1.806E-02, 5.797E+00
 8.300E+02, 1.131E+02, 1.190E+02, 1.040E+02, 1.769E+02, 5.826E+01, 9.960E+01, 1.993E+02, 5.812E+01,-3.598E+01, 1.775E-01, 1.832E-02, 3.955E+00
 8.400E+02, 1.113E+02, 1.142E+02, 1.019E+02, 1.736E+02, 5.841E+01, 9.477E+01, 1.903E+02, 5.754E+01,-2.998E+01, 1.771E-01, 1.849E-02, 5.675E-01
 8.500E+02, 1.132E+02, 1.163E+02, 1.020E+02, 1.789E+02, 5.856E+01, 9.827E+01, 1.920E+02, 5.867E+01,-1.884E+01, 1.762E-01, 1.903E-02, 2.253E+00
 8.600E+02, 1.107E+02, 1.158E+02, 1.003E+02, 1.727E+02, 5.899E+01, 9.786E+01, 1.901E+02, 5.950E+01,-2.977E+01, 1.754E-01, 1.949E-02, 3.456E+00
 8.700E+02, 1.084E+02, 1.161E+02, 9.789E+01, 1.690E+02, 5.831E+01, 9.761E+01, 1.927E+02, 5.799E+01,-3.123E+01, 1.753E-01, 1.954E-02, 8.360E-01
 8.800E+02, 1.074E+02, 1.112E+02, 9.670E+01, 1.668E+02, 5.878E+01, 9.466E+01, 1.809E+02, 5.797E+01,-2.644E+01, 1.753E-01, 1.954E-02, 2.185E+00
 8.900E+02, 1.065E+02, 1.129E+02, 9.526E+01, 1.665E+02, 5.768E+01, 9.443E+01, 1.861E+02, 5.826E+01,-2.431E+01, 1.748E-01, 1.980E-02, 1.179E+00
 9.000E+02, 1.066E+02, 1.118E+02, 9.423E+01, 1.676E+02, 5.792E+01, 9.410E+01, 1.841E+02, 5.721E+01,-2.000E+01, 1.747E-01, 1.984E-02, 2.001E+00
 9.100E+02, 1.058E+02, 1.130E+02, 9.240E+01, 1.668E+02, 5.824E+01, 9.262E+01, 1.889E+02, 5.748E+01,-2.804E+01, 1.745E-01, 2.000E-02, 5.977E-01
 9.200E+02, 1.046E+02, 1.094E+02, 9.132E+01, 1.650E+02, 5.749E+01, 8.888E+01, 1.818E+02, 5.750E+01,-2.558E+01, 1.741E-01, 2.019E-02, 1.176E-01
 9.300E+02, 1.038E+02, 1.151E+02, 8.994E+01, 1.638E+02, 5.758E+01, 8.835E+01, 1.996E+02, 5.730E+01,-1.873E+01, 1.732E-01, 2.070E-02, 2.743E+00
 9.400E+02, 1.027E+02, 1.105E+02, 8.888E+01, 1.616E+02, 5.767E+01, 8.684E+01, 1.879E+02, 5.690E+01,-2.576E+01, 1.730E-01, 2.081E-02, 1.384E+00
 9.500E+02, 1.021E+02, 1.081E+02, 8.715E+01, 1.620E+02, 5.706E+01, 8.597E+01, 1.808E+02, 5.762E+01,-1.977E+01, 1.725E-01, 2.106E-02, 1.097E+00
 9.600E+02, 1.020E+02, 1.094E+02, 8.660E+01, 1.614E+02, 5.804E+01, 8.604E+01, 1.866E+02, 5.560E+01,-1.896E+01, 1.721E-01, 2.133E-02, 1.396E+00
 9.700E+02, 1.018E+02, 1.077E+02, 8.540E+01, 1.613E+02, 5.877E+01, 8.721E+01, 1.788E+02, 5.726E+01,-1.688E+01, 1.711E-01, 2.187E-02, 2.129E+00
 9.800E+02, 1.016E+02, 1.083E+02, 8.486E+01, 1.615E+02, 5.850E+01, 8.556E+01, 1.821E+02, 5.734E+01,-1.941E+01, 1.710E-01, 2.194E-02, 2.718E+00
 9.900E+02, 1.008E+02, 1.091E+02, 8.440E+01, 1.596E+02, 5.838E+01, 8.358E+01, 1.856E+02, 5.796E+01,-1.640E+01, 1.705E-01, 2.220E-02, 2.078E-01
 1.000E+03, 1.005E+02, 1.072E+02, 8.413E+01, 1.580E+02, 5.940E+01, 8.270E+01, 1.797E+02, 5.925E+01,-1.771E+01, 1.699E-01, 2.253E-02, 7.884E-01
