s,C,C,C,C,C,C,C,C,Pa,mol/mol,mol/mol,kW
Time,"West_All_TCs","East_All_TCs","West_Bottom_TCs","West_Middle_TCs","West_Upper_TCs","East_Bottom_TCs","East_Middle_TCs","East_Upper_TCs","Pressure","O2","CO2","HRR"
-6.000E+01, 2.800E+01, 2.800E+01, 2.800E+01, 2.800E+01, 2.800E+01, 2.800E+01, 2.800E+01, 2.800E+01,-9.522E-06, 2.095E-01, 3.901E-04, 0.000E+00
-4.998E+01, 2.797E+01, 2.797E+01, 2.797E+01, 2.796E+01, 2.797E+01, 2.797E+01, 2.796E+01, 2.797E+01,-6.292E+01, 2.095E-01, 3.901E-04, 0.000E+00
-3.996E+01, 2.795E+01, 2.797E+01, 2.795E+01, 2.795E+01, 2.794E+01, 2.798E+01, 2.796E+01, 2.796E+01,-6.315E+01, 2.095E-01, 3.901E-04, 0.000E+00
-2.999E+01, 2.795E+01, 2.797E+01, 2.795E+01, 2.794E+01, 2.794E+01, 2.800E+01, 2.796E+01, 2.795E+01,-6.323E+01, 2.095E-01, 3.901E-04, 0.000E+00
-1.994E+01, 2.794E+01, 2.797E+01, 2.795E+01, 2.794E+01, 2.794E+01, 2.800E+01, 2.796E+01, 2.795E+01,-6.324E+01, 2.095E-01, 3.901E-04, 0.000E+00
-9.909E+00, 2.794E+01, 2.797E+01, 2.795E+01, 2.794E+01, 2.794E+01, 2.800E+01, 2.796E+01, 2.795E+01,-6.325E+01, 2.095E-01, 3.901E-04, 0.000E+00
 3.371E-02, 2.794E+01, 2.797E+01, 2.795E+01, 2.794E+01, 2.794E+01, 2.800E+01, 2.796E+01, 2.795E+01,-6.326E+01, 2.095E-01, 3.901E-04, 3.922E-04
 1.001E+01, 2.896E+01, 2.938E+01, 2.844E+01, 3.048E+01, 2.797E+01, 2.886E+01, 3.129E+01, 2.798E+01,-2.692E+01, 2.095E-01, 3.901E-04, 3.268E+01
 2.001E+01, 3.344E+01, 3.423E+01, 3.059E+01, 4.142E+01, 2.832E+01, 3.121E+01, 4.352E+01, 2.796E+01, 5.558E+00, 2.095E-01, 3.901E-04, 9.924E+01
 3.002E+01, 4.237E+01, 4.326E+01, 3.398E+01, 6.422E+01, 2.891E+01, 3.537E+01, 6.649E+01, 2.791E+01, 4.253E+01, 2.095E-01, 3.901E-04, 1.659E+02
 4.001E+01, 5.354E+01, 5.451E+01, 3.994E+01, 9.056E+01, 3.013E+01, 4.148E+01, 9.350E+01, 2.856E+01, 5.451E+01, 2.094E-01, 4.645E-04, 2.002E+02
 5.001E+01, 6.548E+01, 6.624E+01, 4.927E+01, 1.144E+02, 3.273E+01, 5.032E+01, 1.165E+02, 3.194E+01, 2.887E+01, 2.089E-01, 7.774E-04, 1.999E+02
 6.002E+01, 7.538E+01, 7.615E+01, 6.133E+01, 1.310E+02, 3.384E+01, 6.185E+01, 1.319E+02, 3.473E+01, 1.392E+01, 2.084E-01, 1.037E-03, 2.002E+02
 7.001E+01, 8.380E+01, 8.382E+01, 7.246E+01, 1.422E+02, 3.673E+01, 7.392E+01, 1.407E+02, 3.689E+01, 8.157E+00, 2.080E-01, 1.258E-03, 1.997E+02
 8.002E+01, 9.142E+01, 9.145E+01, 8.332E+01, 1.521E+02, 3.880E+01, 8.607E+01, 1.499E+02, 3.837E+01,-1.658E+00, 2.076E-01, 1.469E-03, 2.001E+02
 9.001E+01, 9.709E+01, 9.782E+01, 9.127E+01, 1.597E+02, 4.027E+01, 9.437E+01, 1.579E+02, 4.122E+01,-6.910E+00, 2.070E-01, 1.792E-03, 2.002E+02
 1.000E+02, 1.020E+02, 1.034E+02, 1.005E+02, 1.632E+02, 4.222E+01, 1.001E+02, 1.670E+02, 4.315E+01,-1.011E+01, 2.066E-01, 2.030E-03, 2.006E+02
 1.100E+02, 1.051E+02, 1.091E+02, 1.065E+02, 1.653E+02, 4.347E+01, 1.083E+02, 1.743E+02, 4.455E+01,-1.689E+01, 2.063E-01, 2.222E-03, 1.998E+02
 1.200E+02, 1.096E+02, 1.112E+02, 1.120E+02, 1.722E+02, 4.472E+01, 1.125E+02, 1.742E+02, 4.692E+01,-2.536E+01, 2.054E-01, 2.685E-03, 1.998E+02
 1.300E+02, 1.115E+02, 1.141E+02, 1.148E+02, 1.736E+02, 4.605E+01, 1.158E+02, 1.788E+02, 4.761E+01,-3.167E+01, 2.051E-01, 2.880E-03, 2.001E+02
 1.400E+02, 1.129E+02, 1.163E+02, 1.151E+02, 1.757E+02, 4.784E+01, 1.200E+02, 1.803E+02, 4.872E+01,-3.645E+01, 2.047E-01, 3.124E-03, 2.002E+02
 1.500E+02, 1.159E+02, 1.181E+02, 1.204E+02, 1.785E+02, 4.869E+01, 1.201E+02, 1.851E+02, 4.907E+01,-3.826E+01, 2.042E-01, 3.368E-03, 2.004E+02
 1.600E+02, 1.168E+02, 1.193E+02, 1.217E+02, 1.780E+02, 5.051E+01, 1.239E+02, 1.847E+02, 4.933E+01,-3.786E+01, 2.037E-01, 3.678E-03, 2.000E+02
 1.700E+02, 1.181E+02, 1.203E+02, 1.242E+02, 1.794E+02, 5.081E+01, 1.244E+02, 1.859E+02, 5.071E+01,-3.934E+01, 2.029E-01, 4.102E-03, 1.998E+02
 1.800E+02, 1.198E+02, 1.226E+02, 1.259E+02, 1.813E+02, 5.226E+01, 1.278E+02, 1.883E+02, 5.187E+01,-3.980E+01, 2.022E-01, 4.483E-03, 2.003E+02
 1.900E+02, 1.208E+02, 1.237E+02, 1.260E+02, 1.836E+02, 5.269E+01, 1.294E+02, 1.885E+02, 5.321E+01,-4.521E+01, 2.014E-01, 4.927E-03, 2.002E+02
 2.000E+02, 1.210E+02, 1.238E+02, 1.274E+02, 1.832E+02, 5.245E+01, 1.296E+02, 1.876E+02, 5.415E+01,-5.050E+01, 2.007E-01, 5.337E-03, 2.001E+02
 2.100E+02, 1.206E+02, 1.236E+02, 1.265E+02, 1.822E+02, 5.310E+01, 1.293E+02, 1.876E+02, 5.385E+01,-5.192E+01, 2.005E-01, 5.426E-03, 2.002E+02
 2.200E+02, 1.208E+02, 1.236E+02, 1.267E+02, 1.823E+02, 5.328E+01, 1.294E+02, 1.873E+02, 5.408E+01,-5.104E+01, 1.996E-01, 5.958E-03, 2.004E+02
 2.300E+02, 1.220E+02, 1.249E+02, 1.282E+02, 1.833E+02, 5.453E+01, 1.307E+02, 1.893E+02, 5.456E+01,-5.152E+01, 1.986E-01, 6.488E-03, 1.996E+02
 2.400E+02, 1.228E+02, 1.263E+02, 1.288E+02, 1.846E+02, 5.493E+01, 1.304E+02, 1.935E+02, 5.492E+01,-4.782E+01, 1.979E-01, 6.880E-03, 2.004E+02
 2.500E+02, 1.237E+02, 1.271E+02, 1.295E+02, 1.867E+02, 5.499E+01, 1.341E+02, 1.915E+02, 5.562E+01,-5.068E+01, 1.970E-01, 7.414E-03, 1.997E+02
 2.600E+02, 1.249E+02, 1.269E+02, 1.319E+02, 1.879E+02, 5.482E+01, 1.331E+02, 1.925E+02, 5.513E+01,-5.075E+01, 1.962E-01, 7.835E-03, 2.002E+02
 2.700E+02, 1.248E+02, 1.280E+02, 1.314E+02, 1.876E+02, 5.540E+01, 1.359E+02, 1.913E+02, 5.667E+01,-5.184E+01, 1.957E-01, 8.135E-03, 2.000E+02
 2.800E+02, 1.244E+02, 1.282E+02, 1.325E+02, 1.850E+02, 5.565E+01, 1.363E+02, 1.926E+02, 5.582E+01,-4.621E+01, 1.953E-01, 8.376E-03, 2.001E+02
 2.900E+02, 1.248E+02, 1.284E+02, 1.317E+02, 1.855E+02, 5.720E+01, 1.360E+02, 1.922E+02, 5.707E+01,-4.550E+01, 1.940E-01, 9.078E-03, 2.000E+02
 3.000E+02, 1.256E+02, 1.295E+02, 1.325E+02, 1.868E+02, 5.761E+01, 1.373E+02, 1.932E+02, 5.813E+01,-5.203E+01, 1.930E-01, 9.642E-03, 2.001E+02
 3.100E+02, 1.264E+02, 1.307E+02, 1.326E+02, 1.883E+02, 5.817E+01, 1.391E+02, 1.954E+02, 5.757E+01,-5.197E+01, 1.921E-01, 1.014E-02, 1.999E+02
 3.200E+02, 1.281E+02, 1.306E+02, 1.350E+02, 1.899E+02, 5.930E+01, 1.390E+02, 1.951E+02, 5.778E+01,-5.061E+01, 1.910E-01, 1.076E-02, 2.001E+02
 3.300E+02, 1.273E+02, 1.303E+02, 1.344E+02, 1.879E+02, 5.947E+01, 1.375E+02, 1.948E+02, 5.853E+01,-5.123E+01, 1.901E-01, 1.126E-02, 2.001E+02
 3.400E+02, 1.291E+02, 1.317E+02, 1.359E+02, 1.926E+02, 5.883E+01, 1.375E+02, 1.986E+02, 5.915E+01,-5.170E+01, 1.895E-01, 1.161E-02, 2.001E+02
 3.500E+02, 1.294E+02, 1.317E+02, 1.379E+02, 1.920E+02, 5.842E+01, 1.383E+02, 1.984E+02, 5.862E+01,-4.891E+01, 1.889E-01, 1.193E-02, 1.996E+02
 3.600E+02, 1.295E+02, 1.330E+02, 1.362E+02, 1.932E+02, 5.901E+01, 1.384E+02, 2.016E+02, 5.899E+01,-4.816E+01, 1.879E-01, 1.250E-02, 2.002E+02
 3.700E+02, 1.293E+02, 1.336E+02, 1.370E+02, 1.920E+02, 5.889E+01, 1.414E+02, 1.988E+02, 6.047E+01,-5.402E+01, 1.863E-01, 1.339E-02, 2.003E+02
 3.800E+02, 1.289E+02, 1.334E+02, 1.371E+02, 1.909E+02, 5.866E+01, 1.437E+02, 1.974E+02, 5.913E+01,-5.750E+01, 1.860E-01, 1.356E-02, 1.996E+02
 3.900E+02, 1.296E+02, 1.342E+02, 1.371E+02, 1.928E+02, 5.877E+01, 1.432E+02, 2.009E+02, 5.839E+01,-5.432E+01, 1.851E-01, 1.406E-02, 2.003E+02
 4.000E+02, 1.302E+02, 1.338E+02, 1.387E+02, 1.931E+02, 5.889E+01, 1.416E+02, 2.016E+02, 5.830E+01,-4.865E+01, 1.841E-01, 1.458E-02, 2.000E+02
 4.100E+02, 1.310E+02, 1.344E+02, 1.377E+02, 1.960E+02, 5.923E+01, 1.419E+02, 2.026E+02, 5.860E+01,-4.720E+01, 1.833E-01, 1.507E-02, 1.997E+02
 4.200E+02, 1.325E+02, 1.367E+02, 1.392E+02, 1.985E+02, 5.974E+01, 1.416E+02, 2.089E+02, 5.960E+01,-5.182E+01, 1.821E-01, 1.575E-02, 2.006E+02
 4.300E+02, 1.317E+02, 1.363E+02, 1.398E+02, 1.960E+02, 5.947E+01, 1.409E+02, 2.076E+02, 6.043E+01,-4.997E+01, 1.812E-01, 1.622E-02, 1.999E+02
 4.400E+02, 1.321E+02, 1.352E+02, 1.404E+02, 1.964E+02, 5.957E+01, 1.422E+02, 2.053E+02, 5.811E+01,-5.293E+01, 1.809E-01, 1.641E-02, 1.999E+02
 4.500E+02, 1.317E+02, 1.355E+02, 1.398E+02, 1.958E+02, 5.959E+01, 1.422E+02, 2.051E+02, 5.926E+01,-5.586E+01, 1.798E-01, 1.701E-02, 2.003E+02
 4.600E+02, 1.308E+02, 1.347E+02, 1.393E+02, 1.944E+02, 5.877E+01, 1.428E+02, 2.022E+02, 5.897E+01,-5.592E+01, 1.793E-01, 1.729E-02, 1.996E+02
 4.700E+02, 1.325E+02, 1.349E+02, 1.412E+02, 1.963E+02, 5.995E+01, 1.432E+02, 2.032E+02, 5.818E+01,-4.470E+01, 1.789E-01, 1.752E-02, 2.004E+02
 4.800E+02, 1.335E+02, 1.363E+02, 1.426E+02, 1.979E+02, 6.005E+01, 1.436E+02, 2.050E+02, 6.014E+01,-4.857E+01, 1.776E-01, 1.822E-02, 1.996E+02
 4.900E+02, 1.340E+02, 1.378E+02, 1.423E+02, 2.001E+02, 5.963E+01, 1.453E+02, 2.080E+02, 6.016E+01,-5.131E+01, 1.769E-01, 1.865E-02, 2.001E+02
 5.000E+02, 1.343E+02, 1.380E+02, 1.423E+02, 2.004E+02, 6.014E+01, 1.450E+02, 2.089E+02, 6.000E+01,-5.017E+01, 1.758E-01, 1.922E-02, 2.004E+02
 5.100E+02, 1.349E+02, 1.378E+02, 1.423E+02, 2.017E+02, 6.065E+01, 1.461E+02, 2.060E+02, 6.123E+01,-5.228E+01, 1.749E-01, 1.974E-02, 2.000E+02
 5.200E+02, 1.345E+02, 1.380E+02, 1.421E+02, 2.012E+02, 6.030E+01, 1.456E+02, 2.074E+02, 6.092E+01,-5.214E+01, 1.744E-01, 2.002E-02, 2.003E+02
 5.300E+02, 1.354E+02, 1.386E+02, 1.431E+02, 2.016E+02, 6.152E+01, 1.449E+02, 2.103E+02, 6.051E+01,-4.858E+01, 1.737E-01, 2.042E-02, 2.004E+02
 5.400E+02, 1.356E+02, 1.376E+02, 1.429E+02, 2.029E+02, 6.092E+01, 1.461E+02, 2.048E+02, 6.182E+01,-4.785E+01, 1.729E-01, 2.088E-02, 2.003E+02
 5.500E+02, 1.359E+02, 1.404E+02, 1.430E+02, 2.021E+02, 6.238E+01, 1.462E+02, 2.132E+02, 6.192E+01,-4.993E+01, 1.723E-01, 2.122E-02, 2.000E+02
 5.600E+02, 1.375E+02, 1.423E+02, 1.451E+02, 2.048E+02, 6.254E+01, 1.472E+02, 2.165E+02, 6.319E+01,-4.556E+01, 1.712E-01, 2.180E-02, 2.001E+02
 5.700E+02, 1.374E+02, 1.412E+02, 1.455E+02, 2.045E+02, 6.217E+01, 1.483E+02, 2.119E+02, 6.340E+01,-5.194E+01, 1.704E-01, 2.224E-02, 2.004E+02
 5.800E+02, 1.362E+02, 1.402E+02, 1.449E+02, 2.016E+02, 6.202E+01, 1.478E+02, 2.100E+02, 6.283E+01,-5.103E+01, 1.697E-01, 2.264E-02, 1.998E+02
 5.900E+02, 1.369E+02, 1.403E+02, 1.449E+02, 2.029E+02, 6.296E+01, 1.479E+02, 2.111E+02, 6.189E+01,-5.266E+01, 1.695E-01, 2.275E-02, 2.004E+02
 6.000E+02, 1.368E+02, 1.422E+02, 1.455E+02, 2.025E+02, 6.243E+01, 1.470E+02, 2.170E+02, 6.269E+01,-4.941E+01, 1.684E-01, 2.339E-02, 2.000E+02
 6.100E+02, 1.371E+02, 1.409E+02, 1.476E+02, 2.009E+02, 6.287E+01, 1.470E+02, 2.119E+02, 6.398E+01,-5.251E+01, 1.673E-01, 2.399E-02, 1.996E+02
 6.200E+02, 1.379E+02, 1.413E+02, 1.451E+02, 2.054E+02, 6.330E+01, 1.497E+02, 2.117E+02, 6.251E+01,-5.183E+01, 1.673E-01, 2.400E-02, 2.003E+02
 6.300E+02, 1.382E+02, 1.425E+02, 1.464E+02, 2.040E+02, 6.430E+01, 1.493E+02, 2.149E+02, 6.337E+01,-4.638E+01, 1.660E-01, 2.470E-02, 1.995E+02
 6.400E+02, 1.396E+02, 1.414E+02, 1.469E+02, 2.068E+02, 6.513E+01, 1.494E+02, 2.118E+02, 6.312E+01,-5.167E+01, 1.656E-01, 2.493E-02, 2.001E+02
 6.500E+02, 1.394E+02, 1.409E+02, 1.469E+02, 2.066E+02, 6.454E+01, 1.463E+02, 2.114E+02, 6.501E+01,-5.437E+01, 1.644E-01, 2.563E-02, 1.999E+02
 6.600E+02, 1.406E+02, 1.412E+02, 1.474E+02, 2.097E+02, 6.465E+01, 1.478E+02, 2.110E+02, 6.479E+01,-4.997E+01, 1.638E-01, 2.596E-02, 1.997E+02
 6.700E+02, 1.416E+02, 1.434E+02, 1.481E+02, 2.123E+02, 6.456E+01, 1.487E+02, 2.170E+02, 6.444E+01,-5.119E+01, 1.632E-01, 2.628E-02, 1.999E+02
 6.800E+02, 1.397E+02, 1.442E+02, 1.485E+02, 2.051E+02, 6.541E+01, 1.524E+02, 2.158E+02, 6.438E+01,-4.970E+01, 1.626E-01, 2.661E-02, 2.005E+02
 6.900E+02, 1.398E+02, 1.444E+02, 1.476E+02, 2.068E+02, 6.503E+01, 1.529E+02, 2.159E+02, 6.444E+01,-4.991E+01, 1.624E-01, 2.675E-02, 1.996E+02
 7.000E+02, 1.400E+02, 1.445E+02, 1.487E+02, 2.065E+02, 6.472E+01, 1.544E+02, 2.128E+02, 6.617E+01,-4.882E+01, 1.610E-01, 2.751E-02, 1.999E+02
 7.100E+02, 1.404E+02, 1.420E+02, 1.488E+02, 2.072E+02, 6.518E+01, 1.511E+02, 2.093E+02, 6.555E+01,-5.648E+01, 1.605E-01, 2.777E-02, 1.999E+02
 7.200E+02, 1.417E+02, 1.440E+02, 1.500E+02, 2.096E+02, 6.551E+01, 1.566E+02, 2.110E+02, 6.434E+01,-5.006E+01, 1.600E-01, 2.806E-02, 2.003E+02
 7.300E+02, 1.414E+02, 1.448E+02, 1.508E+02, 2.081E+02, 6.523E+01, 1.511E+02, 2.172E+02, 6.613E+01,-5.331E+01, 1.590E-01, 2.861E-02, 2.000E+02
 7.400E+02, 1.418E+02, 1.453E+02, 1.512E+02, 2.101E+02, 6.404E+01, 1.543E+02, 2.164E+02, 6.504E+01,-4.935E+01, 1.590E-01, 2.862E-02, 2.001E+02
 7.500E+02, 1.428E+02, 1.454E+02, 1.511E+02, 2.113E+02, 6.603E+01, 1.529E+02, 2.186E+02, 6.456E+01,-4.964E+01, 1.585E-01, 2.890E-02, 1.999E+02
 7.600E+02, 1.411E+02, 1.472E+02, 1.508E+02, 2.061E+02, 6.644E+01, 1.557E+02, 2.192E+02, 6.684E+01,-4.955E+01, 1.575E-01, 2.945E-02, 1.999E+02
 7.700E+02, 1.412E+02, 1.469E+02, 1.507E+02, 2.062E+02, 6.666E+01, 1.524E+02, 2.215E+02, 6.685E+01,-5.010E+01, 1.571E-01, 2.967E-02, 1.988E+02
 7.800E+02, 1.422E+02, 1.472E+02, 1.502E+02, 2.089E+02, 6.761E+01, 1.566E+02, 2.183E+02, 6.660E+01,-4.706E+01, 1.565E-01, 3.004E-02, 1.997E+02
 7.900E+02, 1.426E+02, 1.464E+02, 1.518E+02, 2.086E+02, 6.724E+01, 1.552E+02, 2.172E+02, 6.690E+01,-5.169E+01, 1.560E-01, 3.032E-02, 2.001E+02
 8.000E+02, 1.445E+02, 1.461E+02, 1.526E+02, 2.118E+02, 6.909E+01, 1.564E+02, 2.160E+02, 6.607E+01,-5.199E+01, 1.555E-01, 3.058E-02, 2.001E+02
 8.100E+02, 1.450E+02, 1.468E+02, 1.538E+02, 2.125E+02, 6.874E+01, 1.548E+02, 2.174E+02, 6.822E+01,-4.980E+01, 1.545E-01, 3.115E-02, 2.002E+02
 8.200E+02, 1.461E+02, 1.495E+02, 1.529E+02, 2.151E+02, 7.038E+01, 1.572E+02, 2.235E+02, 6.774E+01,-4.873E+01, 1.541E-01, 3.135E-02, 1.999E+02
 8.300E+02, 1.444E+02, 1.497E+02, 1.522E+02, 2.118E+02, 6.907E+01, 1.583E+02, 2.220E+02, 6.888E+01,-5.067E+01, 1.537E-01, 3.158E-02, 2.000E+02
 8.400E+02, 1.446E+02, 1.496E+02, 1.520E+02, 2.134E+02, 6.850E+01, 1.573E+02, 2.232E+02, 6.814E+01,-5.364E+01, 1.531E-01, 3.195E-02, 1.990E+02
 8.500E+02, 1.435E+02, 1.504E+02, 1.528E+02, 2.093E+02, 6.834E+01, 1.580E+02, 2.250E+02, 6.821E+01,-5.198E+01, 1.527E-01, 3.216E-02, 1.997E+02
 8.600E+02, 1.446E+02, 1.487E+02, 1.532E+02, 2.119E+02, 6.878E+01, 1.593E+02, 2.185E+02, 6.838E+01,-5.605E+01, 1.520E-01, 3.256E-02, 1.992E+02
 8.700E+02, 1.445E+02, 1.478E+02, 1.523E+02, 2.123E+02, 6.897E+01, 1.553E+02, 2.203E+02, 6.773E+01,-5.626E+01, 1.519E-01, 3.262E-02, 2.003E+02
 8.800E+02, 1.461E+02, 1.474E+02, 1.556E+02, 2.129E+02, 6.968E+01, 1.564E+02, 2.190E+02, 6.691E+01,-5.012E+01, 1.516E-01, 3.277E-02, 2.003E+02
 8.900E+02, 1.473E+02, 1.495E+02, 1.557E+02, 2.168E+02, 6.947E+01, 1.579E+02, 2.211E+02, 6.942E+01,-5.168E+01, 1.510E-01, 3.309E-02, 1.998E+02
 9.000E+02, 1.464E+02, 1.496E+02, 1.547E+02, 2.146E+02, 6.974E+01, 1.577E+02, 2.222E+02, 6.903E+01,-4.860E+01, 1.508E-01, 3.322E-02, 1.986E+02
 9.100E+02, 1.463E+02, 1.509E+02, 1.546E+02, 2.135E+02, 7.093E+01, 1.592E+02, 2.235E+02, 6.989E+01,-4.894E+01, 1.502E-01, 3.355E-02, 1.991E+02
 9.200E+02, 1.459E+02, 1.511E+02, 1.545E+02, 2.115E+02, 7.172E+01, 1.605E+02, 2.240E+02, 6.877E+01,-4.661E+01, 1.501E-01, 3.363E-02, 1.995E+02
 9.300E+02, 1.469E+02, 1.498E+02, 1.560E+02, 2.132E+02, 7.135E+01, 1.585E+02, 2.208E+02, 7.015E+01,-5.023E+01, 1.491E-01, 3.419E-02, 1.992E+02
 9.400E+02, 1.473E+02, 1.502E+02, 1.560E+02, 2.137E+02, 7.213E+01, 1.586E+02, 2.206E+02, 7.135E+01,-4.719E+01, 1.490E-01, 3.424E-02, 2.000E+02
 9.500E+02, 1.488E+02, 1.497E+02, 1.563E+02, 2.178E+02, 7.245E+01, 1.596E+02, 2.183E+02, 7.127E+01,-5.549E+01, 1.486E-01, 3.442E-02, 1.999E+02
 9.600E+02, 1.492E+02, 1.528E+02, 1.589E+02, 2.171E+02, 7.150E+01, 1.618E+02, 2.263E+02, 7.039E+01,-4.851E+01, 1.483E-01, 3.463E-02, 1.996E+02
 9.700E+02, 1.494E+02, 1.534E+02, 1.579E+02, 2.177E+02, 7.256E+01, 1.594E+02, 2.290E+02, 7.169E+01,-5.084E+01, 1.477E-01, 3.496E-02, 2.001E+02
 9.800E+02, 1.473E+02, 1.513E+02, 1.549E+02, 2.142E+02, 7.281E+01, 1.613E+02, 2.208E+02, 7.188E+01,-6.096E+01, 1.475E-01, 3.508E-02, 1.917E+02
 9.900E+02, 1.488E+02, 1.519E+02, 1.564E+02, 2.168E+02, 7.321E+01, 1.606E+02, 2.226E+02, 7.241E+01,-4.789E+01, 1.472E-01, 3.525E-02, 2.047E+02
 1.000E+03, 1.483E+02, 1.531E+02, 1.553E+02, 2.161E+02, 7.348E+01, 1.607E+02, 2.263E+02, 7.243E+01,-5.389E+01, 1.468E-01, 3.542E-02, 1.989E+02
 1.010E+03, 1.499E+02, 1.528E+02, 1.565E+02, 2.188E+02, 7.456E+01, 1.639E+02, 2.220E+02, 7.260E+01,-5.213E+01, 1.462E-01, 3.581E-02, 2.004E+02
 1.020E+03, 1.502E+02, 1.530E+02, 1.578E+02, 2.175E+02, 7.508E+01, 1.658E+02, 2.197E+02, 7.345E+01,-5.383E+01, 1.459E-01, 3.596E-02, 2.000E+02
 1.030E+03, 1.507E+02, 1.536E+02, 1.598E+02, 2.181E+02, 7.417E+01, 1.640E+02, 2.243E+02, 7.248E+01,-5.006E+01, 1.455E-01, 3.617E-02, 2.001E+02
 1.040E+03, 1.506E+02, 1.554E+02, 1.587E+02, 2.193E+02, 7.393E+01, 1.611E+02, 2.319E+02, 7.313E+01,-5.126E+01, 1.452E-01, 3.634E-02, 1.998E+02
 1.050E+03, 1.530E+02, 1.548E+02, 1.590E+02, 2.253E+02, 7.462E+01, 1.627E+02, 2.279E+02, 7.366E+01,-5.441E+01, 1.448E-01, 3.655E-02, 1.992E+02
 1.060E+03, 1.504E+02, 1.543E+02, 1.574E+02, 2.196E+02, 7.421E+01, 1.634E+02, 2.257E+02, 7.380E+01,-5.268E+01, 1.446E-01, 3.670E-02, 2.000E+02
 1.070E+03, 1.502E+02, 1.547E+02, 1.584E+02, 2.176E+02, 7.474E+01, 1.600E+02, 2.305E+02, 7.354E+01,-4.766E+01, 1.445E-01, 3.673E-02, 1.995E+02
 1.080E+03, 1.518E+02, 1.542E+02, 1.593E+02, 2.202E+02, 7.595E+01, 1.612E+02, 2.280E+02, 7.346E+01,-5.097E+01, 1.443E-01, 3.686E-02, 1.997E+02
 1.090E+03, 1.533E+02, 1.537E+02, 1.604E+02, 2.229E+02, 7.670E+01, 1.609E+02, 2.275E+02, 7.287E+01,-5.157E+01, 1.441E-01, 3.693E-02, 2.001E+02
 1.100E+03, 1.537E+02, 1.554E+02, 1.616E+02, 2.227E+02, 7.695E+01, 1.634E+02, 2.279E+02, 7.483E+01,-5.260E+01, 1.438E-01, 3.715E-02, 1.998E+02
 1.110E+03, 1.534E+02, 1.558E+02, 1.614E+02, 2.229E+02, 7.586E+01, 1.643E+02, 2.281E+02, 7.509E+01,-5.540E+01, 1.435E-01, 3.728E-02, 1.991E+02
 1.120E+03, 1.527E+02, 1.552E+02, 1.610E+02, 2.215E+02, 7.572E+01, 1.613E+02, 2.307E+02, 7.359E+01,-4.801E+01, 1.434E-01, 3.733E-02, 2.002E+02
 1.130E+03, 1.525E+02, 1.575E+02, 1.604E+02, 2.198E+02, 7.725E+01, 1.658E+02, 2.322E+02, 7.456E+01,-4.621E+01, 1.432E-01, 3.747E-02, 1.990E+02
 1.140E+03, 1.520E+02, 1.584E+02, 1.616E+02, 2.173E+02, 7.714E+01, 1.665E+02, 2.327E+02, 7.611E+01,-4.994E+01, 1.428E-01, 3.766E-02, 1.992E+02
 1.150E+03, 1.535E+02, 1.568E+02, 1.611E+02, 2.216E+02, 7.773E+01, 1.644E+02, 2.314E+02, 7.474E+01,-5.278E+01, 1.429E-01, 3.765E-02, 1.987E+02
 1.160E+03, 1.539E+02, 1.540E+02, 1.598E+02, 2.244E+02, 7.757E+01, 1.617E+02, 2.254E+02, 7.481E+01,-5.649E+01, 1.426E-01, 3.777E-02, 2.003E+02
 1.170E+03, 1.542E+02, 1.557E+02, 1.619E+02, 2.219E+02, 7.869E+01, 1.628E+02, 2.285E+02, 7.562E+01,-4.999E+01, 1.423E-01, 3.795E-02, 2.003E+02
 1.180E+03, 1.541E+02, 1.568E+02, 1.625E+02, 2.225E+02, 7.717E+01, 1.616E+02, 2.332E+02, 7.571E+01,-4.776E+01, 1.420E-01, 3.813E-02, 1.997E+02
 1.190E+03, 1.546E+02, 1.588E+02, 1.630E+02, 2.224E+02, 7.857E+01, 1.639E+02, 2.356E+02, 7.677E+01,-5.141E+01, 1.418E-01, 3.825E-02, 2.006E+02
 1.200E+03, 1.564E+02, 1.582E+02, 1.624E+02, 2.284E+02, 7.846E+01, 1.668E+02, 2.310E+02, 7.679E+01,-5.198E+01, 1.416E-01, 3.834E-02, 1.997E+02
 1.210E+03, 1.547E+02, 1.596E+02, 1.611E+02, 2.245E+02, 7.853E+01, 1.692E+02, 2.327E+02, 7.692E+01,-5.558E+01, 1.416E-01, 3.834E-02, 1.997E+02
 1.220E+03, 1.551E+02, 1.578E+02, 1.632E+02, 2.235E+02, 7.859E+01, 1.656E+02, 2.303E+02, 7.732E+01,-4.784E+01, 1.413E-01, 3.854E-02, 1.995E+02
 1.230E+03, 1.556E+02, 1.596E+02, 1.616E+02, 2.257E+02, 7.954E+01, 1.684E+02, 2.335E+02, 7.696E+01,-4.870E+01, 1.411E-01, 3.861E-02, 2.001E+02
 1.240E+03, 1.559E+02, 1.601E+02, 1.630E+02, 2.239E+02, 8.068E+01, 1.661E+02, 2.363E+02, 7.788E+01,-4.997E+01, 1.411E-01, 3.862E-02, 1.996E+02
 1.250E+03, 1.563E+02, 1.591E+02, 1.633E+02, 2.256E+02, 8.009E+01, 1.674E+02, 2.314E+02, 7.860E+01,-5.005E+01, 1.410E-01, 3.868E-02, 2.003E+02
 1.260E+03, 1.560E+02, 1.606E+02, 1.631E+02, 2.252E+02, 7.956E+01, 1.679E+02, 2.348E+02, 7.928E+01,-5.792E+01, 1.408E-01, 3.878E-02, 1.995E+02
 1.270E+03, 1.567E+02, 1.607E+02, 1.640E+02, 2.268E+02, 7.938E+01, 1.690E+02, 2.366E+02, 7.664E+01,-5.594E+01, 1.409E-01, 3.875E-02, 2.005E+02
 1.280E+03, 1.560E+02, 1.590E+02, 1.638E+02, 2.246E+02, 7.963E+01, 1.650E+02, 2.356E+02, 7.637E+01,-5.210E+01, 1.410E-01, 3.868E-02, 2.000E+02
 1.290E+03, 1.557E+02, 1.597E+02, 1.642E+02, 2.239E+02, 7.904E+01, 1.681E+02, 2.321E+02, 7.893E+01,-5.231E+01, 1.405E-01, 3.899E-02, 2.003E+02
 1.300E+03, 1.569E+02, 1.603E+02, 1.632E+02, 2.279E+02, 7.951E+01, 1.679E+02, 2.344E+02, 7.872E+01,-5.001E+01, 1.406E-01, 3.891E-02, 1.998E+02
 1.310E+03, 1.572E+02, 1.601E+02, 1.647E+02, 2.274E+02, 7.955E+01, 1.665E+02, 2.358E+02, 7.805E+01,-5.210E+01, 1.407E-01, 3.887E-02, 1.999E+02
