s,C,C,C,C,C,C,C,C,Pa,mol/mol,mol/mol,kW
Time,"West_All_TCs","East_All_TCs","West_Bottom_TCs","West_Middle_TCs","West_Upper_TCs","East_Bottom_TCs","East_Middle_TCs","East_Upper_TCs","Pressure","O2","CO2","HRR"
-6.000E+01, 3.100E+01, 3.100E+01, 3.100E+01, 3.100E+01, 3.100E+01, 3.100E+01, 3.100E+01, 3.100E+01,-9.418E-06, 2.095E-01, 3.901E-04, 0.000E+00
-4.999E+01, 3.100E+01, 3.100E+01, 3.100E+01, 3.100E+01, 3.100E+01, 3.100E+01, 3.100E+01, 3.100E+01,-6.764E-04, 2.095E-01, 3.901E-04, 0.000E+00
-3.999E+01, 3.100E+01, 3.100E+01, 3.100E+01, 3.100E+01, 3.100E+01, 3.100E+01, 3.100E+01, 3.100E+01,-3.168E-05, 2.095E-01, 3.901E-04, 0.000E+00
-2.998E+01, 3.100E+01, 3.100E+01, 3.100E+01, 3.100E+01, 3.100E+01, 3.100E+01, 3.100E+01, 3.100E+01,-2.838E-05, 2.095E-01, 3.901E-04, 0.000E+00
-1.997E+01, 3.100E+01, 3.100E+01, 3.100E+01, 3.100E+01, 3.100E+01, 3.100E+01, 3.100E+01, 3.100E+01,-2.993E-05, 2.095E-01, 3.901E-04, 0.000E+00
-9.967E+00, 3.100E+01, 3.100E+01, 3.100E+01, 3.100E+01, 3.100E+01, 3.100E+01, 3.100E+01, 3.100E+01,-3.181E-05, 2.095E-01, 3.901E-04, 0.000E+00
 3.957E-02, 3.100E+01, 3.100E+01, 3.100E+01, 3.100E+01, 3.100E+01, 3.100E+01, 3.100E+01, 3.100E+01,-2.734E-05, 2.095E-01, 3.901E-04, 7.030E-04
 1.002E+01, 3.201E+01, 3.232E+01, 3.148E+01, 3.117E+01, 3.336E+01, 3.179E+01, 3.123E+01, 3.394E+01, 1.545E+01, 2.093E-01, 5.335E-04, 3.333E+01
 2.000E+01, 3.583E+01, 3.649E+01, 3.267E+01, 3.297E+01, 4.183E+01, 3.386E+01, 3.349E+01, 4.211E+01, 8.749E+01, 2.085E-01, 9.967E-04, 9.936E+01
 3.002E+01, 4.417E+01, 4.525E+01, 3.437E+01, 4.180E+01, 5.634E+01, 3.642E+01, 4.124E+01, 5.810E+01, 2.123E+02, 2.067E-01, 1.994E-03, 1.662E+02
 4.000E+01, 5.755E+01, 5.822E+01, 3.872E+01, 5.864E+01, 7.528E+01, 4.081E+01, 5.849E+01, 7.536E+01, 2.767E+02, 2.053E-01, 2.779E-03, 2.007E+02
 5.001E+01, 6.951E+01, 7.020E+01, 4.688E+01, 7.419E+01, 8.746E+01, 4.773E+01, 7.475E+01, 8.811E+01, 2.305E+02, 2.037E-01, 3.644E-03, 2.006E+02
 6.001E+01, 8.180E+01, 8.254E+01, 5.622E+01, 8.830E+01, 1.009E+02, 5.842E+01, 8.689E+01, 1.023E+02, 1.804E+02, 2.017E-01, 4.786E-03, 2.007E+02
 7.001E+01, 9.154E+01, 9.321E+01, 6.725E+01, 9.800E+01, 1.094E+02, 6.832E+01, 9.766E+01, 1.136E+02, 1.391E+02, 2.003E-01, 5.539E-03, 2.009E+02
 8.001E+01, 1.015E+02, 1.033E+02, 7.705E+01, 1.098E+02, 1.177E+02, 8.031E+01, 1.060E+02, 1.237E+02, 1.058E+02, 1.989E-01, 6.331E-03, 2.004E+02
 9.000E+01, 1.095E+02, 1.120E+02, 8.709E+01, 1.159E+02, 1.254E+02, 8.959E+01, 1.154E+02, 1.309E+02, 7.899E+01, 1.977E-01, 7.012E-03, 2.013E+02
 1.000E+02, 1.177E+02, 1.186E+02, 9.390E+01, 1.250E+02, 1.341E+02, 9.710E+01, 1.199E+02, 1.388E+02, 5.681E+01, 1.963E-01, 7.781E-03, 2.009E+02
 1.100E+02, 1.235E+02, 1.234E+02, 1.007E+02, 1.296E+02, 1.402E+02, 1.023E+02, 1.251E+02, 1.428E+02, 4.186E+01, 1.950E-01, 8.531E-03, 2.005E+02
 1.200E+02, 1.295E+02, 1.291E+02, 1.084E+02, 1.349E+02, 1.451E+02, 1.074E+02, 1.310E+02, 1.490E+02, 3.189E+01, 1.931E-01, 9.600E-03, 2.005E+02
 1.300E+02, 1.324E+02, 1.340E+02, 1.120E+02, 1.376E+02, 1.476E+02, 1.126E+02, 1.348E+02, 1.548E+02, 2.580E+01, 1.916E-01, 1.041E-02, 2.012E+02
 1.400E+02, 1.360E+02, 1.374E+02, 1.164E+02, 1.399E+02, 1.518E+02, 1.172E+02, 1.374E+02, 1.575E+02, 2.100E+01, 1.903E-01, 1.112E-02, 2.005E+02
 1.500E+02, 1.391E+02, 1.391E+02, 1.191E+02, 1.420E+02, 1.561E+02, 1.198E+02, 1.411E+02, 1.563E+02, 1.807E+01, 1.889E-01, 1.190E-02, 2.018E+02
 1.600E+02, 1.388E+02, 1.421E+02, 1.193E+02, 1.432E+02, 1.538E+02, 1.226E+02, 1.426E+02, 1.609E+02, 1.564E+01, 1.873E-01, 1.282E-02, 2.003E+02
 1.700E+02, 1.423E+02, 1.433E+02, 1.246E+02, 1.469E+02, 1.553E+02, 1.238E+02, 1.446E+02, 1.614E+02, 1.441E+01, 1.858E-01, 1.367E-02, 2.007E+02
 1.800E+02, 1.432E+02, 1.448E+02, 1.245E+02, 1.485E+02, 1.567E+02, 1.260E+02, 1.479E+02, 1.604E+02, 1.435E+01, 1.845E-01, 1.438E-02, 2.016E+02
 1.900E+02, 1.443E+02, 1.476E+02, 1.240E+02, 1.501E+02, 1.588E+02, 1.270E+02, 1.512E+02, 1.647E+02, 1.295E+01, 1.827E-01, 1.538E-02, 2.004E+02
 2.000E+02, 1.447E+02, 1.491E+02, 1.241E+02, 1.477E+02, 1.621E+02, 1.262E+02, 1.534E+02, 1.676E+02, 1.258E+01, 1.812E-01, 1.622E-02, 1.995E+02
 2.100E+02, 1.453E+02, 1.505E+02, 1.245E+02, 1.499E+02, 1.617E+02, 1.282E+02, 1.567E+02, 1.667E+02, 1.300E+01, 1.796E-01, 1.712E-02, 2.011E+02
 2.200E+02, 1.453E+02, 1.503E+02, 1.236E+02, 1.486E+02, 1.636E+02, 1.287E+02, 1.554E+02, 1.667E+02, 1.268E+01, 1.777E-01, 1.817E-02, 2.009E+02
 2.300E+02, 1.476E+02, 1.505E+02, 1.267E+02, 1.530E+02, 1.632E+02, 1.283E+02, 1.540E+02, 1.690E+02, 1.234E+01, 1.758E-01, 1.926E-02, 1.996E+02
 2.400E+02, 1.485E+02, 1.483E+02, 1.271E+02, 1.540E+02, 1.644E+02, 1.276E+02, 1.507E+02, 1.665E+02, 1.290E+01, 1.746E-01, 1.992E-02, 2.008E+02
 2.500E+02, 1.515E+02, 1.478E+02, 1.310E+02, 1.597E+02, 1.638E+02, 1.290E+02, 1.483E+02, 1.661E+02, 1.249E+01, 1.728E-01, 2.093E-02, 2.004E+02
 2.600E+02, 1.523E+02, 1.495E+02, 1.319E+02, 1.579E+02, 1.670E+02, 1.286E+02, 1.515E+02, 1.682E+02, 1.215E+01, 1.718E-01, 2.148E-02, 2.012E+02
 2.700E+02, 1.517E+02, 1.492E+02, 1.304E+02, 1.588E+02, 1.658E+02, 1.281E+02, 1.509E+02, 1.687E+02, 1.232E+01, 1.705E-01, 2.221E-02, 1.993E+02
 2.800E+02, 1.515E+02, 1.480E+02, 1.319E+02, 1.561E+02, 1.665E+02, 1.267E+02, 1.498E+02, 1.677E+02, 1.246E+01, 1.688E-01, 2.315E-02, 2.001E+02
 2.900E+02, 1.540E+02, 1.492E+02, 1.334E+02, 1.597E+02, 1.688E+02, 1.302E+02, 1.513E+02, 1.663E+02, 1.306E+01, 1.678E-01, 2.373E-02, 2.014E+02
 3.000E+02, 1.554E+02, 1.489E+02, 1.341E+02, 1.623E+02, 1.699E+02, 1.292E+02, 1.523E+02, 1.653E+02, 1.188E+01, 1.662E-01, 2.463E-02, 1.993E+02
 3.100E+02, 1.533E+02, 1.514E+02, 1.319E+02, 1.593E+02, 1.686E+02, 1.301E+02, 1.546E+02, 1.695E+02, 1.276E+01, 1.640E-01, 2.586E-02, 1.996E+02
 3.200E+02, 1.543E+02, 1.524E+02, 1.340E+02, 1.633E+02, 1.657E+02, 1.307E+02, 1.557E+02, 1.709E+02, 1.240E+01, 1.625E-01, 2.668E-02, 1.997E+02
 3.300E+02, 1.509E+02, 1.494E+02, 1.312E+02, 1.535E+02, 1.680E+02, 1.305E+02, 1.521E+02, 1.656E+02, 1.315E+01, 1.611E-01, 2.745E-02, 1.997E+02
 3.400E+02, 1.529E+02, 1.505E+02, 1.312E+02, 1.569E+02, 1.707E+02, 1.333E+02, 1.546E+02, 1.635E+02, 1.244E+01, 1.596E-01, 2.827E-02, 2.004E+02
 3.500E+02, 1.536E+02, 1.511E+02, 1.332E+02, 1.574E+02, 1.703E+02, 1.338E+02, 1.537E+02, 1.658E+02, 1.262E+01, 1.580E-01, 2.919E-02, 2.007E+02
 3.600E+02, 1.549E+02, 1.539E+02, 1.343E+02, 1.600E+02, 1.704E+02, 1.338E+02, 1.581E+02, 1.699E+02, 1.241E+01, 1.558E-01, 3.042E-02, 1.993E+02
 3.700E+02, 1.530E+02, 1.573E+02, 1.343E+02, 1.562E+02, 1.687E+02, 1.338E+02, 1.640E+02, 1.741E+02, 1.244E+01, 1.542E-01, 3.130E-02, 2.007E+02
 3.800E+02, 1.524E+02, 1.571E+02, 1.319E+02, 1.555E+02, 1.699E+02, 1.339E+02, 1.641E+02, 1.733E+02, 1.239E+01, 1.525E-01, 3.224E-02, 1.999E+02
 3.900E+02, 1.527E+02, 1.576E+02, 1.314E+02, 1.563E+02, 1.705E+02, 1.357E+02, 1.651E+02, 1.721E+02, 1.271E+01, 1.508E-01, 3.322E-02, 2.004E+02
 4.000E+02, 1.544E+02, 1.572E+02, 1.325E+02, 1.581E+02, 1.726E+02, 1.349E+02, 1.638E+02, 1.727E+02, 1.240E+01, 1.487E-01, 3.436E-02, 2.003E+02
 4.100E+02, 1.556E+02, 1.567E+02, 1.306E+02, 1.611E+02, 1.751E+02, 1.345E+02, 1.636E+02, 1.720E+02, 1.255E+01, 1.475E-01, 3.504E-02, 2.003E+02
 4.200E+02, 1.562E+02, 1.577E+02, 1.319E+02, 1.608E+02, 1.758E+02, 1.346E+02, 1.639E+02, 1.745E+02, 1.288E+01, 1.452E-01, 3.633E-02, 2.008E+02
 4.300E+02, 1.570E+02, 1.577E+02, 1.316E+02, 1.614E+02, 1.780E+02, 1.366E+02, 1.639E+02, 1.726E+02, 1.224E+01, 1.439E-01, 3.709E-02, 2.002E+02
 4.400E+02, 1.568E+02, 1.567E+02, 1.333E+02, 1.616E+02, 1.755E+02, 1.366E+02, 1.630E+02, 1.704E+02, 1.322E+01, 1.422E-01, 3.802E-02, 2.005E+02
 4.500E+02, 1.564E+02, 1.572E+02, 1.344E+02, 1.598E+02, 1.749E+02, 1.369E+02, 1.633E+02, 1.713E+02, 1.304E+01, 1.405E-01, 3.895E-02, 2.006E+02
 4.600E+02, 1.548E+02, 1.592E+02, 1.329E+02, 1.595E+02, 1.719E+02, 1.380E+02, 1.647E+02, 1.749E+02, 1.280E+01, 1.388E-01, 3.993E-02, 2.000E+02
 4.700E+02, 1.549E+02, 1.592E+02, 1.352E+02, 1.587E+02, 1.707E+02, 1.368E+02, 1.639E+02, 1.769E+02, 1.254E+01, 1.367E-01, 4.106E-02, 1.996E+02
 4.800E+02, 1.545E+02, 1.617E+02, 1.353E+02, 1.589E+02, 1.694E+02, 1.385E+02, 1.641E+02, 1.825E+02, 1.300E+01, 1.352E-01, 4.192E-02, 1.997E+02
 4.900E+02, 1.542E+02, 1.594E+02, 1.364E+02, 1.585E+02, 1.677E+02, 1.381E+02, 1.645E+02, 1.757E+02, 1.177E+01, 1.337E-01, 4.274E-02, 1.948E+02
 5.000E+02, 1.527E+02, 1.584E+02, 1.338E+02, 1.579E+02, 1.665E+02, 1.393E+02, 1.640E+02, 1.720E+02, 4.344E+00, 1.323E-01, 4.351E-02, 1.718E+02
 5.100E+02, 1.512E+02, 1.524E+02, 1.340E+02, 1.559E+02, 1.635E+02, 1.348E+02, 1.553E+02, 1.670E+02,-1.331E+01, 1.319E-01, 4.370E-02, 1.448E+02
 5.200E+02, 1.476E+02, 1.511E+02, 1.303E+02, 1.526E+02, 1.599E+02, 1.338E+02, 1.532E+02, 1.662E+02, 2.393E+00, 1.306E-01, 4.444E-02, 1.548E+02
 5.300E+02, 1.464E+02, 1.461E+02, 1.309E+02, 1.511E+02, 1.573E+02, 1.295E+02, 1.480E+02, 1.607E+02,-7.763E-01, 1.309E-01, 4.423E-02, 1.474E+02
 5.400E+02, 1.429E+02, 1.456E+02, 1.290E+02, 1.448E+02, 1.550E+02, 1.272E+02, 1.467E+02, 1.628E+02, 1.779E+01, 1.303E-01, 4.452E-02, 1.766E+02
 5.500E+02, 1.419E+02, 1.473E+02, 1.295E+02, 1.441E+02, 1.521E+02, 1.260E+02, 1.485E+02, 1.673E+02,-2.825E+01, 1.297E-01, 4.486E-02, 1.062E+02
 5.600E+02, 1.416E+02, 1.414E+02, 1.330E+02, 1.429E+02, 1.488E+02, 1.254E+02, 1.433E+02, 1.555E+02, 3.252E+01, 1.297E-01, 4.480E-02, 1.646E+02
 5.700E+02, 1.402E+02, 1.483E+02, 1.283E+02, 1.436E+02, 1.486E+02, 1.283E+02, 1.489E+02, 1.677E+02, 4.049E+01, 1.291E-01, 4.514E-02, 1.551E+02
 5.800E+02, 1.390E+02, 1.403E+02, 1.289E+02, 1.445E+02, 1.438E+02, 1.232E+02, 1.437E+02, 1.539E+02,-4.881E+01, 1.304E-01, 4.436E-02, 6.280E+01
 5.900E+02, 1.390E+02, 1.376E+02, 1.282E+02, 1.409E+02, 1.480E+02, 1.249E+02, 1.369E+02, 1.508E+02, 3.376E+01, 1.299E-01, 4.459E-02, 1.637E+02
 6.000E+02, 1.342E+02, 1.339E+02, 1.244E+02, 1.378E+02, 1.402E+02, 1.220E+02, 1.355E+02, 1.441E+02,-4.268E+01, 1.305E-01, 4.421E-02, 3.114E+01
 6.100E+02, 1.288E+02, 1.291E+02, 1.189E+02, 1.320E+02, 1.354E+02, 1.214E+02, 1.285E+02, 1.375E+02,-8.144E+00, 1.317E-01, 4.347E-02, 4.623E+01
 6.200E+02, 1.251E+02, 1.270E+02, 1.196E+02, 1.271E+02, 1.286E+02, 1.210E+02, 1.265E+02, 1.335E+02,-7.081E+00, 1.317E-01, 4.333E-02, 4.454E+00
 6.300E+02, 1.216E+02, 1.262E+02, 1.168E+02, 1.226E+02, 1.255E+02, 1.210E+02, 1.267E+02, 1.309E+02,-6.135E+00, 1.318E-01, 4.338E-02, 0.000E+00
 6.400E+02, 1.188E+02, 1.193E+02, 1.143E+02, 1.196E+02, 1.224E+02, 1.151E+02, 1.180E+02, 1.247E+02,-4.278E+00, 1.324E-01, 4.305E-02, 5.040E-01
 6.500E+02, 1.157E+02, 1.142E+02, 1.102E+02, 1.167E+02, 1.202E+02, 1.071E+02, 1.135E+02, 1.220E+02,-4.792E+00, 1.322E-01, 4.309E-02, 0.000E+00
 6.600E+02, 1.114E+02, 1.102E+02, 1.044E+02, 1.141E+02, 1.158E+02, 1.014E+02, 1.107E+02, 1.185E+02, 9.611E-01, 1.326E-01, 4.291E-02, 0.000E+00
 6.700E+02, 1.099E+02, 1.086E+02, 1.025E+02, 1.122E+02, 1.151E+02, 1.004E+02, 1.090E+02, 1.165E+02,-8.136E-01, 1.324E-01, 4.290E-02, 0.000E+00
 6.800E+02, 1.055E+02, 1.065E+02, 9.621E+01, 1.088E+02, 1.116E+02, 9.701E+01, 1.088E+02, 1.137E+02,-2.368E-01, 1.325E-01, 4.274E-02, 0.000E+00
 6.900E+02, 1.052E+02, 1.036E+02, 9.867E+01, 1.068E+02, 1.102E+02, 9.376E+01, 1.046E+02, 1.125E+02, 1.519E+00, 1.328E-01, 4.255E-02, 0.000E+00
 7.000E+02, 1.027E+02, 1.010E+02, 9.505E+01, 1.057E+02, 1.073E+02, 9.221E+01, 1.012E+02, 1.096E+02, 2.822E+00, 1.326E-01, 4.254E-02, 0.000E+00
 7.100E+02, 1.004E+02, 9.970E+01, 9.324E+01, 1.029E+02, 1.049E+02, 9.239E+01, 9.994E+01, 1.068E+02,-1.741E+00, 1.327E-01, 4.256E-02, 0.000E+00
 7.200E+02, 9.905E+01, 9.762E+01, 9.140E+01, 1.015E+02, 1.043E+02, 8.960E+01, 9.815E+01, 1.051E+02, 1.818E+00, 1.330E-01, 4.233E-02, 0.000E+00
 7.300E+02, 9.635E+01, 9.497E+01, 8.882E+01, 9.957E+01, 1.007E+02, 8.570E+01, 9.561E+01, 1.036E+02, 2.734E+00, 1.325E-01, 4.232E-02, 0.000E+00
 7.400E+02, 9.647E+01, 9.458E+01, 9.105E+01, 9.788E+01, 1.005E+02, 8.647E+01, 9.554E+01, 1.017E+02, 3.751E+00, 1.323E-01, 4.243E-02, 0.000E+00
 7.500E+02, 9.378E+01, 9.333E+01, 8.667E+01, 9.626E+01, 9.841E+01, 8.685E+01, 9.366E+01, 9.949E+01, 4.159E+00, 1.330E-01, 4.211E-02, 0.000E+00
 7.600E+02, 9.255E+01, 9.188E+01, 8.785E+01, 9.400E+01, 9.579E+01, 8.599E+01, 9.194E+01, 9.771E+01, 4.138E+00, 1.326E-01, 4.214E-02, 0.000E+00
 7.700E+02, 9.143E+01, 9.013E+01, 8.834E+01, 9.255E+01, 9.339E+01, 8.376E+01, 9.112E+01, 9.549E+01, 2.983E+00, 1.322E-01, 4.204E-02, 0.000E+00
 7.800E+02, 9.032E+01, 8.908E+01, 8.803E+01, 9.084E+01, 9.209E+01, 8.343E+01, 8.968E+01, 9.412E+01, 3.379E+00, 1.325E-01, 4.202E-02, 0.000E+00
 7.900E+02, 8.862E+01, 8.782E+01, 8.614E+01, 8.916E+01, 9.055E+01, 8.241E+01, 8.782E+01, 9.323E+01, 3.541E+00, 1.324E-01, 4.199E-02, 0.000E+00
 8.000E+02, 8.693E+01, 8.622E+01, 8.363E+01, 8.790E+01, 8.925E+01, 8.032E+01, 8.724E+01, 9.110E+01, 3.287E+00, 1.324E-01, 4.191E-02, 0.000E+00
 8.100E+02, 8.633E+01, 8.506E+01, 8.360E+01, 8.697E+01, 8.842E+01, 7.891E+01, 8.649E+01, 8.978E+01, 3.625E+00, 1.321E-01, 4.177E-02, 0.000E+00
 8.200E+02, 8.589E+01, 8.445E+01, 8.385E+01, 8.628E+01, 8.753E+01, 7.938E+01, 8.491E+01, 8.904E+01, 3.522E+00, 1.321E-01, 4.181E-02, 0.000E+00
 8.300E+02, 8.421E+01, 8.375E+01, 8.134E+01, 8.526E+01, 8.603E+01, 7.918E+01, 8.380E+01, 8.827E+01, 4.337E+00, 1.324E-01, 4.181E-02, 0.000E+00
 8.400E+02, 8.305E+01, 8.292E+01, 7.971E+01, 8.410E+01, 8.533E+01, 7.819E+01, 8.348E+01, 8.710E+01, 3.355E+00, 1.323E-01, 4.169E-02, 0.000E+00
 8.500E+02, 8.263E+01, 8.167E+01, 7.972E+01, 8.352E+01, 8.465E+01, 7.655E+01, 8.266E+01, 8.582E+01, 4.620E+00, 1.321E-01, 4.165E-02, 0.000E+00
 8.600E+02, 8.144E+01, 8.122E+01, 7.790E+01, 8.259E+01, 8.384E+01, 7.849E+01, 8.102E+01, 8.414E+01, 4.083E+00, 1.323E-01, 4.161E-02, 0.000E+00
 8.700E+02, 8.014E+01, 7.969E+01, 7.712E+01, 8.111E+01, 8.220E+01, 7.565E+01, 7.917E+01, 8.424E+01, 4.224E+00, 1.324E-01, 4.154E-02, 0.000E+00
 8.800E+02, 7.955E+01, 7.856E+01, 7.790E+01, 7.989E+01, 8.085E+01, 7.381E+01, 7.925E+01, 8.261E+01, 4.399E+00, 1.321E-01, 4.146E-02, 0.000E+00
 8.900E+02, 7.918E+01, 7.805E+01, 7.672E+01, 7.980E+01, 8.103E+01, 7.369E+01, 7.850E+01, 8.197E+01, 4.187E+00, 1.320E-01, 4.146E-02, 0.000E+00
 9.000E+02, 7.825E+01, 7.733E+01, 7.554E+01, 7.918E+01, 8.003E+01, 7.303E+01, 7.750E+01, 8.146E+01, 4.196E+00, 1.321E-01, 4.147E-02, 0.000E+00
 9.100E+02, 7.714E+01, 7.707E+01, 7.384E+01, 7.821E+01, 7.935E+01, 7.381E+01, 7.654E+01, 8.086E+01, 4.035E+00, 1.321E-01, 4.135E-02, 0.000E+00
 9.200E+02, 7.716E+01, 7.620E+01, 7.501E+01, 7.773E+01, 7.874E+01, 7.212E+01, 7.636E+01, 8.011E+01, 3.420E+00, 1.321E-01, 4.127E-02, 0.000E+00
 9.300E+02, 7.589E+01, 7.544E+01, 7.285E+01, 7.698E+01, 7.784E+01, 7.200E+01, 7.517E+01, 7.916E+01, 3.875E+00, 1.318E-01, 4.122E-02, 0.000E+00
 9.400E+02, 7.546E+01, 7.455E+01, 7.256E+01, 7.645E+01, 7.736E+01, 7.061E+01, 7.451E+01, 7.854E+01, 4.344E+00, 1.316E-01, 4.113E-02, 0.000E+00
 9.500E+02, 7.499E+01, 7.390E+01, 7.258E+01, 7.573E+01, 7.666E+01, 7.007E+01, 7.396E+01, 7.768E+01, 4.131E+00, 1.315E-01, 4.106E-02, 0.000E+00
 9.600E+02, 7.418E+01, 7.332E+01, 7.186E+01, 7.496E+01, 7.571E+01, 6.971E+01, 7.279E+01, 7.746E+01, 3.991E+00, 1.316E-01, 4.097E-02, 0.000E+00
 9.700E+02, 7.349E+01, 7.293E+01, 7.117E+01, 7.434E+01, 7.497E+01, 7.034E+01, 7.211E+01, 7.635E+01, 3.702E+00, 1.316E-01, 4.090E-02, 0.000E+00
 9.800E+02, 7.227E+01, 7.199E+01, 6.937E+01, 7.332E+01, 7.412E+01, 6.982E+01, 7.121E+01, 7.492E+01, 3.942E+00, 1.316E-01, 4.083E-02, 0.000E+00
 9.900E+02, 7.181E+01, 7.109E+01, 6.908E+01, 7.283E+01, 7.353E+01, 6.913E+01, 7.000E+01, 7.414E+01, 3.991E+00, 1.316E-01, 4.085E-02, 0.000E+00
 1.000E+03, 7.167E+01, 7.037E+01, 7.011E+01, 7.225E+01, 7.264E+01, 6.732E+01, 7.039E+01, 7.341E+01, 4.315E+00, 1.315E-01, 4.076E-02, 0.000E+00
