s,C,C,C,C,C,C,C,C,Pa,mol/mol,mol/mol,kW
Time,"West_All_TCs","East_All_TCs","West_Bottom_TCs","West_Middle_TCs","West_Upper_TCs","East_Bottom_TCs","East_Middle_TCs","East_Upper_TCs","Pressure","O2","CO2","HRR"
-6.000E+01, 4.000E+01, 4.000E+01, 4.000E+01, 4.000E+01, 4.000E+01, 4.000E+01, 4.000E+01, 4.000E+01,-9.106E-06, 2.095E-01, 3.901E-04, 0.000E+00
-4.998E+01, 3.996E+01, 3.996E+01, 3.996E+01, 3.995E+01, 3.996E+01, 3.996E+01, 3.995E+01, 3.996E+01,-7.655E+01, 2.095E-01, 3.901E-04, 0.000E+00
-3.996E+01, 3.994E+01, 3.995E+01, 3.994E+01, 3.994E+01, 3.993E+01, 3.996E+01, 3.994E+01, 3.995E+01,-7.710E+01, 2.095E-01, 3.901E-04, 0.000E+00
-2.999E+01, 3.993E+01, 3.995E+01, 3.994E+01, 3.993E+01, 3.993E+01, 3.998E+01, 3.994E+01, 3.994E+01,-7.716E+01, 2.095E-01, 3.901E-04, 0.000E+00
-1.995E+01, 3.994E+01, 3.996E+01, 3.994E+01, 3.993E+01, 3.994E+01, 3.998E+01, 3.994E+01, 3.994E+01,-7.720E+01, 2.095E-01, 3.901E-04, 0.000E+00
-9.993E+00, 3.993E+01, 3.996E+01, 3.994E+01, 3.993E+01, 3.993E+01, 3.999E+01, 3.995E+01, 3.994E+01,-7.723E+01, 2.095E-01, 3.901E-04, 0.000E+00
 4.897E-02, 3.993E+01, 3.996E+01, 3.994E+01, 3.993E+01, 3.993E+01, 3.999E+01, 3.996E+01, 3.995E+01,-7.726E+01, 2.095E-01, 3.901E-04, 6.008E-04
 1.003E+01, 4.093E+01, 4.113E+01, 4.045E+01, 4.236E+01, 3.998E+01, 4.067E+01, 4.274E+01, 3.998E+01,-3.562E+01, 2.095E-01, 3.901E-04, 3.262E+01
 2.002E+01, 4.588E+01, 4.623E+01, 4.228E+01, 5.469E+01, 4.068E+01, 4.308E+01, 5.566E+01, 3.995E+01, 3.393E+00, 2.095E-01, 3.901E-04, 9.935E+01
 3.001E+01, 5.415E+01, 5.590E+01, 4.614E+01, 7.473E+01, 4.158E+01, 4.811E+01, 7.973E+01, 3.987E+01, 3.790E+01, 2.095E-01, 3.901E-04, 1.655E+02
 4.001E+01, 6.565E+01, 6.603E+01, 5.442E+01, 1.004E+02, 4.210E+01, 5.705E+01, 1.010E+02, 4.007E+01, 4.873E+01, 2.095E-01, 4.168E-04, 1.998E+02
 5.001E+01, 7.778E+01, 7.761E+01, 6.790E+01, 1.211E+02, 4.436E+01, 6.778E+01, 1.215E+02, 4.353E+01, 2.553E+01, 2.088E-01, 7.878E-04, 2.002E+02
 6.000E+01, 8.668E+01, 8.732E+01, 7.872E+01, 1.356E+02, 4.577E+01, 7.995E+01, 1.361E+02, 4.589E+01, 1.020E+01, 2.085E-01, 9.772E-04, 1.990E+02
 7.001E+01, 9.579E+01, 9.559E+01, 9.208E+01, 1.478E+02, 4.750E+01, 9.373E+01, 1.449E+02, 4.813E+01, 2.787E+00, 2.081E-01, 1.174E-03, 2.003E+02
 8.001E+01, 1.033E+02, 1.039E+02, 1.035E+02, 1.551E+02, 5.117E+01, 1.065E+02, 1.547E+02, 5.033E+01,-6.228E+00, 2.075E-01, 1.534E-03, 2.001E+02
 9.002E+01, 1.083E+02, 1.105E+02, 1.122E+02, 1.603E+02, 5.253E+01, 1.145E+02, 1.651E+02, 5.202E+01,-1.402E+01, 2.071E-01, 1.736E-03, 1.998E+02
 1.000E+02, 1.131E+02, 1.150E+02, 1.210E+02, 1.643E+02, 5.398E+01, 1.226E+02, 1.689E+02, 5.348E+01,-2.093E+01, 2.067E-01, 1.969E-03, 1.993E+02
 1.100E+02, 1.174E+02, 1.194E+02, 1.260E+02, 1.707E+02, 5.550E+01, 1.289E+02, 1.736E+02, 5.560E+01,-2.763E+01, 2.061E-01, 2.297E-03, 1.994E+02
 1.200E+02, 1.190E+02, 1.234E+02, 1.294E+02, 1.707E+02, 5.701E+01, 1.307E+02, 1.818E+02, 5.775E+01,-3.862E+01, 2.056E-01, 2.610E-03, 1.994E+02
 1.300E+02, 1.218E+02, 1.253E+02, 1.325E+02, 1.740E+02, 5.896E+01, 1.322E+02, 1.847E+02, 5.905E+01,-4.627E+01, 2.050E-01, 2.942E-03, 2.000E+02
 1.400E+02, 1.233E+02, 1.271E+02, 1.342E+02, 1.759E+02, 5.966E+01, 1.373E+02, 1.848E+02, 5.911E+01,-4.717E+01, 2.046E-01, 3.155E-03, 2.001E+02
 1.500E+02, 1.245E+02, 1.274E+02, 1.349E+02, 1.777E+02, 6.103E+01, 1.383E+02, 1.827E+02, 6.132E+01,-5.735E+01, 2.037E-01, 3.653E-03, 1.985E+02
 1.600E+02, 1.250E+02, 1.314E+02, 1.360E+02, 1.773E+02, 6.168E+01, 1.422E+02, 1.906E+02, 6.140E+01,-5.101E+01, 2.031E-01, 3.995E-03, 1.998E+02
 1.700E+02, 1.257E+02, 1.311E+02, 1.359E+02, 1.788E+02, 6.253E+01, 1.440E+02, 1.873E+02, 6.188E+01,-5.944E+01, 2.025E-01, 4.350E-03, 2.009E+02
 1.800E+02, 1.253E+02, 1.315E+02, 1.345E+02, 1.785E+02, 6.292E+01, 1.449E+02, 1.862E+02, 6.350E+01,-5.863E+01, 2.016E-01, 4.837E-03, 1.988E+02
 1.900E+02, 1.274E+02, 1.314E+02, 1.363E+02, 1.822E+02, 6.380E+01, 1.424E+02, 1.876E+02, 6.413E+01,-5.790E+01, 2.010E-01, 5.192E-03, 2.003E+02
 2.000E+02, 1.294E+02, 1.323E+02, 1.388E+02, 1.847E+02, 6.487E+01, 1.431E+02, 1.883E+02, 6.552E+01,-6.158E+01, 2.002E-01, 5.631E-03, 1.993E+02
 2.100E+02, 1.293E+02, 1.308E+02, 1.378E+02, 1.835E+02, 6.649E+01, 1.407E+02, 1.873E+02, 6.437E+01,-6.559E+01, 1.996E-01, 5.942E-03, 2.001E+02
 2.200E+02, 1.299E+02, 1.331E+02, 1.401E+02, 1.837E+02, 6.599E+01, 1.448E+02, 1.897E+02, 6.489E+01,-6.172E+01, 1.987E-01, 6.437E-03, 1.993E+02
 2.300E+02, 1.319E+02, 1.316E+02, 1.438E+02, 1.868E+02, 6.512E+01, 1.431E+02, 1.856E+02, 6.600E+01,-5.876E+01, 1.975E-01, 7.096E-03, 1.998E+02
 2.400E+02, 1.311E+02, 1.336E+02, 1.416E+02, 1.863E+02, 6.548E+01, 1.487E+02, 1.853E+02, 6.676E+01,-6.068E+01, 1.971E-01, 7.363E-03, 1.993E+02
 2.500E+02, 1.322E+02, 1.380E+02, 1.434E+02, 1.875E+02, 6.571E+01, 1.545E+02, 1.934E+02, 6.627E+01,-6.374E+01, 1.964E-01, 7.730E-03, 2.004E+02
 2.600E+02, 1.322E+02, 1.353E+02, 1.426E+02, 1.879E+02, 6.594E+01, 1.517E+02, 1.885E+02, 6.580E+01,-6.476E+01, 1.957E-01, 8.150E-03, 2.000E+02
 2.700E+02, 1.331E+02, 1.362E+02, 1.416E+02, 1.908E+02, 6.684E+01, 1.494E+02, 1.929E+02, 6.616E+01,-6.568E+01, 1.948E-01, 8.656E-03, 1.989E+02
 2.800E+02, 1.327E+02, 1.373E+02, 1.432E+02, 1.884E+02, 6.646E+01, 1.501E+02, 1.949E+02, 6.691E+01,-6.128E+01, 1.940E-01, 9.057E-03, 2.016E+02
 2.900E+02, 1.345E+02, 1.366E+02, 1.444E+02, 1.923E+02, 6.678E+01, 1.490E+02, 1.941E+02, 6.672E+01,-6.951E+01, 1.931E-01, 9.599E-03, 1.982E+02
 3.000E+02, 1.349E+02, 1.352E+02, 1.458E+02, 1.909E+02, 6.787E+01, 1.468E+02, 1.923E+02, 6.643E+01,-6.584E+01, 1.925E-01, 9.904E-03, 2.011E+02
 3.100E+02, 1.347E+02, 1.386E+02, 1.462E+02, 1.901E+02, 6.781E+01, 1.513E+02, 1.973E+02, 6.732E+01,-5.570E+01, 1.915E-01, 1.046E-02, 1.988E+02
 3.200E+02, 1.355E+02, 1.427E+02, 1.465E+02, 1.923E+02, 6.768E+01, 1.545E+02, 2.051E+02, 6.849E+01,-6.666E+01, 1.900E-01, 1.131E-02, 1.992E+02
 3.300E+02, 1.356E+02, 1.406E+02, 1.455E+02, 1.937E+02, 6.748E+01, 1.541E+02, 1.999E+02, 6.783E+01,-6.692E+01, 1.897E-01, 1.149E-02, 1.992E+02
 3.400E+02, 1.352E+02, 1.396E+02, 1.459E+02, 1.922E+02, 6.751E+01, 1.530E+02, 1.982E+02, 6.744E+01,-6.135E+01, 1.888E-01, 1.200E-02, 1.996E+02
 3.500E+02, 1.347E+02, 1.409E+02, 1.444E+02, 1.914E+02, 6.829E+01, 1.550E+02, 2.003E+02, 6.752E+01,-6.779E+01, 1.879E-01, 1.246E-02, 1.984E+02
 3.600E+02, 1.345E+02, 1.399E+02, 1.454E+02, 1.902E+02, 6.791E+01, 1.515E+02, 2.005E+02, 6.786E+01,-6.237E+01, 1.872E-01, 1.290E-02, 2.012E+02
 3.700E+02, 1.353E+02, 1.431E+02, 1.460E+02, 1.912E+02, 6.852E+01, 1.583E+02, 2.020E+02, 6.884E+01,-6.456E+01, 1.859E-01, 1.362E-02, 1.990E+02
 3.800E+02, 1.364E+02, 1.419E+02, 1.460E+02, 1.939E+02, 6.926E+01, 1.559E+02, 2.014E+02, 6.845E+01,-6.388E+01, 1.849E-01, 1.414E-02, 2.000E+02
 3.900E+02, 1.377E+02, 1.414E+02, 1.495E+02, 1.939E+02, 6.968E+01, 1.559E+02, 2.010E+02, 6.740E+01,-6.280E+01, 1.845E-01, 1.439E-02, 1.990E+02
 4.000E+02, 1.390E+02, 1.408E+02, 1.495E+02, 1.978E+02, 6.981E+01, 1.549E+02, 1.987E+02, 6.879E+01,-6.057E+01, 1.831E-01, 1.517E-02, 2.014E+02
 4.100E+02, 1.398E+02, 1.433E+02, 1.506E+02, 1.992E+02, 6.961E+01, 1.575E+02, 2.034E+02, 6.903E+01,-6.050E+01, 1.829E-01, 1.530E-02, 2.001E+02
 4.200E+02, 1.381E+02, 1.431E+02, 1.482E+02, 1.966E+02, 6.947E+01, 1.590E+02, 2.005E+02, 6.972E+01,-6.327E+01, 1.815E-01, 1.606E-02, 1.990E+02
 4.300E+02, 1.382E+02, 1.412E+02, 1.487E+02, 1.961E+02, 6.988E+01, 1.542E+02, 2.002E+02, 6.922E+01,-6.102E+01, 1.806E-01, 1.654E-02, 1.995E+02
 4.400E+02, 1.394E+02, 1.435E+02, 1.491E+02, 1.986E+02, 7.050E+01, 1.611E+02, 2.005E+02, 6.875E+01,-6.046E+01, 1.798E-01, 1.703E-02, 1.986E+02
 4.500E+02, 1.402E+02, 1.432E+02, 1.520E+02, 1.980E+02, 7.057E+01, 1.572E+02, 2.027E+02, 6.976E+01,-6.730E+01, 1.787E-01, 1.761E-02, 2.006E+02
 4.600E+02, 1.401E+02, 1.440E+02, 1.514E+02, 1.983E+02, 7.069E+01, 1.564E+02, 2.054E+02, 7.016E+01,-5.923E+01, 1.780E-01, 1.804E-02, 2.008E+02
 4.700E+02, 1.413E+02, 1.438E+02, 1.536E+02, 2.014E+02, 6.893E+01, 1.579E+02, 2.035E+02, 6.988E+01,-6.140E+01, 1.768E-01, 1.871E-02, 2.004E+02
 4.800E+02, 1.436E+02, 1.418E+02, 1.543E+02, 2.068E+02, 6.963E+01, 1.573E+02, 1.984E+02, 6.976E+01,-6.391E+01, 1.765E-01, 1.887E-02, 1.997E+02
 4.900E+02, 1.422E+02, 1.462E+02, 1.532E+02, 2.031E+02, 7.011E+01, 1.638E+02, 2.040E+02, 7.098E+01,-6.545E+01, 1.756E-01, 1.935E-02, 1.980E+02
 5.000E+02, 1.412E+02, 1.467E+02, 1.517E+02, 2.010E+02, 7.089E+01, 1.635E+02, 2.068E+02, 6.985E+01,-5.831E+01, 1.751E-01, 1.964E-02, 2.009E+02
 5.100E+02, 1.406E+02, 1.465E+02, 1.512E+02, 2.002E+02, 7.035E+01, 1.620E+02, 2.072E+02, 7.029E+01,-6.436E+01, 1.741E-01, 2.021E-02, 1.986E+02
 5.200E+02, 1.425E+02, 1.475E+02, 1.533E+02, 2.036E+02, 7.069E+01, 1.627E+02, 2.103E+02, 6.951E+01,-6.463E+01, 1.733E-01, 2.065E-02, 2.009E+02
 5.300E+02, 1.419E+02, 1.463E+02, 1.533E+02, 2.012E+02, 7.112E+01, 1.620E+02, 2.050E+02, 7.174E+01,-6.955E+01, 1.724E-01, 2.113E-02, 1.933E+02
 5.400E+02, 1.427E+02, 1.456E+02, 1.543E+02, 2.022E+02, 7.147E+01, 1.596E+02, 2.066E+02, 7.058E+01,-5.778E+01, 1.718E-01, 2.150E-02, 2.042E+02
 5.500E+02, 1.446E+02, 1.454E+02, 1.575E+02, 2.046E+02, 7.181E+01, 1.578E+02, 2.078E+02, 7.072E+01,-5.326E+01, 1.707E-01, 2.210E-02, 2.012E+02
 5.600E+02, 1.441E+02, 1.477E+02, 1.565E+02, 2.037E+02, 7.215E+01, 1.612E+02, 2.102E+02, 7.169E+01,-6.360E+01, 1.703E-01, 2.233E-02, 1.998E+02
 5.700E+02, 1.456E+02, 1.451E+02, 1.571E+02, 2.078E+02, 7.186E+01, 1.611E+02, 2.023E+02, 7.192E+01,-6.069E+01, 1.694E-01, 2.280E-02, 1.990E+02
 5.800E+02, 1.459E+02, 1.504E+02, 1.565E+02, 2.090E+02, 7.206E+01, 1.717E+02, 2.081E+02, 7.157E+01,-5.727E+01, 1.684E-01, 2.339E-02, 1.983E+02
 5.900E+02, 1.445E+02, 1.509E+02, 1.542E+02, 2.072E+02, 7.212E+01, 1.710E+02, 2.086E+02, 7.299E+01,-6.988E+01, 1.677E-01, 2.375E-02, 2.001E+02
 6.000E+02, 1.445E+02, 1.492E+02, 1.548E+02, 2.058E+02, 7.295E+01, 1.651E+02, 2.107E+02, 7.179E+01,-6.294E+01, 1.673E-01, 2.399E-02, 1.979E+02
 6.100E+02, 1.456E+02, 1.495E+02, 1.561E+02, 2.075E+02, 7.332E+01, 1.655E+02, 2.109E+02, 7.214E+01,-6.040E+01, 1.663E-01, 2.458E-02, 1.986E+02
 6.200E+02, 1.452E+02, 1.510E+02, 1.587E+02, 2.041E+02, 7.293E+01, 1.679E+02, 2.123E+02, 7.295E+01,-5.886E+01, 1.657E-01, 2.490E-02, 2.033E+02
 6.300E+02, 1.466E+02, 1.500E+02, 1.597E+02, 2.072E+02, 7.298E+01, 1.652E+02, 2.125E+02, 7.238E+01,-6.266E+01, 1.651E-01, 2.520E-02, 1.996E+02
 6.400E+02, 1.462E+02, 1.506E+02, 1.582E+02, 2.067E+02, 7.360E+01, 1.659E+02, 2.128E+02, 7.295E+01,-6.164E+01, 1.642E-01, 2.573E-02, 1.991E+02
 6.500E+02, 1.473E+02, 1.512E+02, 1.589E+02, 2.089E+02, 7.408E+01, 1.687E+02, 2.115E+02, 7.336E+01,-6.311E+01, 1.633E-01, 2.622E-02, 1.972E+02
 6.600E+02, 1.476E+02, 1.523E+02, 1.581E+02, 2.101E+02, 7.461E+01, 1.711E+02, 2.122E+02, 7.356E+01,-7.207E+01, 1.629E-01, 2.648E-02, 1.941E+02
 6.700E+02, 1.461E+02, 1.515E+02, 1.576E+02, 2.064E+02, 7.434E+01, 1.657E+02, 2.164E+02, 7.236E+01,-5.232E+01, 1.621E-01, 2.690E-02, 2.034E+02
 6.800E+02, 1.461E+02, 1.540E+02, 1.583E+02, 2.051E+02, 7.490E+01, 1.664E+02, 2.215E+02, 7.418E+01,-6.042E+01, 1.613E-01, 2.734E-02, 1.962E+02
 6.900E+02, 1.471E+02, 1.562E+02, 1.584E+02, 2.077E+02, 7.523E+01, 1.700E+02, 2.241E+02, 7.437E+01,-6.221E+01, 1.610E-01, 2.754E-02, 2.012E+02
 7.000E+02, 1.486E+02, 1.557E+02, 1.616E+02, 2.095E+02, 7.453E+01, 1.696E+02, 2.234E+02, 7.414E+01,-7.011E+01, 1.602E-01, 2.794E-02, 1.943E+02
 7.100E+02, 1.498E+02, 1.539E+02, 1.624E+02, 2.127E+02, 7.445E+01, 1.685E+02, 2.196E+02, 7.375E+01,-5.635E+01, 1.597E-01, 2.826E-02, 2.097E+02
 7.200E+02, 1.508E+02, 1.507E+02, 1.646E+02, 2.127E+02, 7.505E+01, 1.653E+02, 2.116E+02, 7.507E+01,-6.587E+01, 1.587E-01, 2.879E-02, 1.997E+02
 7.300E+02, 1.499E+02, 1.524E+02, 1.621E+02, 2.120E+02, 7.566E+01, 1.698E+02, 2.115E+02, 7.571E+01,-7.943E+01, 1.583E-01, 2.902E-02, 1.841E+02
 7.400E+02, 1.489E+02, 1.531E+02, 1.581E+02, 2.129E+02, 7.574E+01, 1.703E+02, 2.136E+02, 7.541E+01,-6.072E+01, 1.578E-01, 2.933E-02, 2.056E+02
 7.500E+02, 1.485E+02, 1.545E+02, 1.605E+02, 2.094E+02, 7.551E+01, 1.694E+02, 2.194E+02, 7.486E+01,-7.242E+01, 1.576E-01, 2.944E-02, 1.910E+02
 7.600E+02, 1.499E+02, 1.591E+02, 1.636E+02, 2.099E+02, 7.603E+01, 1.736E+02, 2.287E+02, 7.499E+01,-4.731E+01, 1.574E-01, 2.953E-02, 2.039E+02
 7.700E+02, 1.526E+02, 1.536E+02, 1.660E+02, 2.151E+02, 7.658E+01, 1.693E+02, 2.153E+02, 7.607E+01,-5.719E+01, 1.563E-01, 3.013E-02, 2.042E+02
 7.800E+02, 1.525E+02, 1.541E+02, 1.656E+02, 2.154E+02, 7.657E+01, 1.713E+02, 2.147E+02, 7.645E+01,-7.237E+01, 1.555E-01, 3.057E-02, 2.002E+02
 7.900E+02, 1.510E+02, 1.559E+02, 1.660E+02, 2.105E+02, 7.643E+01, 1.727E+02, 2.188E+02, 7.628E+01,-1.117E+02, 1.553E-01, 3.071E-02, 1.624E+02
 8.000E+02, 1.501E+02, 1.560E+02, 1.595E+02, 2.135E+02, 7.740E+01, 1.738E+02, 2.175E+02, 7.651E+01,-5.419E+01, 1.548E-01, 3.099E-02, 2.150E+02
 8.100E+02, 1.504E+02, 1.580E+02, 1.612E+02, 2.122E+02, 7.784E+01, 1.754E+02, 2.218E+02, 7.674E+01,-5.000E+01, 1.543E-01, 3.127E-02, 2.060E+02
 8.200E+02, 1.512E+02, 1.555E+02, 1.624E+02, 2.133E+02, 7.800E+01, 1.719E+02, 2.172E+02, 7.730E+01,-7.176E+01, 1.536E-01, 3.163E-02, 1.983E+02
 8.300E+02, 1.521E+02, 1.582E+02, 1.658E+02, 2.138E+02, 7.669E+01, 1.803E+02, 2.179E+02, 7.644E+01,-6.477E+01, 1.534E-01, 3.175E-02, 1.941E+02
 8.400E+02, 1.535E+02, 1.581E+02, 1.672E+02, 2.161E+02, 7.716E+01, 1.776E+02, 2.198E+02, 7.695E+01,-6.279E+01, 1.525E-01, 3.224E-02, 1.965E+02
 8.500E+02, 1.530E+02, 1.578E+02, 1.663E+02, 2.144E+02, 7.818E+01, 1.739E+02, 2.222E+02, 7.728E+01,-6.126E+01, 1.523E-01, 3.237E-02, 2.049E+02
 8.600E+02, 1.550E+02, 1.559E+02, 1.689E+02, 2.183E+02, 7.781E+01, 1.762E+02, 2.138E+02, 7.775E+01,-7.355E+01, 1.519E-01, 3.260E-02, 1.917E+02
 8.700E+02, 1.542E+02, 1.598E+02, 1.691E+02, 2.161E+02, 7.729E+01, 1.813E+02, 2.203E+02, 7.787E+01,-8.772E+01, 1.517E-01, 3.274E-02, 1.927E+02
 8.800E+02, 1.537E+02, 1.581E+02, 1.664E+02, 2.170E+02, 7.756E+01, 1.762E+02, 2.204E+02, 7.775E+01,-7.088E+01, 1.514E-01, 3.286E-02, 1.939E+02
 8.900E+02, 1.532E+02, 1.581E+02, 1.642E+02, 2.162E+02, 7.911E+01, 1.765E+02, 2.209E+02, 7.693E+01,-6.521E+01, 1.510E-01, 3.309E-02, 2.032E+02
 9.000E+02, 1.534E+02, 1.601E+02, 1.664E+02, 2.144E+02, 7.943E+01, 1.759E+02, 2.261E+02, 7.838E+01,-6.363E+01, 1.501E-01, 3.362E-02, 1.917E+02
 9.100E+02, 1.514E+02, 1.648E+02, 1.634E+02, 2.118E+02, 7.896E+01, 1.795E+02, 2.346E+02, 8.024E+01,-7.995E+01, 1.498E-01, 3.378E-02, 1.911E+02
 9.200E+02, 1.531E+02, 1.613E+02, 1.659E+02, 2.141E+02, 7.932E+01, 1.746E+02, 2.307E+02, 7.854E+01,-5.352E+01, 1.500E-01, 3.366E-02, 2.017E+02
 9.300E+02, 1.556E+02, 1.622E+02, 1.695E+02, 2.168E+02, 8.045E+01, 1.795E+02, 2.283E+02, 7.874E+01,-5.963E+01, 1.493E-01, 3.407E-02, 2.013E+02
 9.400E+02, 1.566E+02, 1.619E+02, 1.688E+02, 2.207E+02, 8.041E+01, 1.810E+02, 2.247E+02, 7.995E+01,-5.050E+01, 1.488E-01, 3.432E-02, 2.080E+02
 9.500E+02, 1.566E+02, 1.619E+02, 1.710E+02, 2.184E+02, 8.033E+01, 1.772E+02, 2.278E+02, 8.068E+01,-6.565E+01, 1.483E-01, 3.463E-02, 1.973E+02
 9.600E+02, 1.563E+02, 1.580E+02, 1.694E+02, 2.178E+02, 8.169E+01, 1.746E+02, 2.196E+02, 7.976E+01,-9.547E+01, 1.480E-01, 3.476E-02, 1.786E+02
 9.700E+02, 1.569E+02, 1.604E+02, 1.716E+02, 2.183E+02, 8.076E+01, 1.777E+02, 2.227E+02, 8.069E+01,-4.136E+01, 1.476E-01, 3.498E-02, 2.088E+02
 9.800E+02, 1.575E+02, 1.618E+02, 1.698E+02, 2.235E+02, 7.912E+01, 1.837E+02, 2.222E+02, 7.942E+01,-8.079E+01, 1.473E-01, 3.514E-02, 1.939E+02
 9.900E+02, 1.561E+02, 1.638E+02, 1.683E+02, 2.189E+02, 8.125E+01, 1.838E+02, 2.283E+02, 7.946E+01,-8.628E+01, 1.471E-01, 3.531E-02, 1.832E+02
 1.000E+03, 1.561E+02, 1.643E+02, 1.661E+02, 2.209E+02, 8.123E+01, 1.797E+02, 2.326E+02, 8.077E+01,-6.403E+01, 1.467E-01, 3.549E-02, 1.960E+02
 1.010E+03, 1.548E+02, 1.606E+02, 1.667E+02, 2.156E+02, 8.205E+01, 1.767E+02, 2.235E+02, 8.153E+01,-9.415E+01, 1.464E-01, 3.564E-02, 1.677E+02
 1.020E+03, 1.575E+02, 1.603E+02, 1.671E+02, 2.235E+02, 8.196E+01, 1.789E+02, 2.203E+02, 8.177E+01,-4.642E+01, 1.462E-01, 3.576E-02, 1.933E+02
 1.030E+03, 1.587E+02, 1.612E+02, 1.731E+02, 2.220E+02, 8.107E+01, 1.820E+02, 2.216E+02, 8.008E+01,-5.936E+01, 1.461E-01, 3.583E-02, 2.039E+02
 1.040E+03, 1.605E+02, 1.633E+02, 1.737E+02, 2.249E+02, 8.275E+01, 1.849E+02, 2.257E+02, 7.920E+01,-5.793E+01, 1.461E-01, 3.583E-02, 2.044E+02
 1.050E+03, 1.594E+02, 1.653E+02, 1.732E+02, 2.224E+02, 8.278E+01, 1.851E+02, 2.285E+02, 8.223E+01,-6.038E+01, 1.452E-01, 3.632E-02, 2.005E+02
 1.060E+03, 1.603E+02, 1.637E+02, 1.743E+02, 2.225E+02, 8.402E+01, 1.850E+02, 2.238E+02, 8.231E+01,-8.516E+01, 1.450E-01, 3.646E-02, 1.849E+02
 1.070E+03, 1.599E+02, 1.675E+02, 1.713E+02, 2.249E+02, 8.349E+01, 1.863E+02, 2.334E+02, 8.280E+01,-6.291E+01, 1.448E-01, 3.655E-02, 2.048E+02
 1.080E+03, 1.608E+02, 1.646E+02, 1.742E+02, 2.256E+02, 8.255E+01, 1.808E+02, 2.302E+02, 8.272E+01,-5.483E+01, 1.445E-01, 3.675E-02, 2.086E+02
 1.090E+03, 1.583E+02, 1.639E+02, 1.714E+02, 2.208E+02, 8.281E+01, 1.819E+02, 2.267E+02, 8.308E+01,-8.226E+01, 1.442E-01, 3.692E-02, 1.870E+02
 1.100E+03, 1.594E+02, 1.655E+02, 1.705E+02, 2.241E+02, 8.372E+01, 1.841E+02, 2.294E+02, 8.311E+01,-5.088E+01, 1.440E-01, 3.701E-02, 2.011E+02
 1.110E+03, 1.630E+02, 1.638E+02, 1.780E+02, 2.257E+02, 8.530E+01, 1.829E+02, 2.253E+02, 8.317E+01,-5.343E+01, 1.436E-01, 3.726E-02, 2.025E+02
 1.120E+03, 1.630E+02, 1.618E+02, 1.778E+02, 2.269E+02, 8.444E+01, 1.791E+02, 2.222E+02, 8.404E+01,-9.039E+01, 1.432E-01, 3.744E-02, 1.813E+02
 1.130E+03, 1.629E+02, 1.645E+02, 1.781E+02, 2.265E+02, 8.401E+01, 1.841E+02, 2.260E+02, 8.341E+01,-5.495E+01, 1.431E-01, 3.754E-02, 1.905E+02
 1.140E+03, 1.601E+02, 1.678E+02, 1.732E+02, 2.229E+02, 8.407E+01, 1.906E+02, 2.299E+02, 8.285E+01,-9.067E+01, 1.434E-01, 3.737E-02, 1.829E+02
 1.150E+03, 1.607E+02, 1.675E+02, 1.735E+02, 2.237E+02, 8.487E+01, 1.867E+02, 2.333E+02, 8.239E+01,-6.467E+01, 1.432E-01, 3.747E-02, 1.960E+02
 1.160E+03, 1.610E+02, 1.636E+02, 1.730E+02, 2.249E+02, 8.507E+01, 1.857E+02, 2.219E+02, 8.321E+01,-6.119E+01, 1.429E-01, 3.760E-02, 1.835E+02
 1.170E+03, 1.612E+02, 1.653E+02, 1.749E+02, 2.250E+02, 8.369E+01, 1.827E+02, 2.291E+02, 8.421E+01,-5.808E+01, 1.429E-01, 3.762E-02, 1.978E+02
 1.180E+03, 1.600E+02, 1.743E+02, 1.737E+02, 2.227E+02, 8.364E+01, 1.948E+02, 2.450E+02, 8.314E+01,-6.694E+01, 1.429E-01, 3.764E-02, 1.839E+02
 1.190E+03, 1.669E+02, 1.682E+02, 1.817E+02, 2.336E+02, 8.551E+01, 1.880E+02, 2.339E+02, 8.280E+01,-6.831E+01, 1.427E-01, 3.776E-02, 2.003E+02
 1.200E+03, 1.628E+02, 1.687E+02, 1.760E+02, 2.269E+02, 8.565E+01, 1.907E+02, 2.309E+02, 8.437E+01,-6.356E+01, 1.425E-01, 3.784E-02, 2.026E+02
 1.210E+03, 1.658E+02, 1.668E+02, 1.786E+02, 2.327E+02, 8.603E+01, 1.853E+02, 2.299E+02, 8.520E+01,-6.607E+01, 1.421E-01, 3.807E-02, 1.950E+02
 1.220E+03, 1.634E+02, 1.660E+02, 1.760E+02, 2.284E+02, 8.592E+01, 1.866E+02, 2.257E+02, 8.556E+01,-6.524E+01, 1.419E-01, 3.818E-02, 1.944E+02
 1.230E+03, 1.648E+02, 1.698E+02, 1.789E+02, 2.289E+02, 8.679E+01, 1.884E+02, 2.351E+02, 8.602E+01,-6.876E+01, 1.414E-01, 3.844E-02, 1.894E+02
 1.240E+03, 1.624E+02, 1.693E+02, 1.722E+02, 2.280E+02, 8.692E+01, 1.883E+02, 2.350E+02, 8.459E+01,-5.398E+01, 1.416E-01, 3.834E-02, 2.119E+02
 1.250E+03, 1.645E+02, 1.696E+02, 1.785E+02, 2.263E+02, 8.868E+01, 1.847E+02, 2.377E+02, 8.651E+01,-6.207E+01, 1.413E-01, 3.851E-02, 1.971E+02
 1.260E+03, 1.643E+02, 1.709E+02, 1.753E+02, 2.283E+02, 8.926E+01, 1.920E+02, 2.347E+02, 8.599E+01,-8.211E+01, 1.411E-01, 3.865E-02, 1.966E+02
 1.270E+03, 1.640E+02, 1.718E+02, 1.783E+02, 2.263E+02, 8.741E+01, 1.863E+02, 2.429E+02, 8.606E+01,-6.566E+01, 1.409E-01, 3.875E-02, 1.968E+02
 1.280E+03, 1.646E+02, 1.701E+02, 1.767E+02, 2.301E+02, 8.694E+01, 1.870E+02, 2.366E+02, 8.669E+01,-5.200E+01, 1.407E-01, 3.885E-02, 2.050E+02
 1.290E+03, 1.651E+02, 1.732E+02, 1.761E+02, 2.312E+02, 8.816E+01, 1.924E+02, 2.395E+02, 8.757E+01,-7.285E+01, 1.407E-01, 3.886E-02, 1.945E+02
 1.300E+03, 1.640E+02, 1.717E+02, 1.766E+02, 2.275E+02, 8.800E+01, 1.887E+02, 2.397E+02, 8.686E+01,-6.188E+01, 1.406E-01, 3.889E-02, 1.995E+02
 1.310E+03, 1.631E+02, 1.703E+02, 1.761E+02, 2.256E+02, 8.753E+01, 1.857E+02, 2.376E+02, 8.752E+01,-6.096E+01, 1.406E-01, 3.892E-02, 2.024E+02
