s,C,C,C,C,C,C,C,C,Pa,mol/mol,mol/mol,kW
Time,West_All_TCs,East_All_TCs,West_Bottom_TCs,West_Middle_TCs,West_Upper_TCs,East_Bottom_TCs,East_Middle_TCs,East_Upper_TCs,Pressure,O2,CO2,HRR
-6.000E+01, 3.000E+01, 3.000E+01, 3.000E+01, 3.000E+01, 3.000E+01, 3.000E+01, 3.000E+01, 3.000E+01,-9.452E-06, 2.095E-01, 3.901E-04, 0.000E+00
-4.999E+01, 3.000E+01, 3.000E+01, 3.000E+01, 3.000E+01, 3.000E+01, 3.000E+01, 3.000E+01, 3.000E+01,-6.793E-04, 2.095E-01, 3.901E-04, 0.000E+00
-3.999E+01, 3.000E+01, 3.000E+01, 3.000E+01, 3.000E+01, 3.000E+01, 3.000E+01, 3.000E+01, 3.000E+01,-3.037E-05, 2.095E-01, 3.901E-04, 0.000E+00
-2.998E+01, 3.000E+01, 3.000E+01, 3.000E+01, 3.000E+01, 3.000E+01, 3.000E+01, 3.000E+01, 3.000E+01,-2.578E-05, 2.095E-01, 3.901E-04, 0.000E+00
-1.997E+01, 3.000E+01, 3.000E+01, 3.000E+01, 3.000E+01, 3.000E+01, 3.000E+01, 3.000E+01, 3.000E+01,-2.613E-05, 2.095E-01, 3.901E-04, 0.000E+00
-9.967E+00, 3.000E+01, 3.000E+01, 3.000E+01, 3.000E+01, 3.000E+01, 3.000E+01, 3.000E+01, 3.000E+01,-2.696E-05, 2.095E-01, 3.901E-04, 0.000E+00
 3.957E-02, 3.000E+01, 3.000E+01, 3.000E+01, 3.000E+01, 3.000E+01, 3.000E+01, 3.000E+01, 3.000E+01,-2.172E-05, 2.095E-01, 3.901E-04, 7.029E-04
 1.002E+01, 3.062E+01, 3.056E+01, 3.062E+01, 3.027E+01, 3.098E+01, 3.079E+01, 3.032E+01, 3.058E+01, 1.543E+01, 2.094E-01, 4.812E-04, 3.315E+01
 2.002E+01, 3.318E+01, 3.334E+01, 3.201E+01, 3.169E+01, 3.584E+01, 3.255E+01, 3.188E+01, 3.558E+01, 8.723E+01, 2.083E-01, 1.105E-03, 9.935E+01
 3.000E+01, 4.226E+01, 4.215E+01, 3.394E+01, 4.042E+01, 5.241E+01, 3.519E+01, 3.928E+01, 5.199E+01, 2.086E+02, 2.065E-01, 2.115E-03, 1.660E+02
 4.001E+01, 5.339E+01, 5.404E+01, 3.892E+01, 5.230E+01, 6.895E+01, 3.994E+01, 5.375E+01, 6.844E+01, 2.758E+02, 2.052E-01, 2.793E-03, 2.001E+02
 5.001E+01, 6.592E+01, 6.680E+01, 4.507E+01, 6.842E+01, 8.427E+01, 4.692E+01, 6.965E+01, 8.384E+01, 2.295E+02, 2.032E-01, 3.941E-03, 2.005E+02
 6.001E+01, 7.810E+01, 7.900E+01, 5.477E+01, 8.314E+01, 9.638E+01, 5.622E+01, 8.372E+01, 9.708E+01, 1.853E+02, 2.017E-01, 4.781E-03, 2.008E+02
 7.001E+01, 8.994E+01, 8.918E+01, 6.591E+01, 9.730E+01, 1.066E+02, 6.597E+01, 9.441E+01, 1.072E+02, 1.447E+02, 2.006E-01, 5.414E-03, 2.007E+02
 8.001E+01, 9.792E+01, 9.912E+01, 7.458E+01, 1.042E+02, 1.150E+02, 7.603E+01, 1.047E+02, 1.167E+02, 1.078E+02, 1.986E-01, 6.502E-03, 2.005E+02
 9.001E+01, 1.063E+02, 1.075E+02, 8.428E+01, 1.126E+02, 1.219E+02, 8.533E+01, 1.121E+02, 1.249E+02, 7.976E+01, 1.973E-01, 7.225E-03, 2.004E+02
 1.000E+02, 1.131E+02, 1.147E+02, 9.178E+01, 1.201E+02, 1.275E+02, 9.216E+01, 1.184E+02, 1.337E+02, 6.238E+01, 1.959E-01, 8.018E-03, 2.004E+02
 1.100E+02, 1.200E+02, 1.209E+02, 9.933E+01, 1.268E+02, 1.339E+02, 1.001E+02, 1.243E+02, 1.383E+02, 4.658E+01, 1.950E-01, 8.532E-03, 2.005E+02
 1.200E+02, 1.261E+02, 1.253E+02, 1.058E+02, 1.324E+02, 1.401E+02, 1.059E+02, 1.304E+02, 1.396E+02, 3.567E+01, 1.936E-01, 9.288E-03, 2.004E+02
 1.300E+02, 1.299E+02, 1.294E+02, 1.107E+02, 1.346E+02, 1.444E+02, 1.103E+02, 1.351E+02, 1.428E+02, 2.722E+01, 1.922E-01, 1.007E-02, 2.003E+02
 1.400E+02, 1.340E+02, 1.339E+02, 1.163E+02, 1.403E+02, 1.454E+02, 1.160E+02, 1.389E+02, 1.468E+02, 2.382E+01, 1.910E-01, 1.076E-02, 2.007E+02
 1.500E+02, 1.352E+02, 1.351E+02, 1.178E+02, 1.410E+02, 1.469E+02, 1.170E+02, 1.390E+02, 1.491E+02, 1.871E+01, 1.896E-01, 1.154E-02, 2.001E+02
 1.600E+02, 1.391E+02, 1.390E+02, 1.191E+02, 1.453E+02, 1.529E+02, 1.208E+02, 1.447E+02, 1.517E+02, 1.661E+01, 1.878E-01, 1.252E-02, 2.004E+02
 1.700E+02, 1.431E+02, 1.406E+02, 1.236E+02, 1.498E+02, 1.561E+02, 1.201E+02, 1.443E+02, 1.574E+02, 1.565E+01, 1.859E-01, 1.359E-02, 2.007E+02
 1.800E+02, 1.433E+02, 1.430E+02, 1.259E+02, 1.489E+02, 1.550E+02, 1.223E+02, 1.454E+02, 1.612E+02, 1.456E+01, 1.843E-01, 1.452E-02, 2.004E+02
 1.900E+02, 1.421E+02, 1.414E+02, 1.278E+02, 1.465E+02, 1.520E+02, 1.220E+02, 1.430E+02, 1.593E+02, 1.423E+01, 1.832E-01, 1.510E-02, 1.998E+02
 2.000E+02, 1.465E+02, 1.416E+02, 1.393E+02, 1.477E+02, 1.525E+02, 1.216E+02, 1.410E+02, 1.623E+02, 1.361E+01, 1.816E-01, 1.599E-02, 2.006E+02
 2.100E+02, 1.498E+02, 1.439E+02, 1.377E+02, 1.526E+02, 1.591E+02, 1.256E+02, 1.466E+02, 1.596E+02, 1.337E+01, 1.803E-01, 1.671E-02, 2.007E+02
 2.200E+02, 1.525E+02, 1.437E+02, 1.373E+02, 1.534E+02, 1.669E+02, 1.289E+02, 1.457E+02, 1.565E+02, 1.284E+01, 1.791E-01, 1.737E-02, 2.000E+02
 2.300E+02, 1.510E+02, 1.463E+02, 1.375E+02, 1.514E+02, 1.641E+02, 1.322E+02, 1.486E+02, 1.580E+02, 1.272E+01, 1.770E-01, 1.857E-02, 2.005E+02
 2.400E+02, 1.478E+02, 1.494E+02, 1.326E+02, 1.494E+02, 1.614E+02, 1.395E+02, 1.520E+02, 1.567E+02, 1.289E+01, 1.757E-01, 1.928E-02, 2.018E+02
 2.500E+02, 1.479E+02, 1.500E+02, 1.345E+02, 1.493E+02, 1.599E+02, 1.372E+02, 1.535E+02, 1.594E+02, 1.216E+01, 1.739E-01, 2.033E-02, 2.002E+02
 2.600E+02, 1.494E+02, 1.510E+02, 1.329E+02, 1.533E+02, 1.621E+02, 1.397E+02, 1.542E+02, 1.590E+02, 1.269E+01, 1.730E-01, 2.080E-02, 1.995E+02
 2.700E+02, 1.461E+02, 1.516E+02, 1.296E+02, 1.478E+02, 1.609E+02, 1.399E+02, 1.536E+02, 1.614E+02, 1.251E+01, 1.713E-01, 2.178E-02, 2.004E+02
 2.800E+02, 1.467E+02, 1.498E+02, 1.325E+02, 1.476E+02, 1.600E+02, 1.351E+02, 1.518E+02, 1.624E+02, 1.253E+01, 1.686E-01, 2.327E-02, 2.004E+02
 2.900E+02, 1.478E+02, 1.531E+02, 1.338E+02, 1.508E+02, 1.587E+02, 1.369E+02, 1.560E+02, 1.665E+02, 1.250E+01, 1.667E-01, 2.431E-02, 2.000E+02
 3.000E+02, 1.487E+02, 1.508E+02, 1.376E+02, 1.498E+02, 1.587E+02, 1.362E+02, 1.536E+02, 1.627E+02, 1.237E+01, 1.661E-01, 2.467E-02, 1.993E+02
 3.100E+02, 1.497E+02, 1.504E+02, 1.388E+02, 1.523E+02, 1.581E+02, 1.328E+02, 1.501E+02, 1.682E+02, 1.248E+01, 1.635E-01, 2.610E-02, 2.000E+02
 3.200E+02, 1.482E+02, 1.519E+02, 1.390E+02, 1.511E+02, 1.545E+02, 1.378E+02, 1.507E+02, 1.673E+02, 1.256E+01, 1.623E-01, 2.679E-02, 1.982E+02
 3.300E+02, 1.521E+02, 1.644E+02, 1.442E+02, 1.540E+02, 1.582E+02, 1.403E+02, 1.713E+02, 1.816E+02, 1.313E+01, 1.602E-01, 2.796E-02, 1.998E+02
 3.400E+02, 1.499E+02, 1.638E+02, 1.421E+02, 1.508E+02, 1.568E+02, 1.401E+02, 1.672E+02, 1.842E+02, 1.281E+01, 1.579E-01, 2.922E-02, 2.001E+02
 3.500E+02, 1.538E+02, 1.545E+02, 1.448E+02, 1.571E+02, 1.596E+02, 1.383E+02, 1.548E+02, 1.702E+02, 1.219E+01, 1.571E-01, 2.970E-02, 1.987E+02
 3.600E+02, 1.523E+02, 1.509E+02, 1.432E+02, 1.543E+02, 1.594E+02, 1.365E+02, 1.528E+02, 1.634E+02, 1.289E+01, 1.560E-01, 3.032E-02, 2.010E+02
 3.700E+02, 1.554E+02, 1.512E+02, 1.423E+02, 1.585E+02, 1.655E+02, 1.360E+02, 1.539E+02, 1.637E+02, 1.282E+01, 1.549E-01, 3.094E-02, 1.989E+02
 3.800E+02, 1.577E+02, 1.502E+02, 1.444E+02, 1.590E+02, 1.696E+02, 1.357E+02, 1.520E+02, 1.628E+02, 1.284E+01, 1.527E-01, 3.217E-02, 2.003E+02
 3.900E+02, 1.563E+02, 1.522E+02, 1.406E+02, 1.563E+02, 1.719E+02, 1.381E+02, 1.559E+02, 1.626E+02, 1.293E+01, 1.513E-01, 3.294E-02, 2.004E+02
 4.000E+02, 1.568E+02, 1.547E+02, 1.391E+02, 1.617E+02, 1.695E+02, 1.404E+02, 1.595E+02, 1.642E+02, 1.272E+01, 1.499E-01, 3.370E-02, 2.005E+02
 4.100E+02, 1.551E+02, 1.552E+02, 1.386E+02, 1.583E+02, 1.683E+02, 1.423E+02, 1.590E+02, 1.643E+02, 1.286E+01, 1.482E-01, 3.465E-02, 2.007E+02
 4.200E+02, 1.540E+02, 1.564E+02, 1.364E+02, 1.572E+02, 1.685E+02, 1.443E+02, 1.609E+02, 1.639E+02, 1.235E+01, 1.465E-01, 3.562E-02, 1.987E+02
 4.300E+02, 1.521E+02, 1.561E+02, 1.332E+02, 1.553E+02, 1.679E+02, 1.462E+02, 1.583E+02, 1.638E+02, 1.301E+01, 1.445E-01, 3.673E-02, 1.999E+02
 4.400E+02, 1.531E+02, 1.547E+02, 1.349E+02, 1.541E+02, 1.703E+02, 1.429E+02, 1.577E+02, 1.635E+02, 1.305E+01, 1.429E-01, 3.762E-02, 2.004E+02
 4.500E+02, 1.542E+02, 1.583E+02, 1.383E+02, 1.558E+02, 1.686E+02, 1.442E+02, 1.578E+02, 1.730E+02, 1.327E+01, 1.411E-01, 3.862E-02, 1.993E+02
 4.600E+02, 1.530E+02, 1.630E+02, 1.393E+02, 1.556E+02, 1.640E+02, 1.457E+02, 1.690E+02, 1.743E+02, 1.290E+01, 1.392E-01, 3.972E-02, 1.989E+02
 4.700E+02, 1.546E+02, 1.601E+02, 1.421E+02, 1.589E+02, 1.628E+02, 1.397E+02, 1.639E+02, 1.766E+02, 1.349E+01, 1.370E-01, 4.091E-02, 2.006E+02
 4.800E+02, 1.587E+02, 1.566E+02, 1.464E+02, 1.623E+02, 1.673E+02, 1.410E+02, 1.580E+02, 1.708E+02, 1.230E+01, 1.352E-01, 4.194E-02, 1.993E+02
 4.900E+02, 1.569E+02, 1.546E+02, 1.392E+02, 1.613E+02, 1.702E+02, 1.406E+02, 1.578E+02, 1.653E+02, 1.168E+01, 1.341E-01, 4.252E-02, 1.956E+02
 5.000E+02, 1.564E+02, 1.544E+02, 1.384E+02, 1.619E+02, 1.690E+02, 1.357E+02, 1.603E+02, 1.673E+02, 7.593E+00, 1.323E-01, 4.355E-02, 1.825E+02
 5.100E+02, 1.534E+02, 1.542E+02, 1.367E+02, 1.585E+02, 1.649E+02, 1.355E+02, 1.610E+02, 1.661E+02, 3.226E+00, 1.314E-01, 4.401E-02, 1.745E+02
 5.200E+02, 1.514E+02, 1.517E+02, 1.341E+02, 1.570E+02, 1.630E+02, 1.351E+02, 1.583E+02, 1.616E+02, 1.122E+01, 1.305E-01, 4.454E-02, 1.787E+02
 5.300E+02, 1.486E+02, 1.502E+02, 1.326E+02, 1.535E+02, 1.596E+02, 1.315E+02, 1.579E+02, 1.613E+02,-1.475E+01, 1.297E-01, 4.493E-02, 1.445E+02
 5.400E+02, 1.465E+02, 1.480E+02, 1.292E+02, 1.516E+02, 1.586E+02, 1.302E+02, 1.551E+02, 1.587E+02, 3.032E+00, 1.284E-01, 4.561E-02, 1.491E+02
 5.500E+02, 1.427E+02, 1.451E+02, 1.270E+02, 1.464E+02, 1.547E+02, 1.301E+02, 1.504E+02, 1.549E+02, 5.411E+00, 1.280E-01, 4.585E-02, 1.529E+02
 5.600E+02, 1.419E+02, 1.423E+02, 1.254E+02, 1.463E+02, 1.540E+02, 1.268E+02, 1.466E+02, 1.536E+02,-2.120E+01, 1.274E-01, 4.612E-02, 1.189E+02
 5.700E+02, 1.383E+02, 1.392E+02, 1.238E+02, 1.414E+02, 1.496E+02, 1.251E+02, 1.424E+02, 1.502E+02,-9.742E+00, 1.271E-01, 4.629E-02, 1.167E+02
 5.800E+02, 1.346E+02, 1.363E+02, 1.213E+02, 1.382E+02, 1.444E+02, 1.227E+02, 1.402E+02, 1.461E+02,-1.355E+01, 1.275E-01, 4.598E-02, 1.042E+02
 5.900E+02, 1.296E+02, 1.478E+02, 1.180E+02, 1.328E+02, 1.382E+02, 1.600E+02, 1.398E+02, 1.437E+02,-1.858E+01, 1.281E-01, 4.561E-02, 4.993E+01
 6.000E+02, 1.258E+02, 1.751E+02, 1.167E+02, 1.282E+02, 1.325E+02, 2.176E+02, 1.583E+02, 1.495E+02,-1.357E+01, 1.295E-01, 4.472E-02, 7.019E+00
 6.100E+02, 1.242E+02, 1.386E+02, 1.192E+02, 1.255E+02, 1.280E+02, 1.494E+02, 1.322E+02, 1.344E+02,-3.627E+00, 1.301E-01, 4.437E-02, 0.000E+00
 6.200E+02, 1.214E+02, 1.233E+02, 1.169E+02, 1.221E+02, 1.253E+02, 1.196E+02, 1.223E+02, 1.279E+02,-4.476E+00, 1.309E-01, 4.384E-02, 0.000E+00
 6.300E+02, 1.187E+02, 1.209E+02, 1.151E+02, 1.196E+02, 1.215E+02, 1.197E+02, 1.208E+02, 1.223E+02,-7.970E+00, 1.314E-01, 4.359E-02, 3.490E+00
 6.400E+02, 1.140E+02, 1.137E+02, 1.098E+02, 1.145E+02, 1.178E+02, 1.085E+02, 1.136E+02, 1.189E+02,-1.019E+00, 1.320E-01, 4.307E-02, 2.348E+00
 6.500E+02, 1.102E+02, 1.093E+02, 1.055E+02, 1.115E+02, 1.135E+02, 1.048E+02, 1.085E+02, 1.145E+02,-5.844E-01, 1.320E-01, 4.309E-02, 0.000E+00
 6.600E+02, 1.066E+02, 1.053E+02, 1.023E+02, 1.078E+02, 1.097E+02, 9.949E+01, 1.056E+02, 1.109E+02, 2.418E+00, 1.317E-01, 4.321E-02, 0.000E+00
 6.700E+02, 1.052E+02, 1.061E+02, 1.009E+02, 1.060E+02, 1.087E+02, 1.023E+02, 1.058E+02, 1.102E+02, 2.286E+00, 1.316E-01, 4.318E-02, 0.000E+00
 6.800E+02, 1.033E+02, 1.040E+02, 1.002E+02, 1.039E+02, 1.059E+02, 1.023E+02, 1.033E+02, 1.064E+02, 2.301E+00, 1.321E-01, 4.295E-02, 0.000E+00
 6.900E+02, 1.002E+02, 1.020E+02, 9.692E+01, 1.011E+02, 1.027E+02, 9.949E+01, 1.020E+02, 1.044E+02, 3.568E+00, 1.319E-01, 4.287E-02, 0.000E+00
 7.000E+02, 9.843E+01, 9.709E+01, 9.497E+01, 9.938E+01, 1.009E+02, 9.134E+01, 9.795E+01, 1.020E+02, 3.249E+00, 1.319E-01, 4.285E-02, 0.000E+00
 7.100E+02, 9.710E+01, 9.609E+01, 9.308E+01, 9.801E+01, 1.002E+02, 9.087E+01, 9.720E+01, 1.002E+02, 3.470E+00, 1.320E-01, 4.268E-02, 0.000E+00
 7.200E+02, 9.419E+01, 9.441E+01, 8.912E+01, 9.585E+01, 9.761E+01, 8.940E+01, 9.503E+01, 9.878E+01, 4.341E+00, 1.322E-01, 4.261E-02, 0.000E+00
 7.300E+02, 9.290E+01, 9.266E+01, 8.929E+01, 9.373E+01, 9.570E+01, 8.770E+01, 9.315E+01, 9.711E+01, 4.473E+00, 1.319E-01, 4.257E-02, 0.000E+00
 7.400E+02, 9.242E+01, 9.135E+01, 9.005E+01, 9.312E+01, 9.410E+01, 8.690E+01, 9.166E+01, 9.547E+01, 4.073E+00, 1.319E-01, 4.256E-02, 0.000E+00
 7.500E+02, 9.034E+01, 8.997E+01, 8.748E+01, 9.112E+01, 9.242E+01, 8.624E+01, 9.053E+01, 9.314E+01, 4.780E+00, 1.322E-01, 4.237E-02, 0.000E+00
 7.600E+02, 8.875E+01, 8.804E+01, 8.594E+01, 8.933E+01, 9.097E+01, 8.351E+01, 8.892E+01, 9.168E+01, 4.834E+00, 1.319E-01, 4.241E-02, 0.000E+00
 7.700E+02, 8.774E+01, 8.723E+01, 8.476E+01, 8.861E+01, 8.986E+01, 8.336E+01, 8.781E+01, 9.052E+01, 4.418E+00, 1.318E-01, 4.226E-02, 0.000E+00
 7.801E+02, 8.618E+01, 8.572E+01, 8.300E+01, 8.724E+01, 8.831E+01, 8.223E+01, 8.592E+01, 8.902E+01, 4.911E+00, 1.319E-01, 4.225E-02, 0.000E+00
 7.900E+02, 8.496E+01, 8.530E+01, 8.228E+01, 8.591E+01, 8.668E+01, 8.260E+01, 8.546E+01, 8.783E+01, 4.446E+00, 1.319E-01, 4.221E-02, 0.000E+00
 8.000E+02, 8.389E+01, 8.315E+01, 8.123E+01, 8.470E+01, 8.574E+01, 7.935E+01, 8.397E+01, 8.613E+01, 4.630E+00, 1.319E-01, 4.221E-02, 0.000E+00
