s,C,C,C,C,C,C,C,C,Pa,mol/mol,mol/mol,kW
Time,"West_All_TCs","East_All_TCs","West_Bottom_TCs","West_Middle_TCs","West_Upper_TCs","East_Bottom_TCs","East_Middle_TCs","East_Upper_TCs","Pressure","O2","CO2","HRR"
-6.000E+01, 2.200E+01, 2.200E+01, 2.200E+01, 2.200E+01, 2.200E+01, 2.200E+01, 2.200E+01, 2.200E+01,-9.732E-06, 2.095E-01, 3.901E-04, 0.000E+00
-4.999E+01, 2.200E+01, 2.200E+01, 2.200E+01, 2.200E+01, 2.200E+01, 2.200E+01, 2.200E+01, 2.200E+01,-1.289E-05, 2.095E-01, 3.901E-04, 0.000E+00
-3.999E+01, 2.200E+01, 2.200E+01, 2.200E+01, 2.200E+01, 2.200E+01, 2.200E+01, 2.200E+01, 2.200E+01,-9.539E-06, 2.095E-01, 3.901E-04, 0.000E+00
-2.998E+01, 2.200E+01, 2.200E+01, 2.200E+01, 2.200E+01, 2.200E+01, 2.200E+01, 2.200E+01, 2.200E+01,-2.337E-06, 2.095E-01, 3.901E-04, 0.000E+00
-1.997E+01, 2.200E+01, 2.200E+01, 2.200E+01, 2.200E+01, 2.200E+01, 2.200E+01, 2.200E+01, 2.200E+01,-6.086E-07, 2.095E-01, 3.901E-04, 0.000E+00
-9.967E+00, 2.200E+01, 2.200E+01, 2.200E+01, 2.200E+01, 2.200E+01, 2.200E+01, 2.200E+01, 2.200E+01, 3.598E-07, 2.095E-01, 3.901E-04, 0.000E+00
 3.957E-02, 2.200E+01, 2.200E+01, 2.200E+01, 2.200E+01, 2.200E+01, 2.200E+01, 2.200E+01, 2.200E+01,-2.358E-07, 2.095E-01, 3.901E-04, 3.536E-04
 1.002E+01, 2.224E+01, 2.228E+01, 2.231E+01, 2.212E+01, 2.229E+01, 2.238E+01, 2.214E+01, 2.233E+01, 2.328E-02, 2.094E-01, 4.485E-04, 1.643E+01
 2.000E+01, 2.313E+01, 2.333E+01, 2.305E+01, 2.246E+01, 2.389E+01, 2.329E+01, 2.253E+01, 2.416E+01, 6.281E-02, 2.087E-01, 8.643E-04, 4.958E+01
 3.001E+01, 2.685E+01, 2.719E+01, 2.404E+01, 2.522E+01, 3.130E+01, 2.446E+01, 2.524E+01, 3.189E+01, 5.024E-01, 2.082E-01, 1.125E-03, 8.298E+01
 4.000E+01, 3.232E+01, 3.283E+01, 2.503E+01, 3.074E+01, 4.119E+01, 2.526E+01, 3.204E+01, 4.118E+01, 1.125E+00, 2.074E-01, 1.573E-03, 1.001E+02
 5.002E+01, 3.808E+01, 3.794E+01, 2.645E+01, 3.736E+01, 5.044E+01, 2.680E+01, 3.834E+01, 4.867E+01, 1.990E+00, 2.065E-01, 2.100E-03, 1.001E+02
 6.002E+01, 4.350E+01, 4.364E+01, 2.818E+01, 4.588E+01, 5.644E+01, 2.864E+01, 4.577E+01, 5.650E+01, 2.684E+00, 2.056E-01, 2.570E-03, 1.000E+02
 7.001E+01, 4.833E+01, 4.845E+01, 3.019E+01, 5.310E+01, 6.171E+01, 3.176E+01, 5.125E+01, 6.233E+01, 3.215E+00, 2.049E-01, 3.009E-03, 1.001E+02
 8.001E+01, 5.275E+01, 5.278E+01, 3.319E+01, 5.749E+01, 6.757E+01, 3.478E+01, 5.807E+01, 6.550E+01, 3.638E+00, 2.046E-01, 3.158E-03, 1.002E+02
 9.000E+01, 5.628E+01, 5.672E+01, 3.637E+01, 6.245E+01, 7.003E+01, 3.741E+01, 6.415E+01, 6.859E+01, 4.101E+00, 2.041E-01, 3.423E-03, 1.003E+02
 1.000E+02, 5.914E+01, 5.914E+01, 3.911E+01, 6.659E+01, 7.172E+01, 3.930E+01, 6.716E+01, 7.096E+01, 4.341E+00, 2.037E-01, 3.660E-03, 1.001E+02
 1.100E+02, 6.113E+01, 6.087E+01, 4.089E+01, 6.876E+01, 7.374E+01, 4.141E+01, 6.855E+01, 7.266E+01, 4.585E+00, 2.034E-01, 3.814E-03, 1.001E+02
 1.200E+02, 6.254E+01, 6.312E+01, 4.203E+01, 7.012E+01, 7.548E+01, 4.237E+01, 7.173E+01, 7.527E+01, 4.801E+00, 2.031E-01, 3.978E-03, 1.001E+02
 1.300E+02, 6.430E+01, 6.412E+01, 4.258E+01, 7.151E+01, 7.882E+01, 4.248E+01, 7.320E+01, 7.667E+01, 4.904E+00, 2.028E-01, 4.156E-03, 1.001E+02
 1.400E+02, 6.597E+01, 6.580E+01, 4.518E+01, 7.257E+01, 8.017E+01, 4.341E+01, 7.570E+01, 7.829E+01, 5.116E+00, 2.025E-01, 4.333E-03, 1.004E+02
 1.500E+02, 6.591E+01, 6.604E+01, 4.466E+01, 7.308E+01, 7.998E+01, 4.423E+01, 7.634E+01, 7.754E+01, 5.131E+00, 2.024E-01, 4.393E-03, 9.999E+01
 1.600E+02, 6.650E+01, 6.770E+01, 4.579E+01, 7.239E+01, 8.133E+01, 4.775E+01, 7.653E+01, 7.882E+01, 5.291E+00, 2.022E-01, 4.515E-03, 1.001E+02
 1.700E+02, 6.690E+01, 6.876E+01, 4.610E+01, 7.311E+01, 8.150E+01, 4.808E+01, 7.855E+01, 7.965E+01, 5.233E+00, 2.018E-01, 4.711E-03, 1.006E+02
 1.800E+02, 6.722E+01, 6.873E+01, 4.549E+01, 7.460E+01, 8.158E+01, 4.824E+01, 7.790E+01, 8.006E+01, 5.247E+00, 2.017E-01, 4.749E-03, 1.002E+02
 1.900E+02, 6.814E+01, 7.035E+01, 4.583E+01, 7.502E+01, 8.357E+01, 4.929E+01, 7.938E+01, 8.239E+01, 5.252E+00, 2.012E-01, 5.077E-03, 1.002E+02
 2.000E+02, 6.826E+01, 6.995E+01, 4.627E+01, 7.512E+01, 8.338E+01, 4.871E+01, 7.847E+01, 8.268E+01, 5.234E+00, 2.010E-01, 5.170E-03, 1.001E+02
 2.100E+02, 6.944E+01, 7.037E+01, 4.599E+01, 7.780E+01, 8.453E+01, 4.926E+01, 7.839E+01, 8.347E+01, 5.333E+00, 2.009E-01, 5.222E-03, 1.002E+02
 2.200E+02, 6.988E+01, 7.027E+01, 4.688E+01, 7.811E+01, 8.464E+01, 4.867E+01, 7.916E+01, 8.298E+01, 5.399E+00, 2.007E-01, 5.326E-03, 1.002E+02
 2.300E+02, 6.961E+01, 7.032E+01, 4.693E+01, 7.758E+01, 8.431E+01, 4.947E+01, 7.917E+01, 8.232E+01, 5.449E+00, 2.006E-01, 5.407E-03, 1.004E+02
 2.400E+02, 7.011E+01, 7.084E+01, 4.734E+01, 7.786E+01, 8.514E+01, 4.925E+01, 7.971E+01, 8.355E+01, 5.465E+00, 2.003E-01, 5.553E-03, 1.001E+02
 2.500E+02, 7.071E+01, 7.105E+01, 4.778E+01, 7.822E+01, 8.613E+01, 4.897E+01, 8.057E+01, 8.361E+01, 5.459E+00, 2.005E-01, 5.443E-03, 1.007E+02
 2.600E+02, 6.991E+01, 7.160E+01, 4.722E+01, 7.699E+01, 8.551E+01, 5.050E+01, 7.952E+01, 8.479E+01, 5.537E+00, 2.003E-01, 5.579E-03, 1.005E+02
 2.700E+02, 7.058E+01, 7.240E+01, 4.743E+01, 7.817E+01, 8.615E+01, 5.057E+01, 8.214E+01, 8.448E+01, 5.461E+00, 2.000E-01, 5.723E-03, 1.006E+02
 2.800E+02, 7.085E+01, 7.243E+01, 4.697E+01, 7.857E+01, 8.700E+01, 4.995E+01, 8.219E+01, 8.514E+01, 5.460E+00, 2.000E-01, 5.711E-03, 1.001E+02
 2.900E+02, 7.136E+01, 7.239E+01, 4.651E+01, 8.087E+01, 8.670E+01, 5.051E+01, 8.154E+01, 8.513E+01, 5.556E+00, 1.999E-01, 5.787E-03, 1.004E+02
 3.000E+02, 7.128E+01, 7.216E+01, 4.647E+01, 8.074E+01, 8.661E+01, 4.999E+01, 8.215E+01, 8.433E+01, 5.540E+00, 1.999E-01, 5.772E-03, 1.004E+02
 3.100E+02, 7.045E+01, 7.249E+01, 4.664E+01, 7.831E+01, 8.639E+01, 4.992E+01, 8.171E+01, 8.584E+01, 5.619E+00, 1.996E-01, 5.922E-03, 1.002E+02
 3.200E+02, 7.086E+01, 7.198E+01, 4.605E+01, 7.848E+01, 8.804E+01, 4.948E+01, 8.116E+01, 8.530E+01, 5.531E+00, 1.995E-01, 6.000E-03, 1.002E+02
 3.300E+02, 7.046E+01, 7.248E+01, 4.679E+01, 7.900E+01, 8.559E+01, 4.932E+01, 8.224E+01, 8.589E+01, 5.505E+00, 1.997E-01, 5.909E-03, 1.006E+02
 3.400E+02, 7.042E+01, 7.219E+01, 4.702E+01, 7.838E+01, 8.586E+01, 5.025E+01, 8.144E+01, 8.487E+01, 5.591E+00, 1.997E-01, 5.914E-03, 1.002E+02
 3.500E+02, 7.180E+01, 7.248E+01, 4.687E+01, 8.076E+01, 8.777E+01, 5.046E+01, 8.201E+01, 8.498E+01, 5.616E+00, 1.995E-01, 6.024E-03, 1.003E+02
 3.600E+02, 7.096E+01, 7.200E+01, 4.745E+01, 7.920E+01, 8.625E+01, 5.088E+01, 8.029E+01, 8.484E+01, 5.653E+00, 1.995E-01, 6.005E-03, 1.004E+02
 3.700E+02, 7.112E+01, 7.232E+01, 4.755E+01, 7.948E+01, 8.633E+01, 4.976E+01, 8.143E+01, 8.577E+01, 5.621E+00, 1.994E-01, 6.062E-03, 1.002E+02
 3.800E+02, 7.106E+01, 7.230E+01, 4.637E+01, 7.985E+01, 8.696E+01, 4.926E+01, 8.195E+01, 8.569E+01, 5.683E+00, 1.993E-01, 6.127E-03, 1.001E+02
 3.900E+02, 7.135E+01, 7.284E+01, 4.695E+01, 8.030E+01, 8.682E+01, 5.003E+01, 8.217E+01, 8.633E+01, 5.602E+00, 1.993E-01, 6.090E-03, 1.002E+02
 4.000E+02, 7.090E+01, 7.298E+01, 4.699E+01, 7.952E+01, 8.619E+01, 5.021E+01, 8.156E+01, 8.718E+01, 5.562E+00, 1.993E-01, 6.109E-03, 1.002E+02
 4.100E+02, 7.209E+01, 7.305E+01, 4.711E+01, 8.062E+01, 8.854E+01, 5.042E+01, 8.220E+01, 8.653E+01, 5.642E+00, 1.992E-01, 6.143E-03, 1.002E+02
 4.200E+02, 7.204E+01, 7.362E+01, 4.758E+01, 8.143E+01, 8.712E+01, 4.994E+01, 8.367E+01, 8.725E+01, 5.685E+00, 1.994E-01, 6.070E-03, 1.006E+02
 4.300E+02, 7.109E+01, 7.372E+01, 4.670E+01, 8.011E+01, 8.646E+01, 5.036E+01, 8.307E+01, 8.772E+01, 5.673E+00, 1.993E-01, 6.116E-03, 1.001E+02
 4.400E+02, 7.157E+01, 7.233E+01, 4.710E+01, 7.992E+01, 8.768E+01, 5.022E+01, 8.102E+01, 8.577E+01, 5.653E+00, 1.992E-01, 6.165E-03, 1.003E+02
 4.500E+02, 7.117E+01, 7.275E+01, 4.713E+01, 7.916E+01, 8.721E+01, 5.008E+01, 8.175E+01, 8.644E+01, 5.727E+00, 1.993E-01, 6.143E-03, 1.002E+02
 4.600E+02, 7.175E+01, 7.305E+01, 4.766E+01, 8.010E+01, 8.748E+01, 4.991E+01, 8.139E+01, 8.787E+01, 5.652E+00, 1.992E-01, 6.176E-03, 1.004E+02
 4.700E+02, 7.194E+01, 7.295E+01, 4.718E+01, 8.138E+01, 8.727E+01, 4.968E+01, 8.185E+01, 8.734E+01, 5.678E+00, 1.993E-01, 6.108E-03, 1.005E+02
 4.800E+02, 7.129E+01, 7.319E+01, 4.721E+01, 8.012E+01, 8.655E+01, 5.024E+01, 8.095E+01, 8.839E+01, 5.680E+00, 1.991E-01, 6.218E-03, 1.002E+02
 4.900E+02, 7.277E+01, 7.370E+01, 4.804E+01, 8.228E+01, 8.800E+01, 5.043E+01, 8.269E+01, 8.797E+01, 5.697E+00, 1.992E-01, 6.156E-03, 1.004E+02
 5.000E+02, 7.211E+01, 7.315E+01, 4.784E+01, 8.057E+01, 8.792E+01, 5.202E+01, 8.065E+01, 8.679E+01, 5.737E+00, 1.993E-01, 6.092E-03, 1.002E+02
 5.100E+02, 7.264E+01, 7.396E+01, 4.891E+01, 8.208E+01, 8.693E+01, 5.057E+01, 8.156E+01, 8.973E+01, 5.661E+00, 1.993E-01, 6.092E-03, 1.006E+02
 5.200E+02, 7.297E+01, 7.358E+01, 4.915E+01, 8.210E+01, 8.765E+01, 5.114E+01, 8.077E+01, 8.882E+01, 5.679E+00, 1.994E-01, 6.076E-03, 1.001E+02
 5.300E+02, 7.299E+01, 7.380E+01, 4.908E+01, 8.251E+01, 8.738E+01, 5.120E+01, 8.239E+01, 8.782E+01, 5.610E+00, 1.995E-01, 6.011E-03, 1.003E+02
 5.400E+02, 7.263E+01, 7.356E+01, 4.896E+01, 8.095E+01, 8.798E+01, 5.118E+01, 8.203E+01, 8.747E+01, 5.617E+00, 1.994E-01, 6.079E-03, 1.003E+02
 5.500E+02, 7.374E+01, 7.496E+01, 4.934E+01, 8.337E+01, 8.850E+01, 5.126E+01, 8.460E+01, 8.903E+01, 5.682E+00, 1.994E-01, 6.037E-03, 1.005E+02
 5.600E+02, 7.355E+01, 7.483E+01, 4.891E+01, 8.327E+01, 8.848E+01, 5.231E+01, 8.254E+01, 8.965E+01, 5.689E+00, 1.993E-01, 6.107E-03, 1.002E+02
 5.700E+02, 7.368E+01, 7.397E+01, 5.134E+01, 8.336E+01, 8.634E+01, 5.216E+01, 8.143E+01, 8.831E+01, 5.620E+00, 1.994E-01, 6.044E-03, 1.005E+02
 5.800E+02, 7.354E+01, 7.419E+01, 4.943E+01, 8.228E+01, 8.890E+01, 5.222E+01, 8.137E+01, 8.897E+01, 5.685E+00, 1.994E-01, 6.078E-03, 1.001E+02
 5.900E+02, 7.348E+01, 7.445E+01, 4.814E+01, 8.275E+01, 8.954E+01, 5.136E+01, 8.279E+01, 8.919E+01, 5.726E+00, 1.992E-01, 6.183E-03, 1.004E+02
 6.000E+02, 7.410E+01, 7.400E+01, 4.987E+01, 8.433E+01, 8.810E+01, 5.115E+01, 8.168E+01, 8.917E+01, 5.654E+00, 1.991E-01, 6.200E-03, 1.003E+02
 6.100E+02, 7.396E+01, 7.461E+01, 4.911E+01, 8.471E+01, 8.807E+01, 5.129E+01, 8.267E+01, 8.988E+01, 5.702E+00, 1.994E-01, 6.058E-03, 1.002E+02
 6.200E+02, 7.438E+01, 7.467E+01, 5.006E+01, 8.497E+01, 8.811E+01, 5.173E+01, 8.158E+01, 9.069E+01, 5.728E+00, 1.993E-01, 6.103E-03, 1.003E+02
 6.300E+02, 7.458E+01, 7.499E+01, 5.177E+01, 8.449E+01, 8.748E+01, 5.231E+01, 8.352E+01, 8.913E+01, 5.659E+00, 1.996E-01, 5.942E-03, 1.002E+02
 6.400E+02, 7.459E+01, 7.463E+01, 5.113E+01, 8.584E+01, 8.680E+01, 5.148E+01, 8.329E+01, 8.912E+01, 5.629E+00, 1.993E-01, 6.129E-03, 1.000E+02
 6.500E+02, 7.404E+01, 7.454E+01, 4.979E+01, 8.390E+01, 8.842E+01, 5.108E+01, 8.232E+01, 9.021E+01, 5.735E+00, 1.994E-01, 6.037E-03, 1.005E+02
 6.600E+02, 7.440E+01, 7.476E+01, 5.029E+01, 8.464E+01, 8.826E+01, 5.200E+01, 8.292E+01, 8.935E+01, 5.757E+00, 1.993E-01, 6.135E-03, 1.002E+02
 6.700E+02, 7.412E+01, 7.473E+01, 5.031E+01, 8.453E+01, 8.753E+01, 5.087E+01, 8.229E+01, 9.102E+01, 5.773E+00, 1.993E-01, 6.131E-03, 1.001E+02
 6.800E+02, 7.531E+01, 7.422E+01, 5.229E+01, 8.459E+01, 8.906E+01, 5.111E+01, 8.302E+01, 8.854E+01, 5.803E+00, 1.996E-01, 5.965E-03, 1.005E+02
 6.900E+02, 7.387E+01, 7.394E+01, 5.224E+01, 8.217E+01, 8.718E+01, 5.207E+01, 8.115E+01, 8.861E+01, 5.793E+00, 1.995E-01, 6.021E-03, 1.004E+02
 7.000E+02, 7.437E+01, 7.441E+01, 5.465E+01, 8.188E+01, 8.658E+01, 5.200E+01, 8.260E+01, 8.862E+01, 5.703E+00, 1.995E-01, 6.015E-03, 1.002E+02
 7.100E+02, 7.398E+01, 7.417E+01, 5.149E+01, 8.286E+01, 8.760E+01, 5.219E+01, 8.152E+01, 8.880E+01, 5.775E+00, 1.993E-01, 6.132E-03, 1.003E+02
 7.200E+02, 7.421E+01, 7.493E+01, 5.167E+01, 8.148E+01, 8.948E+01, 5.322E+01, 8.214E+01, 8.944E+01, 5.699E+00, 1.993E-01, 6.117E-03, 1.002E+02
 7.300E+02, 7.494E+01, 7.505E+01, 5.115E+01, 8.496E+01, 8.871E+01, 5.255E+01, 8.216E+01, 9.045E+01, 5.711E+00, 1.993E-01, 6.096E-03, 1.002E+02
 7.400E+02, 7.453E+01, 7.509E+01, 5.031E+01, 8.333E+01, 8.995E+01, 5.260E+01, 8.245E+01, 9.020E+01, 5.741E+00, 1.993E-01, 6.106E-03, 1.002E+02
 7.500E+02, 7.511E+01, 7.662E+01, 5.095E+01, 8.516E+01, 8.922E+01, 5.283E+01, 8.476E+01, 9.226E+01, 5.821E+00, 1.991E-01, 6.202E-03, 1.004E+02
 7.600E+02, 7.422E+01, 7.554E+01, 4.828E+01, 8.394E+01, 9.045E+01, 5.273E+01, 8.305E+01, 9.084E+01, 5.770E+00, 1.991E-01, 6.232E-03, 1.002E+02
 7.700E+02, 7.565E+01, 7.546E+01, 5.052E+01, 8.570E+01, 9.072E+01, 5.186E+01, 8.370E+01, 9.080E+01, 5.823E+00, 1.992E-01, 6.158E-03, 1.002E+02
 7.800E+02, 7.421E+01, 7.522E+01, 4.844E+01, 8.491E+01, 8.930E+01, 5.255E+01, 8.318E+01, 8.993E+01, 5.812E+00, 1.991E-01, 6.225E-03, 1.000E+02
 7.900E+02, 7.451E+01, 7.552E+01, 4.891E+01, 8.541E+01, 8.922E+01, 5.196E+01, 8.294E+01, 9.165E+01, 5.796E+00, 1.992E-01, 6.150E-03, 1.003E+02
 8.000E+02, 7.486E+01, 7.524E+01, 5.088E+01, 8.526E+01, 8.843E+01, 5.134E+01, 8.327E+01, 9.110E+01, 5.877E+00, 1.994E-01, 6.077E-03, 1.003E+02
 8.100E+02, 7.549E+01, 7.472E+01, 5.279E+01, 8.509E+01, 8.859E+01, 5.076E+01, 8.285E+01, 9.055E+01, 5.886E+00, 1.995E-01, 6.003E-03, 1.003E+02
 8.200E+02, 7.488E+01, 7.538E+01, 5.317E+01, 8.420E+01, 8.726E+01, 5.348E+01, 8.222E+01, 9.043E+01, 5.811E+00, 1.998E-01, 5.863E-03, 1.003E+02
 8.300E+02, 7.416E+01, 7.484E+01, 4.956E+01, 8.444E+01, 8.848E+01, 5.247E+01, 8.312E+01, 8.894E+01, 5.774E+00, 1.995E-01, 6.001E-03, 1.001E+02
 8.400E+02, 7.438E+01, 7.523E+01, 5.019E+01, 8.387E+01, 8.908E+01, 5.216E+01, 8.299E+01, 9.054E+01, 5.743E+00, 1.996E-01, 5.965E-03, 1.000E+02
 8.500E+02, 7.528E+01, 7.557E+01, 5.005E+01, 8.637E+01, 8.941E+01, 5.292E+01, 8.349E+01, 9.031E+01, 5.761E+00, 1.994E-01, 6.041E-03, 1.005E+02
 8.600E+02, 7.568E+01, 7.642E+01, 5.180E+01, 8.552E+01, 8.972E+01, 5.272E+01, 8.442E+01, 9.213E+01, 5.803E+00, 1.995E-01, 6.009E-03, 1.003E+02
 8.700E+02, 7.582E+01, 7.493E+01, 5.260E+01, 8.599E+01, 8.887E+01, 5.171E+01, 8.290E+01, 9.018E+01, 5.878E+00, 1.995E-01, 5.980E-03, 1.002E+02
 8.800E+02, 7.545E+01, 7.706E+01, 5.188E+01, 8.493E+01, 8.955E+01, 5.412E+01, 8.595E+01, 9.109E+01, 5.791E+00, 1.994E-01, 6.045E-03, 9.964E+01
 8.900E+02, 7.566E+01, 7.612E+01, 5.325E+01, 8.479E+01, 8.893E+01, 5.335E+01, 8.452E+01, 9.050E+01, 5.860E+00, 1.997E-01, 5.898E-03, 1.004E+02
 9.000E+02, 7.505E+01, 7.645E+01, 5.075E+01, 8.423E+01, 9.017E+01, 5.199E+01, 8.387E+01, 9.350E+01, 5.764E+00, 1.995E-01, 6.021E-03, 1.004E+02
 9.100E+02, 7.644E+01, 7.566E+01, 5.424E+01, 8.521E+01, 8.987E+01, 5.224E+01, 8.405E+01, 9.067E+01, 5.810E+00, 1.998E-01, 5.815E-03, 1.000E+02
 9.200E+02, 7.490E+01, 7.530E+01, 5.061E+01, 8.488E+01, 8.922E+01, 5.250E+01, 8.287E+01, 9.051E+01, 5.894E+00, 1.996E-01, 5.966E-03, 1.001E+02
 9.300E+02, 7.607E+01, 7.660E+01, 5.231E+01, 8.468E+01, 9.122E+01, 5.376E+01, 8.456E+01, 9.147E+01, 5.898E+00, 1.998E-01, 5.840E-03, 1.002E+02
 9.400E+02, 7.571E+01, 7.609E+01, 5.170E+01, 8.515E+01, 9.028E+01, 5.561E+01, 8.326E+01, 8.941E+01, 5.876E+00, 1.997E-01, 5.910E-03, 1.004E+02
 9.500E+02, 7.564E+01, 7.577E+01, 5.167E+01, 8.501E+01, 9.023E+01, 5.461E+01, 8.240E+01, 9.029E+01, 5.915E+00, 1.997E-01, 5.908E-03, 1.002E+02
 9.600E+02, 7.622E+01, 7.570E+01, 5.181E+01, 8.684E+01, 9.001E+01, 5.378E+01, 8.289E+01, 9.042E+01, 5.830E+00, 1.996E-01, 5.946E-03, 1.005E+02
 9.700E+02, 7.574E+01, 7.574E+01, 5.066E+01, 8.665E+01, 8.991E+01, 5.341E+01, 8.316E+01, 9.066E+01, 5.836E+00, 1.994E-01, 6.079E-03, 1.003E+02
 9.800E+02, 7.652E+01, 7.630E+01, 5.196E+01, 8.726E+01, 9.035E+01, 5.299E+01, 8.457E+01, 9.136E+01, 5.823E+00, 1.994E-01, 6.054E-03, 1.001E+02
 9.900E+02, 7.594E+01, 7.582E+01, 5.199E+01, 8.693E+01, 8.890E+01, 5.271E+01, 8.389E+01, 9.087E+01, 5.872E+00, 1.995E-01, 5.982E-03, 1.003E+02
 1.000E+03, 7.603E+01, 7.534E+01, 5.326E+01, 8.609E+01, 8.874E+01, 5.225E+01, 8.252E+01, 9.126E+01, 5.946E+00, 1.998E-01, 5.843E-03, 9.997E+01
 1.010E+03, 7.541E+01, 7.579E+01, 5.354E+01, 8.362E+01, 8.907E+01, 5.195E+01, 8.359E+01, 9.183E+01, 5.863E+00, 1.997E-01, 5.911E-03, 1.002E+02
 1.020E+03, 7.628E+01, 7.595E+01, 5.232E+01, 8.613E+01, 9.038E+01, 5.280E+01, 8.321E+01, 9.183E+01, 5.921E+00, 1.995E-01, 6.003E-03, 1.005E+02
 1.030E+03, 7.570E+01, 7.573E+01, 5.193E+01, 8.510E+01, 9.009E+01, 5.334E+01, 8.279E+01, 9.105E+01, 5.887E+00, 1.995E-01, 5.987E-03, 1.002E+02
 1.040E+03, 7.573E+01, 7.706E+01, 5.199E+01, 8.493E+01, 9.028E+01, 5.426E+01, 8.540E+01, 9.151E+01, 5.928E+00, 1.996E-01, 5.946E-03, 1.006E+02
 1.050E+03, 7.589E+01, 7.639E+01, 5.076E+01, 8.701E+01, 8.988E+01, 5.356E+01, 8.403E+01, 9.157E+01, 5.893E+00, 1.994E-01, 6.079E-03, 1.001E+02
 1.060E+03, 7.611E+01, 7.655E+01, 5.238E+01, 8.635E+01, 8.961E+01, 5.251E+01, 8.457E+01, 9.256E+01, 5.836E+00, 1.996E-01, 5.969E-03, 1.000E+02
 1.070E+03, 7.701E+01, 7.573E+01, 5.403E+01, 8.716E+01, 8.985E+01, 5.125E+01, 8.470E+01, 9.123E+01, 5.879E+00, 1.998E-01, 5.862E-03, 1.005E+02
 1.080E+03, 7.831E+01, 7.567E+01, 5.470E+01, 8.867E+01, 9.154E+01, 5.219E+01, 8.454E+01, 9.029E+01, 6.153E+00, 1.997E-01, 5.904E-03, 1.003E+02
 1.090E+03, 7.632E+01, 7.719E+01, 5.418E+01, 8.483E+01, 8.996E+01, 5.436E+01, 8.515E+01, 9.206E+01, 5.998E+00, 1.996E-01, 5.923E-03, 1.004E+02
 1.100E+03, 7.646E+01, 7.638E+01, 5.374E+01, 8.562E+01, 9.002E+01, 5.368E+01, 8.435E+01, 9.111E+01, 5.877E+00, 1.997E-01, 5.865E-03, 1.002E+02
 1.110E+03, 7.652E+01, 7.599E+01, 5.283E+01, 8.715E+01, 8.958E+01, 5.403E+01, 8.363E+01, 9.030E+01, 5.819E+00, 1.996E-01, 5.971E-03, 1.002E+02
 1.120E+03, 7.655E+01, 7.645E+01, 5.229E+01, 8.689E+01, 9.046E+01, 5.321E+01, 8.479E+01, 9.136E+01, 5.887E+00, 1.996E-01, 5.969E-03, 1.003E+02
 1.130E+03, 7.652E+01, 7.751E+01, 5.075E+01, 8.772E+01, 9.108E+01, 5.202E+01, 8.603E+01, 9.448E+01, 5.873E+00, 1.995E-01, 6.031E-03, 1.001E+02
 1.140E+03, 7.579E+01, 7.674E+01, 5.167E+01, 8.639E+01, 8.931E+01, 5.235E+01, 8.572E+01, 9.214E+01, 5.900E+00, 1.996E-01, 5.934E-03, 1.003E+02
 1.150E+03, 7.647E+01, 7.598E+01, 5.394E+01, 8.599E+01, 8.949E+01, 5.260E+01, 8.372E+01, 9.163E+01, 5.944E+00, 1.997E-01, 5.913E-03, 1.006E+02
 1.160E+03, 7.665E+01, 7.604E+01, 5.268E+01, 8.602E+01, 9.126E+01, 5.276E+01, 8.327E+01, 9.208E+01, 5.871E+00, 1.995E-01, 6.024E-03, 1.000E+02
 1.170E+03, 7.598E+01, 7.524E+01, 5.160E+01, 8.637E+01, 8.998E+01, 5.227E+01, 8.084E+01, 9.260E+01, 5.928E+00, 1.995E-01, 5.996E-03, 1.005E+02
 1.180E+03, 7.671E+01, 7.596E+01, 5.194E+01, 8.781E+01, 9.039E+01, 5.144E+01, 8.258E+01, 9.387E+01, 5.933E+00, 1.996E-01, 5.975E-03, 1.003E+02
 1.190E+03, 7.622E+01, 7.586E+01, 5.133E+01, 8.760E+01, 8.974E+01, 5.098E+01, 8.294E+01, 9.366E+01, 6.001E+00, 1.995E-01, 5.980E-03, 1.004E+02
 1.200E+03, 7.640E+01, 7.600E+01, 5.330E+01, 8.598E+01, 8.994E+01, 5.173E+01, 8.348E+01, 9.279E+01, 5.955E+00, 1.998E-01, 5.824E-03, 1.005E+02
 1.210E+03, 7.660E+01, 7.599E+01, 5.343E+01, 8.625E+01, 9.010E+01, 5.195E+01, 8.425E+01, 9.176E+01, 6.012E+00, 1.998E-01, 5.841E-03, 1.006E+02
 1.220E+03, 7.600E+01, 7.622E+01, 5.235E+01, 8.560E+01, 9.006E+01, 5.270E+01, 8.458E+01, 9.139E+01, 5.923E+00, 1.996E-01, 5.926E-03, 1.001E+02
 1.230E+03, 7.622E+01, 7.651E+01, 5.219E+01, 8.534E+01, 9.112E+01, 5.298E+01, 8.488E+01, 9.168E+01, 6.007E+00, 1.996E-01, 5.960E-03, 1.003E+02
 1.240E+03, 7.650E+01, 7.651E+01, 5.087E+01, 8.682E+01, 9.181E+01, 5.291E+01, 8.508E+01, 9.154E+01, 5.987E+00, 1.996E-01, 5.962E-03, 1.001E+02
 1.250E+03, 7.624E+01, 7.672E+01, 5.067E+01, 8.605E+01, 9.200E+01, 5.266E+01, 8.510E+01, 9.241E+01, 6.002E+00, 1.995E-01, 5.983E-03, 1.001E+02
 1.260E+03, 7.597E+01, 7.723E+01, 4.972E+01, 8.625E+01, 9.194E+01, 5.282E+01, 8.466E+01, 9.422E+01, 5.991E+00, 1.996E-01, 5.954E-03, 1.004E+02
 1.270E+03, 7.641E+01, 7.780E+01, 5.173E+01, 8.652E+01, 9.100E+01, 5.338E+01, 8.754E+01, 9.247E+01, 6.009E+00, 2.000E-01, 5.717E-03, 1.006E+02
 1.280E+03, 7.649E+01, 7.672E+01, 5.054E+01, 8.676E+01, 9.217E+01, 5.404E+01, 8.447E+01, 9.167E+01, 6.009E+00, 1.997E-01, 5.915E-03, 1.003E+02
 1.290E+03, 7.756E+01, 7.733E+01, 5.313E+01, 8.623E+01, 9.332E+01, 5.344E+01, 8.549E+01, 9.305E+01, 6.009E+00, 1.996E-01, 5.934E-03, 1.001E+02
 1.300E+03, 7.686E+01, 7.701E+01, 5.244E+01, 8.667E+01, 9.148E+01, 5.316E+01, 8.562E+01, 9.226E+01, 6.060E+00, 1.997E-01, 5.886E-03, 1.001E+02
 1.310E+03, 7.651E+01, 7.687E+01, 5.287E+01, 8.592E+01, 9.075E+01, 5.382E+01, 8.509E+01, 9.171E+01, 5.977E+00, 1.999E-01, 5.807E-03, 1.002E+02
