s,C,C,C,C,C,C,C,C,Pa,mol/mol,mol/mol,kW
Time,"West_All_TCs","East_All_TCs","West_Bottom_TCs","West_Middle_TCs","West_Upper_TCs","East_Bottom_TCs","East_Middle_TCs","East_Upper_TCs","Pressure","O2","CO2","HRR"
-6.000E+01, 4.000E+01, 4.000E+01, 4.000E+01, 4.000E+01, 4.000E+01, 4.000E+01, 4.000E+01, 4.000E+01,-9.106E-06, 2.095E-01, 3.901E-04, 0.000E+00
-4.998E+01, 3.996E+01, 3.996E+01, 3.996E+01, 3.995E+01, 3.996E+01, 3.996E+01, 3.997E+01, 3.996E+01,-7.503E+01, 2.095E-01, 3.901E-04, 0.000E+00
-3.992E+01, 3.994E+01, 3.997E+01, 3.994E+01, 3.994E+01, 3.994E+01, 4.000E+01, 3.998E+01, 3.995E+01,-7.724E+01, 2.095E-01, 3.901E-04, 0.000E+00
-2.992E+01, 3.993E+01, 3.997E+01, 3.994E+01, 3.993E+01, 3.993E+01, 4.002E+01, 3.996E+01, 3.994E+01,-7.743E+01, 2.095E-01, 3.901E-04, 0.000E+00
-1.993E+01, 3.993E+01, 3.997E+01, 3.994E+01, 3.993E+01, 3.993E+01, 4.000E+01, 3.997E+01, 3.994E+01,-7.746E+01, 2.095E-01, 3.901E-04, 0.000E+00
-9.939E+00, 3.993E+01, 3.998E+01, 3.994E+01, 3.993E+01, 3.993E+01, 4.001E+01, 3.997E+01, 3.994E+01,-7.747E+01, 2.095E-01, 3.901E-04, 0.000E+00
 1.855E-02, 3.993E+01, 3.998E+01, 3.994E+01, 3.993E+01, 3.993E+01, 4.001E+01, 3.998E+01, 3.994E+01,-7.754E+01, 2.095E-01, 3.901E-04, 2.019E-04
 1.002E+01, 4.091E+01, 4.153E+01, 4.044E+01, 4.234E+01, 3.997E+01, 4.070E+01, 4.392E+01, 3.997E+01,-3.566E+01, 2.095E-01, 3.901E-04, 3.252E+01
 2.001E+01, 4.559E+01, 4.635E+01, 4.260E+01, 5.393E+01, 4.023E+01, 4.333E+01, 5.576E+01, 3.995E+01, 4.762E+00, 2.095E-01, 3.901E-04, 9.951E+01
 3.000E+01, 5.481E+01, 5.541E+01, 4.633E+01, 7.712E+01, 4.098E+01, 4.903E+01, 7.726E+01, 3.993E+01, 4.171E+01, 2.095E-01, 3.901E-04, 1.656E+02
 4.001E+01, 6.685E+01, 6.698E+01, 5.441E+01, 1.034E+02, 4.272E+01, 5.838E+01, 1.021E+02, 4.047E+01, 5.402E+01, 2.094E-01, 4.652E-04, 2.002E+02
 5.000E+01, 7.887E+01, 7.976E+01, 6.852E+01, 1.234E+02, 4.464E+01, 6.980E+01, 1.254E+02, 4.405E+01, 2.604E+01, 2.088E-01, 8.035E-04, 2.001E+02
 6.002E+01, 8.913E+01, 8.983E+01, 8.056E+01, 1.400E+02, 4.689E+01, 8.167E+01, 1.418E+02, 4.605E+01, 1.376E+01, 2.086E-01, 9.380E-04, 2.002E+02
 7.000E+01, 9.858E+01, 9.909E+01, 9.310E+01, 1.533E+02, 4.933E+01, 9.679E+01, 1.518E+02, 4.872E+01, 5.474E+00, 2.080E-01, 1.244E-03, 2.001E+02
 8.001E+01, 1.060E+02, 1.072E+02, 1.055E+02, 1.618E+02, 5.080E+01, 1.073E+02, 1.628E+02, 5.151E+01,-4.374E+00, 2.073E-01, 1.635E-03, 1.999E+02
 9.001E+01, 1.117E+02, 1.128E+02, 1.146E+02, 1.677E+02, 5.267E+01, 1.176E+02, 1.670E+02, 5.379E+01,-9.498E+00, 2.069E-01, 1.874E-03, 2.004E+02
 1.000E+02, 1.173E+02, 1.169E+02, 1.237E+02, 1.726E+02, 5.570E+01, 1.257E+02, 1.698E+02, 5.525E+01,-1.637E+01, 2.064E-01, 2.127E-03, 1.999E+02
 1.100E+02, 1.220E+02, 1.225E+02, 1.292E+02, 1.788E+02, 5.791E+01, 1.318E+02, 1.782E+02, 5.746E+01,-2.589E+01, 2.058E-01, 2.486E-03, 2.001E+02
 1.200E+02, 1.241E+02, 1.286E+02, 1.330E+02, 1.804E+02, 5.900E+01, 1.368E+02, 1.896E+02, 5.929E+01,-3.561E+01, 2.054E-01, 2.684E-03, 2.000E+02
 1.300E+02, 1.259E+02, 1.297E+02, 1.379E+02, 1.808E+02, 5.884E+01, 1.403E+02, 1.887E+02, 6.006E+01,-4.162E+01, 2.050E-01, 2.954E-03, 2.002E+02
 1.400E+02, 1.274E+02, 1.310E+02, 1.382E+02, 1.836E+02, 6.060E+01, 1.420E+02, 1.899E+02, 6.117E+01,-5.084E+01, 2.045E-01, 3.229E-03, 2.003E+02
 1.500E+02, 1.279E+02, 1.308E+02, 1.404E+02, 1.829E+02, 6.046E+01, 1.432E+02, 1.871E+02, 6.198E+01,-5.444E+01, 2.038E-01, 3.624E-03, 1.999E+02
 1.600E+02, 1.301E+02, 1.318E+02, 1.410E+02, 1.873E+02, 6.200E+01, 1.447E+02, 1.893E+02, 6.157E+01,-5.576E+01, 2.035E-01, 3.761E-03, 1.996E+02
 1.700E+02, 1.309E+02, 1.336E+02, 1.425E+02, 1.869E+02, 6.320E+01, 1.437E+02, 1.932E+02, 6.380E+01,-5.665E+01, 2.027E-01, 4.235E-03, 2.003E+02
 1.800E+02, 1.319E+02, 1.351E+02, 1.422E+02, 1.902E+02, 6.341E+01, 1.462E+02, 1.944E+02, 6.456E+01,-5.978E+01, 2.020E-01, 4.606E-03, 2.001E+02
 1.900E+02, 1.322E+02, 1.361E+02, 1.426E+02, 1.899E+02, 6.401E+01, 1.485E+02, 1.943E+02, 6.537E+01,-6.389E+01, 2.011E-01, 5.129E-03, 1.999E+02
 2.000E+02, 1.322E+02, 1.364E+02, 1.436E+02, 1.888E+02, 6.430E+01, 1.475E+02, 1.963E+02, 6.545E+01,-6.032E+01, 2.006E-01, 5.397E-03, 1.997E+02
 2.100E+02, 1.323E+02, 1.365E+02, 1.449E+02, 1.871E+02, 6.475E+01, 1.472E+02, 1.964E+02, 6.581E+01,-5.937E+01, 1.999E-01, 5.759E-03, 1.997E+02
 2.200E+02, 1.341E+02, 1.384E+02, 1.457E+02, 1.917E+02, 6.498E+01, 1.488E+02, 1.995E+02, 6.683E+01,-6.096E+01, 1.991E-01, 6.215E-03, 2.002E+02
 2.300E+02, 1.351E+02, 1.369E+02, 1.471E+02, 1.922E+02, 6.588E+01, 1.479E+02, 1.961E+02, 6.663E+01,-6.505E+01, 1.983E-01, 6.661E-03, 1.995E+02
 2.400E+02, 1.357E+02, 1.374E+02, 1.472E+02, 1.941E+02, 6.579E+01, 1.510E+02, 1.943E+02, 6.689E+01,-5.925E+01, 1.975E-01, 7.101E-03, 2.006E+02
 2.500E+02, 1.380E+02, 1.375E+02, 1.496E+02, 1.978E+02, 6.646E+01, 1.517E+02, 1.940E+02, 6.689E+01,-6.339E+01, 1.968E-01, 7.529E-03, 1.996E+02
 2.600E+02, 1.360E+02, 1.396E+02, 1.480E+02, 1.941E+02, 6.583E+01, 1.541E+02, 1.970E+02, 6.762E+01,-6.582E+01, 1.955E-01, 8.226E-03, 2.002E+02
 2.700E+02, 1.344E+02, 1.404E+02, 1.453E+02, 1.925E+02, 6.551E+01, 1.532E+02, 2.006E+02, 6.735E+01,-6.245E+01, 1.952E-01, 8.414E-03, 1.998E+02
 2.800E+02, 1.362E+02, 1.392E+02, 1.470E+02, 1.947E+02, 6.692E+01, 1.523E+02, 1.981E+02, 6.710E+01,-6.054E+01, 1.944E-01, 8.836E-03, 2.003E+02
 2.900E+02, 1.381E+02, 1.408E+02, 1.494E+02, 1.973E+02, 6.743E+01, 1.525E+02, 2.011E+02, 6.883E+01,-6.179E+01, 1.932E-01, 9.519E-03, 2.001E+02
 3.000E+02, 1.378E+02, 1.401E+02, 1.492E+02, 1.957E+02, 6.841E+01, 1.521E+02, 2.011E+02, 6.718E+01,-6.575E+01, 1.926E-01, 9.860E-03, 2.000E+02
 3.100E+02, 1.388E+02, 1.407E+02, 1.500E+02, 1.989E+02, 6.738E+01, 1.533E+02, 2.008E+02, 6.817E+01,-6.311E+01, 1.913E-01, 1.058E-02, 2.000E+02
 3.200E+02, 1.388E+02, 1.414E+02, 1.518E+02, 1.971E+02, 6.749E+01, 1.532E+02, 2.019E+02, 6.902E+01,-6.148E+01, 1.903E-01, 1.116E-02, 2.003E+02
 3.300E+02, 1.407E+02, 1.413E+02, 1.511E+02, 2.023E+02, 6.874E+01, 1.555E+02, 2.009E+02, 6.761E+01,-6.261E+01, 1.899E-01, 1.137E-02, 2.004E+02
 3.400E+02, 1.394E+02, 1.443E+02, 1.507E+02, 2.000E+02, 6.734E+01, 1.575E+02, 2.066E+02, 6.889E+01,-6.391E+01, 1.887E-01, 1.201E-02, 1.997E+02
 3.500E+02, 1.402E+02, 1.445E+02, 1.527E+02, 1.999E+02, 6.798E+01, 1.591E+02, 2.055E+02, 6.887E+01,-6.224E+01, 1.882E-01, 1.233E-02, 2.001E+02
 3.600E+02, 1.399E+02, 1.442E+02, 1.533E+02, 1.983E+02, 6.804E+01, 1.593E+02, 2.045E+02, 6.877E+01,-6.072E+01, 1.874E-01, 1.276E-02, 2.002E+02
 3.700E+02, 1.418E+02, 1.444E+02, 1.540E+02, 2.034E+02, 6.790E+01, 1.572E+02, 2.066E+02, 6.939E+01,-6.643E+01, 1.862E-01, 1.342E-02, 2.001E+02
 3.800E+02, 1.416E+02, 1.434E+02, 1.547E+02, 2.020E+02, 6.818E+01, 1.593E+02, 2.017E+02, 6.924E+01,-6.147E+01, 1.853E-01, 1.394E-02, 1.996E+02
 3.900E+02, 1.415E+02, 1.458E+02, 1.508E+02, 2.046E+02, 6.913E+01, 1.645E+02, 2.046E+02, 6.838E+01,-6.370E+01, 1.848E-01, 1.420E-02, 1.998E+02
 4.000E+02, 1.401E+02, 1.463E+02, 1.513E+02, 1.998E+02, 6.910E+01, 1.624E+02, 2.065E+02, 7.007E+01,-6.124E+01, 1.834E-01, 1.500E-02, 1.997E+02
 4.100E+02, 1.404E+02, 1.465E+02, 1.538E+02, 1.986E+02, 6.894E+01, 1.602E+02, 2.098E+02, 6.940E+01,-5.891E+01, 1.830E-01, 1.521E-02, 2.003E+02
 4.200E+02, 1.430E+02, 1.457E+02, 1.554E+02, 2.039E+02, 6.967E+01, 1.610E+02, 2.072E+02, 6.897E+01,-6.401E+01, 1.821E-01, 1.572E-02, 2.001E+02
 4.300E+02, 1.429E+02, 1.468E+02, 1.546E+02, 2.045E+02, 6.974E+01, 1.606E+02, 2.090E+02, 7.092E+01,-5.989E+01, 1.806E-01, 1.655E-02, 1.996E+02
 4.400E+02, 1.449E+02, 1.478E+02, 1.584E+02, 2.057E+02, 7.063E+01, 1.613E+02, 2.119E+02, 7.017E+01,-5.767E+01, 1.801E-01, 1.686E-02, 2.003E+02
 4.500E+02, 1.445E+02, 1.472E+02, 1.585E+02, 2.045E+02, 7.056E+01, 1.621E+02, 2.083E+02, 7.108E+01,-6.307E+01, 1.788E-01, 1.757E-02, 2.000E+02
 4.600E+02, 1.443E+02, 1.481E+02, 1.562E+02, 2.066E+02, 7.001E+01, 1.622E+02, 2.114E+02, 7.083E+01,-6.145E+01, 1.782E-01, 1.791E-02, 1.997E+02
 4.700E+02, 1.438E+02, 1.493E+02, 1.557E+02, 2.049E+02, 7.064E+01, 1.620E+02, 2.154E+02, 7.045E+01,-5.936E+01, 1.773E-01, 1.838E-02, 2.004E+02
 4.800E+02, 1.444E+02, 1.502E+02, 1.582E+02, 2.040E+02, 7.100E+01, 1.642E+02, 2.144E+02, 7.199E+01,-6.210E+01, 1.763E-01, 1.899E-02, 2.001E+02
 4.900E+02, 1.448E+02, 1.506E+02, 1.568E+02, 2.066E+02, 7.103E+01, 1.637E+02, 2.164E+02, 7.164E+01,-6.540E+01, 1.755E-01, 1.941E-02, 1.999E+02
 5.000E+02, 1.456E+02, 1.498E+02, 1.574E+02, 2.086E+02, 7.091E+01, 1.660E+02, 2.115E+02, 7.193E+01,-6.108E+01, 1.748E-01, 1.982E-02, 2.005E+02
 5.100E+02, 1.459E+02, 1.505E+02, 1.590E+02, 2.076E+02, 7.110E+01, 1.668E+02, 2.125E+02, 7.209E+01,-6.136E+01, 1.740E-01, 2.026E-02, 1.994E+02
 5.200E+02, 1.473E+02, 1.514E+02, 1.608E+02, 2.092E+02, 7.204E+01, 1.651E+02, 2.173E+02, 7.171E+01,-5.916E+01, 1.735E-01, 2.055E-02, 2.000E+02
 5.300E+02, 1.466E+02, 1.502E+02, 1.623E+02, 2.063E+02, 7.123E+01, 1.661E+02, 2.117E+02, 7.278E+01,-6.026E+01, 1.722E-01, 2.127E-02, 1.996E+02
 5.400E+02, 1.474E+02, 1.517E+02, 1.603E+02, 2.104E+02, 7.159E+01, 1.692E+02, 2.132E+02, 7.260E+01,-6.298E+01, 1.716E-01, 2.158E-02, 2.000E+02
 5.500E+02, 1.472E+02, 1.524E+02, 1.588E+02, 2.111E+02, 7.190E+01, 1.694E+02, 2.155E+02, 7.233E+01,-6.248E+01, 1.709E-01, 2.201E-02, 2.010E+02
 5.600E+02, 1.463E+02, 1.517E+02, 1.596E+02, 2.079E+02, 7.148E+01, 1.672E+02, 2.159E+02, 7.203E+01,-6.220E+01, 1.703E-01, 2.232E-02, 1.997E+02
 5.700E+02, 1.475E+02, 1.520E+02, 1.609E+02, 2.098E+02, 7.188E+01, 1.678E+02, 2.155E+02, 7.280E+01,-5.740E+01, 1.694E-01, 2.282E-02, 1.999E+02
 5.800E+02, 1.480E+02, 1.510E+02, 1.605E+02, 2.094E+02, 7.412E+01, 1.676E+02, 2.127E+02, 7.261E+01,-6.097E+01, 1.687E-01, 2.321E-02, 1.996E+02
 5.900E+02, 1.500E+02, 1.514E+02, 1.630E+02, 2.133E+02, 7.371E+01, 1.647E+02, 2.161E+02, 7.344E+01,-5.554E+01, 1.678E-01, 2.372E-02, 2.002E+02
 6.000E+02, 1.505E+02, 1.519E+02, 1.639E+02, 2.133E+02, 7.416E+01, 1.663E+02, 2.157E+02, 7.368E+01,-5.659E+01, 1.666E-01, 2.436E-02, 2.007E+02
 6.100E+02, 1.502E+02, 1.544E+02, 1.633E+02, 2.127E+02, 7.449E+01, 1.703E+02, 2.187E+02, 7.420E+01,-6.379E+01, 1.657E-01, 2.487E-02, 1.995E+02
 6.200E+02, 1.496E+02, 1.552E+02, 1.625E+02, 2.119E+02, 7.443E+01, 1.707E+02, 2.202E+02, 7.487E+01,-6.109E+01, 1.650E-01, 2.526E-02, 2.001E+02
 6.300E+02, 1.501E+02, 1.539E+02, 1.633E+02, 2.120E+02, 7.506E+01, 1.687E+02, 2.184E+02, 7.475E+01,-5.972E+01, 1.645E-01, 2.555E-02, 1.994E+02
 6.400E+02, 1.505E+02, 1.543E+02, 1.644E+02, 2.122E+02, 7.476E+01, 1.694E+02, 2.185E+02, 7.485E+01,-6.328E+01, 1.640E-01, 2.585E-02, 2.002E+02
 6.500E+02, 1.517E+02, 1.536E+02, 1.665E+02, 2.139E+02, 7.454E+01, 1.688E+02, 2.174E+02, 7.456E+01,-6.136E+01, 1.630E-01, 2.638E-02, 1.999E+02
 6.600E+02, 1.507E+02, 1.552E+02, 1.661E+02, 2.114E+02, 7.449E+01, 1.697E+02, 2.201E+02, 7.559E+01,-6.157E+01, 1.621E-01, 2.691E-02, 2.002E+02
 6.700E+02, 1.517E+02, 1.554E+02, 1.651E+02, 2.153E+02, 7.474E+01, 1.750E+02, 2.166E+02, 7.473E+01,-6.147E+01, 1.618E-01, 2.705E-02, 1.995E+02
 6.800E+02, 1.490E+02, 1.561E+02, 1.629E+02, 2.100E+02, 7.405E+01, 1.732E+02, 2.193E+02, 7.570E+01,-6.139E+01, 1.608E-01, 2.763E-02, 1.993E+02
 6.900E+02, 1.495E+02, 1.546E+02, 1.630E+02, 2.114E+02, 7.419E+01, 1.701E+02, 2.188E+02, 7.493E+01,-6.215E+01, 1.607E-01, 2.769E-02, 2.001E+02
 7.000E+02, 1.508E+02, 1.562E+02, 1.643E+02, 2.129E+02, 7.534E+01, 1.716E+02, 2.217E+02, 7.536E+01,-5.719E+01, 1.601E-01, 2.804E-02, 1.998E+02
 7.100E+02, 1.518E+02, 1.553E+02, 1.659E+02, 2.137E+02, 7.584E+01, 1.717E+02, 2.181E+02, 7.603E+01,-5.836E+01, 1.591E-01, 2.860E-02, 1.997E+02
 7.200E+02, 1.526E+02, 1.563E+02, 1.674E+02, 2.143E+02, 7.617E+01, 1.714E+02, 2.214E+02, 7.600E+01,-5.692E+01, 1.586E-01, 2.883E-02, 2.002E+02
 7.300E+02, 1.530E+02, 1.564E+02, 1.682E+02, 2.142E+02, 7.673E+01, 1.705E+02, 2.214E+02, 7.718E+01,-5.697E+01, 1.575E-01, 2.945E-02, 1.986E+02
 7.400E+02, 1.540E+02, 1.562E+02, 1.671E+02, 2.179E+02, 7.702E+01, 1.702E+02, 2.213E+02, 7.712E+01,-5.979E+01, 1.573E-01, 2.961E-02, 2.000E+02
 7.500E+02, 1.536E+02, 1.584E+02, 1.672E+02, 2.159E+02, 7.755E+01, 1.726E+02, 2.256E+02, 7.694E+01,-5.638E+01, 1.563E-01, 3.014E-02, 2.012E+02
 7.600E+02, 1.547E+02, 1.583E+02, 1.689E+02, 2.185E+02, 7.688E+01, 1.755E+02, 2.219E+02, 7.768E+01,-6.355E+01, 1.560E-01, 3.033E-02, 1.999E+02
 7.700E+02, 1.533E+02, 1.576E+02, 1.669E+02, 2.143E+02, 7.875E+01, 1.729E+02, 2.217E+02, 7.818E+01,-6.553E+01, 1.552E-01, 3.073E-02, 1.936E+02
 7.800E+02, 1.545E+02, 1.571E+02, 1.678E+02, 2.164E+02, 7.924E+01, 1.732E+02, 2.194E+02, 7.881E+01,-5.700E+01, 1.543E-01, 3.126E-02, 2.000E+02
 7.900E+02, 1.555E+02, 1.594E+02, 1.680E+02, 2.197E+02, 7.886E+01, 1.767E+02, 2.224E+02, 7.911E+01,-5.605E+01, 1.535E-01, 3.168E-02, 2.041E+02
 8.000E+02, 1.554E+02, 1.597E+02, 1.681E+02, 2.189E+02, 7.914E+01, 1.748E+02, 2.257E+02, 7.865E+01,-6.324E+01, 1.527E-01, 3.216E-02, 1.995E+02
 8.100E+02, 1.545E+02, 1.599E+02, 1.671E+02, 2.165E+02, 7.972E+01, 1.764E+02, 2.243E+02, 7.898E+01,-5.959E+01, 1.523E-01, 3.235E-02, 1.994E+02
 8.200E+02, 1.555E+02, 1.601E+02, 1.683E+02, 2.192E+02, 7.891E+01, 1.771E+02, 2.238E+02, 7.943E+01,-6.274E+01, 1.518E-01, 3.266E-02, 1.999E+02
 8.300E+02, 1.559E+02, 1.593E+02, 1.700E+02, 2.180E+02, 7.976E+01, 1.771E+02, 2.220E+02, 7.875E+01,-5.692E+01, 1.515E-01, 3.280E-02, 1.998E+02
 8.400E+02, 1.570E+02, 1.608E+02, 1.700E+02, 2.208E+02, 8.027E+01, 1.768E+02, 2.265E+02, 7.899E+01,-6.178E+01, 1.507E-01, 3.325E-02, 2.000E+02
 8.500E+02, 1.565E+02, 1.611E+02, 1.701E+02, 2.195E+02, 7.999E+01, 1.748E+02, 2.287E+02, 7.984E+01,-6.152E+01, 1.499E-01, 3.369E-02, 2.000E+02
 8.600E+02, 1.577E+02, 1.600E+02, 1.700E+02, 2.228E+02, 8.046E+01, 1.756E+02, 2.250E+02, 7.952E+01,-6.099E+01, 1.498E-01, 3.378E-02, 1.995E+02
 8.700E+02, 1.572E+02, 1.612E+02, 1.686E+02, 2.232E+02, 7.970E+01, 1.786E+02, 2.260E+02, 7.889E+01,-6.068E+01, 1.495E-01, 3.396E-02, 1.998E+02
 8.800E+02, 1.582E+02, 1.617E+02, 1.725E+02, 2.208E+02, 8.137E+01, 1.772E+02, 2.276E+02, 8.017E+01,-5.838E+01, 1.488E-01, 3.435E-02, 1.972E+02
 8.900E+02, 1.579E+02, 1.622E+02, 1.709E+02, 2.204E+02, 8.234E+01, 1.785E+02, 2.266E+02, 8.146E+01,-6.081E+01, 1.483E-01, 3.463E-02, 2.004E+02
 9.000E+02, 1.586E+02, 1.608E+02, 1.722E+02, 2.220E+02, 8.165E+01, 1.779E+02, 2.240E+02, 8.064E+01,-5.438E+01, 1.481E-01, 3.474E-02, 2.003E+02
 9.100E+02, 1.601E+02, 1.614E+02, 1.740E+02, 2.227E+02, 8.371E+01, 1.763E+02, 2.274E+02, 8.049E+01,-5.927E+01, 1.474E-01, 3.513E-02, 1.987E+02
 9.200E+02, 1.619E+02, 1.610E+02, 1.749E+02, 2.278E+02, 8.285E+01, 1.761E+02, 2.259E+02, 8.120E+01,-5.938E+01, 1.469E-01, 3.541E-02, 2.015E+02
 9.300E+02, 1.592E+02, 1.652E+02, 1.717E+02, 2.238E+02, 8.213E+01, 1.862E+02, 2.286E+02, 8.081E+01,-6.550E+01, 1.468E-01, 3.544E-02, 1.997E+02
 9.400E+02, 1.583E+02, 1.631E+02, 1.728E+02, 2.199E+02, 8.221E+01, 1.766E+02, 2.320E+02, 8.056E+01,-5.749E+01, 1.467E-01, 3.552E-02, 1.995E+02
 9.500E+02, 1.578E+02, 1.627E+02, 1.716E+02, 2.179E+02, 8.375E+01, 1.755E+02, 2.302E+02, 8.245E+01,-6.778E+01, 1.459E-01, 3.595E-02, 1.938E+02
 9.600E+02, 1.587E+02, 1.634E+02, 1.725E+02, 2.208E+02, 8.280E+01, 1.805E+02, 2.277E+02, 8.189E+01,-5.418E+01, 1.458E-01, 3.601E-02, 2.026E+02
 9.700E+02, 1.602E+02, 1.648E+02, 1.742E+02, 2.237E+02, 8.279E+01, 1.807E+02, 2.310E+02, 8.262E+01,-4.862E+01, 1.453E-01, 3.626E-02, 2.014E+02
 9.800E+02, 1.603E+02, 1.627E+02, 1.751E+02, 2.221E+02, 8.377E+01, 1.775E+02, 2.273E+02, 8.337E+01,-6.539E+01, 1.448E-01, 3.656E-02, 1.958E+02
 9.900E+02, 1.625E+02, 1.635E+02, 1.769E+02, 2.273E+02, 8.337E+01, 1.803E+02, 2.272E+02, 8.287E+01,-5.825E+01, 1.446E-01, 3.666E-02, 1.997E+02
 1.000E+03, 1.606E+02, 1.673E+02, 1.735E+02, 2.250E+02, 8.326E+01, 1.851E+02, 2.328E+02, 8.403E+01,-6.189E+01, 1.442E-01, 3.690E-02, 2.023E+02
 1.010E+03, 1.594E+02, 1.656E+02, 1.731E+02, 2.203E+02, 8.486E+01, 1.832E+02, 2.314E+02, 8.216E+01,-6.275E+01, 1.443E-01, 3.684E-02, 1.984E+02
 1.020E+03, 1.608E+02, 1.656E+02, 1.749E+02, 2.234E+02, 8.407E+01, 1.832E+02, 2.301E+02, 8.344E+01,-5.954E+01, 1.439E-01, 3.704E-02, 1.995E+02
 1.030E+03, 1.611E+02, 1.647E+02, 1.736E+02, 2.248E+02, 8.497E+01, 1.816E+02, 2.291E+02, 8.326E+01,-6.333E+01, 1.437E-01, 3.716E-02, 1.971E+02
 1.040E+03, 1.633E+02, 1.654E+02, 1.765E+02, 2.284E+02, 8.497E+01, 1.826E+02, 2.304E+02, 8.321E+01,-5.591E+01, 1.434E-01, 3.735E-02, 2.013E+02
 1.050E+03, 1.627E+02, 1.651E+02, 1.769E+02, 2.265E+02, 8.462E+01, 1.829E+02, 2.283E+02, 8.401E+01,-6.550E+01, 1.430E-01, 3.759E-02, 1.976E+02
 1.060E+03, 1.631E+02, 1.651E+02, 1.742E+02, 2.305E+02, 8.472E+01, 1.813E+02, 2.305E+02, 8.338E+01,-5.755E+01, 1.428E-01, 3.767E-02, 2.004E+02
 1.070E+03, 1.609E+02, 1.653E+02, 1.729E+02, 2.250E+02, 8.470E+01, 1.811E+02, 2.319E+02, 8.285E+01,-6.059E+01, 1.426E-01, 3.778E-02, 2.001E+02
 1.080E+03, 1.626E+02, 1.653E+02, 1.768E+02, 2.260E+02, 8.511E+01, 1.835E+02, 2.280E+02, 8.431E+01,-6.005E+01, 1.424E-01, 3.791E-02, 1.997E+02
 1.090E+03, 1.625E+02, 1.657E+02, 1.757E+02, 2.275E+02, 8.432E+01, 1.826E+02, 2.302E+02, 8.428E+01,-5.831E+01, 1.421E-01, 3.809E-02, 1.999E+02
 1.100E+03, 1.648E+02, 1.645E+02, 1.776E+02, 2.298E+02, 8.688E+01, 1.793E+02, 2.312E+02, 8.289E+01,-5.683E+01, 1.424E-01, 3.789E-02, 1.999E+02
 1.110E+03, 1.647E+02, 1.654E+02, 1.779E+02, 2.300E+02, 8.606E+01, 1.797E+02, 2.322E+02, 8.433E+01,-6.289E+01, 1.417E-01, 3.831E-02, 1.998E+02
 1.120E+03, 1.629E+02, 1.684E+02, 1.743E+02, 2.289E+02, 8.567E+01, 1.869E+02, 2.332E+02, 8.515E+01,-6.171E+01, 1.416E-01, 3.836E-02, 2.000E+02
 1.130E+03, 1.621E+02, 1.694E+02, 1.748E+02, 2.261E+02, 8.529E+01, 1.860E+02, 2.382E+02, 8.408E+01,-5.948E+01, 1.416E-01, 3.833E-02, 2.003E+02
 1.140E+03, 1.642E+02, 1.680E+02, 1.782E+02, 2.279E+02, 8.644E+01, 1.829E+02, 2.365E+02, 8.472E+01,-5.905E+01, 1.415E-01, 3.844E-02, 1.998E+02
 1.150E+03, 1.647E+02, 1.690E+02, 1.787E+02, 2.287E+02, 8.655E+01, 1.853E+02, 2.363E+02, 8.540E+01,-6.292E+01, 1.413E-01, 3.853E-02, 1.995E+02
 1.160E+03, 1.655E+02, 1.663E+02, 1.811E+02, 2.296E+02, 8.584E+01, 1.805E+02, 2.325E+02, 8.577E+01,-5.997E+01, 1.410E-01, 3.871E-02, 2.004E+02
 1.170E+03, 1.658E+02, 1.655E+02, 1.812E+02, 2.306E+02, 8.569E+01, 1.830E+02, 2.285E+02, 8.491E+01,-5.932E+01, 1.411E-01, 3.862E-02, 1.998E+02
 1.180E+03, 1.655E+02, 1.694E+02, 1.771E+02, 2.330E+02, 8.644E+01, 1.912E+02, 2.321E+02, 8.507E+01,-6.283E+01, 1.410E-01, 3.871E-02, 1.995E+02
 1.190E+03, 1.646E+02, 1.701E+02, 1.766E+02, 2.302E+02, 8.698E+01, 1.890E+02, 2.359E+02, 8.531E+01,-5.766E+01, 1.409E-01, 3.872E-02, 1.990E+02
 1.200E+03, 1.638E+02, 1.698E+02, 1.763E+02, 2.283E+02, 8.675E+01, 1.866E+02, 2.372E+02, 8.555E+01,-6.026E+01, 1.408E-01, 3.877E-02, 1.991E+02
 1.210E+03, 1.657E+02, 1.689E+02, 1.796E+02, 2.309E+02, 8.659E+01, 1.882E+02, 2.330E+02, 8.535E+01,-6.158E+01, 1.409E-01, 3.872E-02, 2.010E+02
 1.220E+03, 1.665E+02, 1.678E+02, 1.791E+02, 2.326E+02, 8.780E+01, 1.857E+02, 2.325E+02, 8.528E+01,-5.921E+01, 1.409E-01, 3.877E-02, 1.994E+02
 1.230E+03, 1.675E+02, 1.687E+02, 1.809E+02, 2.324E+02, 8.919E+01, 1.841E+02, 2.359E+02, 8.618E+01,-5.884E+01, 1.405E-01, 3.897E-02, 2.001E+02
 1.240E+03, 1.672E+02, 1.693E+02, 1.808E+02, 2.334E+02, 8.742E+01, 1.855E+02, 2.352E+02, 8.718E+01,-6.521E+01, 1.401E-01, 3.916E-02, 1.996E+02
 1.250E+03, 1.666E+02, 1.703E+02, 1.788E+02, 2.344E+02, 8.670E+01, 1.929E+02, 2.319E+02, 8.613E+01,-5.767E+01, 1.403E-01, 3.908E-02, 2.008E+02
 1.260E+03, 1.653E+02, 1.713E+02, 1.772E+02, 2.312E+02, 8.767E+01, 1.904E+02, 2.384E+02, 8.519E+01,-5.749E+01, 1.402E-01, 3.913E-02, 1.996E+02
 1.270E+03, 1.673E+02, 1.718E+02, 1.797E+02, 2.331E+02, 8.903E+01, 1.878E+02, 2.402E+02, 8.738E+01,-5.832E+01, 1.400E-01, 3.922E-02, 2.002E+02
 1.280E+03, 1.684E+02, 1.702E+02, 1.829E+02, 2.333E+02, 8.914E+01, 1.883E+02, 2.347E+02, 8.770E+01,-5.533E+01, 1.399E-01, 3.933E-02, 2.001E+02
 1.290E+03, 1.686E+02, 1.703E+02, 1.827E+02, 2.330E+02, 9.002E+01, 1.823E+02, 2.413E+02, 8.746E+01,-5.808E+01, 1.397E-01, 3.940E-02, 1.999E+02
 1.300E+03, 1.692E+02, 1.700E+02, 1.843E+02, 2.333E+02, 9.004E+01, 1.858E+02, 2.365E+02, 8.766E+01,-6.161E+01, 1.396E-01, 3.945E-02, 2.001E+02
 1.310E+03, 1.690E+02, 1.723E+02, 1.809E+02, 2.364E+02, 8.986E+01, 1.926E+02, 2.368E+02, 8.749E+01,-5.894E+01, 1.396E-01, 3.946E-02, 1.996E+02
