s,C,C,C,C,C,C,C,C,Pa,mol/mol,mol/mol,kW
Time,"West_All_TCs","East_All_TCs","West_Bottom_TCs","West_Middle_TCs","West_Upper_TCs","East_Bottom_TCs","East_Middle_TCs","East_Upper_TCs","Pressure","O2","CO2","HRR"
-6.000E+01, 2.000E+01, 2.000E+01, 2.000E+01, 2.000E+01, 2.000E+01, 2.000E+01, 2.000E+01, 2.000E+01,-9.803E-06, 2.095E-01, 3.901E-04, 0.000E+00
-4.998E+01, 1.999E+01, 1.999E+01, 1.999E+01, 1.999E+01, 1.999E+01, 1.999E+01, 1.999E+01, 1.999E+01,-2.453E+01, 2.095E-01, 3.901E-04, 0.000E+00
-3.996E+01, 1.998E+01, 1.999E+01, 1.998E+01, 1.998E+01, 1.998E+01, 1.999E+01, 1.998E+01, 1.998E+01,-2.377E+01, 2.095E-01, 3.901E-04, 0.000E+00
-2.994E+01, 1.998E+01, 1.999E+01, 1.998E+01, 1.998E+01, 1.997E+01, 2.001E+01, 1.998E+01, 1.998E+01,-2.378E+01, 2.095E-01, 3.901E-04, 0.000E+00
-1.992E+01, 1.997E+01, 2.000E+01, 1.998E+01, 1.998E+01, 1.997E+01, 2.002E+01, 1.999E+01, 1.998E+01,-2.379E+01, 2.095E-01, 3.901E-04, 0.000E+00
-9.896E+00, 1.997E+01, 2.000E+01, 1.998E+01, 1.998E+01, 1.997E+01, 2.003E+01, 1.999E+01, 1.998E+01,-2.378E+01, 2.095E-01, 3.901E-04, 0.000E+00
 1.301E-02, 1.997E+01, 2.000E+01, 1.998E+01, 1.997E+01, 1.997E+01, 2.003E+01, 1.999E+01, 1.998E+01,-2.379E+01, 2.095E-01, 3.901E-04, 1.324E-04
 1.000E+01, 2.070E+01, 2.087E+01, 2.034E+01, 2.177E+01, 1.998E+01, 2.057E+01, 2.205E+01, 1.999E+01,-7.401E+00, 2.095E-01, 3.901E-04, 2.446E+01
 2.001E+01, 2.339E+01, 2.390E+01, 2.164E+01, 2.849E+01, 2.004E+01, 2.198E+01, 2.972E+01, 2.000E+01, 8.701E+00, 2.095E-01, 3.901E-04, 7.435E+01
 3.001E+01, 2.950E+01, 2.981E+01, 2.396E+01, 4.405E+01, 2.049E+01, 2.512E+01, 4.433E+01, 1.998E+01, 4.223E+01, 2.095E-01, 3.901E-04, 1.239E+02
 4.002E+01, 3.732E+01, 3.753E+01, 2.962E+01, 6.158E+01, 2.077E+01, 3.014E+01, 6.233E+01, 2.012E+01, 5.853E+01, 2.095E-01, 4.060E-04, 1.500E+02
 5.001E+01, 4.602E+01, 4.660E+01, 3.785E+01, 7.815E+01, 2.207E+01, 3.986E+01, 7.851E+01, 2.142E+01, 4.127E+01, 2.092E-01, 5.840E-04, 1.500E+02
 6.001E+01, 5.287E+01, 5.475E+01, 4.670E+01, 8.902E+01, 2.288E+01, 4.807E+01, 9.320E+01, 2.298E+01, 2.858E+01, 2.091E-01, 6.568E-04, 1.500E+02
 7.000E+01, 6.095E+01, 6.165E+01, 5.733E+01, 1.022E+02, 2.335E+01, 5.724E+01, 1.037E+02, 2.400E+01, 2.086E+01, 2.088E-01, 7.854E-04, 1.495E+02
 8.002E+01, 6.759E+01, 6.736E+01, 6.510E+01, 1.127E+02, 2.502E+01, 6.725E+01, 1.099E+02, 2.489E+01, 1.484E+01, 2.088E-01, 8.127E-04, 1.511E+02
 9.001E+01, 7.292E+01, 7.290E+01, 7.395E+01, 1.191E+02, 2.575E+01, 7.634E+01, 1.162E+02, 2.620E+01, 1.047E+01, 2.083E-01, 1.061E-03, 1.499E+02
 1.000E+02, 7.739E+01, 7.726E+01, 8.182E+01, 1.238E+02, 2.655E+01, 8.328E+01, 1.212E+02, 2.728E+01, 6.646E+00, 2.082E-01, 1.158E-03, 1.507E+02
 1.100E+02, 8.167E+01, 8.181E+01, 8.845E+01, 1.286E+02, 2.791E+01, 9.098E+01, 1.256E+02, 2.887E+01, 1.147E+00, 2.079E-01, 1.314E-03, 1.499E+02
 1.200E+02, 8.589E+01, 8.551E+01, 9.519E+01, 1.335E+02, 2.903E+01, 9.653E+01, 1.304E+02, 2.959E+01,-2.635E+00, 2.078E-01, 1.378E-03, 1.497E+02
 1.300E+02, 8.847E+01, 8.870E+01, 9.944E+01, 1.353E+02, 3.069E+01, 1.024E+02, 1.336E+02, 3.010E+01,-4.960E+00, 2.075E-01, 1.543E-03, 1.499E+02
 1.400E+02, 9.165E+01, 9.134E+01, 1.049E+02, 1.393E+02, 3.077E+01, 1.056E+02, 1.373E+02, 3.110E+01,-5.838E+00, 2.072E-01, 1.699E-03, 1.503E+02
 1.500E+02, 9.335E+01, 9.641E+01, 1.075E+02, 1.408E+02, 3.167E+01, 1.092E+02, 1.478E+02, 3.219E+01,-9.669E+00, 2.071E-01, 1.782E-03, 1.498E+02
 1.600E+02, 9.416E+01, 9.680E+01, 1.104E+02, 1.400E+02, 3.207E+01, 1.106E+02, 1.466E+02, 3.322E+01,-1.065E+01, 2.066E-01, 2.049E-03, 1.508E+02
 1.700E+02, 9.448E+01, 9.991E+01, 1.090E+02, 1.411E+02, 3.335E+01, 1.132E+02, 1.532E+02, 3.334E+01,-1.412E+01, 2.065E-01, 2.089E-03, 1.500E+02
 1.800E+02, 9.705E+01, 1.012E+02, 1.119E+02, 1.456E+02, 3.366E+01, 1.147E+02, 1.545E+02, 3.451E+01,-1.528E+01, 2.060E-01, 2.375E-03, 1.487E+02
 1.900E+02, 9.658E+01, 1.001E+02, 1.111E+02, 1.447E+02, 3.401E+01, 1.157E+02, 1.495E+02, 3.503E+01,-1.534E+01, 2.058E-01, 2.486E-03, 1.508E+02
 2.000E+02, 9.830E+01, 1.001E+02, 1.120E+02, 1.485E+02, 3.440E+01, 1.158E+02, 1.499E+02, 3.464E+01,-1.687E+01, 2.056E-01, 2.582E-03, 1.503E+02
 2.100E+02, 9.847E+01, 1.011E+02, 1.129E+02, 1.474E+02, 3.514E+01, 1.155E+02, 1.519E+02, 3.574E+01,-1.781E+01, 2.050E-01, 2.905E-03, 1.501E+02
 2.200E+02, 9.871E+01, 1.010E+02, 1.128E+02, 1.478E+02, 3.547E+01, 1.156E+02, 1.513E+02, 3.606E+01,-1.816E+01, 2.048E-01, 3.058E-03, 1.496E+02
 2.300E+02, 9.940E+01, 1.010E+02, 1.127E+02, 1.496E+02, 3.591E+01, 1.138E+02, 1.527E+02, 3.637E+01,-1.732E+01, 2.045E-01, 3.208E-03, 1.498E+02
 2.400E+02, 1.009E+02, 1.019E+02, 1.146E+02, 1.521E+02, 3.610E+01, 1.161E+02, 1.528E+02, 3.678E+01,-1.958E+01, 2.041E-01, 3.422E-03, 1.495E+02
 2.500E+02, 1.008E+02, 1.022E+02, 1.138E+02, 1.521E+02, 3.648E+01, 1.180E+02, 1.513E+02, 3.742E+01,-1.683E+01, 2.034E-01, 3.796E-03, 1.512E+02
 2.600E+02, 1.012E+02, 1.017E+02, 1.150E+02, 1.518E+02, 3.681E+01, 1.169E+02, 1.513E+02, 3.698E+01,-1.726E+01, 2.034E-01, 3.812E-03, 1.501E+02
 2.700E+02, 1.021E+02, 1.031E+02, 1.146E+02, 1.545E+02, 3.714E+01, 1.168E+02, 1.548E+02, 3.770E+01,-1.906E+01, 2.029E-01, 4.092E-03, 1.500E+02
 2.800E+02, 1.015E+02, 1.039E+02, 1.146E+02, 1.528E+02, 3.694E+01, 1.197E+02, 1.542E+02, 3.780E+01,-1.961E+01, 2.024E-01, 4.374E-03, 1.496E+02
 2.900E+02, 1.023E+02, 1.037E+02, 1.152E+02, 1.539E+02, 3.789E+01, 1.173E+02, 1.559E+02, 3.782E+01,-1.812E+01, 2.023E-01, 4.429E-03, 1.497E+02
 3.000E+02, 1.028E+02, 1.044E+02, 1.164E+02, 1.543E+02, 3.779E+01, 1.177E+02, 1.568E+02, 3.871E+01,-1.864E+01, 2.017E-01, 4.795E-03, 1.500E+02
 3.100E+02, 1.038E+02, 1.046E+02, 1.183E+02, 1.556E+02, 3.746E+01, 1.192E+02, 1.563E+02, 3.821E+01,-1.935E+01, 2.014E-01, 4.931E-03, 1.506E+02
 3.200E+02, 1.035E+02, 1.050E+02, 1.183E+02, 1.544E+02, 3.766E+01, 1.208E+02, 1.552E+02, 3.904E+01,-1.954E+01, 2.009E-01, 5.205E-03, 1.501E+02
 3.300E+02, 1.040E+02, 1.041E+02, 1.197E+02, 1.543E+02, 3.809E+01, 1.203E+02, 1.535E+02, 3.851E+01,-1.819E+01, 2.007E-01, 5.317E-03, 1.502E+02
 3.400E+02, 1.041E+02, 1.067E+02, 1.198E+02, 1.539E+02, 3.870E+01, 1.244E+02, 1.575E+02, 3.829E+01,-1.685E+01, 2.002E-01, 5.637E-03, 1.498E+02
 3.500E+02, 1.048E+02, 1.080E+02, 1.204E+02, 1.555E+02, 3.860E+01, 1.250E+02, 1.601E+02, 3.901E+01,-2.014E+01, 1.994E-01, 6.035E-03, 1.496E+02
 3.600E+02, 1.050E+02, 1.074E+02, 1.199E+02, 1.568E+02, 3.821E+01, 1.241E+02, 1.584E+02, 3.976E+01,-2.101E+01, 1.991E-01, 6.213E-03, 1.501E+02
 3.700E+02, 1.053E+02, 1.081E+02, 1.203E+02, 1.576E+02, 3.793E+01, 1.244E+02, 1.611E+02, 3.872E+01,-2.001E+01, 1.989E-01, 6.342E-03, 1.495E+02
 3.800E+02, 1.050E+02, 1.080E+02, 1.205E+02, 1.559E+02, 3.872E+01, 1.237E+02, 1.614E+02, 3.873E+01,-1.916E+01, 1.984E-01, 6.616E-03, 1.503E+02
 3.900E+02, 1.054E+02, 1.068E+02, 1.204E+02, 1.571E+02, 3.856E+01, 1.225E+02, 1.585E+02, 3.944E+01,-2.005E+01, 1.979E-01, 6.870E-03, 1.503E+02
 4.000E+02, 1.063E+02, 1.086E+02, 1.214E+02, 1.591E+02, 3.853E+01, 1.240E+02, 1.627E+02, 3.921E+01,-1.962E+01, 1.976E-01, 7.050E-03, 1.493E+02
 4.100E+02, 1.057E+02, 1.086E+02, 1.215E+02, 1.571E+02, 3.838E+01, 1.254E+02, 1.610E+02, 3.946E+01,-1.789E+01, 1.972E-01, 7.292E-03, 1.498E+02
 4.200E+02, 1.065E+02, 1.081E+02, 1.208E+02, 1.597E+02, 3.887E+01, 1.245E+02, 1.605E+02, 3.915E+01,-1.760E+01, 1.967E-01, 7.562E-03, 1.506E+02
 4.300E+02, 1.077E+02, 1.083E+02, 1.228E+02, 1.615E+02, 3.889E+01, 1.248E+02, 1.610E+02, 3.911E+01,-1.897E+01, 1.961E-01, 7.880E-03, 1.500E+02
 4.400E+02, 1.069E+02, 1.091E+02, 1.211E+02, 1.607E+02, 3.901E+01, 1.270E+02, 1.606E+02, 3.959E+01,-1.929E+01, 1.958E-01, 8.051E-03, 1.495E+02
 4.500E+02, 1.075E+02, 1.084E+02, 1.222E+02, 1.610E+02, 3.929E+01, 1.225E+02, 1.628E+02, 3.970E+01,-1.944E+01, 1.951E-01, 8.462E-03, 1.502E+02
 4.600E+02, 1.076E+02, 1.091E+02, 1.224E+02, 1.614E+02, 3.912E+01, 1.235E+02, 1.635E+02, 4.038E+01,-1.984E+01, 1.947E-01, 8.695E-03, 1.508E+02
 4.700E+02, 1.084E+02, 1.083E+02, 1.237E+02, 1.620E+02, 3.954E+01, 1.246E+02, 1.604E+02, 3.992E+01,-1.964E+01, 1.944E-01, 8.855E-03, 1.498E+02
 4.800E+02, 1.081E+02, 1.098E+02, 1.232E+02, 1.618E+02, 3.931E+01, 1.256E+02, 1.633E+02, 4.035E+01,-2.005E+01, 1.938E-01, 9.163E-03, 1.497E+02
 4.900E+02, 1.093E+02, 1.101E+02, 1.257E+02, 1.626E+02, 3.953E+01, 1.263E+02, 1.637E+02, 4.034E+01,-1.789E+01, 1.932E-01, 9.497E-03, 1.500E+02
 5.000E+02, 1.087E+02, 1.104E+02, 1.265E+02, 1.595E+02, 4.014E+01, 1.276E+02, 1.627E+02, 4.071E+01,-1.782E+01, 1.927E-01, 9.797E-03, 1.503E+02
 5.100E+02, 1.089E+02, 1.106E+02, 1.256E+02, 1.609E+02, 4.029E+01, 1.291E+02, 1.623E+02, 4.056E+01,-2.186E+01, 1.919E-01, 1.026E-02, 1.460E+02
 5.200E+02, 1.088E+02, 1.131E+02, 1.246E+02, 1.611E+02, 4.070E+01, 1.305E+02, 1.681E+02, 4.075E+01,-2.004E+01, 1.915E-01, 1.045E-02, 1.508E+02
 5.300E+02, 1.095E+02, 1.139E+02, 1.266E+02, 1.617E+02, 4.021E+01, 1.306E+02, 1.701E+02, 4.103E+01,-1.696E+01, 1.911E-01, 1.067E-02, 1.523E+02
 5.400E+02, 1.089E+02, 1.130E+02, 1.238E+02, 1.623E+02, 4.064E+01, 1.317E+02, 1.664E+02, 4.088E+01,-2.563E+01, 1.906E-01, 1.096E-02, 1.445E+02
 5.500E+02, 1.096E+02, 1.126E+02, 1.242E+02, 1.642E+02, 4.048E+01, 1.290E+02, 1.677E+02, 4.099E+01,-1.748E+01, 1.900E-01, 1.129E-02, 1.519E+02
 5.600E+02, 1.104E+02, 1.127E+02, 1.265E+02, 1.641E+02, 4.065E+01, 1.296E+02, 1.676E+02, 4.103E+01,-2.285E+01, 1.897E-01, 1.147E-02, 1.483E+02
 5.700E+02, 1.106E+02, 1.140E+02, 1.261E+02, 1.648E+02, 4.093E+01, 1.303E+02, 1.704E+02, 4.141E+01,-2.481E+01, 1.892E-01, 1.174E-02, 1.486E+02
 5.800E+02, 1.110E+02, 1.130E+02, 1.266E+02, 1.652E+02, 4.121E+01, 1.300E+02, 1.683E+02, 4.083E+01,-2.265E+01, 1.886E-01, 1.209E-02, 1.512E+02
 5.900E+02, 1.118E+02, 1.123E+02, 1.278E+02, 1.660E+02, 4.161E+01, 1.291E+02, 1.669E+02, 4.094E+01,-2.746E+01, 1.877E-01, 1.261E-02, 1.430E+02
 6.000E+02, 1.117E+02, 1.128E+02, 1.282E+02, 1.654E+02, 4.151E+01, 1.279E+02, 1.690E+02, 4.143E+01,-2.964E+01, 1.875E-01, 1.268E-02, 1.481E+02
 6.100E+02, 1.117E+02, 1.120E+02, 1.286E+02, 1.659E+02, 4.077E+01, 1.288E+02, 1.666E+02, 4.080E+01,-2.825E+01, 1.872E-01, 1.289E-02, 1.467E+02
 6.200E+02, 1.125E+02, 1.140E+02, 1.280E+02, 1.685E+02, 4.116E+01, 1.324E+02, 1.686E+02, 4.105E+01,-1.193E+01, 1.867E-01, 1.317E-02, 1.579E+02
 6.300E+02, 1.125E+02, 1.165E+02, 1.292E+02, 1.671E+02, 4.105E+01, 1.334E+02, 1.739E+02, 4.219E+01,-4.714E+01, 1.864E-01, 1.333E-02, 1.270E+02
 6.400E+02, 1.105E+02, 1.163E+02, 1.254E+02, 1.647E+02, 4.122E+01, 1.352E+02, 1.721E+02, 4.158E+01,-1.733E+01, 1.859E-01, 1.360E-02, 1.513E+02
 6.500E+02, 1.096E+02, 1.125E+02, 1.252E+02, 1.622E+02, 4.135E+01, 1.298E+02, 1.662E+02, 4.141E+01,-5.880E+01, 1.854E-01, 1.387E-02, 1.069E+02
 6.600E+02, 1.088E+02, 1.281E+02, 1.226E+02, 1.617E+02, 4.203E+01, 1.576E+02, 1.858E+02, 4.093E+01,-1.095E+01, 1.850E-01, 1.410E-02, 1.363E+02
 6.700E+02, 1.116E+02, 1.151E+02, 1.258E+02, 1.674E+02, 4.177E+01, 1.327E+02, 1.702E+02, 4.235E+01,-2.260E+01, 1.841E-01, 1.463E-02, 1.287E+02
 6.800E+02, 1.106E+02, 1.149E+02, 1.263E+02, 1.626E+02, 4.299E+01, 1.318E+02, 1.705E+02, 4.246E+01,-5.264E+01, 1.840E-01, 1.464E-02, 8.727E+01
 6.900E+02, 1.065E+02, 1.158E+02, 1.208E+02, 1.564E+02, 4.235E+01, 1.313E+02, 1.733E+02, 4.271E+01,-2.428E+01, 1.839E-01, 1.473E-02, 1.261E+02
 7.000E+02, 1.110E+02, 1.127E+02, 1.259E+02, 1.639E+02, 4.329E+01, 1.288E+02, 1.666E+02, 4.273E+01,-4.692E+01, 1.830E-01, 1.520E-02, 1.216E+02
 7.100E+02, 1.099E+02, 1.167E+02, 1.247E+02, 1.618E+02, 4.314E+01, 1.348E+02, 1.711E+02, 4.433E+01, 8.151E+00, 1.822E-01, 1.567E-02, 1.646E+02
 7.200E+02, 1.126E+02, 1.142E+02, 1.296E+02, 1.640E+02, 4.407E+01, 1.329E+02, 1.655E+02, 4.411E+01,-6.653E+01, 1.819E-01, 1.582E-02, 8.272E+01
 7.300E+02, 1.101E+02, 1.141E+02, 1.267E+02, 1.593E+02, 4.412E+01, 1.339E+02, 1.643E+02, 4.417E+01,-7.524E+01, 1.819E-01, 1.582E-02, 7.929E+01
 7.400E+02, 1.084E+02, 1.287E+02, 1.245E+02, 1.555E+02, 4.506E+01, 1.567E+02, 1.858E+02, 4.362E+01,-1.324E+01, 1.812E-01, 1.623E-02, 5.859E+01
 7.500E+02, 1.089E+02, 1.296E+02, 1.265E+02, 1.559E+02, 4.432E+01, 1.714E+02, 1.718E+02, 4.568E+01,-2.998E+01, 1.803E-01, 1.674E-02, 3.439E+01
 7.600E+02, 1.110E+02, 1.181E+02, 1.264E+02, 1.615E+02, 4.510E+01, 1.429E+02, 1.676E+02, 4.372E+01,-6.284E+01, 1.805E-01, 1.661E-02, 5.300E+01
 7.700E+02, 1.080E+02, 1.216E+02, 1.240E+02, 1.541E+02, 4.583E+01, 1.469E+02, 1.738E+02, 4.413E+01, 8.362E-01, 1.802E-01, 1.678E-02, 4.880E+01
 7.800E+02, 1.098E+02, 1.307E+02, 1.277E+02, 1.560E+02, 4.568E+01, 1.585E+02, 1.872E+02, 4.622E+01,-3.510E+01, 1.786E-01, 1.768E-02, 2.724E+01
 7.900E+02, 1.107E+02, 1.156E+02, 1.250E+02, 1.609E+02, 4.603E+01, 1.312E+02, 1.702E+02, 4.540E+01,-4.253E+01, 1.791E-01, 1.739E-02, 6.433E+00
 8.000E+02, 1.110E+02, 1.353E+02, 1.217E+02, 1.642E+02, 4.693E+01, 1.716E+02, 1.892E+02, 4.513E+01, 1.115E+02, 1.790E-01, 1.744E-02, 1.226E+02
 8.100E+02, 1.107E+02, 1.602E+02, 1.231E+02, 1.627E+02, 4.632E+01, 2.324E+02, 2.026E+02, 4.562E+01,-5.308E+01, 1.788E-01, 1.756E-02, 2.405E+01
 8.200E+02, 1.131E+02, 1.272E+02, 1.294E+02, 1.638E+02, 4.601E+01, 1.504E+02, 1.846E+02, 4.674E+01,-5.709E+01, 1.779E-01, 1.807E-02, 1.442E+00
 8.300E+02, 1.124E+02, 1.308E+02, 1.263E+02, 1.642E+02, 4.660E+01, 1.465E+02, 1.993E+02, 4.667E+01,-6.669E+01, 1.775E-01, 1.831E-02, 7.747E+00
 8.400E+02, 1.122E+02, 1.206E+02, 1.248E+02, 1.655E+02, 4.628E+01, 1.361E+02, 1.792E+02, 4.647E+01,-6.487E+01, 1.769E-01, 1.861E-02, 7.726E-01
 8.500E+02, 1.174E+02, 1.299E+02, 1.291E+02, 1.762E+02, 4.673E+01, 1.583E+02, 1.845E+02, 4.710E+01, 7.450E+01, 1.765E-01, 1.885E-02, 1.785E+01
 8.600E+02, 1.180E+02, 1.245E+02, 1.348E+02, 1.724E+02, 4.669E+01, 1.421E+02, 1.849E+02, 4.634E+01,-5.696E+01, 1.763E-01, 1.894E-02, 9.188E+00
 8.700E+02, 1.118E+02, 1.144E+02, 1.241E+02, 1.648E+02, 4.652E+01, 1.422E+02, 1.545E+02, 4.636E+01,-1.005E+02, 1.763E-01, 1.896E-02, 3.159E+00
 8.800E+02, 1.163E+02, 1.281E+02, 1.282E+02, 1.736E+02, 4.696E+01, 1.566E+02, 1.812E+02, 4.657E+01, 6.256E+01, 1.760E-01, 1.913E-02, 4.273E+01
 8.900E+02, 1.151E+02, 1.210E+02, 1.323E+02, 1.658E+02, 4.726E+01, 1.441E+02, 1.732E+02, 4.577E+01,-5.608E+01, 1.760E-01, 1.915E-02, 1.293E+01
 9.000E+02, 1.131E+02, 1.304E+02, 1.289E+02, 1.646E+02, 4.587E+01, 1.461E+02, 1.983E+02, 4.686E+01,-2.643E+01, 1.755E-01, 1.940E-02, 8.104E+00
 9.100E+02, 1.153E+02, 1.291E+02, 1.275E+02, 1.712E+02, 4.729E+01, 1.603E+02, 1.805E+02, 4.658E+01,-2.328E+01, 1.754E-01, 1.949E-02, 6.723E+00
 9.200E+02, 1.178E+02, 1.265E+02, 1.340E+02, 1.724E+02, 4.687E+01, 1.476E+02, 1.846E+02, 4.733E+01,-3.303E+01, 1.747E-01, 1.987E-02, 1.284E+00
 9.300E+02, 1.194E+02, 1.484E+02, 1.290E+02, 1.812E+02, 4.803E+01, 1.733E+02, 2.251E+02, 4.662E+01, 3.034E+02, 1.749E-01, 1.976E-02, 1.431E+02
 9.400E+02, 1.256E+02, 1.312E+02, 1.411E+02, 1.872E+02, 4.849E+01, 1.540E+02, 1.928E+02, 4.684E+01,-1.187E+02, 1.743E-01, 2.007E-02, 2.537E+00
 9.500E+02, 1.214E+02, 1.217E+02, 1.400E+02, 1.764E+02, 4.777E+01, 1.490E+02, 1.674E+02, 4.867E+01,-6.194E+01, 1.738E-01, 2.036E-02, 3.094E+00
 9.600E+02, 1.274E+02, 1.369E+02, 1.491E+02, 1.843E+02, 4.883E+01, 1.741E+02, 1.899E+02, 4.666E+01, 3.422E+01, 1.741E-01, 2.017E-02, 5.719E+01
 9.700E+02, 1.217E+02, 1.800E+02, 1.395E+02, 1.757E+02, 4.978E+01, 2.437E+02, 2.478E+02, 4.847E+01,-4.202E+01, 1.730E-01, 2.082E-02, 8.697E+01
 9.800E+02, 1.236E+02, 1.523E+02, 1.447E+02, 1.766E+02, 4.959E+01, 1.911E+02, 2.169E+02, 4.888E+01,-2.498E+01, 1.732E-01, 2.071E-02, 1.222E+02
 9.900E+02, 1.218E+02, 1.314E+02, 1.384E+02, 1.770E+02, 4.999E+01, 1.556E+02, 1.901E+02, 4.856E+01,-5.461E+01, 1.726E-01, 2.105E-02, 1.277E+02
 1.000E+03, 1.237E+02, 1.272E+02, 1.441E+02, 1.767E+02, 5.045E+01, 1.487E+02, 1.829E+02, 5.002E+01,-5.498E+01, 1.723E-01, 2.120E-02, 1.211E+02
 1.010E+03, 1.222E+02, 1.248E+02, 1.379E+02, 1.785E+02, 5.014E+01, 1.455E+02, 1.794E+02, 4.933E+01,-3.036E+01, 1.723E-01, 2.122E-02, 1.392E+02
 1.020E+03, 1.252E+02, 1.235E+02, 1.428E+02, 1.823E+02, 5.070E+01, 1.467E+02, 1.744E+02, 4.928E+01,-4.730E+01, 1.713E-01, 2.175E-02, 6.813E+01
 1.030E+03, 1.215E+02, 1.265E+02, 1.361E+02, 1.783E+02, 5.018E+01, 1.470E+02, 1.818E+02, 5.077E+01, 3.182E+00, 1.711E-01, 2.185E-02, 1.740E+02
 1.040E+03, 1.243E+02, 1.250E+02, 1.425E+02, 1.791E+02, 5.115E+01, 1.460E+02, 1.790E+02, 4.988E+01,-4.346E+01, 1.709E-01, 2.199E-02, 1.334E+02
 1.050E+03, 1.211E+02, 1.242E+02, 1.378E+02, 1.753E+02, 5.023E+01, 1.452E+02, 1.773E+02, 5.002E+01,-4.585E+01, 1.706E-01, 2.216E-02, 1.082E+02
 1.060E+03, 1.198E+02, 1.304E+02, 1.360E+02, 1.728E+02, 5.051E+01, 1.561E+02, 1.850E+02, 5.003E+01,-4.423E+01, 1.700E-01, 2.249E-02, 1.081E+02
 1.070E+03, 1.179E+02, 1.327E+02, 1.332E+02, 1.703E+02, 5.006E+01, 1.593E+02, 1.886E+02, 5.030E+01,-1.431E+01, 1.699E-01, 2.255E-02, 1.361E+02
 1.080E+03, 1.197E+02, 1.344E+02, 1.368E+02, 1.721E+02, 5.016E+01, 1.693E+02, 1.844E+02, 4.955E+01,-9.383E+01, 1.694E-01, 2.284E-02, 4.323E+01
 1.090E+03, 1.176E+02, 1.309E+02, 1.329E+02, 1.693E+02, 5.050E+01, 1.546E+02, 1.869E+02, 5.103E+01, 1.549E+01, 1.692E-01, 2.293E-02, 1.080E+02
 1.100E+03, 1.195E+02, 1.265E+02, 1.371E+02, 1.704E+02, 5.111E+01, 1.476E+02, 1.822E+02, 4.953E+01,-2.046E+01, 1.690E-01, 2.302E-02, 7.249E+01
 1.110E+03, 1.215E+02, 1.332E+02, 1.390E+02, 1.742E+02, 5.133E+01, 1.505E+02, 1.989E+02, 5.029E+01,-1.740E+01, 1.685E-01, 2.330E-02, 1.101E+02
 1.120E+03, 1.198E+02, 1.303E+02, 1.373E+02, 1.705E+02, 5.148E+01, 1.464E+02, 1.937E+02, 5.087E+01,-9.737E+00, 1.682E-01, 2.352E-02, 1.003E+02
 1.130E+03, 1.214E+02, 1.258E+02, 1.399E+02, 1.720E+02, 5.229E+01, 1.513E+02, 1.749E+02, 5.109E+01,-5.300E+01, 1.676E-01, 2.384E-02, 4.261E+01
 1.140E+03, 1.192E+02, 1.229E+02, 1.392E+02, 1.674E+02, 5.116E+01, 1.448E+02, 1.717E+02, 5.210E+01,-7.662E+01, 1.672E-01, 2.403E-02, 1.892E+01
 1.150E+03, 1.192E+02, 1.376E+02, 1.339E+02, 1.706E+02, 5.305E+01, 1.592E+02, 2.020E+02, 5.157E+01, 2.665E+01, 1.666E-01, 2.437E-02, 4.247E+01
 1.160E+03, 1.212E+02, 1.291E+02, 1.386E+02, 1.729E+02, 5.215E+01, 1.591E+02, 1.761E+02, 5.208E+01,-3.940E+01, 1.666E-01, 2.437E-02, 1.431E+01
 1.170E+03, 1.174E+02, 1.208E+02, 1.337E+02, 1.668E+02, 5.162E+01, 1.445E+02, 1.671E+02, 5.083E+01,-9.521E+01, 1.667E-01, 2.431E-02, 2.766E+00
 1.180E+03, 1.182E+02, 1.334E+02, 1.343E+02, 1.679E+02, 5.245E+01, 1.439E+02, 2.045E+02, 5.169E+01, 9.636E+01, 1.665E-01, 2.445E-02, 3.242E+00
 1.190E+03, 1.210E+02, 1.280E+02, 1.348E+02, 1.763E+02, 5.176E+01, 1.478E+02, 1.849E+02, 5.131E+01,-1.027E+02, 1.661E-01, 2.468E-02, 2.560E+01
 1.200E+03, 1.211E+02, 1.336E+02, 1.374E+02, 1.732E+02, 5.283E+01, 1.516E+02, 1.973E+02, 5.188E+01, 5.916E+01, 1.655E-01, 2.503E-02, 7.146E+01
 1.210E+03, 1.248E+02, 1.350E+02, 1.411E+02, 1.805E+02, 5.279E+01, 1.531E+02, 2.011E+02, 5.067E+01,-4.876E+00, 1.652E-01, 2.516E-02, 6.501E+01
 1.220E+03, 1.257E+02, 1.354E+02, 1.413E+02, 1.832E+02, 5.262E+01, 1.648E+02, 1.894E+02, 5.208E+01,-4.077E+01, 1.650E-01, 2.528E-02, 8.513E+01
 1.230E+03, 1.261E+02, 1.376E+02, 1.482E+02, 1.763E+02, 5.377E+01, 1.636E+02, 1.952E+02, 5.404E+01,-5.162E+01, 1.647E-01, 2.545E-02, 6.441E+01
 1.240E+03, 1.242E+02, 1.418E+02, 1.448E+02, 1.734E+02, 5.445E+01, 1.642E+02, 2.075E+02, 5.376E+01,-4.749E+01, 1.644E-01, 2.561E-02, 4.906E+01
 1.250E+03, 1.258E+02, 1.713E+02, 1.426E+02, 1.795E+02, 5.522E+01, 2.260E+02, 2.341E+02, 5.376E+01, 2.675E+01, 1.637E-01, 2.601E-02, 5.988E+01
 1.260E+03, 1.276E+02, 1.401E+02, 1.490E+02, 1.803E+02, 5.353E+01, 1.714E+02, 1.943E+02, 5.453E+01,-7.916E+01, 1.635E-01, 2.613E-02, 2.799E+01
 1.270E+03, 1.259E+02, 1.342E+02, 1.470E+02, 1.761E+02, 5.471E+01, 1.653E+02, 1.839E+02, 5.348E+01,-7.392E+01, 1.634E-01, 2.616E-02, 3.566E+01
 1.280E+03, 1.251E+02, 1.353E+02, 1.437E+02, 1.774E+02, 5.415E+01, 1.589E+02, 1.932E+02, 5.379E+01, 5.170E+00, 1.631E-01, 2.632E-02, 1.162E+02
 1.290E+03, 1.249E+02, 1.271E+02, 1.429E+02, 1.767E+02, 5.514E+01, 1.468E+02, 1.809E+02, 5.348E+01,-5.184E+01, 1.629E-01, 2.643E-02, 6.469E+01
 1.300E+03, 1.245E+02, 1.380E+02, 1.392E+02, 1.792E+02, 5.513E+01, 1.647E+02, 1.940E+02, 5.532E+01, 3.662E+01, 1.628E-01, 2.651E-02, 3.555E+01
 1.310E+03, 1.287E+02, 1.459E+02, 1.476E+02, 1.834E+02, 5.520E+01, 1.751E+02, 2.075E+02, 5.522E+01,-5.436E+01, 1.625E-01, 2.670E-02, 6.261E+01
