s,C,C,C,C,C,C,C,C,Pa,mol/mol,mol/mol,kW
Time,"West_All_TCs","East_All_TCs","West_Bottom_TCs","West_Middle_TCs","West_Upper_TCs","East_Bottom_TCs","East_Middle_TCs","East_Upper_TCs","Pressure","O2","CO2","HRR"
-6.000E+01, 2.300E+01, 2.300E+01, 2.300E+01, 2.300E+01, 2.300E+01, 2.300E+01, 2.300E+01, 2.300E+01,-9.697E-06, 2.095E-01, 3.901E-04, 0.000E+00
-4.999E+01, 2.300E+01, 2.300E+01, 2.300E+01, 2.300E+01, 2.300E+01, 2.300E+01, 2.300E+01, 2.300E+01,-7.043E-04, 2.095E-01, 3.901E-04, 0.000E+00
-3.999E+01, 2.300E+01, 2.300E+01, 2.300E+01, 2.300E+01, 2.300E+01, 2.300E+01, 2.300E+01, 2.300E+01,-3.466E-05, 2.095E-01, 3.901E-04, 0.000E+00
-2.998E+01, 2.300E+01, 2.300E+01, 2.300E+01, 2.300E+01, 2.300E+01, 2.300E+01, 2.300E+01, 2.300E+01,-3.051E-05, 2.095E-01, 3.901E-04, 0.000E+00
-1.997E+01, 2.300E+01, 2.300E+01, 2.300E+01, 2.300E+01, 2.300E+01, 2.300E+01, 2.300E+01, 2.300E+01,-3.161E-05, 2.095E-01, 3.901E-04, 0.000E+00
-9.967E+00, 2.300E+01, 2.300E+01, 2.300E+01, 2.300E+01, 2.300E+01, 2.300E+01, 2.300E+01, 2.300E+01,-3.329E-05, 2.095E-01, 3.901E-04, 0.000E+00
 3.957E-02, 2.300E+01, 2.300E+01, 2.300E+01, 2.300E+01, 2.300E+01, 2.300E+01, 2.300E+01, 2.300E+01,-2.900E-05, 2.095E-01, 3.901E-04, 7.030E-04
 1.001E+01, 2.383E+01, 2.438E+01, 2.350E+01, 2.318E+01, 2.480E+01, 2.380E+01, 2.323E+01, 2.610E+01, 1.576E+01, 2.093E-01, 5.477E-04, 3.337E+01
 2.002E+01, 2.753E+01, 2.840E+01, 2.467E+01, 2.482E+01, 3.310E+01, 2.592E+01, 2.482E+01, 3.445E+01, 8.961E+01, 2.084E-01, 1.021E-03, 9.937E+01
 3.000E+01, 3.626E+01, 3.736E+01, 2.637E+01, 3.162E+01, 5.077E+01, 2.841E+01, 3.267E+01, 5.100E+01, 2.141E+02, 2.070E-01, 1.825E-03, 1.661E+02
 4.001E+01, 4.888E+01, 4.896E+01, 2.973E+01, 4.902E+01, 6.789E+01, 3.123E+01, 4.835E+01, 6.730E+01, 2.899E+02, 2.051E-01, 2.877E-03, 2.006E+02
 5.001E+01, 6.090E+01, 6.273E+01, 3.549E+01, 6.534E+01, 8.187E+01, 3.811E+01, 6.668E+01, 8.339E+01, 2.427E+02, 2.035E-01, 3.743E-03, 2.008E+02
 6.000E+01, 7.240E+01, 7.447E+01, 4.652E+01, 7.760E+01, 9.307E+01, 4.892E+01, 7.903E+01, 9.548E+01, 1.978E+02, 2.020E-01, 4.607E-03, 2.009E+02
 7.000E+01, 8.363E+01, 8.508E+01, 5.776E+01, 9.074E+01, 1.024E+02, 5.985E+01, 8.879E+01, 1.066E+02, 1.544E+02, 2.005E-01, 5.421E-03, 2.008E+02
 8.000E+01, 9.438E+01, 9.621E+01, 6.867E+01, 1.008E+02, 1.137E+02, 7.119E+01, 9.998E+01, 1.175E+02, 1.215E+02, 1.989E-01, 6.334E-03, 2.010E+02
 9.002E+01, 1.026E+02, 1.034E+02, 7.786E+01, 1.104E+02, 1.196E+02, 8.000E+01, 1.075E+02, 1.226E+02, 8.787E+01, 1.979E-01, 6.876E-03, 2.003E+02
 1.000E+02, 1.102E+02, 1.112E+02, 8.465E+01, 1.180E+02, 1.279E+02, 8.906E+01, 1.147E+02, 1.299E+02, 6.545E+01, 1.963E-01, 7.778E-03, 2.005E+02
 1.100E+02, 1.170E+02, 1.174E+02, 9.403E+01, 1.221E+02, 1.349E+02, 9.451E+01, 1.208E+02, 1.368E+02, 5.515E+01, 1.951E-01, 8.463E-03, 2.016E+02
 1.200E+02, 1.200E+02, 1.218E+02, 1.012E+02, 1.244E+02, 1.343E+02, 9.998E+01, 1.256E+02, 1.399E+02, 4.033E+01, 1.936E-01, 9.297E-03, 2.004E+02
 1.300E+02, 1.277E+02, 1.269E+02, 1.079E+02, 1.325E+02, 1.429E+02, 1.066E+02, 1.304E+02, 1.438E+02, 3.129E+01, 1.926E-01, 9.857E-03, 2.007E+02
 1.400E+02, 1.306E+02, 1.311E+02, 1.094E+02, 1.334E+02, 1.491E+02, 1.114E+02, 1.349E+02, 1.469E+02, 2.475E+01, 1.908E-01, 1.087E-02, 2.011E+02
 1.500E+02, 1.315E+02, 1.352E+02, 1.124E+02, 1.357E+02, 1.464E+02, 1.146E+02, 1.366E+02, 1.543E+02, 2.154E+01, 1.893E-01, 1.171E-02, 2.016E+02
 1.600E+02, 1.362E+02, 1.364E+02, 1.168E+02, 1.416E+02, 1.504E+02, 1.165E+02, 1.370E+02, 1.558E+02, 1.887E+01, 1.875E-01, 1.269E-02, 2.012E+02
 1.700E+02, 1.376E+02, 1.389E+02, 1.166E+02, 1.427E+02, 1.535E+02, 1.207E+02, 1.413E+02, 1.546E+02, 1.678E+01, 1.867E-01, 1.318E-02, 2.012E+02
 1.800E+02, 1.396E+02, 1.411E+02, 1.192E+02, 1.436E+02, 1.559E+02, 1.212E+02, 1.426E+02, 1.594E+02, 1.522E+01, 1.849E-01, 1.418E-02, 2.004E+02
 1.900E+02, 1.426E+02, 1.426E+02, 1.246E+02, 1.474E+02, 1.558E+02, 1.215E+02, 1.439E+02, 1.625E+02, 1.397E+01, 1.827E-01, 1.538E-02, 1.996E+02
 2.000E+02, 1.430E+02, 1.433E+02, 1.234E+02, 1.473E+02, 1.583E+02, 1.230E+02, 1.459E+02, 1.608E+02, 1.429E+01, 1.816E-01, 1.598E-02, 2.007E+02
 2.100E+02, 1.433E+02, 1.431E+02, 1.221E+02, 1.500E+02, 1.580E+02, 1.264E+02, 1.449E+02, 1.581E+02, 1.406E+01, 1.807E-01, 1.649E-02, 2.006E+02
 2.200E+02, 1.432E+02, 1.459E+02, 1.228E+02, 1.471E+02, 1.596E+02, 1.237E+02, 1.508E+02, 1.633E+02, 1.360E+01, 1.781E-01, 1.799E-02, 2.005E+02
 2.300E+02, 1.440E+02, 1.474E+02, 1.249E+02, 1.482E+02, 1.590E+02, 1.279E+02, 1.506E+02, 1.638E+02, 1.320E+01, 1.771E-01, 1.852E-02, 2.007E+02
 2.400E+02, 1.440E+02, 1.486E+02, 1.243E+02, 1.469E+02, 1.608E+02, 1.257E+02, 1.530E+02, 1.670E+02, 1.381E+01, 1.752E-01, 1.960E-02, 1.996E+02
 2.500E+02, 1.495E+02, 1.483E+02, 1.283E+02, 1.543E+02, 1.658E+02, 1.279E+02, 1.547E+02, 1.625E+02, 1.348E+01, 1.740E-01, 2.027E-02, 2.008E+02
 2.600E+02, 1.454E+02, 1.498E+02, 1.242E+02, 1.478E+02, 1.641E+02, 1.284E+02, 1.515E+02, 1.695E+02, 1.351E+01, 1.721E-01, 2.129E-02, 2.002E+02
 2.700E+02, 1.483E+02, 1.483E+02, 1.256E+02, 1.537E+02, 1.655E+02, 1.262E+02, 1.545E+02, 1.641E+02, 1.277E+01, 1.708E-01, 2.202E-02, 2.004E+02
 2.800E+02, 1.490E+02, 1.487E+02, 1.250E+02, 1.532E+02, 1.688E+02, 1.291E+02, 1.544E+02, 1.627E+02, 1.338E+01, 1.694E-01, 2.284E-02, 2.002E+02
 2.900E+02, 1.470E+02, 1.499E+02, 1.260E+02, 1.479E+02, 1.672E+02, 1.280E+02, 1.582E+02, 1.633E+02, 1.343E+01, 1.677E-01, 2.377E-02, 2.006E+02
 3.000E+02, 1.484E+02, 1.513E+02, 1.265E+02, 1.516E+02, 1.673E+02, 1.329E+02, 1.559E+02, 1.650E+02, 1.340E+01, 1.664E-01, 2.452E-02, 2.009E+02
 3.100E+02, 1.485E+02, 1.514E+02, 1.279E+02, 1.512E+02, 1.664E+02, 1.325E+02, 1.562E+02, 1.654E+02, 1.370E+01, 1.645E-01, 2.556E-02, 2.004E+02
 3.200E+02, 1.500E+02, 1.484E+02, 1.274E+02, 1.539E+02, 1.687E+02, 1.312E+02, 1.554E+02, 1.586E+02, 1.321E+01, 1.637E-01, 2.598E-02, 1.998E+02
 3.300E+02, 1.472E+02, 1.515E+02, 1.272E+02, 1.486E+02, 1.658E+02, 1.390E+02, 1.536E+02, 1.620E+02, 1.365E+01, 1.615E-01, 2.721E-02, 1.990E+02
 3.400E+02, 1.481E+02, 1.540E+02, 1.291E+02, 1.506E+02, 1.646E+02, 1.367E+02, 1.568E+02, 1.686E+02, 1.335E+01, 1.596E-01, 2.832E-02, 1.993E+02
 3.500E+02, 1.477E+02, 1.537E+02, 1.292E+02, 1.495E+02, 1.643E+02, 1.366E+02, 1.541E+02, 1.705E+02, 1.370E+01, 1.580E-01, 2.919E-02, 1.990E+02
 3.600E+02, 1.506E+02, 1.500E+02, 1.310E+02, 1.545E+02, 1.664E+02, 1.333E+02, 1.541E+02, 1.626E+02, 1.320E+01, 1.572E-01, 2.963E-02, 2.001E+02
 3.700E+02, 1.496E+02, 1.490E+02, 1.311E+02, 1.526E+02, 1.650E+02, 1.308E+02, 1.510E+02, 1.653E+02, 1.375E+01, 1.552E-01, 3.075E-02, 2.000E+02
 3.800E+02, 1.484E+02, 1.496E+02, 1.296E+02, 1.520E+02, 1.636E+02, 1.301E+02, 1.511E+02, 1.677E+02, 1.439E+01, 1.531E-01, 3.190E-02, 2.001E+02
 3.900E+02, 1.523E+02, 1.492E+02, 1.320E+02, 1.574E+02, 1.675E+02, 1.312E+02, 1.519E+02, 1.646E+02, 1.384E+01, 1.518E-01, 3.264E-02, 2.001E+02
 4.000E+02, 1.511E+02, 1.488E+02, 1.318E+02, 1.550E+02, 1.665E+02, 1.317E+02, 1.521E+02, 1.625E+02, 1.347E+01, 1.507E-01, 3.327E-02, 1.993E+02
 4.100E+02, 1.511E+02, 1.494E+02, 1.298E+02, 1.564E+02, 1.673E+02, 1.332E+02, 1.507E+02, 1.643E+02, 1.362E+01, 1.484E-01, 3.454E-02, 2.002E+02
 4.200E+02, 1.515E+02, 1.500E+02, 1.326E+02, 1.563E+02, 1.657E+02, 1.310E+02, 1.517E+02, 1.674E+02, 1.365E+01, 1.466E-01, 3.555E-02, 2.005E+02
 4.300E+02, 1.513E+02, 1.513E+02, 1.308E+02, 1.576E+02, 1.656E+02, 1.310E+02, 1.538E+02, 1.693E+02, 1.399E+01, 1.449E-01, 3.652E-02, 2.017E+02
 4.400E+02, 1.538E+02, 1.499E+02, 1.311E+02, 1.606E+02, 1.696E+02, 1.309E+02, 1.526E+02, 1.663E+02, 1.396E+01, 1.438E-01, 3.713E-02, 1.999E+02
 4.500E+02, 1.520E+02, 1.518E+02, 1.299E+02, 1.572E+02, 1.690E+02, 1.333E+02, 1.539E+02, 1.682E+02, 1.367E+01, 1.421E-01, 3.806E-02, 2.004E+02
 4.600E+02, 1.555E+02, 1.521E+02, 1.329E+02, 1.607E+02, 1.728E+02, 1.337E+02, 1.561E+02, 1.665E+02, 1.405E+01, 1.409E-01, 3.875E-02, 2.004E+02
 4.700E+02, 1.562E+02, 1.504E+02, 1.318E+02, 1.636E+02, 1.731E+02, 1.308E+02, 1.535E+02, 1.669E+02, 1.350E+01, 1.390E-01, 3.980E-02, 2.002E+02
 4.800E+02, 1.561E+02, 1.528E+02, 1.342E+02, 1.629E+02, 1.713E+02, 1.323E+02, 1.560E+02, 1.699E+02, 1.392E+01, 1.374E-01, 4.068E-02, 2.006E+02
 4.900E+02, 1.577E+02, 1.534E+02, 1.351E+02, 1.652E+02, 1.728E+02, 1.327E+02, 1.579E+02, 1.696E+02, 1.427E+01, 1.357E-01, 4.162E-02, 2.003E+02
 5.000E+02, 1.572E+02, 1.520E+02, 1.354E+02, 1.647E+02, 1.715E+02, 1.320E+02, 1.537E+02, 1.704E+02, 1.359E+01, 1.341E-01, 4.254E-02, 1.961E+02
 5.100E+02, 1.542E+02, 1.522E+02, 1.332E+02, 1.579E+02, 1.715E+02, 1.343E+02, 1.558E+02, 1.666E+02, 1.153E+01, 1.330E-01, 4.313E-02, 1.878E+02
 5.200E+02, 1.517E+02, 1.511E+02, 1.327E+02, 1.559E+02, 1.666E+02, 1.340E+02, 1.543E+02, 1.649E+02, 8.874E+00, 1.312E-01, 4.415E-02, 1.777E+02
 5.300E+02, 1.490E+02, 1.491E+02, 1.306E+02, 1.529E+02, 1.636E+02, 1.319E+02, 1.535E+02, 1.620E+02,-5.814E+00, 1.302E-01, 4.466E-02, 1.587E+02
 5.400E+02, 1.453E+02, 1.471E+02, 1.286E+02, 1.493E+02, 1.582E+02, 1.300E+02, 1.498E+02, 1.615E+02, 4.832E+00, 1.291E-01, 4.526E-02, 1.576E+02
 5.500E+02, 1.443E+02, 1.437E+02, 1.271E+02, 1.497E+02, 1.562E+02, 1.288E+02, 1.473E+02, 1.550E+02,-2.672E+01, 1.288E-01, 4.544E-02, 1.362E+02
 5.600E+02, 1.426E+02, 1.421E+02, 1.274E+02, 1.466E+02, 1.539E+02, 1.272E+02, 1.437E+02, 1.555E+02, 2.824E+01, 1.275E-01, 4.615E-02, 1.844E+02
 5.700E+02, 1.393E+02, 1.408E+02, 1.252E+02, 1.431E+02, 1.496E+02, 1.257E+02, 1.426E+02, 1.543E+02,-3.416E+00, 1.274E-01, 4.613E-02, 1.351E+02
 5.800E+02, 1.376E+02, 1.394E+02, 1.248E+02, 1.410E+02, 1.469E+02, 1.246E+02, 1.411E+02, 1.525E+02,-2.087E+01, 1.274E-01, 4.606E-02, 1.181E+02
 5.900E+02, 1.361E+02, 1.403E+02, 1.254E+02, 1.397E+02, 1.433E+02, 1.265E+02, 1.396E+02, 1.549E+02, 1.242E+01, 1.271E-01, 4.623E-02, 1.416E+02
 6.000E+02, 1.351E+02, 1.368E+02, 1.243E+02, 1.381E+02, 1.429E+02, 1.205E+02, 1.386E+02, 1.513E+02,-4.169E+01, 1.276E-01, 4.591E-02, 8.933E+01
 6.100E+02, 1.299E+02, 1.418E+02, 1.217E+02, 1.330E+02, 1.350E+02, 1.373E+02, 1.412E+02, 1.469E+02,-1.421E+01, 1.283E-01, 4.540E-02, 6.633E+01
 6.200E+02, 1.258E+02, 1.259E+02, 1.193E+02, 1.272E+02, 1.310E+02, 1.177E+02, 1.279E+02, 1.320E+02,-1.178E+01, 1.299E-01, 4.447E-02, 1.913E+01
 6.300E+02, 1.220E+02, 1.241E+02, 1.156E+02, 1.229E+02, 1.275E+02, 1.190E+02, 1.228E+02, 1.305E+02, 6.890E+00, 1.299E-01, 4.458E-02, 3.835E+01
 6.400E+02, 1.170E+02, 1.192E+02, 1.105E+02, 1.195E+02, 1.209E+02, 1.129E+02, 1.185E+02, 1.263E+02,-6.084E+00, 1.311E-01, 4.378E-02, 2.012E+00
 6.500E+02, 1.172E+02, 1.135E+02, 1.136E+02, 1.182E+02, 1.200E+02, 1.046E+02, 1.131E+02, 1.227E+02,-4.203E+00, 1.303E-01, 4.425E-02, 0.000E+00
 6.600E+02, 1.123E+02, 1.409E+02, 1.073E+02, 1.139E+02, 1.157E+02, 1.695E+02, 1.327E+02, 1.204E+02,-5.671E-01, 1.307E-01, 4.393E-02, 3.161E-01
 6.700E+02, 1.086E+02, 1.122E+02, 1.047E+02, 1.097E+02, 1.115E+02, 1.079E+02, 1.132E+02, 1.155E+02,-2.810E+00, 1.313E-01, 4.354E-02, 4.911E+00
 6.800E+02, 1.058E+02, 1.058E+02, 1.018E+02, 1.064E+02, 1.091E+02, 9.874E+01, 1.062E+02, 1.125E+02, 1.728E+00, 1.312E-01, 4.329E-02, 0.000E+00
 6.900E+02, 1.030E+02, 1.015E+02, 9.862E+01, 1.042E+02, 1.062E+02, 9.341E+01, 1.018E+02, 1.094E+02,-5.603E-01, 1.307E-01, 4.372E-02, 0.000E+00
 7.000E+02, 1.012E+02, 1.106E+02, 9.608E+01, 1.033E+02, 1.043E+02, 1.094E+02, 1.105E+02, 1.118E+02,-3.650E-01, 1.314E-01, 4.326E-02, 1.130E-02
 7.100E+02, 9.741E+01, 1.006E+02, 9.276E+01, 9.897E+01, 1.005E+02, 9.601E+01, 1.003E+02, 1.056E+02, 3.024E+00, 1.322E-01, 4.280E-02, 0.000E+00
 7.200E+02, 9.630E+01, 9.721E+01, 9.332E+01, 9.674E+01, 9.883E+01, 9.378E+01, 9.619E+01, 1.017E+02, 3.568E+00, 1.316E-01, 4.313E-02, 0.000E+00
 7.300E+02, 9.397E+01, 9.332E+01, 8.988E+01, 9.532E+01, 9.673E+01, 8.678E+01, 9.346E+01, 9.970E+01, 3.579E+00, 1.314E-01, 4.310E-02, 0.000E+00
 7.400E+02, 9.210E+01, 9.264E+01, 8.868E+01, 9.296E+01, 9.465E+01, 8.755E+01, 9.222E+01, 9.815E+01, 5.092E+00, 1.315E-01, 4.300E-02, 0.000E+00
 7.500E+02, 9.061E+01, 9.005E+01, 8.597E+01, 9.195E+01, 9.391E+01, 8.404E+01, 9.005E+01, 9.607E+01, 3.455E+00, 1.314E-01, 4.299E-02, 0.000E+00
 7.600E+02, 8.942E+01, 8.861E+01, 8.524E+01, 9.045E+01, 9.256E+01, 8.292E+01, 8.821E+01, 9.470E+01, 5.061E+00, 1.314E-01, 4.285E-02, 0.000E+00
 7.700E+02, 8.799E+01, 8.660E+01, 8.434E+01, 8.908E+01, 9.055E+01, 7.908E+01, 8.706E+01, 9.366E+01, 4.798E+00, 1.316E-01, 4.274E-02, 0.000E+00
 7.800E+02, 8.717E+01, 8.506E+01, 8.409E+01, 8.773E+01, 8.969E+01, 7.926E+01, 8.469E+01, 9.122E+01, 4.946E+00, 1.314E-01, 4.274E-02, 0.000E+00
 7.900E+02, 8.527E+01, 8.467E+01, 8.037E+01, 8.702E+01, 8.841E+01, 8.012E+01, 8.463E+01, 8.927E+01, 4.515E+00, 1.313E-01, 4.273E-02, 0.000E+00
 8.000E+02, 8.387E+01, 8.281E+01, 8.031E+01, 8.512E+01, 8.616E+01, 7.808E+01, 8.261E+01, 8.775E+01, 4.871E+00, 1.314E-01, 4.270E-02, 0.000E+00
