s,C,C,C,C,C,C,C,C,Pa,mol/mol,mol/mol,kW
Time,West_All_TCs,East_All_TCs,West_Bottom_TCs,West_Middle_TCs,West_Upper_TCs,East_Bottom_TCs,East_Middle_TCs,East_Upper_TCs,Pressure,O2,CO2,HRR
-6.000E+01, 2.000E+01, 2.000E+01, 2.000E+01, 2.000E+01, 2.000E+01, 2.000E+01, 2.000E+01, 2.000E+01,-9.803E-06, 2.095E-01, 3.901E-04, 0.000E+00
-4.999E+01, 1.993E+01, 1.991E+01, 1.999E+01, 1.896E+01, 2.084E+01, 1.999E+01, 1.880E+01, 2.094E+01,-2.093E+01, 2.095E-01, 3.901E-04, 0.000E+00
-3.999E+01, 1.970E+01, 1.957E+01, 1.924E+01, 1.884E+01, 2.102E+01, 1.878E+01, 1.829E+01, 2.166E+01,-2.047E+01, 2.095E-01, 3.901E-04, 0.000E+00
-2.991E+01, 1.986E+01, 1.973E+01, 1.921E+01, 1.908E+01, 2.129E+01, 1.874E+01, 1.866E+01, 2.179E+01,-2.052E+01, 2.095E-01, 3.901E-04, 0.000E+00
-1.991E+01, 1.981E+01, 1.989E+01, 1.897E+01, 1.907E+01, 2.138E+01, 1.890E+01, 1.902E+01, 2.177E+01,-2.047E+01, 2.095E-01, 3.901E-04, 0.000E+00
-9.993E+00, 1.976E+01, 2.000E+01, 1.896E+01, 1.897E+01, 2.135E+01, 1.913E+01, 1.902E+01, 2.186E+01,-2.046E+01, 2.095E-01, 3.901E-04, 0.000E+00
 1.318E-02, 1.975E+01, 2.008E+01, 1.893E+01, 1.881E+01, 2.151E+01, 1.905E+01, 1.920E+01, 2.199E+01,-2.045E+01, 2.095E-01, 3.901E-04, 1.864E-04
 1.003E+01, 2.093E+01, 2.126E+01, 1.957E+01, 2.111E+01, 2.212E+01, 1.979E+01, 2.146E+01, 2.252E+01,-3.039E+00, 2.095E-01, 3.901E-04, 3.277E+01
 2.002E+01, 2.469E+01, 2.541E+01, 2.167E+01, 2.997E+01, 2.241E+01, 2.216E+01, 3.096E+01, 2.309E+01, 2.982E+01, 2.095E-01, 3.901E-04, 9.940E+01
 3.001E+01, 3.273E+01, 3.352E+01, 2.524E+01, 4.992E+01, 2.302E+01, 2.619E+01, 5.100E+01, 2.337E+01, 1.043E+02, 2.095E-01, 3.901E-04, 1.659E+02
 4.001E+01, 4.389E+01, 4.374E+01, 3.330E+01, 7.530E+01, 2.308E+01, 3.450E+01, 7.383E+01, 2.289E+01, 1.363E+02, 2.095E-01, 3.906E-04, 2.001E+02
 5.001E+01, 5.490E+01, 5.521E+01, 4.488E+01, 9.562E+01, 2.421E+01, 4.445E+01, 9.694E+01, 2.424E+01, 9.848E+01, 2.091E-01, 6.477E-04, 2.000E+02
 6.002E+01, 6.474E+01, 6.482E+01, 5.689E+01, 1.125E+02, 2.485E+01, 5.715E+01, 1.111E+02, 2.621E+01, 7.006E+01, 2.087E-01, 8.714E-04, 2.000E+02
 7.000E+01, 7.344E+01, 7.404E+01, 6.850E+01, 1.253E+02, 2.652E+01, 6.985E+01, 1.245E+02, 2.779E+01, 4.744E+01, 2.086E-01, 9.453E-04, 2.002E+02
 8.000E+01, 8.199E+01, 8.225E+01, 8.051E+01, 1.374E+02, 2.806E+01, 8.208E+01, 1.357E+02, 2.897E+01, 3.251E+01, 2.082E-01, 1.154E-03, 2.000E+02
 9.000E+01, 8.875E+01, 8.963E+01, 9.138E+01, 1.451E+02, 2.976E+01, 9.413E+01, 1.442E+02, 3.053E+01, 2.221E+01, 2.079E-01, 1.324E-03, 2.002E+02
 1.000E+02, 9.606E+01, 9.698E+01, 1.021E+02, 1.547E+02, 3.144E+01, 1.031E+02, 1.551E+02, 3.271E+01, 1.582E+01, 2.076E-01, 1.504E-03, 2.001E+02
 1.100E+02, 1.011E+02, 1.015E+02, 1.095E+02, 1.609E+02, 3.275E+01, 1.115E+02, 1.588E+02, 3.412E+01, 1.137E+01, 2.071E-01, 1.745E-03, 2.001E+02
 1.200E+02, 1.052E+02, 1.056E+02, 1.165E+02, 1.649E+02, 3.412E+01, 1.182E+02, 1.634E+02, 3.531E+01, 7.098E+00, 2.068E-01, 1.907E-03, 1.999E+02
 1.300E+02, 1.092E+02, 1.110E+02, 1.226E+02, 1.703E+02, 3.484E+01, 1.259E+02, 1.703E+02, 3.667E+01, 4.281E-01, 2.062E-01, 2.232E-03, 2.001E+02
 1.400E+02, 1.133E+02, 1.154E+02, 1.300E+02, 1.736E+02, 3.624E+01, 1.310E+02, 1.771E+02, 3.793E+01,-1.046E+00, 2.059E-01, 2.452E-03, 2.006E+02
 1.500E+02, 1.156E+02, 1.178E+02, 1.330E+02, 1.758E+02, 3.789E+01, 1.335E+02, 1.806E+02, 3.930E+01,-4.392E+00, 2.052E-01, 2.823E-03, 1.996E+02
 1.600E+02, 1.169E+02, 1.195E+02, 1.369E+02, 1.748E+02, 3.909E+01, 1.378E+02, 1.805E+02, 4.023E+01,-5.814E+00, 2.047E-01, 3.123E-03, 2.004E+02
 1.700E+02, 1.189E+02, 1.216E+02, 1.383E+02, 1.784E+02, 3.989E+01, 1.400E+02, 1.830E+02, 4.163E+01,-7.061E+00, 2.041E-01, 3.420E-03, 1.997E+02
 1.800E+02, 1.194E+02, 1.236E+02, 1.409E+02, 1.769E+02, 4.055E+01, 1.419E+02, 1.865E+02, 4.249E+01,-8.084E+00, 2.034E-01, 3.839E-03, 2.006E+02
 1.900E+02, 1.218E+02, 1.242E+02, 1.423E+02, 1.814E+02, 4.154E+01, 1.441E+02, 1.855E+02, 4.282E+01,-1.062E+01, 2.029E-01, 4.129E-03, 2.000E+02
 2.000E+02, 1.220E+02, 1.274E+02, 1.416E+02, 1.822E+02, 4.212E+01, 1.464E+02, 1.918E+02, 4.399E+01,-1.163E+01, 2.021E-01, 4.566E-03, 1.997E+02
 2.100E+02, 1.233E+02, 1.266E+02, 1.442E+02, 1.832E+02, 4.260E+01, 1.454E+02, 1.902E+02, 4.433E+01,-1.106E+01, 2.017E-01, 4.770E-03, 2.001E+02
 2.200E+02, 1.231E+02, 1.272E+02, 1.441E+02, 1.815E+02, 4.364E+01, 1.464E+02, 1.905E+02, 4.463E+01,-1.124E+01, 2.010E-01, 5.190E-03, 2.000E+02
 2.300E+02, 1.235E+02, 1.285E+02, 1.433E+02, 1.830E+02, 4.428E+01, 1.485E+02, 1.920E+02, 4.501E+01,-1.254E+01, 2.000E-01, 5.706E-03, 2.003E+02
 2.400E+02, 1.238E+02, 1.289E+02, 1.434E+02, 1.839E+02, 4.405E+01, 1.486E+02, 1.919E+02, 4.621E+01,-1.209E+01, 1.994E-01, 6.085E-03, 2.003E+02
 2.500E+02, 1.248E+02, 1.292E+02, 1.449E+02, 1.840E+02, 4.561E+01, 1.475E+02, 1.939E+02, 4.630E+01,-1.290E+01, 1.989E-01, 6.345E-03, 1.998E+02
 2.600E+02, 1.247E+02, 1.290E+02, 1.448E+02, 1.836E+02, 4.566E+01, 1.483E+02, 1.924E+02, 4.645E+01,-1.224E+01, 1.975E-01, 7.139E-03, 2.000E+02
 2.700E+02, 1.255E+02, 1.305E+02, 1.454E+02, 1.849E+02, 4.626E+01, 1.488E+02, 1.955E+02, 4.709E+01,-1.170E+01, 1.965E-01, 7.666E-03, 2.006E+02
 2.800E+02, 1.260E+02, 1.314E+02, 1.456E+02, 1.864E+02, 4.601E+01, 1.513E+02, 1.954E+02, 4.738E+01,-1.277E+01, 1.958E-01, 8.096E-03, 1.999E+02
 2.900E+02, 1.260E+02, 1.304E+02, 1.463E+02, 1.856E+02, 4.618E+01, 1.502E+02, 1.932E+02, 4.782E+01,-1.299E+01, 1.950E-01, 8.507E-03, 2.000E+02
 3.000E+02, 1.271E+02, 1.317E+02, 1.459E+02, 1.887E+02, 4.666E+01, 1.509E+02, 1.957E+02, 4.858E+01,-1.223E+01, 1.942E-01, 8.990E-03, 2.000E+02
 3.100E+02, 1.280E+02, 1.309E+02, 1.477E+02, 1.894E+02, 4.696E+01, 1.499E+02, 1.943E+02, 4.851E+01,-1.266E+01, 1.931E-01, 9.587E-03, 2.007E+02
 3.200E+02, 1.276E+02, 1.314E+02, 1.474E+02, 1.879E+02, 4.747E+01, 1.512E+02, 1.945E+02, 4.856E+01,-1.427E+01, 1.921E-01, 1.012E-02, 1.997E+02
 3.300E+02, 1.283E+02, 1.312E+02, 1.466E+02, 1.899E+02, 4.827E+01, 1.514E+02, 1.932E+02, 4.897E+01,-1.301E+01, 1.916E-01, 1.044E-02, 1.998E+02
 3.400E+02, 1.285E+02, 1.318E+02, 1.482E+02, 1.897E+02, 4.757E+01, 1.525E+02, 1.941E+02, 4.873E+01,-1.277E+01, 1.906E-01, 1.096E-02, 2.002E+02
 3.500E+02, 1.287E+02, 1.335E+02, 1.474E+02, 1.908E+02, 4.779E+01, 1.529E+02, 1.984E+02, 4.924E+01,-1.297E+01, 1.894E-01, 1.162E-02, 2.003E+02
 3.600E+02, 1.298E+02, 1.332E+02, 1.486E+02, 1.921E+02, 4.878E+01, 1.529E+02, 1.973E+02, 4.933E+01,-1.329E+01, 1.882E-01, 1.234E-02, 2.000E+02
 3.700E+02, 1.305E+02, 1.348E+02, 1.500E+02, 1.925E+02, 4.905E+01, 1.561E+02, 1.983E+02, 4.995E+01,-1.178E+01, 1.876E-01, 1.267E-02, 1.999E+02
 3.800E+02, 1.309E+02, 1.342E+02, 1.513E+02, 1.922E+02, 4.933E+01, 1.533E+02, 1.996E+02, 4.971E+01,-1.273E+01, 1.861E-01, 1.350E-02, 2.004E+02
 3.900E+02, 1.304E+02, 1.343E+02, 1.507E+02, 1.916E+02, 4.880E+01, 1.536E+02, 1.991E+02, 5.020E+01,-1.347E+01, 1.850E-01, 1.410E-02, 1.997E+02
 4.000E+02, 1.308E+02, 1.350E+02, 1.512E+02, 1.918E+02, 4.938E+01, 1.538E+02, 2.013E+02, 4.986E+01,-1.211E+01, 1.842E-01, 1.455E-02, 2.007E+02
 4.100E+02, 1.309E+02, 1.366E+02, 1.516E+02, 1.920E+02, 4.900E+01, 1.557E+02, 2.041E+02, 5.017E+01,-1.240E+01, 1.833E-01, 1.503E-02, 2.000E+02
 4.200E+02, 1.313E+02, 1.359E+02, 1.517E+02, 1.929E+02, 4.938E+01, 1.559E+02, 2.011E+02, 5.056E+01,-1.212E+01, 1.822E-01, 1.568E-02, 2.002E+02
 4.300E+02, 1.317E+02, 1.363E+02, 1.513E+02, 1.940E+02, 4.980E+01, 1.560E+02, 2.024E+02, 5.044E+01,-1.269E+01, 1.812E-01, 1.623E-02, 2.001E+02
 4.400E+02, 1.330E+02, 1.364E+02, 1.519E+02, 1.977E+02, 4.930E+01, 1.564E+02, 2.018E+02, 5.117E+01,-1.248E+01, 1.798E-01, 1.702E-02, 2.001E+02
 4.500E+02, 1.332E+02, 1.367E+02, 1.534E+02, 1.957E+02, 5.060E+01, 1.565E+02, 2.026E+02, 5.087E+01,-1.360E+01, 1.789E-01, 1.749E-02, 1.990E+02
 4.600E+02, 1.328E+02, 1.376E+02, 1.539E+02, 1.946E+02, 4.991E+01, 1.576E+02, 2.042E+02, 5.114E+01,-1.273E+01, 1.777E-01, 1.818E-02, 1.999E+02
 4.700E+02, 1.314E+02, 1.377E+02, 1.515E+02, 1.930E+02, 4.975E+01, 1.576E+02, 2.044E+02, 5.125E+01,-1.498E+01, 1.769E-01, 1.865E-02, 1.960E+02
 4.800E+02, 1.315E+02, 1.373E+02, 1.523E+02, 1.925E+02, 4.979E+01, 1.564E+02, 2.048E+02, 5.077E+01,-1.571E+01, 1.760E-01, 1.912E-02, 1.930E+02
 4.900E+02, 1.307E+02, 1.348E+02, 1.527E+02, 1.899E+02, 4.965E+01, 1.575E+02, 1.963E+02, 5.060E+01,-9.318E+01, 1.746E-01, 1.994E-02, 1.292E+02
 5.000E+02, 1.300E+02, 1.356E+02, 1.484E+02, 1.916E+02, 5.004E+01, 1.599E+02, 1.961E+02, 5.068E+01, 1.652E+01, 1.736E-01, 2.049E-02, 2.132E+02
 5.100E+02, 1.312E+02, 1.371E+02, 1.508E+02, 1.934E+02, 4.944E+01, 1.565E+02, 2.026E+02, 5.211E+01,-6.844E+00, 1.718E-01, 2.147E-02, 1.914E+02
 5.200E+02, 1.322E+02, 1.369E+02, 1.530E+02, 1.932E+02, 5.024E+01, 1.558E+02, 2.029E+02, 5.195E+01,-2.344E+01, 1.718E-01, 2.151E-02, 1.730E+02
 5.300E+02, 1.290E+02, 1.331E+02, 1.519E+02, 1.856E+02, 4.962E+01, 1.561E+02, 1.921E+02, 5.109E+01,-9.473E+01, 1.705E-01, 2.219E-02, 1.027E+02
 5.400E+02, 1.260E+02, 1.317E+02, 1.441E+02, 1.842E+02, 4.976E+01, 1.563E+02, 1.874E+02, 5.142E+01,-8.706E+00, 1.700E-01, 2.249E-02, 1.683E+02
 5.500E+02, 1.255E+02, 1.309E+02, 1.454E+02, 1.830E+02, 4.816E+01, 1.578E+02, 1.836E+02, 5.143E+01,-7.149E+01, 1.690E-01, 2.302E-02, 8.700E+01
 5.600E+02, 1.219E+02, 1.465E+02, 1.385E+02, 1.778E+02, 4.953E+01, 1.837E+02, 2.037E+02, 5.200E+01,-1.256E+01, 1.682E-01, 2.351E-02, 9.261E+01
 5.700E+02, 1.209E+02, 1.228E+02, 1.405E+02, 1.740E+02, 4.829E+01, 1.544E+02, 1.635E+02, 5.049E+01,-6.650E+01, 1.665E-01, 2.445E-02, 5.517E+00
 5.800E+02, 1.258E+02, 1.295E+02, 1.428E+02, 1.858E+02, 4.874E+01, 1.465E+02, 1.907E+02, 5.139E+01, 6.347E+01, 1.660E-01, 2.471E-02, 4.989E+01
 5.900E+02, 1.212E+02, 1.320E+02, 1.367E+02, 1.773E+02, 4.969E+01, 1.496E+02, 1.955E+02, 5.096E+01,-4.238E+01, 1.648E-01, 2.538E-02, 4.789E+00
 6.000E+02, 1.237E+02, 1.457E+02, 1.396E+02, 1.799E+02, 5.164E+01, 1.747E+02, 2.127E+02, 4.972E+01, 1.493E+01, 1.646E-01, 2.551E-02, 4.891E+00
 6.100E+02, 1.228E+02, 1.621E+02, 1.333E+02, 1.834E+02, 5.159E+01, 2.082E+02, 2.272E+02, 5.081E+01,-1.606E+01, 1.640E-01, 2.585E-02, 5.840E+00
 6.200E+02, 1.256E+02, 1.456E+02, 1.370E+02, 1.893E+02, 5.040E+01, 1.605E+02, 2.250E+02, 5.138E+01,-1.226E+01, 1.634E-01, 2.620E-02, 6.274E+00
 6.300E+02, 1.241E+02, 1.497E+02, 1.358E+02, 1.874E+02, 4.901E+01, 1.823E+02, 2.156E+02, 5.130E+01,-4.891E+01, 1.631E-01, 2.633E-02, 3.021E+00
 6.400E+02, 1.334E+02, 1.635E+02, 1.479E+02, 2.042E+02, 4.803E+01, 1.906E+02, 2.505E+02, 4.933E+01, 1.332E+02, 1.624E-01, 2.675E-02, 3.998E+00
 6.500E+02, 1.326E+02, 1.668E+02, 1.456E+02, 2.021E+02, 5.008E+01, 2.115E+02, 2.375E+02, 5.134E+01,-3.528E+01, 1.611E-01, 2.746E-02, 1.041E+01
 6.600E+02, 1.408E+02, 2.039E+02, 1.592E+02, 2.111E+02, 5.192E+01, 2.499E+02, 3.110E+02, 5.073E+01, 3.466E+02, 1.608E-01, 2.760E-02, 9.670E+01
 6.700E+02, 1.450E+02, 1.686E+02, 1.638E+02, 2.212E+02, 4.992E+01, 2.006E+02, 2.528E+02, 5.225E+01, 5.221E+01, 1.593E-01, 2.847E-02, 1.453E+02
 6.800E+02, 1.414E+02, 1.574E+02, 1.638E+02, 2.110E+02, 4.939E+01, 1.863E+02, 2.339E+02, 5.201E+01,-8.155E+01, 1.581E-01, 2.912E-02, 1.639E+02
 6.900E+02, 1.425E+02, 1.709E+02, 1.689E+02, 2.078E+02, 5.081E+01, 1.947E+02, 2.656E+02, 5.227E+01,-3.920E+00, 1.579E-01, 2.923E-02, 1.559E+02
 7.000E+02, 1.421E+02, 1.508E+02, 1.674E+02, 2.082E+02, 5.070E+01, 1.787E+02, 2.213E+02, 5.230E+01,-1.308E+02, 1.569E-01, 2.981E-02, 1.270E+02
 7.100E+02, 1.424E+02, 1.520E+02, 1.667E+02, 2.092E+02, 5.114E+01, 1.788E+02, 2.238E+02, 5.332E+01, 5.927E+01, 1.561E-01, 3.024E-02, 2.450E+02
 7.200E+02, 1.428E+02, 1.481E+02, 1.693E+02, 2.077E+02, 5.141E+01, 1.762E+02, 2.148E+02, 5.336E+01,-2.677E+01, 1.560E-01, 3.032E-02, 1.762E+02
 7.300E+02, 1.417E+02, 1.440E+02, 1.657E+02, 2.064E+02, 5.314E+01, 1.724E+02, 2.053E+02, 5.434E+01,-6.064E+01, 1.551E-01, 3.083E-02, 1.413E+02
 7.400E+02, 1.350E+02, 1.449E+02, 1.552E+02, 1.973E+02, 5.256E+01, 1.772E+02, 2.031E+02, 5.430E+01,-2.972E+01, 1.546E-01, 3.108E-02, 1.518E+02
 7.500E+02, 1.332E+02, 1.687E+02, 1.534E+02, 1.935E+02, 5.253E+01, 2.155E+02, 2.360E+02, 5.475E+01,-1.215E+01, 1.544E-01, 3.121E-02, 1.250E+02
 7.600E+02, 1.322E+02, 1.666E+02, 1.516E+02, 1.927E+02, 5.234E+01, 1.995E+02, 2.445E+02, 5.574E+01, 2.994E+01, 1.536E-01, 3.162E-02, 1.608E+02
 7.700E+02, 1.341E+02, 1.783E+02, 1.526E+02, 1.972E+02, 5.261E+01, 2.129E+02, 2.664E+02, 5.556E+01, 7.303E+00, 1.533E-01, 3.183E-02, 1.497E+02
 7.800E+02, 1.365E+02, 1.465E+02, 1.534E+02, 2.032E+02, 5.289E+01, 1.703E+02, 2.133E+02, 5.577E+01,-6.157E+01, 1.525E-01, 3.226E-02, 1.232E+02
 7.900E+02, 1.382E+02, 1.496E+02, 1.550E+02, 2.051E+02, 5.444E+01, 1.715E+02, 2.205E+02, 5.671E+01, 9.380E+01, 1.518E-01, 3.266E-02, 2.324E+02
 8.000E+02, 1.378E+02, 1.490E+02, 1.546E+02, 2.060E+02, 5.284E+01, 1.670E+02, 2.234E+02, 5.662E+01, 2.842E+01, 1.509E-01, 3.314E-02, 1.867E+02
 8.100E+02, 1.381E+02, 1.471E+02, 1.557E+02, 2.044E+02, 5.428E+01, 1.676E+02, 2.176E+02, 5.600E+01,-8.594E+01, 1.506E-01, 3.333E-02, 9.916E+01
 8.200E+02, 1.376E+02, 1.563E+02, 1.547E+02, 2.033E+02, 5.470E+01, 1.925E+02, 2.204E+02, 5.593E+01,-1.236E+01, 1.498E-01, 3.375E-02, 1.693E+02
 8.300E+02, 1.372E+02, 1.574E+02, 1.548E+02, 2.018E+02, 5.508E+01, 1.870E+02, 2.281E+02, 5.697E+01, 7.830E+00, 1.494E-01, 3.402E-02, 1.626E+02
 8.400E+02, 1.367E+02, 1.701E+02, 1.561E+02, 1.987E+02, 5.529E+01, 1.898E+02, 2.627E+02, 5.772E+01,-4.438E+01, 1.487E-01, 3.438E-02, 9.652E+01
 8.500E+02, 1.409E+02, 1.551E+02, 1.603E+02, 2.056E+02, 5.675E+01, 1.850E+02, 2.237E+02, 5.661E+01,-6.670E+01, 1.482E-01, 3.468E-02, 6.320E+01
 8.600E+02, 1.342E+02, 1.594E+02, 1.535E+02, 1.940E+02, 5.492E+01, 2.024E+02, 2.198E+02, 5.609E+01,-1.317E+01, 1.479E-01, 3.485E-02, 5.687E+01
 8.700E+02, 1.327E+02, 1.384E+02, 1.545E+02, 1.875E+02, 5.596E+01, 1.669E+02, 1.918E+02, 5.632E+01,-8.919E+01, 1.474E-01, 3.511E-02, 2.507E+00
 8.800E+02, 1.293E+02, 1.434E+02, 1.480E+02, 1.839E+02, 5.593E+01, 1.673E+02, 2.065E+02, 5.640E+01, 2.588E+02, 1.470E-01, 3.532E-02, 8.556E+01
 8.900E+02, 1.431E+02, 1.542E+02, 1.650E+02, 2.090E+02, 5.543E+01, 1.842E+02, 2.213E+02, 5.695E+01, 4.503E+01, 1.466E-01, 3.553E-02, 1.395E+02
 9.000E+02, 1.414E+02, 1.529E+02, 1.641E+02, 2.054E+02, 5.469E+01, 1.835E+02, 2.180E+02, 5.725E+01,-4.000E+01, 1.460E-01, 3.589E-02, 1.587E+02
 9.100E+02, 1.421E+02, 1.536E+02, 1.667E+02, 2.039E+02, 5.576E+01, 1.891E+02, 2.147E+02, 5.703E+01,-6.496E+00, 1.456E-01, 3.614E-02, 1.011E+02
 9.200E+02, 1.436E+02, 1.517E+02, 1.680E+02, 2.066E+02, 5.628E+01, 1.786E+02, 2.194E+02, 5.717E+01,-6.880E+01, 1.450E-01, 3.647E-02, 8.709E+01
 9.300E+02, 1.484E+02, 1.643E+02, 1.679E+02, 2.204E+02, 5.687E+01, 1.948E+02, 2.407E+02, 5.739E+01, 1.723E+02, 1.445E-01, 3.675E-02, 2.433E+02
 9.400E+02, 1.456E+02, 1.557E+02, 1.661E+02, 2.148E+02, 5.584E+01, 1.827E+02, 2.259E+02, 5.845E+01, 4.141E+01, 1.445E-01, 3.674E-02, 2.050E+02
 9.500E+02, 1.444E+02, 1.672E+02, 1.659E+02, 2.101E+02, 5.718E+01, 2.007E+02, 2.425E+02, 5.831E+01,-8.357E+01, 1.441E-01, 3.694E-02, 1.182E+02
 9.600E+02, 1.459E+02, 1.588E+02, 1.672E+02, 2.119E+02, 5.851E+01, 1.916E+02, 2.257E+02, 5.927E+01,-1.754E+01, 1.437E-01, 3.716E-02, 1.759E+02
 9.700E+02, 1.465E+02, 1.610E+02, 1.670E+02, 2.148E+02, 5.761E+01, 1.878E+02, 2.358E+02, 5.937E+01, 5.418E+01, 1.436E-01, 3.724E-02, 2.137E+02
 9.800E+02, 1.448E+02, 1.549E+02, 1.639E+02, 2.119E+02, 5.869E+01, 1.769E+02, 2.285E+02, 5.928E+01,-3.872E+01, 1.434E-01, 3.735E-02, 1.866E+02
 9.900E+02, 1.480E+02, 1.507E+02, 1.704E+02, 2.146E+02, 5.907E+01, 1.753E+02, 2.183E+02, 5.841E+01,-4.916E+01, 1.430E-01, 3.754E-02, 1.528E+02
 1.000E+03, 1.447E+02, 1.658E+02, 1.634E+02, 2.118E+02, 5.880E+01, 1.867E+02, 2.515E+02, 5.930E+01,-1.968E+00, 1.425E-01, 3.785E-02, 1.919E+02
