s,C,C,C,C,C,C,C,C,Pa,mol/mol,mol/mol,kW
Time,"West_All_TCs","East_All_TCs","West_Bottom_TCs","West_Middle_TCs","West_Upper_TCs","East_Bottom_TCs","East_Middle_TCs","East_Upper_TCs","Pressure","O2","CO2","HRR"
-6.000E+01, 2.800E+01, 2.800E+01, 2.800E+01, 2.800E+01, 2.800E+01, 2.800E+01, 2.800E+01, 2.800E+01,-9.522E-06, 2.095E-01, 3.901E-04, 0.000E+00
-4.998E+01, 2.797E+01, 2.797E+01, 2.797E+01, 2.796E+01, 2.797E+01, 2.797E+01, 2.796E+01, 2.797E+01,-6.338E+01, 2.095E-01, 3.901E-04, 0.000E+00
-3.996E+01, 2.795E+01, 2.796E+01, 2.795E+01, 2.795E+01, 2.794E+01, 2.797E+01, 2.795E+01, 2.796E+01,-6.316E+01, 2.095E-01, 3.901E-04, 0.000E+00
-2.996E+01, 2.794E+01, 2.796E+01, 2.795E+01, 2.794E+01, 2.794E+01, 2.799E+01, 2.795E+01, 2.795E+01,-6.311E+01, 2.095E-01, 3.901E-04, 0.000E+00
-1.996E+01, 2.794E+01, 2.797E+01, 2.795E+01, 2.794E+01, 2.795E+01, 2.799E+01, 2.795E+01, 2.795E+01,-6.313E+01, 2.095E-01, 3.901E-04, 0.000E+00
-9.957E+00, 2.795E+01, 2.797E+01, 2.795E+01, 2.794E+01, 2.795E+01, 2.800E+01, 2.796E+01, 2.795E+01,-6.320E+01, 2.095E-01, 3.901E-04, 0.000E+00
 4.316E-02, 2.794E+01, 2.797E+01, 2.795E+01, 2.794E+01, 2.794E+01, 2.800E+01, 2.796E+01, 2.795E+01,-6.324E+01, 2.095E-01, 3.901E-04, 5.777E-04
 1.002E+01, 2.890E+01, 2.932E+01, 2.846E+01, 3.028E+01, 2.797E+01, 2.887E+01, 3.110E+01, 2.798E+01,-2.630E+01, 2.095E-01, 3.901E-04, 3.353E+01
 2.001E+01, 3.322E+01, 3.446E+01, 3.027E+01, 4.102E+01, 2.836E+01, 3.115E+01, 4.424E+01, 2.798E+01, 5.709E+00, 2.095E-01, 3.901E-04, 9.947E+01
 3.001E+01, 4.232E+01, 4.342E+01, 3.308E+01, 6.473E+01, 2.914E+01, 3.478E+01, 6.756E+01, 2.793E+01, 4.138E+01, 2.095E-01, 3.901E-04, 1.651E+02
 4.001E+01, 5.449E+01, 5.441E+01, 3.924E+01, 9.394E+01, 3.030E+01, 4.084E+01, 9.370E+01, 2.869E+01, 5.494E+01, 2.094E-01, 4.770E-04, 2.001E+02
 5.001E+01, 6.542E+01, 6.590E+01, 4.868E+01, 1.151E+02, 3.252E+01, 5.008E+01, 1.156E+02, 3.205E+01, 2.960E+01, 2.087E-01, 8.564E-04, 2.001E+02
 6.001E+01, 7.426E+01, 7.579E+01, 5.956E+01, 1.293E+02, 3.390E+01, 6.153E+01, 1.315E+02, 3.436E+01, 1.871E+01, 2.084E-01, 1.011E-03, 2.009E+02
 7.001E+01, 8.322E+01, 8.493E+01, 7.105E+01, 1.413E+02, 3.732E+01, 7.255E+01, 1.455E+02, 3.680E+01, 9.854E+00, 2.079E-01, 1.303E-03, 2.002E+02
 8.000E+01, 9.123E+01, 9.260E+01, 8.209E+01, 1.518E+02, 3.976E+01, 8.406E+01, 1.545E+02, 3.919E+01,-2.153E+00, 2.073E-01, 1.643E-03, 1.991E+02
 9.001E+01, 9.666E+01, 9.970E+01, 8.963E+01, 1.588E+02, 4.152E+01, 9.296E+01, 1.649E+02, 4.125E+01,-5.683E+00, 2.068E-01, 1.908E-03, 1.996E+02
 1.000E+02, 1.022E+02, 1.042E+02, 9.726E+01, 1.650E+02, 4.444E+01, 1.005E+02, 1.679E+02, 4.409E+01,-1.015E+01, 2.063E-01, 2.231E-03, 2.001E+02
 1.100E+02, 1.065E+02, 1.084E+02, 1.045E+02, 1.687E+02, 4.642E+01, 1.065E+02, 1.724E+02, 4.627E+01,-1.767E+01, 2.057E-01, 2.530E-03, 2.001E+02
 1.200E+02, 1.092E+02, 1.122E+02, 1.091E+02, 1.706E+02, 4.772E+01, 1.127E+02, 1.762E+02, 4.756E+01,-2.633E+01, 2.053E-01, 2.749E-03, 1.983E+02
 1.300E+02, 1.117E+02, 1.156E+02, 1.127E+02, 1.732E+02, 4.923E+01, 1.164E+02, 1.814E+02, 4.897E+01,-2.885E+01, 2.046E-01, 3.158E-03, 2.007E+02
 1.400E+02, 1.138E+02, 1.171E+02, 1.154E+02, 1.761E+02, 5.004E+01, 1.193E+02, 1.816E+02, 5.031E+01,-3.372E+01, 2.040E-01, 3.465E-03, 1.993E+02
 1.500E+02, 1.159E+02, 1.179E+02, 1.169E+02, 1.797E+02, 5.121E+01, 1.200E+02, 1.816E+02, 5.209E+01,-3.869E+01, 2.033E-01, 3.857E-03, 1.992E+02
 1.600E+02, 1.170E+02, 1.184E+02, 1.191E+02, 1.791E+02, 5.289E+01, 1.221E+02, 1.811E+02, 5.207E+01,-3.740E+01, 2.032E-01, 3.947E-03, 2.001E+02
 1.700E+02, 1.180E+02, 1.204E+02, 1.211E+02, 1.791E+02, 5.383E+01, 1.259E+02, 1.812E+02, 5.420E+01,-4.131E+01, 2.022E-01, 4.512E-03, 2.001E+02
 1.800E+02, 1.190E+02, 1.208E+02, 1.232E+02, 1.792E+02, 5.439E+01, 1.248E+02, 1.825E+02, 5.496E+01,-4.342E+01, 2.014E-01, 4.925E-03, 1.991E+02
 1.900E+02, 1.198E+02, 1.227E+02, 1.234E+02, 1.804E+02, 5.561E+01, 1.268E+02, 1.868E+02, 5.458E+01,-4.987E+01, 2.010E-01, 5.173E-03, 1.989E+02
 2.000E+02, 1.229E+02, 1.225E+02, 1.250E+02, 1.865E+02, 5.707E+01, 1.276E+02, 1.841E+02, 5.585E+01,-4.747E+01, 2.001E-01, 5.674E-03, 1.997E+02
 2.100E+02, 1.225E+02, 1.233E+02, 1.255E+02, 1.852E+02, 5.683E+01, 1.278E+02, 1.857E+02, 5.638E+01,-4.791E+01, 1.990E-01, 6.301E-03, 2.004E+02
 2.200E+02, 1.234E+02, 1.251E+02, 1.249E+02, 1.879E+02, 5.739E+01, 1.290E+02, 1.891E+02, 5.728E+01,-5.373E+01, 1.984E-01, 6.643E-03, 1.995E+02
 2.300E+02, 1.231E+02, 1.242E+02, 1.265E+02, 1.854E+02, 5.751E+01, 1.282E+02, 1.871E+02, 5.720E+01,-5.201E+01, 1.976E-01, 7.043E-03, 1.995E+02
 2.400E+02, 1.240E+02, 1.251E+02, 1.268E+02, 1.875E+02, 5.771E+01, 1.286E+02, 1.898E+02, 5.703E+01,-5.183E+01, 1.973E-01, 7.243E-03, 2.003E+02
 2.500E+02, 1.248E+02, 1.259E+02, 1.274E+02, 1.890E+02, 5.806E+01, 1.297E+02, 1.898E+02, 5.821E+01,-4.786E+01, 1.960E-01, 7.934E-03, 1.999E+02
 2.600E+02, 1.259E+02, 1.254E+02, 1.286E+02, 1.903E+02, 5.874E+01, 1.293E+02, 1.891E+02, 5.792E+01,-5.476E+01, 1.953E-01, 8.356E-03, 1.988E+02
 2.700E+02, 1.255E+02, 1.263E+02, 1.291E+02, 1.883E+02, 5.897E+01, 1.298E+02, 1.907E+02, 5.829E+01,-5.074E+01, 1.943E-01, 8.889E-03, 2.005E+02
 2.800E+02, 1.253E+02, 1.277E+02, 1.297E+02, 1.881E+02, 5.829E+01, 1.312E+02, 1.939E+02, 5.805E+01,-5.183E+01, 1.933E-01, 9.465E-03, 1.993E+02
 2.900E+02, 1.261E+02, 1.285E+02, 1.313E+02, 1.883E+02, 5.874E+01, 1.325E+02, 1.934E+02, 5.954E+01,-4.957E+01, 1.927E-01, 9.810E-03, 2.010E+02
 3.000E+02, 1.270E+02, 1.282E+02, 1.319E+02, 1.900E+02, 5.896E+01, 1.323E+02, 1.930E+02, 5.938E+01,-5.325E+01, 1.916E-01, 1.041E-02, 1.991E+02
 3.100E+02, 1.266E+02, 1.299E+02, 1.315E+02, 1.896E+02, 5.860E+01, 1.356E+02, 1.948E+02, 5.936E+01,-4.829E+01, 1.910E-01, 1.075E-02, 1.995E+02
 3.200E+02, 1.285E+02, 1.307E+02, 1.327E+02, 1.926E+02, 6.010E+01, 1.347E+02, 1.965E+02, 6.091E+01,-4.965E+01, 1.901E-01, 1.128E-02, 1.999E+02
 3.300E+02, 1.286E+02, 1.310E+02, 1.328E+02, 1.933E+02, 5.957E+01, 1.369E+02, 1.964E+02, 5.990E+01,-5.050E+01, 1.893E-01, 1.170E-02, 2.002E+02
 3.400E+02, 1.284E+02, 1.323E+02, 1.346E+02, 1.910E+02, 5.961E+01, 1.389E+02, 1.980E+02, 6.018E+01,-4.542E+01, 1.882E-01, 1.230E-02, 1.993E+02
 3.500E+02, 1.294E+02, 1.319E+02, 1.344E+02, 1.927E+02, 6.127E+01, 1.376E+02, 1.985E+02, 5.972E+01,-5.101E+01, 1.877E-01, 1.262E-02, 2.003E+02
 3.600E+02, 1.300E+02, 1.315E+02, 1.347E+02, 1.937E+02, 6.158E+01, 1.380E+02, 1.971E+02, 5.958E+01,-5.822E+01, 1.866E-01, 1.320E-02, 1.982E+02
 3.700E+02, 1.309E+02, 1.330E+02, 1.355E+02, 1.963E+02, 6.099E+01, 1.372E+02, 2.011E+02, 6.063E+01,-4.807E+01, 1.858E-01, 1.367E-02, 2.012E+02
 3.800E+02, 1.309E+02, 1.327E+02, 1.356E+02, 1.956E+02, 6.142E+01, 1.380E+02, 1.997E+02, 6.058E+01,-5.210E+01, 1.848E-01, 1.419E-02, 2.001E+02
 3.900E+02, 1.307E+02, 1.327E+02, 1.353E+02, 1.957E+02, 6.102E+01, 1.377E+02, 1.989E+02, 6.154E+01,-5.077E+01, 1.839E-01, 1.472E-02, 1.990E+02
 4.000E+02, 1.323E+02, 1.332E+02, 1.355E+02, 1.991E+02, 6.221E+01, 1.393E+02, 1.990E+02, 6.121E+01,-5.632E+01, 1.831E-01, 1.518E-02, 1.992E+02
 4.100E+02, 1.316E+02, 1.350E+02, 1.378E+02, 1.964E+02, 6.078E+01, 1.397E+02, 2.032E+02, 6.211E+01,-4.949E+01, 1.820E-01, 1.577E-02, 2.012E+02
 4.200E+02, 1.316E+02, 1.351E+02, 1.373E+02, 1.957E+02, 6.175E+01, 1.396E+02, 2.039E+02, 6.164E+01,-5.276E+01, 1.815E-01, 1.607E-02, 1.978E+02
 4.300E+02, 1.321E+02, 1.358E+02, 1.383E+02, 1.958E+02, 6.231E+01, 1.412E+02, 2.046E+02, 6.147E+01,-5.207E+01, 1.808E-01, 1.647E-02, 1.990E+02
 4.400E+02, 1.318E+02, 1.346E+02, 1.391E+02, 1.942E+02, 6.221E+01, 1.399E+02, 2.019E+02, 6.184E+01,-5.291E+01, 1.797E-01, 1.707E-02, 1.990E+02
 4.500E+02, 1.334E+02, 1.361E+02, 1.389E+02, 1.983E+02, 6.280E+01, 1.438E+02, 2.035E+02, 6.099E+01,-4.763E+01, 1.787E-01, 1.765E-02, 2.012E+02
 4.600E+02, 1.339E+02, 1.373E+02, 1.402E+02, 1.987E+02, 6.276E+01, 1.421E+02, 2.081E+02, 6.170E+01,-5.308E+01, 1.778E-01, 1.815E-02, 1.998E+02
 4.700E+02, 1.345E+02, 1.373E+02, 1.392E+02, 2.017E+02, 6.274E+01, 1.441E+02, 2.051E+02, 6.274E+01,-5.488E+01, 1.770E-01, 1.860E-02, 1.991E+02
 4.800E+02, 1.355E+02, 1.373E+02, 1.406E+02, 2.003E+02, 6.539E+01, 1.436E+02, 2.066E+02, 6.156E+01,-4.857E+01, 1.764E-01, 1.891E-02, 1.984E+02
 4.900E+02, 1.333E+02, 1.391E+02, 1.403E+02, 1.967E+02, 6.300E+01, 1.438E+02, 2.102E+02, 6.321E+01,-4.595E+01, 1.754E-01, 1.947E-02, 2.015E+02
 5.000E+02, 1.350E+02, 1.377E+02, 1.421E+02, 2.009E+02, 6.203E+01, 1.450E+02, 2.055E+02, 6.249E+01,-5.521E+01, 1.748E-01, 1.981E-02, 1.982E+02
 5.100E+02, 1.351E+02, 1.385E+02, 1.417E+02, 2.013E+02, 6.233E+01, 1.459E+02, 2.073E+02, 6.236E+01,-5.304E+01, 1.744E-01, 2.003E-02, 1.979E+02
 5.200E+02, 1.372E+02, 1.376E+02, 1.418E+02, 2.057E+02, 6.396E+01, 1.429E+02, 2.065E+02, 6.355E+01,-5.292E+01, 1.731E-01, 2.076E-02, 1.975E+02
 5.300E+02, 1.373E+02, 1.378E+02, 1.420E+02, 2.063E+02, 6.348E+01, 1.445E+02, 2.053E+02, 6.347E+01,-5.483E+01, 1.723E-01, 2.120E-02, 2.017E+02
 5.400E+02, 1.366E+02, 1.398E+02, 1.423E+02, 2.041E+02, 6.331E+01, 1.469E+02, 2.090E+02, 6.333E+01,-5.399E+01, 1.717E-01, 2.151E-02, 1.996E+02
 5.500E+02, 1.367E+02, 1.417E+02, 1.428E+02, 2.039E+02, 6.340E+01, 1.526E+02, 2.092E+02, 6.314E+01,-4.815E+01, 1.713E-01, 2.176E-02, 2.001E+02
 5.600E+02, 1.368E+02, 1.403E+02, 1.439E+02, 2.038E+02, 6.285E+01, 1.480E+02, 2.094E+02, 6.356E+01,-5.178E+01, 1.702E-01, 2.240E-02, 1.971E+02
 5.700E+02, 1.369E+02, 1.421E+02, 1.434E+02, 2.034E+02, 6.396E+01, 1.498E+02, 2.131E+02, 6.350E+01,-5.039E+01, 1.695E-01, 2.274E-02, 1.997E+02
 5.800E+02, 1.369E+02, 1.407E+02, 1.439E+02, 2.024E+02, 6.428E+01, 1.473E+02, 2.109E+02, 6.400E+01,-5.236E+01, 1.688E-01, 2.316E-02, 1.977E+02
 5.900E+02, 1.381E+02, 1.397E+02, 1.438E+02, 2.062E+02, 6.417E+01, 1.468E+02, 2.096E+02, 6.263E+01,-4.990E+01, 1.679E-01, 2.368E-02, 2.004E+02
 6.000E+02, 1.386E+02, 1.415E+02, 1.456E+02, 2.052E+02, 6.486E+01, 1.458E+02, 2.140E+02, 6.456E+01,-4.947E+01, 1.671E-01, 2.413E-02, 2.028E+02
 6.100E+02, 1.393E+02, 1.415E+02, 1.448E+02, 2.077E+02, 6.534E+01, 1.502E+02, 2.092E+02, 6.528E+01,-5.384E+01, 1.662E-01, 2.463E-02, 1.988E+02
 6.200E+02, 1.400E+02, 1.425E+02, 1.458E+02, 2.072E+02, 6.688E+01, 1.497E+02, 2.132E+02, 6.456E+01,-5.340E+01, 1.658E-01, 2.484E-02, 1.993E+02
 6.300E+02, 1.385E+02, 1.426E+02, 1.453E+02, 2.039E+02, 6.638E+01, 1.484E+02, 2.145E+02, 6.492E+01,-4.966E+01, 1.649E-01, 2.536E-02, 1.975E+02
 6.400E+02, 1.404E+02, 1.425E+02, 1.459E+02, 2.080E+02, 6.741E+01, 1.482E+02, 2.129E+02, 6.655E+01,-5.110E+01, 1.642E-01, 2.572E-02, 1.973E+02
 6.500E+02, 1.417E+02, 1.418E+02, 1.470E+02, 2.102E+02, 6.796E+01, 1.469E+02, 2.111E+02, 6.728E+01,-5.971E+01, 1.634E-01, 2.616E-02, 1.984E+02
 6.600E+02, 1.419E+02, 1.419E+02, 1.463E+02, 2.127E+02, 6.681E+01, 1.515E+02, 2.081E+02, 6.631E+01,-5.782E+01, 1.627E-01, 2.656E-02, 2.026E+02
 6.700E+02, 1.417E+02, 1.420E+02, 1.469E+02, 2.114E+02, 6.676E+01, 1.485E+02, 2.120E+02, 6.541E+01,-5.148E+01, 1.622E-01, 2.684E-02, 1.981E+02
 6.800E+02, 1.399E+02, 1.457E+02, 1.469E+02, 2.064E+02, 6.648E+01, 1.534E+02, 2.169E+02, 6.680E+01,-5.066E+01, 1.614E-01, 2.729E-02, 2.018E+02
 6.900E+02, 1.401E+02, 1.453E+02, 1.478E+02, 2.058E+02, 6.674E+01, 1.521E+02, 2.177E+02, 6.624E+01,-5.534E+01, 1.610E-01, 2.753E-02, 1.981E+02
 7.000E+02, 1.396E+02, 1.457E+02, 1.478E+02, 2.041E+02, 6.685E+01, 1.558E+02, 2.151E+02, 6.627E+01,-4.519E+01, 1.602E-01, 2.793E-02, 2.007E+02
 7.100E+02, 1.424E+02, 1.440E+02, 1.489E+02, 2.101E+02, 6.807E+01, 1.521E+02, 2.129E+02, 6.708E+01,-5.636E+01, 1.595E-01, 2.833E-02, 1.993E+02
 7.200E+02, 1.433E+02, 1.451E+02, 1.491E+02, 2.127E+02, 6.799E+01, 1.523E+02, 2.146E+02, 6.830E+01,-5.475E+01, 1.589E-01, 2.871E-02, 1.995E+02
 7.300E+02, 1.417E+02, 1.446E+02, 1.481E+02, 2.095E+02, 6.740E+01, 1.537E+02, 2.129E+02, 6.721E+01,-6.368E+01, 1.584E-01, 2.895E-02, 1.931E+02
 7.400E+02, 1.433E+02, 1.442E+02, 1.479E+02, 2.138E+02, 6.821E+01, 1.518E+02, 2.145E+02, 6.616E+01,-4.948E+01, 1.580E-01, 2.919E-02, 2.057E+02
 7.500E+02, 1.437E+02, 1.457E+02, 1.499E+02, 2.136E+02, 6.767E+01, 1.512E+02, 2.172E+02, 6.851E+01,-5.473E+01, 1.570E-01, 2.974E-02, 2.001E+02
 7.600E+02, 1.419E+02, 1.469E+02, 1.493E+02, 2.087E+02, 6.765E+01, 1.528E+02, 2.208E+02, 6.701E+01,-6.161E+01, 1.567E-01, 2.992E-02, 1.927E+02
 7.700E+02, 1.441E+02, 1.468E+02, 1.486E+02, 2.146E+02, 6.903E+01, 1.543E+02, 2.188E+02, 6.712E+01,-4.745E+01, 1.563E-01, 3.015E-02, 2.013E+02
 7.800E+02, 1.442E+02, 1.462E+02, 1.510E+02, 2.132E+02, 6.827E+01, 1.518E+02, 2.185E+02, 6.832E+01,-6.115E+01, 1.555E-01, 3.058E-02, 2.001E+02
 7.900E+02, 1.445E+02, 1.478E+02, 1.514E+02, 2.128E+02, 6.923E+01, 1.523E+02, 2.239E+02, 6.714E+01,-5.072E+01, 1.554E-01, 3.065E-02, 1.962E+02
 8.000E+02, 1.464E+02, 1.475E+02, 1.510E+02, 2.186E+02, 6.965E+01, 1.542E+02, 2.196E+02, 6.875E+01,-5.109E+01, 1.549E-01, 3.093E-02, 2.082E+02
 8.100E+02, 1.455E+02, 1.481E+02, 1.501E+02, 2.166E+02, 6.965E+01, 1.543E+02, 2.205E+02, 6.959E+01,-5.965E+01, 1.542E-01, 3.130E-02, 1.983E+02
 8.200E+02, 1.451E+02, 1.476E+02, 1.515E+02, 2.136E+02, 7.011E+01, 1.542E+02, 2.194E+02, 6.938E+01,-6.098E+01, 1.538E-01, 3.155E-02, 1.908E+02
 8.300E+02, 1.448E+02, 1.494E+02, 1.510E+02, 2.123E+02, 7.119E+01, 1.572E+02, 2.228E+02, 6.820E+01,-4.203E+01, 1.533E-01, 3.182E-02, 2.073E+02
 8.400E+02, 1.458E+02, 1.493E+02, 1.527E+02, 2.145E+02, 7.032E+01, 1.548E+02, 2.230E+02, 7.021E+01,-5.302E+01, 1.525E-01, 3.228E-02, 2.004E+02
 8.500E+02, 1.458E+02, 1.494E+02, 1.525E+02, 2.150E+02, 6.994E+01, 1.568E+02, 2.206E+02, 7.081E+01,-5.581E+01, 1.522E-01, 3.241E-02, 2.000E+02
 8.600E+02, 1.465E+02, 1.482E+02, 1.529E+02, 2.154E+02, 7.108E+01, 1.535E+02, 2.213E+02, 6.981E+01,-5.630E+01, 1.518E-01, 3.266E-02, 1.997E+02
 8.700E+02, 1.470E+02, 1.491E+02, 1.522E+02, 2.169E+02, 7.191E+01, 1.556E+02, 2.214E+02, 7.038E+01,-5.537E+01, 1.511E-01, 3.305E-02, 1.989E+02
 8.800E+02, 1.469E+02, 1.508E+02, 1.521E+02, 2.163E+02, 7.217E+01, 1.621E+02, 2.186E+02, 7.161E+01,-5.297E+01, 1.507E-01, 3.328E-02, 1.983E+02
 8.900E+02, 1.479E+02, 1.506E+02, 1.530E+02, 2.182E+02, 7.241E+01, 1.554E+02, 2.252E+02, 7.101E+01,-5.184E+01, 1.504E-01, 3.345E-02, 2.007E+02
 9.000E+02, 1.475E+02, 1.509E+02, 1.531E+02, 2.174E+02, 7.189E+01, 1.574E+02, 2.249E+02, 7.038E+01,-5.653E+01, 1.503E-01, 3.349E-02, 1.989E+02
 9.100E+02, 1.475E+02, 1.513E+02, 1.528E+02, 2.177E+02, 7.213E+01, 1.575E+02, 2.241E+02, 7.216E+01,-5.208E+01, 1.494E-01, 3.401E-02, 1.991E+02
 9.200E+02, 1.485E+02, 1.506E+02, 1.531E+02, 2.204E+02, 7.205E+01, 1.571E+02, 2.231E+02, 7.164E+01,-4.840E+01, 1.490E-01, 3.421E-02, 2.013E+02
 9.300E+02, 1.495E+02, 1.511E+02, 1.539E+02, 2.214E+02, 7.329E+01, 1.581E+02, 2.222E+02, 7.293E+01,-6.194E+01, 1.483E-01, 3.462E-02, 1.948E+02
 9.400E+02, 1.491E+02, 1.518E+02, 1.544E+02, 2.202E+02, 7.275E+01, 1.598E+02, 2.243E+02, 7.130E+01,-4.759E+01, 1.481E-01, 3.471E-02, 2.021E+02
 9.500E+02, 1.501E+02, 1.519E+02, 1.542E+02, 2.223E+02, 7.390E+01, 1.592E+02, 2.233E+02, 7.325E+01,-5.422E+01, 1.476E-01, 3.502E-02, 1.960E+02
 9.600E+02, 1.483E+02, 1.539E+02, 1.537E+02, 2.187E+02, 7.258E+01, 1.615E+02, 2.279E+02, 7.214E+01,-5.330E+01, 1.475E-01, 3.503E-02, 2.045E+02
 9.700E+02, 1.509E+02, 1.527E+02, 1.565E+02, 2.217E+02, 7.446E+01, 1.579E+02, 2.278E+02, 7.248E+01,-5.720E+01, 1.472E-01, 3.520E-02, 1.995E+02
 9.800E+02, 1.503E+02, 1.534E+02, 1.556E+02, 2.208E+02, 7.447E+01, 1.588E+02, 2.264E+02, 7.487E+01,-5.253E+01, 1.467E-01, 3.551E-02, 2.032E+02
 9.900E+02, 1.507E+02, 1.502E+02, 1.561E+02, 2.216E+02, 7.431E+01, 1.554E+02, 2.216E+02, 7.371E+01,-6.878E+01, 1.466E-01, 3.555E-02, 1.927E+02
 1.000E+03, 1.518E+02, 1.515E+02, 1.576E+02, 2.231E+02, 7.458E+01, 1.598E+02, 2.210E+02, 7.357E+01,-4.413E+01, 1.463E-01, 3.573E-02, 2.049E+02
 1.010E+03, 1.509E+02, 1.538E+02, 1.575E+02, 2.203E+02, 7.490E+01, 1.627E+02, 2.235E+02, 7.499E+01,-6.227E+01, 1.457E-01, 3.604E-02, 1.969E+02
 1.020E+03, 1.502E+02, 1.547E+02, 1.571E+02, 2.191E+02, 7.449E+01, 1.685E+02, 2.211E+02, 7.439E+01,-5.603E+01, 1.456E-01, 3.610E-02, 1.911E+02
 1.030E+03, 1.524E+02, 1.552E+02, 1.580E+02, 2.228E+02, 7.649E+01, 1.630E+02, 2.287E+02, 7.402E+01,-6.051E+01, 1.454E-01, 3.625E-02, 2.019E+02
 1.040E+03, 1.517E+02, 1.547E+02, 1.570E+02, 2.218E+02, 7.638E+01, 1.631E+02, 2.263E+02, 7.477E+01,-5.116E+01, 1.449E-01, 3.652E-02, 2.047E+02
 1.050E+03, 1.531E+02, 1.536E+02, 1.569E+02, 2.259E+02, 7.648E+01, 1.608E+02, 2.251E+02, 7.493E+01,-6.886E+01, 1.446E-01, 3.665E-02, 1.980E+02
 1.060E+03, 1.526E+02, 1.541E+02, 1.576E+02, 2.247E+02, 7.557E+01, 1.608E+02, 2.270E+02, 7.451E+01,-5.246E+01, 1.444E-01, 3.680E-02, 2.031E+02
 1.070E+03, 1.511E+02, 1.554E+02, 1.576E+02, 2.205E+02, 7.526E+01, 1.629E+02, 2.281E+02, 7.521E+01,-5.444E+01, 1.442E-01, 3.692E-02, 1.969E+02
 1.080E+03, 1.521E+02, 1.570E+02, 1.584E+02, 2.232E+02, 7.480E+01, 1.615E+02, 2.345E+02, 7.507E+01,-4.672E+01, 1.440E-01, 3.700E-02, 2.059E+02
 1.090E+03, 1.520E+02, 1.567E+02, 1.595E+02, 2.215E+02, 7.505E+01, 1.635E+02, 2.309E+02, 7.584E+01,-5.862E+01, 1.438E-01, 3.712E-02, 1.944E+02
 1.100E+03, 1.536E+02, 1.562E+02, 1.594E+02, 2.233E+02, 7.796E+01, 1.622E+02, 2.318E+02, 7.453E+01,-5.389E+01, 1.437E-01, 3.720E-02, 1.977E+02
 1.110E+03, 1.541E+02, 1.568E+02, 1.594E+02, 2.251E+02, 7.772E+01, 1.636E+02, 2.316E+02, 7.536E+01,-6.119E+01, 1.432E-01, 3.745E-02, 1.983E+02
 1.120E+03, 1.534E+02, 1.558E+02, 1.593E+02, 2.249E+02, 7.597E+01, 1.615E+02, 2.293E+02, 7.672E+01,-5.885E+01, 1.429E-01, 3.764E-02, 2.006E+02
 1.130E+03, 1.538E+02, 1.559E+02, 1.595E+02, 2.253E+02, 7.679E+01, 1.652E+02, 2.276E+02, 7.495E+01,-5.763E+01, 1.429E-01, 3.764E-02, 1.952E+02
 1.140E+03, 1.528E+02, 1.572E+02, 1.587E+02, 2.222E+02, 7.750E+01, 1.661E+02, 2.299E+02, 7.565E+01,-4.139E+01, 1.427E-01, 3.776E-02, 2.107E+02
 1.150E+03, 1.525E+02, 1.591E+02, 1.605E+02, 2.202E+02, 7.690E+01, 1.692E+02, 2.318E+02, 7.635E+01,-4.962E+01, 1.425E-01, 3.784E-02, 2.006E+02
 1.160E+03, 1.541E+02, 1.598E+02, 1.613E+02, 2.225E+02, 7.849E+01, 1.689E+02, 2.339E+02, 7.648E+01,-5.682E+01, 1.424E-01, 3.791E-02, 1.987E+02
 1.170E+03, 1.558E+02, 1.577E+02, 1.617E+02, 2.271E+02, 7.865E+01, 1.659E+02, 2.305E+02, 7.667E+01,-6.325E+01, 1.422E-01, 3.799E-02, 1.982E+02
 1.180E+03, 1.552E+02, 1.575E+02, 1.603E+02, 2.272E+02, 7.809E+01, 1.665E+02, 2.284E+02, 7.763E+01,-6.107E+01, 1.420E-01, 3.814E-02, 1.993E+02
 1.190E+03, 1.550E+02, 1.563E+02, 1.620E+02, 2.253E+02, 7.771E+01, 1.632E+02, 2.284E+02, 7.725E+01,-5.913E+01, 1.420E-01, 3.815E-02, 1.943E+02
 1.200E+03, 1.554E+02, 1.583E+02, 1.601E+02, 2.269E+02, 7.916E+01, 1.677E+02, 2.306E+02, 7.647E+01,-5.275E+01, 1.418E-01, 3.822E-02, 2.007E+02
 1.210E+03, 1.570E+02, 1.575E+02, 1.625E+02, 2.301E+02, 7.839E+01, 1.655E+02, 2.298E+02, 7.727E+01,-5.249E+01, 1.416E-01, 3.836E-02, 2.045E+02
 1.220E+03, 1.562E+02, 1.574E+02, 1.627E+02, 2.272E+02, 7.874E+01, 1.655E+02, 2.294E+02, 7.724E+01,-5.504E+01, 1.415E-01, 3.841E-02, 1.962E+02
 1.230E+03, 1.568E+02, 1.589E+02, 1.627E+02, 2.272E+02, 8.058E+01, 1.636E+02, 2.358E+02, 7.719E+01,-4.964E+01, 1.414E-01, 3.847E-02, 2.009E+02
 1.240E+03, 1.568E+02, 1.586E+02, 1.625E+02, 2.278E+02, 7.999E+01, 1.659E+02, 2.320E+02, 7.790E+01,-4.704E+01, 1.409E-01, 3.876E-02, 2.044E+02
 1.250E+03, 1.578E+02, 1.588E+02, 1.620E+02, 2.303E+02, 8.104E+01, 1.667E+02, 2.317E+02, 7.810E+01,-6.318E+01, 1.409E-01, 3.872E-02, 1.948E+02
 1.260E+03, 1.571E+02, 1.596E+02, 1.618E+02, 2.293E+02, 8.019E+01, 1.665E+02, 2.330E+02, 7.922E+01,-5.134E+01, 1.409E-01, 3.875E-02, 2.019E+02
 1.270E+03, 1.562E+02, 1.603E+02, 1.630E+02, 2.249E+02, 8.066E+01, 1.662E+02, 2.355E+02, 7.936E+01,-5.116E+01, 1.408E-01, 3.881E-02, 2.016E+02
 1.280E+03, 1.560E+02, 1.615E+02, 1.639E+02, 2.242E+02, 7.998E+01, 1.675E+02, 2.379E+02, 7.910E+01,-5.144E+01, 1.408E-01, 3.883E-02, 1.982E+02
 1.290E+03, 1.570E+02, 1.595E+02, 1.638E+02, 2.260E+02, 8.132E+01, 1.696E+02, 2.295E+02, 7.940E+01,-5.302E+01, 1.407E-01, 3.887E-02, 1.988E+02
 1.300E+03, 1.590E+02, 1.614E+02, 1.659E+02, 2.298E+02, 8.121E+01, 1.661E+02, 2.380E+02, 8.025E+01,-5.418E+01, 1.406E-01, 3.890E-02, 1.998E+02
 1.310E+03, 1.584E+02, 1.623E+02, 1.666E+02, 2.265E+02, 8.223E+01, 1.680E+02, 2.385E+02, 8.038E+01,-4.861E+01, 1.404E-01, 3.904E-02, 2.014E+02
