s,C,C,C,C,C,C,C,C,Pa,mol/mol,mol/mol,kW
Time,"West_All_TCs","East_All_TCs","West_Bottom_TCs","West_Middle_TCs","West_Upper_TCs","East_Bottom_TCs","East_Middle_TCs","East_Upper_TCs","Pressure","O2","CO2","HRR"
-6.000E+01, 2.600E+01, 2.600E+01, 2.600E+01, 2.600E+01, 2.600E+01, 2.600E+01, 2.600E+01, 2.600E+01,-9.592E-06, 2.095E-01, 3.901E-04, 0.000E+00
-4.998E+01, 2.596E+01, 2.597E+01, 2.596E+01, 2.596E+01, 2.596E+01, 2.596E+01, 2.597E+01, 2.596E+01,-7.143E+01, 2.095E-01, 3.901E-04, 0.000E+00
-3.993E+01, 2.595E+01, 2.598E+01, 2.595E+01, 2.594E+01, 2.595E+01, 2.600E+01, 2.598E+01, 2.595E+01,-7.311E+01, 2.095E-01, 3.901E-04, 0.000E+00
-2.998E+01, 2.594E+01, 2.598E+01, 2.594E+01, 2.594E+01, 2.594E+01, 2.603E+01, 2.598E+01, 2.595E+01,-7.329E+01, 2.095E-01, 3.901E-04, 0.000E+00
-1.995E+01, 2.594E+01, 2.597E+01, 2.594E+01, 2.593E+01, 2.593E+01, 2.601E+01, 2.596E+01, 2.595E+01,-7.334E+01, 2.095E-01, 3.901E-04, 0.000E+00
-9.986E+00, 2.593E+01, 2.597E+01, 2.594E+01, 2.593E+01, 2.593E+01, 2.601E+01, 2.596E+01, 2.595E+01,-7.337E+01, 2.095E-01, 3.901E-04, 0.000E+00
 5.923E-02, 2.593E+01, 2.597E+01, 2.594E+01, 2.593E+01, 2.593E+01, 2.600E+01, 2.596E+01, 2.594E+01,-7.340E+01, 2.095E-01, 3.901E-04, 6.405E-04
 1.001E+01, 2.692E+01, 2.721E+01, 2.646E+01, 2.832E+01, 2.597E+01, 2.671E+01, 2.897E+01, 2.597E+01,-3.380E+01, 2.095E-01, 3.901E-04, 3.267E+01
 2.000E+01, 3.124E+01, 3.164E+01, 2.856E+01, 3.894E+01, 2.622E+01, 2.918E+01, 3.978E+01, 2.597E+01, 3.892E+00, 2.095E-01, 3.901E-04, 9.924E+01
 3.001E+01, 3.994E+01, 4.103E+01, 3.199E+01, 6.102E+01, 2.681E+01, 3.370E+01, 6.344E+01, 2.594E+01, 4.037E+01, 2.095E-01, 3.901E-04, 1.660E+02
 4.000E+01, 5.166E+01, 5.254E+01, 4.069E+01, 8.560E+01, 2.868E+01, 4.176E+01, 8.925E+01, 2.659E+01, 5.651E+01, 2.094E-01, 4.592E-04, 1.999E+02
 5.001E+01, 6.377E+01, 6.445E+01, 5.253E+01, 1.077E+02, 3.110E+01, 5.414E+01, 1.091E+02, 3.011E+01, 3.083E+01, 2.088E-01, 7.931E-04, 2.006E+02
 6.000E+01, 7.335E+01, 7.535E+01, 6.384E+01, 1.243E+02, 3.191E+01, 6.743E+01, 1.264E+02, 3.221E+01, 1.573E+01, 2.086E-01, 9.199E-04, 2.001E+02
 7.002E+01, 8.373E+01, 8.479E+01, 7.821E+01, 1.385E+02, 3.445E+01, 7.888E+01, 1.410E+02, 3.454E+01, 8.911E+00, 2.083E-01, 1.112E-03, 1.999E+02
 8.001E+01, 9.207E+01, 9.329E+01, 8.970E+01, 1.499E+02, 3.662E+01, 9.073E+01, 1.522E+02, 3.692E+01, 4.349E-01, 2.078E-01, 1.369E-03, 2.002E+02
 9.001E+01, 9.908E+01, 1.003E+02, 9.889E+01, 1.594E+02, 3.892E+01, 1.012E+02, 1.603E+02, 3.946E+01,-6.010E+00, 2.072E-01, 1.696E-03, 2.008E+02
 1.000E+02, 1.050E+02, 1.046E+02, 1.076E+02, 1.657E+02, 4.168E+01, 1.096E+02, 1.621E+02, 4.214E+01,-1.174E+01, 2.066E-01, 2.022E-03, 1.995E+02
 1.100E+02, 1.090E+02, 1.093E+02, 1.143E+02, 1.692E+02, 4.340E+01, 1.142E+02, 1.696E+02, 4.418E+01,-2.167E+01, 2.060E-01, 2.378E-03, 2.000E+02
 1.200E+02, 1.126E+02, 1.127E+02, 1.191E+02, 1.735E+02, 4.515E+01, 1.217E+02, 1.705E+02, 4.598E+01,-2.866E+01, 2.056E-01, 2.597E-03, 2.002E+02
 1.300E+02, 1.152E+02, 1.150E+02, 1.224E+02, 1.769E+02, 4.635E+01, 1.247E+02, 1.729E+02, 4.742E+01,-3.566E+01, 2.051E-01, 2.883E-03, 2.004E+02
 1.400E+02, 1.172E+02, 1.178E+02, 1.255E+02, 1.782E+02, 4.784E+01, 1.280E+02, 1.764E+02, 4.900E+01,-4.185E+01, 2.044E-01, 3.238E-03, 1.999E+02
 1.500E+02, 1.183E+02, 1.195E+02, 1.289E+02, 1.769E+02, 4.920E+01, 1.304E+02, 1.786E+02, 4.953E+01,-4.517E+01, 2.041E-01, 3.460E-03, 2.002E+02
 1.600E+02, 1.194E+02, 1.217E+02, 1.309E+02, 1.776E+02, 4.984E+01, 1.336E+02, 1.813E+02, 5.011E+01,-4.885E+01, 2.035E-01, 3.783E-03, 2.000E+02
 1.700E+02, 1.211E+02, 1.221E+02, 1.322E+02, 1.800E+02, 5.124E+01, 1.353E+02, 1.788E+02, 5.232E+01,-4.906E+01, 2.026E-01, 4.244E-03, 2.003E+02
 1.800E+02, 1.206E+02, 1.247E+02, 1.320E+02, 1.782E+02, 5.177E+01, 1.352E+02, 1.853E+02, 5.349E+01,-5.669E+01, 2.020E-01, 4.595E-03, 1.997E+02
 1.900E+02, 1.222E+02, 1.262E+02, 1.339E+02, 1.809E+02, 5.199E+01, 1.371E+02, 1.879E+02, 5.363E+01,-5.502E+01, 2.015E-01, 4.892E-03, 2.002E+02
 2.000E+02, 1.231E+02, 1.253E+02, 1.352E+02, 1.816E+02, 5.249E+01, 1.358E+02, 1.859E+02, 5.414E+01,-5.656E+01, 2.007E-01, 5.357E-03, 1.999E+02
 2.100E+02, 1.228E+02, 1.269E+02, 1.355E+02, 1.794E+02, 5.358E+01, 1.376E+02, 1.888E+02, 5.427E+01,-5.562E+01, 2.001E-01, 5.651E-03, 2.001E+02
 2.200E+02, 1.235E+02, 1.266E+02, 1.355E+02, 1.816E+02, 5.348E+01, 1.387E+02, 1.863E+02, 5.478E+01,-5.490E+01, 1.992E-01, 6.161E-03, 2.004E+02
 2.300E+02, 1.237E+02, 1.294E+02, 1.358E+02, 1.813E+02, 5.401E+01, 1.422E+02, 1.906E+02, 5.552E+01,-5.517E+01, 1.985E-01, 6.589E-03, 1.994E+02
 2.400E+02, 1.248E+02, 1.308E+02, 1.364E+02, 1.834E+02, 5.457E+01, 1.410E+02, 1.957E+02, 5.577E+01,-5.891E+01, 1.979E-01, 6.869E-03, 2.006E+02
 2.500E+02, 1.247E+02, 1.309E+02, 1.361E+02, 1.827E+02, 5.521E+01, 1.434E+02, 1.933E+02, 5.598E+01,-5.903E+01, 1.971E-01, 7.358E-03, 2.000E+02
 2.600E+02, 1.256E+02, 1.309E+02, 1.371E+02, 1.837E+02, 5.600E+01, 1.431E+02, 1.929E+02, 5.681E+01,-6.042E+01, 1.962E-01, 7.847E-03, 2.000E+02
 2.700E+02, 1.258E+02, 1.305E+02, 1.377E+02, 1.838E+02, 5.598E+01, 1.419E+02, 1.921E+02, 5.769E+01,-5.474E+01, 1.953E-01, 8.347E-03, 2.000E+02
 2.800E+02, 1.286E+02, 1.281E+02, 1.410E+02, 1.875E+02, 5.743E+01, 1.418E+02, 1.853E+02, 5.725E+01,-6.162E+01, 1.945E-01, 8.772E-03, 1.996E+02
 2.900E+02, 1.269E+02, 1.299E+02, 1.385E+02, 1.854E+02, 5.679E+01, 1.405E+02, 1.911E+02, 5.809E+01,-6.078E+01, 1.937E-01, 9.226E-03, 2.003E+02
 3.000E+02, 1.282E+02, 1.303E+02, 1.405E+02, 1.877E+02, 5.652E+01, 1.424E+02, 1.906E+02, 5.782E+01,-5.471E+01, 1.925E-01, 9.939E-03, 1.997E+02
 3.100E+02, 1.283E+02, 1.324E+02, 1.386E+02, 1.897E+02, 5.666E+01, 1.460E+02, 1.934E+02, 5.787E+01,-5.871E+01, 1.918E-01, 1.029E-02, 2.002E+02
 3.200E+02, 1.278E+02, 1.341E+02, 1.399E+02, 1.872E+02, 5.624E+01, 1.479E+02, 1.960E+02, 5.833E+01,-5.897E+01, 1.912E-01, 1.067E-02, 2.002E+02
 3.300E+02, 1.271E+02, 1.331E+02, 1.402E+02, 1.844E+02, 5.661E+01, 1.474E+02, 1.954E+02, 5.650E+01,-5.858E+01, 1.908E-01, 1.088E-02, 2.003E+02
 3.400E+02, 1.307E+02, 1.336E+02, 1.418E+02, 1.916E+02, 5.860E+01, 1.498E+02, 1.928E+02, 5.818E+01,-5.748E+01, 1.896E-01, 1.155E-02, 1.996E+02
 3.500E+02, 1.311E+02, 1.317E+02, 1.428E+02, 1.931E+02, 5.761E+01, 1.427E+02, 1.947E+02, 5.764E+01,-6.042E+01, 1.888E-01, 1.198E-02, 1.999E+02
 3.600E+02, 1.311E+02, 1.340E+02, 1.411E+02, 1.948E+02, 5.734E+01, 1.475E+02, 1.962E+02, 5.822E+01,-6.065E+01, 1.877E-01, 1.257E-02, 2.005E+02
 3.700E+02, 1.298E+02, 1.352E+02, 1.416E+02, 1.910E+02, 5.691E+01, 1.480E+02, 1.983E+02, 5.934E+01,-5.909E+01, 1.865E-01, 1.329E-02, 1.994E+02
 3.800E+02, 1.314E+02, 1.356E+02, 1.414E+02, 1.945E+02, 5.818E+01, 1.489E+02, 1.994E+02, 5.836E+01,-5.787E+01, 1.859E-01, 1.361E-02, 2.006E+02
 3.900E+02, 1.317E+02, 1.343E+02, 1.437E+02, 1.930E+02, 5.847E+01, 1.504E+02, 1.937E+02, 5.868E+01,-5.838E+01, 1.849E-01, 1.417E-02, 1.997E+02
 4.000E+02, 1.320E+02, 1.344E+02, 1.438E+02, 1.936E+02, 5.871E+01, 1.486E+02, 1.956E+02, 5.914E+01,-5.882E+01, 1.838E-01, 1.477E-02, 2.002E+02
 4.100E+02, 1.331E+02, 1.343E+02, 1.462E+02, 1.943E+02, 5.873E+01, 1.464E+02, 1.980E+02, 5.864E+01,-5.848E+01, 1.832E-01, 1.513E-02, 2.000E+02
 4.200E+02, 1.332E+02, 1.351E+02, 1.451E+02, 1.972E+02, 5.744E+01, 1.497E+02, 1.965E+02, 5.905E+01,-5.918E+01, 1.823E-01, 1.564E-02, 2.001E+02
 4.300E+02, 1.325E+02, 1.361E+02, 1.447E+02, 1.944E+02, 5.856E+01, 1.506E+02, 1.979E+02, 5.965E+01,-5.741E+01, 1.814E-01, 1.609E-02, 1.999E+02
 4.400E+02, 1.317E+02, 1.387E+02, 1.444E+02, 1.922E+02, 5.844E+01, 1.533E+02, 2.031E+02, 5.953E+01,-5.391E+01, 1.805E-01, 1.661E-02, 1.997E+02
 4.500E+02, 1.330E+02, 1.375E+02, 1.454E+02, 1.949E+02, 5.880E+01, 1.520E+02, 2.005E+02, 6.016E+01,-5.756E+01, 1.797E-01, 1.706E-02, 1.997E+02
 4.600E+02, 1.328E+02, 1.381E+02, 1.446E+02, 1.949E+02, 5.870E+01, 1.536E+02, 2.004E+02, 6.013E+01,-5.757E+01, 1.787E-01, 1.760E-02, 2.005E+02
 4.700E+02, 1.338E+02, 1.378E+02, 1.476E+02, 1.937E+02, 6.018E+01, 1.533E+02, 2.006E+02, 5.949E+01,-5.517E+01, 1.782E-01, 1.792E-02, 2.002E+02
 4.800E+02, 1.344E+02, 1.368E+02, 1.472E+02, 1.964E+02, 5.952E+01, 1.532E+02, 1.980E+02, 5.931E+01,-5.750E+01, 1.775E-01, 1.832E-02, 2.001E+02
 4.900E+02, 1.354E+02, 1.375E+02, 1.485E+02, 1.976E+02, 6.011E+01, 1.511E+02, 2.006E+02, 6.066E+01,-5.341E+01, 1.767E-01, 1.872E-02, 1.993E+02
 5.000E+02, 1.363E+02, 1.395E+02, 1.484E+02, 2.001E+02, 6.044E+01, 1.574E+02, 2.003E+02, 6.079E+01,-5.717E+01, 1.758E-01, 1.922E-02, 2.006E+02
 5.100E+02, 1.348E+02, 1.410E+02, 1.466E+02, 1.974E+02, 6.053E+01, 1.551E+02, 2.069E+02, 6.106E+01,-6.101E+01, 1.752E-01, 1.959E-02, 1.997E+02
 5.200E+02, 1.372E+02, 1.401E+02, 1.484E+02, 2.022E+02, 6.093E+01, 1.541E+02, 2.048E+02, 6.150E+01,-5.701E+01, 1.744E-01, 2.005E-02, 1.998E+02
 5.300E+02, 1.357E+02, 1.400E+02, 1.483E+02, 1.978E+02, 6.106E+01, 1.561E+02, 2.040E+02, 5.995E+01,-5.641E+01, 1.740E-01, 2.023E-02, 2.004E+02
 5.400E+02, 1.353E+02, 1.404E+02, 1.493E+02, 1.960E+02, 6.062E+01, 1.552E+02, 2.044E+02, 6.166E+01,-5.486E+01, 1.731E-01, 2.075E-02, 2.000E+02
 5.500E+02, 1.379E+02, 1.393E+02, 1.513E+02, 2.013E+02, 6.123E+01, 1.530E+02, 2.032E+02, 6.180E+01,-5.169E+01, 1.723E-01, 2.120E-02, 1.998E+02
 5.600E+02, 1.371E+02, 1.394E+02, 1.511E+02, 1.994E+02, 6.076E+01, 1.536E+02, 2.019E+02, 6.259E+01,-5.904E+01, 1.711E-01, 2.186E-02, 2.003E+02
 5.700E+02, 1.382E+02, 1.409E+02, 1.510E+02, 2.013E+02, 6.224E+01, 1.575E+02, 2.032E+02, 6.185E+01,-5.688E+01, 1.707E-01, 2.211E-02, 1.993E+02
 5.800E+02, 1.369E+02, 1.437E+02, 1.506E+02, 1.979E+02, 6.201E+01, 1.570E+02, 2.125E+02, 6.148E+01,-5.614E+01, 1.699E-01, 2.253E-02, 2.001E+02
 5.900E+02, 1.372E+02, 1.425E+02, 1.516E+02, 1.988E+02, 6.123E+01, 1.572E+02, 2.084E+02, 6.186E+01,-5.571E+01, 1.692E-01, 2.293E-02, 2.002E+02
 6.000E+02, 1.390E+02, 1.415E+02, 1.545E+02, 1.998E+02, 6.261E+01, 1.558E+02, 2.065E+02, 6.223E+01,-5.683E+01, 1.687E-01, 2.319E-02, 1.999E+02
 6.100E+02, 1.387E+02, 1.424E+02, 1.526E+02, 2.017E+02, 6.195E+01, 1.590E+02, 2.051E+02, 6.295E+01,-5.846E+01, 1.680E-01, 2.361E-02, 2.002E+02
 6.200E+02, 1.391E+02, 1.411E+02, 1.529E+02, 2.024E+02, 6.206E+01, 1.555E+02, 2.055E+02, 6.233E+01,-5.670E+01, 1.671E-01, 2.409E-02, 2.003E+02
 6.300E+02, 1.411E+02, 1.407E+02, 1.541E+02, 2.066E+02, 6.270E+01, 1.573E+02, 2.023E+02, 6.255E+01,-5.887E+01, 1.665E-01, 2.447E-02, 1.995E+02
 6.400E+02, 1.403E+02, 1.437E+02, 1.527E+02, 2.057E+02, 6.245E+01, 1.600E+02, 2.074E+02, 6.368E+01,-5.944E+01, 1.655E-01, 2.500E-02, 2.011E+02
 6.500E+02, 1.394E+02, 1.443E+02, 1.515E+02, 2.037E+02, 6.295E+01, 1.621E+02, 2.081E+02, 6.259E+01,-5.555E+01, 1.652E-01, 2.519E-02, 1.995E+02
 6.600E+02, 1.383E+02, 1.455E+02, 1.512E+02, 2.005E+02, 6.319E+01, 1.613E+02, 2.125E+02, 6.261E+01,-5.448E+01, 1.645E-01, 2.558E-02, 1.993E+02
 6.700E+02, 1.404E+02, 1.452E+02, 1.537E+02, 2.030E+02, 6.434E+01, 1.596E+02, 2.119E+02, 6.412E+01,-5.316E+01, 1.636E-01, 2.603E-02, 2.004E+02
 6.800E+02, 1.408E+02, 1.453E+02, 1.538E+02, 2.045E+02, 6.410E+01, 1.622E+02, 2.086E+02, 6.497E+01,-5.879E+01, 1.629E-01, 2.644E-02, 2.000E+02
 6.900E+02, 1.412E+02, 1.440E+02, 1.540E+02, 2.049E+02, 6.464E+01, 1.595E+02, 2.075E+02, 6.507E+01,-5.631E+01, 1.624E-01, 2.672E-02, 1.998E+02
 7.000E+02, 1.433E+02, 1.438E+02, 1.579E+02, 2.057E+02, 6.620E+01, 1.592E+02, 2.082E+02, 6.408E+01,-5.202E+01, 1.615E-01, 2.721E-02, 1.998E+02
 7.100E+02, 1.417E+02, 1.455E+02, 1.536E+02, 2.065E+02, 6.507E+01, 1.646E+02, 2.065E+02, 6.542E+01,-5.850E+01, 1.607E-01, 2.769E-02, 2.001E+02
 7.200E+02, 1.406E+02, 1.471E+02, 1.523E+02, 2.048E+02, 6.476E+01, 1.652E+02, 2.113E+02, 6.472E+01,-5.627E+01, 1.605E-01, 2.782E-02, 1.999E+02
 7.300E+02, 1.399E+02, 1.455E+02, 1.536E+02, 2.013E+02, 6.491E+01, 1.602E+02, 2.105E+02, 6.570E+01,-5.963E+01, 1.598E-01, 2.817E-02, 1.994E+02
 7.400E+02, 1.420E+02, 1.462E+02, 1.555E+02, 2.054E+02, 6.517E+01, 1.609E+02, 2.124E+02, 6.547E+01,-5.747E+01, 1.595E-01, 2.833E-02, 1.998E+02
 7.500E+02, 1.420E+02, 1.467E+02, 1.543E+02, 2.059E+02, 6.587E+01, 1.635E+02, 2.105E+02, 6.614E+01,-5.400E+01, 1.589E-01, 2.869E-02, 2.007E+02
 7.600E+02, 1.438E+02, 1.442E+02, 1.570E+02, 2.078E+02, 6.649E+01, 1.582E+02, 2.077E+02, 6.659E+01,-5.375E+01, 1.582E-01, 2.910E-02, 1.995E+02
 7.700E+02, 1.437E+02, 1.448E+02, 1.574E+02, 2.063E+02, 6.727E+01, 1.581E+02, 2.101E+02, 6.630E+01,-5.606E+01, 1.575E-01, 2.946E-02, 1.997E+02
 7.800E+02, 1.438E+02, 1.484E+02, 1.586E+02, 2.052E+02, 6.756E+01, 1.637E+02, 2.151E+02, 6.647E+01,-5.284E+01, 1.569E-01, 2.979E-02, 2.005E+02
 7.900E+02, 1.440E+02, 1.513E+02, 1.585E+02, 2.065E+02, 6.711E+01, 1.665E+02, 2.200E+02, 6.738E+01,-5.502E+01, 1.564E-01, 3.007E-02, 2.003E+02
 8.000E+02, 1.441E+02, 1.500E+02, 1.592E+02, 2.051E+02, 6.812E+01, 1.637E+02, 2.185E+02, 6.791E+01,-5.540E+01, 1.558E-01, 3.039E-02, 1.999E+02
 8.100E+02, 1.444E+02, 1.498E+02, 1.586E+02, 2.068E+02, 6.773E+01, 1.663E+02, 2.149E+02, 6.831E+01,-5.819E+01, 1.551E-01, 3.079E-02, 2.000E+02
 8.200E+02, 1.464E+02, 1.490E+02, 1.598E+02, 2.104E+02, 6.890E+01, 1.659E+02, 2.122E+02, 6.885E+01,-5.817E+01, 1.549E-01, 3.095E-02, 1.998E+02
 8.300E+02, 1.467E+02, 1.487E+02, 1.615E+02, 2.097E+02, 6.878E+01, 1.644E+02, 2.127E+02, 6.894E+01,-5.470E+01, 1.542E-01, 3.134E-02, 1.998E+02
 8.400E+02, 1.475E+02, 1.487E+02, 1.599E+02, 2.127E+02, 6.994E+01, 1.648E+02, 2.129E+02, 6.853E+01,-5.961E+01, 1.537E-01, 3.160E-02, 1.999E+02
 8.500E+02, 1.453E+02, 1.513E+02, 1.575E+02, 2.089E+02, 6.938E+01, 1.672E+02, 2.175E+02, 6.914E+01,-5.523E+01, 1.533E-01, 3.183E-02, 2.005E+02
 8.600E+02, 1.448E+02, 1.518E+02, 1.578E+02, 2.074E+02, 6.926E+01, 1.674E+02, 2.184E+02, 6.950E+01,-5.733E+01, 1.527E-01, 3.215E-02, 1.997E+02
 8.700E+02, 1.467E+02, 1.497E+02, 1.592E+02, 2.111E+02, 6.998E+01, 1.654E+02, 2.138E+02, 6.984E+01,-6.252E+01, 1.524E-01, 3.233E-02, 1.999E+02
 8.800E+02, 1.470E+02, 1.500E+02, 1.591E+02, 2.109E+02, 7.082E+01, 1.671E+02, 2.139E+02, 6.892E+01,-5.598E+01, 1.520E-01, 3.256E-02, 1.996E+02
 8.900E+02, 1.486E+02, 1.489E+02, 1.607E+02, 2.137E+02, 7.155E+01, 1.627E+02, 2.146E+02, 6.946E+01,-5.535E+01, 1.516E-01, 3.279E-02, 2.001E+02
 9.000E+02, 1.480E+02, 1.500E+02, 1.609E+02, 2.124E+02, 7.079E+01, 1.621E+02, 2.166E+02, 7.145E+01,-5.862E+01, 1.509E-01, 3.313E-02, 1.998E+02
 9.100E+02, 1.480E+02, 1.495E+02, 1.595E+02, 2.136E+02, 7.101E+01, 1.647E+02, 2.133E+02, 7.040E+01,-5.776E+01, 1.507E-01, 3.324E-02, 2.002E+02
 9.200E+02, 1.466E+02, 1.527E+02, 1.579E+02, 2.111E+02, 7.071E+01, 1.696E+02, 2.173E+02, 7.125E+01,-5.778E+01, 1.503E-01, 3.348E-02, 1.996E+02
 9.300E+02, 1.471E+02, 1.535E+02, 1.596E+02, 2.102E+02, 7.148E+01, 1.689E+02, 2.208E+02, 7.074E+01,-5.273E+01, 1.501E-01, 3.362E-02, 2.001E+02
 9.400E+02, 1.477E+02, 1.527E+02, 1.611E+02, 2.098E+02, 7.207E+01, 1.652E+02, 2.212E+02, 7.170E+01,-5.529E+01, 1.497E-01, 3.383E-02, 1.996E+02
 9.500E+02, 1.481E+02, 1.532E+02, 1.607E+02, 2.112E+02, 7.233E+01, 1.682E+02, 2.194E+02, 7.198E+01,-5.514E+01, 1.492E-01, 3.413E-02, 1.999E+02
 9.600E+02, 1.513E+02, 1.515E+02, 1.640E+02, 2.170E+02, 7.282E+01, 1.647E+02, 2.180E+02, 7.163E+01,-5.627E+01, 1.489E-01, 3.425E-02, 2.004E+02
 9.700E+02, 1.512E+02, 1.539E+02, 1.637E+02, 2.167E+02, 7.308E+01, 1.701E+02, 2.199E+02, 7.180E+01,-6.199E+01, 1.485E-01, 3.451E-02, 1.995E+02
 9.800E+02, 1.501E+02, 1.535E+02, 1.621E+02, 2.161E+02, 7.211E+01, 1.697E+02, 2.196E+02, 7.110E+01,-5.932E+01, 1.485E-01, 3.448E-02, 2.009E+02
 9.900E+02, 1.481E+02, 1.564E+02, 1.606E+02, 2.116E+02, 7.204E+01, 1.707E+02, 2.256E+02, 7.286E+01,-5.859E+01, 1.480E-01, 3.480E-02, 2.000E+02
 1.000E+03, 1.484E+02, 1.535E+02, 1.625E+02, 2.100E+02, 7.278E+01, 1.689E+02, 2.203E+02, 7.145E+01,-5.679E+01, 1.480E-01, 3.476E-02, 1.997E+02
 1.010E+03, 1.497E+02, 1.531E+02, 1.628E+02, 2.140E+02, 7.226E+01, 1.696E+02, 2.177E+02, 7.196E+01,-6.131E+01, 1.477E-01, 3.493E-02, 2.001E+02
 1.020E+03, 1.506E+02, 1.527E+02, 1.634E+02, 2.156E+02, 7.282E+01, 1.702E+02, 2.157E+02, 7.214E+01,-5.714E+01, 1.473E-01, 3.515E-02, 1.997E+02
 1.030E+03, 1.505E+02, 1.521E+02, 1.634E+02, 2.156E+02, 7.233E+01, 1.670E+02, 2.174E+02, 7.193E+01,-6.000E+01, 1.471E-01, 3.527E-02, 1.996E+02
 1.040E+03, 1.504E+02, 1.531E+02, 1.632E+02, 2.153E+02, 7.271E+01, 1.678E+02, 2.189E+02, 7.255E+01,-6.301E+01, 1.470E-01, 3.535E-02, 1.995E+02
 1.050E+03, 1.500E+02, 1.548E+02, 1.618E+02, 2.158E+02, 7.240E+01, 1.686E+02, 2.244E+02, 7.144E+01,-5.834E+01, 1.468E-01, 3.544E-02, 2.006E+02
 1.060E+03, 1.519E+02, 1.560E+02, 1.643E+02, 2.176E+02, 7.370E+01, 1.696E+02, 2.263E+02, 7.196E+01,-5.025E+01, 1.464E-01, 3.566E-02, 2.006E+02
 1.070E+03, 1.517E+02, 1.546E+02, 1.647E+02, 2.160E+02, 7.439E+01, 1.713E+02, 2.195E+02, 7.294E+01,-5.828E+01, 1.463E-01, 3.572E-02, 2.002E+02
 1.080E+03, 1.516E+02, 1.561E+02, 1.658E+02, 2.150E+02, 7.419E+01, 1.689E+02, 2.264E+02, 7.308E+01,-5.743E+01, 1.463E-01, 3.572E-02, 1.998E+02
 1.090E+03, 1.530E+02, 1.553E+02, 1.665E+02, 2.178E+02, 7.480E+01, 1.702E+02, 2.220E+02, 7.368E+01,-5.961E+01, 1.461E-01, 3.581E-02, 2.006E+02
 1.100E+03, 1.522E+02, 1.561E+02, 1.658E+02, 2.178E+02, 7.306E+01, 1.729E+02, 2.226E+02, 7.280E+01,-5.785E+01, 1.461E-01, 3.586E-02, 1.995E+02
 1.110E+03, 1.517E+02, 1.581E+02, 1.639E+02, 2.173E+02, 7.396E+01, 1.762E+02, 2.258E+02, 7.237E+01,-5.798E+01, 1.459E-01, 3.594E-02, 1.997E+02
 1.120E+03, 1.518E+02, 1.553E+02, 1.644E+02, 2.159E+02, 7.519E+01, 1.721E+02, 2.212E+02, 7.277E+01,-5.491E+01, 1.460E-01, 3.592E-02, 2.005E+02
 1.130E+03, 1.522E+02, 1.567E+02, 1.665E+02, 2.156E+02, 7.434E+01, 1.738E+02, 2.230E+02, 7.327E+01,-5.709E+01, 1.458E-01, 3.602E-02, 2.000E+02
 1.140E+03, 1.533E+02, 1.563E+02, 1.658E+02, 2.180E+02, 7.607E+01, 1.755E+02, 2.195E+02, 7.388E+01,-5.525E+01, 1.457E-01, 3.604E-02, 2.001E+02
 1.150E+03, 1.534E+02, 1.560E+02, 1.655E+02, 2.196E+02, 7.502E+01, 1.720E+02, 2.214E+02, 7.454E+01,-5.566E+01, 1.457E-01, 3.608E-02, 2.001E+02
 1.160E+03, 1.552E+02, 1.553E+02, 1.686E+02, 2.202E+02, 7.687E+01, 1.711E+02, 2.210E+02, 7.383E+01,-5.765E+01, 1.453E-01, 3.627E-02, 1.997E+02
 1.170E+03, 1.543E+02, 1.583E+02, 1.673E+02, 2.195E+02, 7.612E+01, 1.766E+02, 2.231E+02, 7.508E+01,-5.737E+01, 1.450E-01, 3.644E-02, 2.009E+02
 1.180E+03, 1.533E+02, 1.575E+02, 1.660E+02, 2.176E+02, 7.625E+01, 1.746E+02, 2.233E+02, 7.478E+01,-5.521E+01, 1.449E-01, 3.649E-02, 1.990E+02
 1.190E+03, 1.543E+02, 1.576E+02, 1.677E+02, 2.180E+02, 7.708E+01, 1.755E+02, 2.215E+02, 7.576E+01,-5.532E+01, 1.449E-01, 3.653E-02, 2.000E+02
 1.200E+03, 1.550E+02, 1.591E+02, 1.675E+02, 2.196E+02, 7.789E+01, 1.766E+02, 2.239E+02, 7.669E+01,-5.932E+01, 1.447E-01, 3.660E-02, 1.998E+02
 1.210E+03, 1.545E+02, 1.578E+02, 1.672E+02, 2.189E+02, 7.746E+01, 1.744E+02, 2.228E+02, 7.622E+01,-5.952E+01, 1.446E-01, 3.668E-02, 2.001E+02
 1.220E+03, 1.554E+02, 1.568E+02, 1.681E+02, 2.211E+02, 7.695E+01, 1.740E+02, 2.211E+02, 7.529E+01,-5.701E+01, 1.444E-01, 3.679E-02, 1.992E+02
 1.230E+03, 1.567E+02, 1.586E+02, 1.717E+02, 2.206E+02, 7.786E+01, 1.756E+02, 2.237E+02, 7.659E+01,-5.762E+01, 1.442E-01, 3.690E-02, 2.007E+02
 1.240E+03, 1.567E+02, 1.590E+02, 1.690E+02, 2.229E+02, 7.809E+01, 1.757E+02, 2.249E+02, 7.624E+01,-5.995E+01, 1.442E-01, 3.689E-02, 1.997E+02
 1.250E+03, 1.545E+02, 1.599E+02, 1.679E+02, 2.175E+02, 7.808E+01, 1.767E+02, 2.262E+02, 7.688E+01,-5.819E+01, 1.441E-01, 3.696E-02, 2.007E+02
 1.260E+03, 1.557E+02, 1.595E+02, 1.693E+02, 2.191E+02, 7.866E+01, 1.737E+02, 2.284E+02, 7.645E+01,-5.657E+01, 1.440E-01, 3.699E-02, 1.999E+02
 1.270E+03, 1.563E+02, 1.603E+02, 1.694E+02, 2.211E+02, 7.833E+01, 1.783E+02, 2.257E+02, 7.679E+01,-5.933E+01, 1.441E-01, 3.694E-02, 1.997E+02
 1.280E+03, 1.571E+02, 1.578E+02, 1.694E+02, 2.239E+02, 7.802E+01, 1.746E+02, 2.224E+02, 7.654E+01,-5.640E+01, 1.441E-01, 3.698E-02, 1.998E+02
 1.290E+03, 1.586E+02, 1.587E+02, 1.713E+02, 2.253E+02, 7.922E+01, 1.743E+02, 2.242E+02, 7.765E+01,-5.591E+01, 1.438E-01, 3.713E-02, 1.998E+02
 1.300E+03, 1.576E+02, 1.597E+02, 1.690E+02, 2.246E+02, 7.908E+01, 1.769E+02, 2.245E+02, 7.772E+01,-6.042E+01, 1.437E-01, 3.719E-02, 2.004E+02
 1.310E+03, 1.580E+02, 1.595E+02, 1.684E+02, 2.255E+02, 8.025E+01, 1.766E+02, 2.247E+02, 7.719E+01,-5.787E+01, 1.435E-01, 3.727E-02, 2.000E+02
