s,C,C,C,C,C,C,C,C,Pa,mol/mol,mol/mol,kW
Time,West_All_TCs,East_All_TCs,West_Bottom_TCs,West_Middle_TCs,West_Upper_TCs,East_Bottom_TCs,East_Middle_TCs,East_Upper_TCs,Pressure,O2,CO2,HRR
-6.000E+01, 3.400E+01, 3.400E+01, 3.400E+01, 3.400E+01, 3.400E+01, 3.400E+01, 3.400E+01, 3.400E+01,-9.314E-06, 2.095E-01, 3.901E-04, 0.000E+00
-4.997E+01, 3.418E+01, 3.478E+01, 3.365E+01, 2.987E+01, 3.901E+01, 3.332E+01, 2.963E+01, 4.138E+01,-4.142E+02, 2.095E-01, 3.901E-04, 0.000E+00
-3.998E+01, 3.323E+01, 3.425E+01, 2.995E+01, 2.997E+01, 3.977E+01, 3.012E+01, 2.922E+01, 4.341E+01,-4.684E+02, 2.095E-01, 3.901E-04, 0.000E+00
-3.000E+01, 3.249E+01, 3.446E+01, 2.902E+01, 2.942E+01, 3.903E+01, 3.057E+01, 3.045E+01, 4.234E+01,-4.656E+02, 2.095E-01, 3.901E-04, 0.000E+00
-1.997E+01, 3.221E+01, 3.431E+01, 2.926E+01, 2.987E+01, 3.750E+01, 3.131E+01, 3.127E+01, 4.036E+01,-4.608E+02, 2.095E-01, 3.901E-04, 0.000E+00
-9.977E+00, 3.240E+01, 3.412E+01, 2.978E+01, 3.028E+01, 3.713E+01, 3.168E+01, 3.166E+01, 3.903E+01,-4.576E+02, 2.095E-01, 3.901E-04, 0.000E+00
 1.885E-02, 3.248E+01, 3.383E+01, 3.006E+01, 3.078E+01, 3.660E+01, 3.181E+01, 3.189E+01, 3.779E+01,-4.561E+02, 2.095E-01, 3.901E-04, 1.342E-05
 1.002E+01, 3.301E+01, 3.450E+01, 3.096E+01, 3.203E+01, 3.604E+01, 3.261E+01, 3.317E+01, 3.771E+01,-4.064E+02, 2.095E-01, 3.901E-04, 1.618E+01
 2.002E+01, 3.539E+01, 3.643E+01, 3.207E+01, 3.729E+01, 3.681E+01, 3.400E+01, 3.714E+01, 3.817E+01,-3.019E+02, 2.095E-01, 3.902E-04, 4.945E+01
 3.000E+01, 3.869E+01, 3.968E+01, 3.475E+01, 4.402E+01, 3.731E+01, 3.746E+01, 4.413E+01, 3.745E+01,-2.225E+02, 2.095E-01, 4.067E-04, 8.295E+01
 4.001E+01, 4.459E+01, 4.624E+01, 3.803E+01, 5.563E+01, 4.012E+01, 4.447E+01, 5.585E+01, 3.839E+01,-1.959E+02, 2.094E-01, 4.637E-04, 9.998E+01
 5.002E+01, 4.915E+01, 5.186E+01, 4.290E+01, 6.263E+01, 4.191E+01, 5.169E+01, 6.602E+01, 3.787E+01,-2.260E+02, 2.094E-01, 4.887E-04, 1.000E+02
 6.000E+01, 5.496E+01, 5.559E+01, 4.750E+01, 7.119E+01, 4.621E+01, 5.633E+01, 7.262E+01, 3.781E+01,-2.504E+02, 2.093E-01, 5.298E-04, 9.997E+01
 7.001E+01, 5.873E+01, 5.950E+01, 5.172E+01, 7.700E+01, 4.748E+01, 6.083E+01, 7.889E+01, 3.878E+01,-2.775E+02, 2.091E-01, 6.526E-04, 1.000E+02
 8.002E+01, 6.105E+01, 6.346E+01, 5.571E+01, 8.094E+01, 4.648E+01, 6.590E+01, 8.283E+01, 4.166E+01,-3.006E+02, 2.083E-01, 1.062E-03, 1.000E+02
 9.000E+01, 6.364E+01, 6.690E+01, 5.920E+01, 8.533E+01, 4.638E+01, 6.842E+01, 8.797E+01, 4.431E+01,-3.166E+02, 2.078E-01, 1.378E-03, 1.001E+02
 1.000E+02, 6.702E+01, 7.020E+01, 6.234E+01, 8.935E+01, 4.937E+01, 7.240E+01, 9.074E+01, 4.746E+01,-3.302E+02, 2.071E-01, 1.745E-03, 1.000E+02
 1.100E+02, 6.930E+01, 7.106E+01, 6.488E+01, 9.116E+01, 5.186E+01, 7.273E+01, 9.155E+01, 4.889E+01,-3.493E+02, 2.069E-01, 1.851E-03, 9.999E+01
 1.200E+02, 7.152E+01, 7.317E+01, 6.616E+01, 9.350E+01, 5.492E+01, 7.533E+01, 9.445E+01, 4.973E+01,-3.638E+02, 2.067E-01, 2.003E-03, 1.001E+02
 1.300E+02, 7.244E+01, 7.463E+01, 6.899E+01, 9.421E+01, 5.414E+01, 7.650E+01, 9.537E+01, 5.202E+01,-3.709E+02, 2.059E-01, 2.452E-03, 1.001E+02
 1.400E+02, 7.422E+01, 7.631E+01, 7.052E+01, 9.576E+01, 5.637E+01, 7.784E+01, 9.821E+01, 5.288E+01,-3.875E+02, 2.058E-01, 2.493E-03, 1.000E+02
 1.500E+02, 7.499E+01, 7.685E+01, 7.197E+01, 9.529E+01, 5.770E+01, 7.837E+01, 9.749E+01, 5.470E+01,-3.953E+02, 2.051E-01, 2.901E-03, 1.001E+02
 1.600E+02, 7.611E+01, 7.799E+01, 7.249E+01, 9.689E+01, 5.897E+01, 7.932E+01, 9.864E+01, 5.600E+01,-3.991E+02, 2.047E-01, 3.083E-03, 1.000E+02
 1.700E+02, 7.660E+01, 7.927E+01, 7.336E+01, 9.733E+01, 5.912E+01, 8.172E+01, 9.984E+01, 5.624E+01,-4.078E+02, 2.045E-01, 3.232E-03, 1.001E+02
 1.800E+02, 7.725E+01, 7.992E+01, 7.374E+01, 9.728E+01, 6.072E+01, 8.181E+01, 1.011E+02, 5.688E+01,-4.086E+02, 2.040E-01, 3.463E-03, 1.000E+02
 1.900E+02, 7.816E+01, 8.063E+01, 7.439E+01, 9.866E+01, 6.142E+01, 8.297E+01, 1.010E+02, 5.793E+01,-4.096E+02, 2.036E-01, 3.708E-03, 1.001E+02
 2.000E+02, 7.954E+01, 8.135E+01, 7.476E+01, 1.003E+02, 6.355E+01, 8.319E+01, 1.029E+02, 5.791E+01,-4.127E+02, 2.035E-01, 3.793E-03, 1.000E+02
 2.100E+02, 7.962E+01, 8.128E+01, 7.577E+01, 1.007E+02, 6.235E+01, 8.355E+01, 1.019E+02, 5.839E+01,-4.172E+02, 2.031E-01, 3.989E-03, 1.001E+02
 2.200E+02, 8.042E+01, 8.224E+01, 7.652E+01, 1.009E+02, 6.384E+01, 8.381E+01, 1.031E+02, 5.984E+01,-4.184E+02, 2.026E-01, 4.247E-03, 9.993E+01
 2.300E+02, 8.097E+01, 8.282E+01, 7.691E+01, 1.024E+02, 6.357E+01, 8.405E+01, 1.050E+02, 5.942E+01,-4.198E+02, 2.026E-01, 4.253E-03, 1.001E+02
 2.400E+02, 8.134E+01, 8.208E+01, 7.728E+01, 1.014E+02, 6.529E+01, 8.283E+01, 1.043E+02, 5.907E+01,-4.160E+02, 2.024E-01, 4.381E-03, 1.000E+02
 2.500E+02, 8.133E+01, 8.244E+01, 7.722E+01, 1.012E+02, 6.554E+01, 8.462E+01, 1.039E+02, 5.877E+01,-4.209E+02, 2.021E-01, 4.569E-03, 1.001E+02
 2.600E+02, 8.123E+01, 8.382E+01, 7.774E+01, 1.015E+02, 6.449E+01, 8.505E+01, 1.070E+02, 5.939E+01,-4.207E+02, 2.017E-01, 4.785E-03, 1.002E+02
 2.700E+02, 8.142E+01, 8.267E+01, 7.852E+01, 1.021E+02, 6.361E+01, 8.405E+01, 1.043E+02, 5.962E+01,-4.215E+02, 2.014E-01, 4.914E-03, 1.000E+02
 2.800E+02, 8.185E+01, 8.296E+01, 7.870E+01, 1.030E+02, 6.387E+01, 8.489E+01, 1.048E+02, 5.915E+01,-4.144E+02, 2.014E-01, 4.962E-03, 1.002E+02
 2.900E+02, 8.288E+01, 8.329E+01, 7.888E+01, 1.037E+02, 6.602E+01, 8.422E+01, 1.061E+02, 5.954E+01,-4.215E+02, 2.010E-01, 5.181E-03, 9.999E+01
 3.000E+02, 8.235E+01, 8.331E+01, 7.874E+01, 1.041E+02, 6.423E+01, 8.537E+01, 1.050E+02, 5.955E+01,-4.152E+02, 2.008E-01, 5.250E-03, 1.000E+02
 3.100E+02, 8.317E+01, 8.421E+01, 7.908E+01, 1.050E+02, 6.544E+01, 8.578E+01, 1.055E+02, 6.132E+01,-4.200E+02, 2.004E-01, 5.505E-03, 1.000E+02
 3.200E+02, 8.342E+01, 8.446E+01, 7.914E+01, 1.056E+02, 6.553E+01, 8.690E+01, 1.055E+02, 6.100E+01,-4.178E+02, 2.003E-01, 5.578E-03, 1.000E+02
 3.300E+02, 8.365E+01, 8.405E+01, 7.912E+01, 1.059E+02, 6.589E+01, 8.613E+01, 1.053E+02, 6.076E+01,-4.153E+02, 2.002E-01, 5.616E-03, 1.001E+02
 3.400E+02, 8.412E+01, 8.438E+01, 7.978E+01, 1.049E+02, 6.766E+01, 8.667E+01, 1.062E+02, 6.025E+01,-4.211E+02, 2.001E-01, 5.685E-03, 9.999E+01
 3.500E+02, 8.358E+01, 8.478E+01, 8.037E+01, 1.040E+02, 6.640E+01, 8.618E+01, 1.077E+02, 6.050E+01,-4.192E+02, 2.000E-01, 5.730E-03, 1.001E+02
 3.600E+02, 8.374E+01, 8.486E+01, 7.977E+01, 1.057E+02, 6.572E+01, 8.690E+01, 1.067E+02, 6.098E+01,-4.145E+02, 1.998E-01, 5.827E-03, 1.001E+02
 3.700E+02, 8.273E+01, 8.561E+01, 7.941E+01, 1.045E+02, 6.427E+01, 8.766E+01, 1.080E+02, 6.122E+01,-4.152E+02, 1.997E-01, 5.879E-03, 1.000E+02
 3.800E+02, 8.408E+01, 8.605E+01, 8.054E+01, 1.050E+02, 6.668E+01, 8.733E+01, 1.075E+02, 6.333E+01,-4.164E+02, 1.995E-01, 5.989E-03, 9.998E+01
 3.900E+02, 8.500E+01, 8.606E+01, 8.016E+01, 1.064E+02, 6.842E+01, 8.759E+01, 1.089E+02, 6.174E+01,-4.148E+02, 1.995E-01, 5.981E-03, 1.000E+02
 4.000E+02, 8.453E+01, 8.527E+01, 8.064E+01, 1.059E+02, 6.709E+01, 8.749E+01, 1.074E+02, 6.090E+01,-4.136E+02, 1.995E-01, 6.026E-03, 1.001E+02
 4.100E+02, 8.389E+01, 8.522E+01, 8.037E+01, 1.061E+02, 6.521E+01, 8.587E+01, 1.084E+02, 6.143E+01,-4.129E+02, 1.993E-01, 6.097E-03, 1.002E+02
 4.200E+02, 8.513E+01, 8.491E+01, 8.130E+01, 1.066E+02, 6.753E+01, 8.599E+01, 1.077E+02, 6.104E+01,-4.121E+02, 1.992E-01, 6.144E-03, 1.000E+02
 4.300E+02, 8.502E+01, 8.423E+01, 8.123E+01, 1.067E+02, 6.713E+01, 8.588E+01, 1.060E+02, 6.078E+01,-4.093E+02, 1.992E-01, 6.158E-03, 1.001E+02
 4.400E+02, 8.574E+01, 8.572E+01, 8.163E+01, 1.080E+02, 6.761E+01, 8.667E+01, 1.089E+02, 6.158E+01,-4.122E+02, 1.991E-01, 6.210E-03, 1.002E+02
 4.500E+02, 8.518E+01, 8.616E+01, 8.171E+01, 1.076E+02, 6.621E+01, 8.767E+01, 1.087E+02, 6.206E+01,-4.088E+02, 1.990E-01, 6.290E-03, 1.001E+02
 4.600E+02, 8.532E+01, 8.579E+01, 8.173E+01, 1.076E+02, 6.660E+01, 8.687E+01, 1.089E+02, 6.162E+01,-4.102E+02, 1.990E-01, 6.310E-03, 1.001E+02
 4.700E+02, 8.543E+01, 8.592E+01, 8.194E+01, 1.074E+02, 6.697E+01, 8.632E+01, 1.093E+02, 6.210E+01,-4.041E+02, 1.989E-01, 6.351E-03, 1.001E+02
 4.800E+02, 8.549E+01, 8.645E+01, 8.139E+01, 1.076E+02, 6.746E+01, 8.736E+01, 1.095E+02, 6.247E+01,-4.059E+02, 1.988E-01, 6.376E-03, 1.001E+02
 4.900E+02, 8.601E+01, 8.750E+01, 8.222E+01, 1.089E+02, 6.686E+01, 8.811E+01, 1.111E+02, 6.327E+01,-4.065E+02, 1.988E-01, 6.417E-03, 9.992E+01
 5.000E+02, 8.511E+01, 8.721E+01, 8.224E+01, 1.067E+02, 6.641E+01, 8.930E+01, 1.092E+02, 6.316E+01,-4.040E+02, 1.987E-01, 6.446E-03, 1.001E+02
 5.100E+02, 8.557E+01, 8.816E+01, 8.189E+01, 1.069E+02, 6.794E+01, 8.945E+01, 1.114E+02, 6.360E+01,-4.079E+02, 1.987E-01, 6.476E-03, 1.000E+02
 5.200E+02, 8.567E+01, 8.680E+01, 8.185E+01, 1.076E+02, 6.753E+01, 8.819E+01, 1.096E+02, 6.265E+01,-4.074E+02, 1.986E-01, 6.479E-03, 1.001E+02
 5.300E+02, 8.576E+01, 8.803E+01, 8.198E+01, 1.073E+02, 6.802E+01, 9.023E+01, 1.112E+02, 6.269E+01,-4.056E+02, 1.986E-01, 6.515E-03, 1.000E+02
 5.400E+02, 8.656E+01, 8.792E+01, 8.229E+01, 1.089E+02, 6.849E+01, 8.935E+01, 1.112E+02, 6.318E+01,-4.065E+02, 1.985E-01, 6.560E-03, 9.996E+01
 5.500E+02, 8.686E+01, 8.750E+01, 8.273E+01, 1.078E+02, 7.007E+01, 8.833E+01, 1.109E+02, 6.326E+01,-4.074E+02, 1.985E-01, 6.577E-03, 1.001E+02
 5.600E+02, 8.617E+01, 8.903E+01, 8.239E+01, 1.089E+02, 6.725E+01, 8.993E+01, 1.140E+02, 6.315E+01,-4.063E+02, 1.985E-01, 6.563E-03, 1.001E+02
 5.700E+02, 8.627E+01, 8.787E+01, 8.400E+01, 1.076E+02, 6.722E+01, 8.962E+01, 1.116E+02, 6.235E+01,-4.019E+02, 1.985E-01, 6.551E-03, 1.001E+02
 5.800E+02, 8.707E+01, 8.820E+01, 8.382E+01, 1.091E+02, 6.830E+01, 8.909E+01, 1.122E+02, 6.330E+01,-4.031E+02, 1.985E-01, 6.565E-03, 1.001E+02
 5.900E+02, 8.749E+01, 8.820E+01, 8.335E+01, 1.095E+02, 6.956E+01, 9.024E+01, 1.117E+02, 6.270E+01,-4.067E+02, 1.985E-01, 6.562E-03, 1.000E+02
 6.000E+02, 8.729E+01, 8.807E+01, 8.297E+01, 1.095E+02, 6.938E+01, 8.966E+01, 1.113E+02, 6.321E+01,-4.022E+02, 1.984E-01, 6.594E-03, 1.002E+02
 6.100E+02, 8.742E+01, 8.771E+01, 8.267E+01, 1.094E+02, 7.015E+01, 8.953E+01, 1.101E+02, 6.350E+01,-3.985E+02, 1.984E-01, 6.620E-03, 1.001E+02
 6.200E+02, 8.763E+01, 8.827E+01, 8.344E+01, 1.103E+02, 6.919E+01, 9.005E+01, 1.113E+02, 6.347E+01,-4.039E+02, 1.984E-01, 6.645E-03, 9.993E+01
 6.300E+02, 8.673E+01, 8.804E+01, 8.347E+01, 1.097E+02, 6.698E+01, 8.989E+01, 1.121E+02, 6.217E+01,-4.078E+02, 1.984E-01, 6.612E-03, 1.001E+02
 6.400E+02, 8.746E+01, 8.891E+01, 8.414E+01, 1.111E+02, 6.708E+01, 9.051E+01, 1.130E+02, 6.321E+01,-4.013E+02, 1.984E-01, 6.639E-03, 1.001E+02
 6.500E+02, 8.770E+01, 8.911E+01, 8.346E+01, 1.102E+02, 6.943E+01, 8.939E+01, 1.132E+02, 6.477E+01,-3.992E+02, 1.982E-01, 6.724E-03, 1.000E+02
 6.600E+02, 8.812E+01, 8.816E+01, 8.433E+01, 1.101E+02, 6.991E+01, 8.879E+01, 1.115E+02, 6.421E+01,-4.023E+02, 1.982E-01, 6.726E-03, 1.001E+02
 6.700E+02, 8.814E+01, 8.911E+01, 8.467E+01, 1.097E+02, 7.006E+01, 8.984E+01, 1.128E+02, 6.471E+01,-4.063E+02, 1.982E-01, 6.734E-03, 1.001E+02
 6.800E+02, 8.878E+01, 8.919E+01, 8.441E+01, 1.123E+02, 6.960E+01, 9.041E+01, 1.126E+02, 6.462E+01,-4.046E+02, 1.982E-01, 6.748E-03, 9.999E+01
 6.900E+02, 8.889E+01, 8.966E+01, 8.496E+01, 1.108E+02, 7.086E+01, 9.091E+01, 1.137E+02, 6.436E+01,-4.036E+02, 1.982E-01, 6.750E-03, 1.001E+02
 7.000E+02, 8.826E+01, 8.944E+01, 8.420E+01, 1.101E+02, 7.050E+01, 9.067E+01, 1.131E+02, 6.456E+01,-4.048E+02, 1.981E-01, 6.769E-03, 1.001E+02
 7.100E+02, 8.911E+01, 8.961E+01, 8.406E+01, 1.108E+02, 7.249E+01, 9.016E+01, 1.146E+02, 6.401E+01,-4.040E+02, 1.982E-01, 6.748E-03, 1.000E+02
 7.200E+02, 8.902E+01, 8.973E+01, 8.514E+01, 1.111E+02, 7.079E+01, 9.128E+01, 1.139E+02, 6.399E+01,-4.026E+02, 1.982E-01, 6.744E-03, 1.000E+02
 7.300E+02, 8.875E+01, 8.975E+01, 8.553E+01, 1.109E+02, 6.979E+01, 9.104E+01, 1.143E+02, 6.394E+01,-4.051E+02, 1.981E-01, 6.783E-03, 1.001E+02
 7.400E+02, 8.817E+01, 8.983E+01, 8.493E+01, 1.104E+02, 6.918E+01, 9.105E+01, 1.137E+02, 6.471E+01,-3.951E+02, 1.981E-01, 6.769E-03, 9.998E+01
 7.500E+02, 8.920E+01, 9.101E+01, 8.559E+01, 1.115E+02, 7.049E+01, 9.169E+01, 1.156E+02, 6.578E+01,-3.999E+02, 1.981E-01, 6.788E-03, 1.001E+02
 7.600E+02, 8.903E+01, 9.020E+01, 8.561E+01, 1.119E+02, 6.958E+01, 9.117E+01, 1.137E+02, 6.577E+01,-4.043E+02, 1.980E-01, 6.821E-03, 1.001E+02
 7.700E+02, 8.947E+01, 9.020E+01, 8.585E+01, 1.124E+02, 7.013E+01, 9.149E+01, 1.142E+02, 6.495E+01,-4.017E+02, 1.981E-01, 6.807E-03, 1.001E+02
 7.800E+02, 8.940E+01, 9.043E+01, 8.585E+01, 1.131E+02, 6.926E+01, 9.111E+01, 1.145E+02, 6.562E+01,-3.990E+02, 1.981E-01, 6.798E-03, 1.001E+02
 7.900E+02, 8.880E+01, 9.040E+01, 8.497E+01, 1.122E+02, 6.925E+01, 9.131E+01, 1.142E+02, 6.567E+01,-4.036E+02, 1.980E-01, 6.829E-03, 9.996E+01
 8.000E+02, 8.938E+01, 9.068E+01, 8.522E+01, 1.127E+02, 7.025E+01, 9.130E+01, 1.150E+02, 6.580E+01,-3.979E+02, 1.981E-01, 6.809E-03, 1.001E+02
 8.100E+02, 8.915E+01, 9.056E+01, 8.561E+01, 1.119E+02, 6.999E+01, 9.174E+01, 1.140E+02, 6.593E+01,-4.014E+02, 1.980E-01, 6.857E-03, 1.001E+02
 8.200E+02, 9.005E+01, 9.107E+01, 8.552E+01, 1.126E+02, 7.201E+01, 9.210E+01, 1.144E+02, 6.670E+01,-4.008E+02, 1.979E-01, 6.875E-03, 9.998E+01
 8.300E+02, 9.030E+01, 9.063E+01, 8.594E+01, 1.120E+02, 7.293E+01, 9.162E+01, 1.144E+02, 6.583E+01,-4.059E+02, 1.980E-01, 6.831E-03, 9.991E+01
 8.400E+02, 9.073E+01, 9.034E+01, 8.621E+01, 1.119E+02, 7.406E+01, 9.212E+01, 1.137E+02, 6.520E+01,-4.030E+02, 1.980E-01, 6.823E-03, 1.002E+02
 8.500E+02, 9.023E+01, 9.085E+01, 8.604E+01, 1.118E+02, 7.287E+01, 9.214E+01, 1.147E+02, 6.572E+01,-3.986E+02, 1.980E-01, 6.832E-03, 1.001E+02
 8.600E+02, 8.945E+01, 9.167E+01, 8.580E+01, 1.124E+02, 7.012E+01, 9.311E+01, 1.152E+02, 6.671E+01,-4.027E+02, 1.980E-01, 6.868E-03, 1.001E+02
 8.700E+02, 8.948E+01, 9.172E+01, 8.543E+01, 1.133E+02, 6.973E+01, 9.352E+01, 1.146E+02, 6.699E+01,-4.012E+02, 1.980E-01, 6.842E-03, 1.001E+02
 8.800E+02, 9.038E+01, 9.101E+01, 8.622E+01, 1.137E+02, 7.121E+01, 9.202E+01, 1.143E+02, 6.673E+01,-4.009E+02, 1.980E-01, 6.840E-03, 1.001E+02
 8.900E+02, 9.089E+01, 9.149E+01, 8.620E+01, 1.140E+02, 7.243E+01, 9.273E+01, 1.151E+02, 6.666E+01,-4.010E+02, 1.980E-01, 6.856E-03, 1.001E+02
 9.000E+02, 9.010E+01, 9.169E+01, 8.594E+01, 1.120E+02, 7.233E+01, 9.241E+01, 1.163E+02, 6.638E+01,-4.005E+02, 1.980E-01, 6.833E-03, 1.001E+02
 9.100E+02, 9.025E+01, 9.209E+01, 8.611E+01, 1.133E+02, 7.135E+01, 9.287E+01, 1.163E+02, 6.712E+01,-4.029E+02, 1.980E-01, 6.850E-03, 1.002E+02
 9.200E+02, 9.024E+01, 9.225E+01, 8.696E+01, 1.130E+02, 7.071E+01, 9.194E+01, 1.170E+02, 6.787E+01,-3.959E+02, 1.979E-01, 6.875E-03, 1.001E+02
 9.300E+02, 9.111E+01, 9.159E+01, 8.720E+01, 1.141E+02, 7.205E+01, 9.235E+01, 1.157E+02, 6.673E+01,-3.941E+02, 1.980E-01, 6.860E-03, 1.000E+02
 9.400E+02, 9.057E+01, 9.199E+01, 8.688E+01, 1.133E+02, 7.151E+01, 9.256E+01, 1.161E+02, 6.730E+01,-3.973E+02, 1.980E-01, 6.850E-03, 9.997E+01
 9.500E+02, 9.118E+01, 9.267E+01, 8.659E+01, 1.146E+02, 7.234E+01, 9.316E+01, 1.171E+02, 6.780E+01,-3.996E+02, 1.980E-01, 6.867E-03, 1.001E+02
 9.600E+02, 9.154E+01, 9.244E+01, 8.781E+01, 1.143E+02, 7.250E+01, 9.303E+01, 1.168E+02, 6.744E+01,-3.991E+02, 1.979E-01, 6.883E-03, 1.000E+02
 9.700E+02, 9.172E+01, 9.212E+01, 8.738E+01, 1.147E+02, 7.305E+01, 9.318E+01, 1.158E+02, 6.743E+01,-3.961E+02, 1.980E-01, 6.860E-03, 1.002E+02
 9.800E+02, 9.186E+01, 9.286E+01, 8.721E+01, 1.150E+02, 7.340E+01, 9.422E+01, 1.163E+02, 6.803E+01,-4.005E+02, 1.979E-01, 6.888E-03, 1.001E+02
 9.900E+02, 9.201E+01, 9.265E+01, 8.809E+01, 1.143E+02, 7.369E+01, 9.436E+01, 1.160E+02, 6.756E+01,-3.963E+02, 1.980E-01, 6.860E-03, 1.002E+02
 1.000E+03, 9.128E+01, 9.343E+01, 8.738E+01, 1.138E+02, 7.269E+01, 9.476E+01, 1.173E+02, 6.826E+01,-4.011E+02, 1.979E-01, 6.876E-03, 1.001E+02
 1.010E+03, 9.138E+01, 9.367E+01, 8.754E+01, 1.137E+02, 7.289E+01, 9.491E+01, 1.178E+02, 6.824E+01,-4.008E+02, 1.979E-01, 6.883E-03, 1.001E+02
 1.020E+03, 9.149E+01, 9.361E+01, 8.729E+01, 1.142E+02, 7.304E+01, 9.357E+01, 1.179E+02, 6.940E+01,-4.008E+02, 1.979E-01, 6.921E-03, 9.998E+01
 1.030E+03, 9.279E+01, 9.309E+01, 8.813E+01, 1.150E+02, 7.528E+01, 9.408E+01, 1.164E+02, 6.875E+01,-3.967E+02, 1.979E-01, 6.903E-03, 1.000E+02
 1.040E+03, 9.357E+01, 9.336E+01, 8.786E+01, 1.154E+02, 7.750E+01, 9.433E+01, 1.183E+02, 6.748E+01,-4.017E+02, 1.980E-01, 6.857E-03, 1.001E+02
 1.050E+03, 9.346E+01, 9.304E+01, 8.893E+01, 1.155E+02, 7.598E+01, 9.351E+01, 1.173E+02, 6.830E+01,-4.045E+02, 1.979E-01, 6.881E-03, 1.000E+02
 1.060E+03, 9.214E+01, 9.267E+01, 8.754E+01, 1.140E+02, 7.489E+01, 9.378E+01, 1.163E+02, 6.795E+01,-4.017E+02, 1.979E-01, 6.904E-03, 1.001E+02
 1.070E+03, 9.193E+01, 9.276E+01, 8.756E+01, 1.160E+02, 7.220E+01, 9.384E+01, 1.156E+02, 6.880E+01,-3.968E+02, 1.979E-01, 6.916E-03, 1.001E+02
 1.080E+03, 9.207E+01, 9.424E+01, 8.774E+01, 1.162E+02, 7.223E+01, 9.545E+01, 1.179E+02, 6.935E+01,-3.955E+02, 1.979E-01, 6.915E-03, 1.001E+02
 1.090E+03, 9.279E+01, 9.343E+01, 8.800E+01, 1.167E+02, 7.369E+01, 9.467E+01, 1.173E+02, 6.830E+01,-3.945E+02, 1.979E-01, 6.898E-03, 9.999E+01
 1.100E+03, 9.355E+01, 9.349E+01, 8.847E+01, 1.169E+02, 7.534E+01, 9.415E+01, 1.176E+02, 6.877E+01,-3.978E+02, 1.979E-01, 6.902E-03, 1.001E+02
 1.110E+03, 9.314E+01, 9.385E+01, 8.917E+01, 1.162E+02, 7.408E+01, 9.457E+01, 1.184E+02, 6.858E+01,-3.932E+02, 1.979E-01, 6.874E-03, 1.001E+02
 1.120E+03, 9.387E+01, 9.371E+01, 8.907E+01, 1.153E+02, 7.727E+01, 9.404E+01, 1.188E+02, 6.824E+01,-3.937E+02, 1.979E-01, 6.889E-03, 1.001E+02
 1.130E+03, 9.292E+01, 9.327E+01, 8.833E+01, 1.156E+02, 7.488E+01, 9.426E+01, 1.164E+02, 6.916E+01,-3.966E+02, 1.979E-01, 6.919E-03, 1.002E+02
 1.140E+03, 9.351E+01, 9.445E+01, 8.816E+01, 1.166E+02, 7.579E+01, 9.506E+01, 1.189E+02, 6.941E+01,-4.065E+02, 1.979E-01, 6.923E-03, 1.001E+02
 1.150E+03, 9.360E+01, 9.366E+01, 8.841E+01, 1.162E+02, 7.617E+01, 9.465E+01, 1.182E+02, 6.809E+01,-4.011E+02, 1.979E-01, 6.878E-03, 1.002E+02
 1.160E+03, 9.397E+01, 9.409E+01, 8.834E+01, 1.164E+02, 7.716E+01, 9.487E+01, 1.196E+02, 6.786E+01,-4.036E+02, 1.979E-01, 6.881E-03, 1.000E+02
 1.170E+03, 9.363E+01, 9.341E+01, 8.868E+01, 1.172E+02, 7.503E+01, 9.441E+01, 1.184E+02, 6.743E+01,-3.999E+02, 1.979E-01, 6.897E-03, 1.001E+02
 1.180E+03, 9.273E+01, 9.448E+01, 8.816E+01, 1.165E+02, 7.355E+01, 9.471E+01, 1.190E+02, 6.978E+01,-3.966E+02, 1.978E-01, 6.934E-03, 1.001E+02
 1.190E+03, 9.275E+01, 9.480E+01, 8.852E+01, 1.167E+02, 7.300E+01, 9.603E+01, 1.181E+02, 7.027E+01,-3.978E+02, 1.979E-01, 6.922E-03, 1.001E+02
 1.200E+03, 9.343E+01, 9.467E+01, 8.847E+01, 1.169E+02, 7.490E+01, 9.568E+01, 1.180E+02, 7.037E+01,-3.953E+02, 1.978E-01, 6.925E-03, 1.001E+02
 1.210E+03, 9.310E+01, 9.462E+01, 8.882E+01, 1.163E+02, 7.419E+01, 9.497E+01, 1.194E+02, 6.950E+01,-3.959E+02, 1.979E-01, 6.924E-03, 1.001E+02
 1.220E+03, 9.451E+01, 9.441E+01, 8.900E+01, 1.171E+02, 7.745E+01, 9.553E+01, 1.184E+02, 6.934E+01,-3.949E+02, 1.979E-01, 6.914E-03, 1.002E+02
 1.230E+03, 9.435E+01, 9.460E+01, 8.887E+01, 1.170E+02, 7.720E+01, 9.512E+01, 1.194E+02, 6.925E+01,-3.980E+02, 1.979E-01, 6.886E-03, 1.002E+02
 1.240E+03, 9.355E+01, 9.448E+01, 8.904E+01, 1.170E+02, 7.456E+01, 9.511E+01, 1.188E+02, 6.949E+01,-4.005E+02, 1.979E-01, 6.900E-03, 1.001E+02
 1.250E+03, 9.491E+01, 9.486E+01, 8.963E+01, 1.178E+02, 7.733E+01, 9.473E+01, 1.195E+02, 7.033E+01,-3.956E+02, 1.978E-01, 6.936E-03, 1.001E+02
 1.260E+03, 9.400E+01, 9.445E+01, 8.982E+01, 1.170E+02, 7.512E+01, 9.586E+01, 1.176E+02, 6.986E+01,-3.989E+02, 1.978E-01, 6.935E-03, 1.001E+02
 1.270E+03, 9.429E+01, 9.548E+01, 8.909E+01, 1.177E+02, 7.606E+01, 9.687E+01, 1.187E+02, 7.088E+01,-3.986E+02, 1.979E-01, 6.914E-03, 1.001E+02
 1.280E+03, 9.366E+01, 9.483E+01, 8.847E+01, 1.171E+02, 7.541E+01, 9.581E+01, 1.188E+02, 6.986E+01,-4.006E+02, 1.979E-01, 6.906E-03, 1.001E+02
 1.290E+03, 9.453E+01, 9.540E+01, 8.957E+01, 1.183E+02, 7.571E+01, 9.649E+01, 1.196E+02, 7.009E+01,-3.949E+02, 1.979E-01, 6.897E-03, 1.002E+02
 1.300E+03, 9.428E+01, 9.502E+01, 8.971E+01, 1.181E+02, 7.507E+01, 9.501E+01, 1.201E+02, 6.996E+01,-3.940E+02, 1.979E-01, 6.913E-03, 1.001E+02
 1.310E+03, 9.485E+01, 9.529E+01, 8.980E+01, 1.175E+02, 7.722E+01, 9.554E+01, 1.203E+02, 7.004E+01,-3.996E+02, 1.979E-01, 6.911E-03, 9.999E+01
