s,C,C,C,C,C,C,C,C,Pa,mol/mol,mol/mol,kW
Time,"West_All_TCs","East_All_TCs","West_Bottom_TCs","West_Middle_TCs","West_Upper_TCs","East_Bottom_TCs","East_Middle_TCs","East_Upper_TCs","Pressure","O2","CO2","HRR"
-6.000E+01, 2.500E+01, 2.500E+01, 2.500E+01, 2.500E+01, 2.500E+01, 2.500E+01, 2.500E+01, 2.500E+01,-9.627E-06, 2.095E-01, 3.901E-04, 0.000E+00
-4.998E+01, 2.500E+01, 2.500E+01, 2.500E+01, 2.500E+01, 2.500E+01, 2.500E+01, 2.500E+01, 2.500E+01, 1.146E-02, 2.095E-01, 3.901E-04, 0.000E+00
-3.996E+01, 2.500E+01, 2.500E+01, 2.500E+01, 2.500E+01, 2.500E+01, 2.500E+01, 2.500E+01, 2.500E+01, 1.181E-02, 2.095E-01, 3.901E-04, 0.000E+00
-2.994E+01, 2.500E+01, 2.500E+01, 2.500E+01, 2.500E+01, 2.500E+01, 2.500E+01, 2.500E+01, 2.500E+01, 1.182E-02, 2.095E-01, 3.901E-04, 0.000E+00
-1.992E+01, 2.500E+01, 2.500E+01, 2.500E+01, 2.500E+01, 2.500E+01, 2.500E+01, 2.500E+01, 2.500E+01, 1.182E-02, 2.095E-01, 3.901E-04, 0.000E+00
-9.896E+00, 2.500E+01, 2.500E+01, 2.500E+01, 2.500E+01, 2.500E+01, 2.500E+01, 2.500E+01, 2.500E+01, 1.182E-02, 2.095E-01, 3.901E-04, 0.000E+00
 1.301E-02, 2.500E+01, 2.500E+01, 2.500E+01, 2.500E+01, 2.500E+01, 2.500E+01, 2.500E+01, 2.500E+01, 1.182E-02, 2.095E-01, 3.901E-04, 8.809E-05
 1.000E+01, 2.533E+01, 2.548E+01, 2.524E+01, 2.508E+01, 2.566E+01, 2.538E+01, 2.510E+01, 2.596E+01, 4.652E+00, 2.095E-01, 4.424E-04, 1.705E+01
 2.000E+01, 2.683E+01, 2.735E+01, 2.584E+01, 2.536E+01, 2.928E+01, 2.637E+01, 2.537E+01, 3.030E+01, 2.382E+01, 2.089E-01, 7.459E-04, 4.960E+01
 3.002E+01, 3.050E+01, 3.126E+01, 2.665E+01, 2.787E+01, 3.698E+01, 2.770E+01, 2.805E+01, 3.803E+01, 5.813E+01, 2.080E-01, 1.255E-03, 8.302E+01
 4.001E+01, 3.664E+01, 3.720E+01, 2.749E+01, 3.504E+01, 4.739E+01, 2.858E+01, 3.479E+01, 4.824E+01, 7.624E+01, 2.072E-01, 1.678E-03, 1.001E+02
 5.002E+01, 4.207E+01, 4.258E+01, 2.872E+01, 4.311E+01, 5.439E+01, 2.980E+01, 4.228E+01, 5.565E+01, 6.705E+01, 2.062E-01, 2.265E-03, 9.992E+01
 6.000E+01, 4.759E+01, 4.813E+01, 3.160E+01, 5.045E+01, 6.072E+01, 3.234E+01, 4.981E+01, 6.224E+01, 5.881E+01, 2.055E-01, 2.645E-03, 9.999E+01
 7.001E+01, 5.313E+01, 5.287E+01, 3.522E+01, 5.803E+01, 6.614E+01, 3.688E+01, 5.576E+01, 6.597E+01, 4.985E+01, 2.050E-01, 2.950E-03, 9.990E+01
 8.000E+01, 5.796E+01, 5.841E+01, 4.048E+01, 6.239E+01, 7.100E+01, 4.113E+01, 6.220E+01, 7.189E+01, 4.265E+01, 2.044E-01, 3.248E-03, 1.002E+02
 9.003E+01, 6.211E+01, 6.259E+01, 4.549E+01, 6.564E+01, 7.519E+01, 4.531E+01, 6.626E+01, 7.621E+01, 3.577E+01, 2.037E-01, 3.657E-03, 9.993E+01
 1.000E+02, 6.579E+01, 6.670E+01, 4.919E+01, 7.053E+01, 7.765E+01, 5.046E+01, 6.897E+01, 8.069E+01, 3.099E+01, 2.032E-01, 3.962E-03, 1.002E+02
 1.100E+02, 6.947E+01, 7.050E+01, 5.394E+01, 7.301E+01, 8.147E+01, 5.480E+01, 7.260E+01, 8.411E+01, 2.647E+01, 2.025E-01, 4.330E-03, 1.003E+02
 1.200E+02, 7.301E+01, 7.412E+01, 5.774E+01, 7.726E+01, 8.404E+01, 5.942E+01, 7.638E+01, 8.655E+01, 2.298E+01, 2.020E-01, 4.631E-03, 1.004E+02
 1.300E+02, 7.571E+01, 7.640E+01, 6.228E+01, 7.886E+01, 8.599E+01, 6.288E+01, 7.817E+01, 8.815E+01, 1.894E+01, 2.015E-01, 4.877E-03, 1.003E+02
 1.400E+02, 7.890E+01, 7.939E+01, 6.415E+01, 8.260E+01, 8.996E+01, 6.612E+01, 8.145E+01, 9.061E+01, 1.670E+01, 2.009E-01, 5.235E-03, 1.006E+02
 1.500E+02, 8.057E+01, 8.145E+01, 6.725E+01, 8.416E+01, 9.030E+01, 6.837E+01, 8.337E+01, 9.262E+01, 1.515E+01, 2.005E-01, 5.445E-03, 1.003E+02
 1.600E+02, 8.233E+01, 8.358E+01, 6.927E+01, 8.525E+01, 9.247E+01, 7.107E+01, 8.436E+01, 9.532E+01, 1.311E+01, 1.994E-01, 6.065E-03, 1.005E+02
 1.700E+02, 8.546E+01, 8.579E+01, 7.335E+01, 8.801E+01, 9.501E+01, 7.200E+01, 8.672E+01, 9.864E+01, 1.153E+01, 1.987E-01, 6.477E-03, 1.004E+02
 1.800E+02, 8.668E+01, 8.710E+01, 7.382E+01, 9.070E+01, 9.551E+01, 7.427E+01, 8.811E+01, 9.891E+01, 1.054E+01, 1.984E-01, 6.601E-03, 1.002E+02
 1.900E+02, 8.822E+01, 8.796E+01, 7.427E+01, 9.184E+01, 9.855E+01, 7.667E+01, 8.921E+01, 9.800E+01, 9.605E+00, 1.978E-01, 6.938E-03, 1.000E+02
 2.000E+02, 8.914E+01, 8.911E+01, 7.574E+01, 9.246E+01, 9.923E+01, 7.747E+01, 8.972E+01, 1.001E+02, 9.948E+00, 1.971E-01, 7.334E-03, 1.006E+02
 2.100E+02, 9.023E+01, 9.141E+01, 7.715E+01, 9.364E+01, 9.989E+01, 7.789E+01, 9.282E+01, 1.035E+02, 9.313E+00, 1.962E-01, 7.821E-03, 1.004E+02
 2.200E+02, 9.126E+01, 9.160E+01, 7.837E+01, 9.362E+01, 1.018E+02, 7.871E+01, 9.318E+01, 1.029E+02, 9.207E+00, 1.959E-01, 8.038E-03, 1.004E+02
 2.300E+02, 9.197E+01, 9.273E+01, 7.805E+01, 9.586E+01, 1.020E+02, 8.063E+01, 9.380E+01, 1.038E+02, 9.216E+00, 1.950E-01, 8.535E-03, 1.009E+02
 2.400E+02, 9.290E+01, 9.299E+01, 7.990E+01, 9.651E+01, 1.023E+02, 8.066E+01, 9.349E+01, 1.048E+02, 9.042E+00, 1.941E-01, 9.032E-03, 1.008E+02
 2.500E+02, 9.322E+01, 9.410E+01, 8.065E+01, 9.658E+01, 1.024E+02, 8.149E+01, 9.452E+01, 1.063E+02, 8.959E+00, 1.937E-01, 9.248E-03, 1.003E+02
 2.600E+02, 9.305E+01, 9.483E+01, 8.031E+01, 9.588E+01, 1.029E+02, 8.238E+01, 9.572E+01, 1.064E+02, 9.212E+00, 1.930E-01, 9.614E-03, 1.007E+02
 2.700E+02, 9.448E+01, 9.487E+01, 8.212E+01, 9.793E+01, 1.034E+02, 8.217E+01, 9.587E+01, 1.066E+02, 9.336E+00, 1.924E-01, 9.960E-03, 1.008E+02
 2.800E+02, 9.402E+01, 9.570E+01, 8.138E+01, 9.769E+01, 1.030E+02, 8.354E+01, 9.601E+01, 1.076E+02, 8.559E+00, 1.916E-01, 1.043E-02, 1.001E+02
 2.900E+02, 9.541E+01, 9.543E+01, 8.242E+01, 1.001E+02, 1.037E+02, 8.339E+01, 9.637E+01, 1.065E+02, 8.906E+00, 1.910E-01, 1.076E-02, 1.011E+02
 3.000E+02, 9.418E+01, 9.644E+01, 8.213E+01, 9.606E+01, 1.043E+02, 8.389E+01, 9.710E+01, 1.083E+02, 9.060E+00, 1.902E-01, 1.120E-02, 1.012E+02
 3.100E+02, 9.572E+01, 9.691E+01, 8.326E+01, 9.854E+01, 1.053E+02, 8.392E+01, 1.003E+02, 1.066E+02, 8.817E+00, 1.897E-01, 1.150E-02, 1.006E+02
 3.200E+02, 9.549E+01, 9.739E+01, 8.225E+01, 9.837E+01, 1.059E+02, 8.507E+01, 1.001E+02, 1.070E+02, 8.744E+00, 1.892E-01, 1.176E-02, 1.008E+02
 3.300E+02, 9.542E+01, 9.808E+01, 8.323E+01, 9.707E+01, 1.060E+02, 8.463E+01, 1.006E+02, 1.090E+02, 8.599E+00, 1.884E-01, 1.221E-02, 1.002E+02
 3.400E+02, 9.562E+01, 9.828E+01, 8.329E+01, 9.787E+01, 1.057E+02, 8.394E+01, 1.033E+02, 1.076E+02, 8.954E+00, 1.875E-01, 1.269E-02, 1.007E+02
 3.500E+02, 9.660E+01, 9.740E+01, 8.358E+01, 9.797E+01, 1.082E+02, 8.443E+01, 1.007E+02, 1.070E+02, 8.657E+00, 1.870E-01, 1.300E-02, 1.005E+02
 3.600E+02, 9.623E+01, 9.781E+01, 8.397E+01, 9.903E+01, 1.057E+02, 8.585E+01, 1.012E+02, 1.064E+02, 8.625E+00, 1.863E-01, 1.337E-02, 1.002E+02
 3.700E+02, 9.621E+01, 9.864E+01, 8.407E+01, 9.754E+01, 1.070E+02, 8.533E+01, 1.025E+02, 1.081E+02, 9.541E+00, 1.855E-01, 1.382E-02, 1.011E+02
 3.800E+02, 9.747E+01, 9.862E+01, 8.466E+01, 9.946E+01, 1.083E+02, 8.548E+01, 1.028E+02, 1.076E+02, 9.172E+00, 1.852E-01, 1.402E-02, 1.008E+02
 3.900E+02, 9.712E+01, 9.872E+01, 8.471E+01, 9.973E+01, 1.069E+02, 8.676E+01, 1.019E+02, 1.075E+02, 9.189E+00, 1.845E-01, 1.440E-02, 1.011E+02
 4.000E+02, 9.674E+01, 9.886E+01, 8.461E+01, 9.852E+01, 1.071E+02, 8.762E+01, 1.016E+02, 1.074E+02, 8.774E+00, 1.838E-01, 1.476E-02, 1.002E+02
 4.100E+02, 9.569E+01, 9.747E+01, 8.386E+01, 9.714E+01, 1.061E+02, 8.431E+01, 9.873E+01, 1.094E+02, 8.623E+00, 1.829E-01, 1.528E-02, 1.004E+02
 4.200E+02, 9.738E+01, 1.014E+02, 8.669E+01, 1.007E+02, 1.047E+02, 8.754E+01, 1.031E+02, 1.135E+02, 9.122E+00, 1.821E-01, 1.574E-02, 1.004E+02
 4.300E+02, 9.825E+01, 1.029E+02, 8.892E+01, 1.004E+02, 1.055E+02, 8.743E+01, 1.042E+02, 1.171E+02, 8.701E+00, 1.812E-01, 1.621E-02, 1.004E+02
 4.400E+02, 9.931E+01, 1.001E+02, 9.045E+01, 1.014E+02, 1.061E+02, 8.694E+01, 1.009E+02, 1.124E+02, 8.792E+00, 1.807E-01, 1.653E-02, 1.011E+02
 4.500E+02, 9.932E+01, 9.945E+01, 8.954E+01, 1.014E+02, 1.070E+02, 8.752E+01, 1.012E+02, 1.097E+02, 8.141E+00, 1.802E-01, 1.677E-02, 9.990E+01
 4.600E+02, 9.918E+01, 9.952E+01, 8.752E+01, 1.026E+02, 1.074E+02, 8.676E+01, 9.996E+01, 1.118E+02, 8.552E+00, 1.793E-01, 1.730E-02, 1.007E+02
 4.700E+02, 9.866E+01, 1.003E+02, 8.702E+01, 1.018E+02, 1.072E+02, 8.674E+01, 1.018E+02, 1.122E+02, 8.396E+00, 1.787E-01, 1.765E-02, 1.004E+02
 4.800E+02, 9.866E+01, 9.981E+01, 8.666E+01, 1.013E+02, 1.080E+02, 8.718E+01, 1.014E+02, 1.108E+02, 9.089E+00, 1.784E-01, 1.781E-02, 1.010E+02
 4.900E+02, 9.852E+01, 9.931E+01, 8.726E+01, 1.010E+02, 1.073E+02, 8.694E+01, 1.003E+02, 1.107E+02, 8.688E+00, 1.779E-01, 1.807E-02, 1.003E+02
 5.000E+02, 9.876E+01, 1.000E+02, 8.681E+01, 1.010E+02, 1.085E+02, 8.693E+01, 1.034E+02, 1.096E+02, 8.993E+00, 1.774E-01, 1.836E-02, 1.010E+02
 5.100E+02, 1.002E+02, 9.972E+01, 8.707E+01, 1.036E+02, 1.099E+02, 8.738E+01, 1.014E+02, 1.104E+02, 8.968E+00, 1.766E-01, 1.878E-02, 1.006E+02
 5.200E+02, 9.961E+01, 9.938E+01, 8.552E+01, 1.020E+02, 1.113E+02, 8.668E+01, 1.014E+02, 1.100E+02, 8.626E+00, 1.756E-01, 1.936E-02, 1.006E+02
 5.300E+02, 1.001E+02, 9.970E+01, 8.604E+01, 1.043E+02, 1.099E+02, 8.782E+01, 1.010E+02, 1.103E+02, 8.969E+00, 1.751E-01, 1.966E-02, 1.003E+02
 5.400E+02, 1.001E+02, 9.991E+01, 8.679E+01, 1.036E+02, 1.100E+02, 8.763E+01, 1.015E+02, 1.106E+02, 8.921E+00, 1.744E-01, 2.005E-02, 1.010E+02
 5.500E+02, 1.002E+02, 9.958E+01, 8.810E+01, 1.031E+02, 1.095E+02, 8.613E+01, 1.017E+02, 1.109E+02, 8.930E+00, 1.736E-01, 2.047E-02, 1.002E+02
 5.600E+02, 1.001E+02, 1.001E+02, 8.765E+01, 1.034E+02, 1.094E+02, 8.729E+01, 1.021E+02, 1.109E+02, 8.935E+00, 1.731E-01, 2.077E-02, 1.007E+02
 5.700E+02, 1.011E+02, 1.010E+02, 8.876E+01, 1.038E+02, 1.107E+02, 8.768E+01, 1.019E+02, 1.135E+02, 8.883E+00, 1.720E-01, 2.135E-02, 1.006E+02
 5.800E+02, 9.987E+01, 1.007E+02, 8.830E+01, 1.030E+02, 1.083E+02, 8.648E+01, 1.024E+02, 1.132E+02, 9.533E+00, 1.713E-01, 2.173E-02, 1.010E+02
 5.900E+02, 1.011E+02, 9.981E+01, 8.904E+01, 1.058E+02, 1.086E+02, 8.624E+01, 1.007E+02, 1.125E+02, 9.532E+00, 1.709E-01, 2.198E-02, 1.005E+02
 6.000E+02, 1.014E+02, 9.964E+01, 8.982E+01, 1.034E+02, 1.109E+02, 8.606E+01, 1.009E+02, 1.120E+02, 9.438E+00, 1.704E-01, 2.229E-02, 1.003E+02
 6.100E+02, 1.012E+02, 9.938E+01, 9.031E+01, 1.035E+02, 1.098E+02, 8.691E+01, 1.015E+02, 1.097E+02, 9.118E+00, 1.699E-01, 2.253E-02, 1.001E+02
 6.200E+02, 1.027E+02, 9.951E+01, 9.128E+01, 1.036E+02, 1.132E+02, 8.805E+01, 1.014E+02, 1.091E+02, 9.464E+00, 1.694E-01, 2.283E-02, 1.002E+02
 6.300E+02, 1.006E+02, 1.005E+02, 9.067E+01, 1.009E+02, 1.103E+02, 9.125E+01, 1.011E+02, 1.091E+02, 9.140E+00, 1.685E-01, 2.334E-02, 1.007E+02
 6.400E+02, 9.949E+01, 1.011E+02, 8.823E+01, 1.015E+02, 1.087E+02, 8.968E+01, 1.027E+02, 1.109E+02, 8.519E+00, 1.677E-01, 2.377E-02, 1.003E+02
 6.500E+02, 1.026E+02, 1.012E+02, 9.042E+01, 1.059E+02, 1.116E+02, 8.927E+01, 1.038E+02, 1.107E+02, 8.798E+00, 1.670E-01, 2.419E-02, 1.000E+02
 6.600E+02, 1.013E+02, 1.017E+02, 8.820E+01, 1.033E+02, 1.124E+02, 8.933E+01, 1.046E+02, 1.113E+02, 9.041E+00, 1.660E-01, 2.470E-02, 1.004E+02
 6.700E+02, 1.025E+02, 1.027E+02, 8.932E+01, 1.062E+02, 1.119E+02, 8.815E+01, 1.063E+02, 1.137E+02, 8.582E+00, 1.654E-01, 2.506E-02, 1.003E+02
 6.800E+02, 1.029E+02, 1.028E+02, 8.846E+01, 1.070E+02, 1.133E+02, 8.903E+01, 1.056E+02, 1.137E+02, 9.067E+00, 1.646E-01, 2.553E-02, 1.007E+02
 6.900E+02, 1.021E+02, 1.023E+02, 8.781E+01, 1.053E+02, 1.132E+02, 8.914E+01, 1.043E+02, 1.134E+02, 9.250E+00, 1.638E-01, 2.595E-02, 1.010E+02
 7.000E+02, 1.014E+02, 1.031E+02, 8.877E+01, 1.052E+02, 1.104E+02, 8.989E+01, 1.045E+02, 1.150E+02, 8.796E+00, 1.632E-01, 2.628E-02, 9.983E+01
 7.100E+02, 1.023E+02, 1.011E+02, 8.885E+01, 1.071E+02, 1.110E+02, 8.873E+01, 1.020E+02, 1.125E+02, 9.459E+00, 1.624E-01, 2.671E-02, 1.005E+02
 7.200E+02, 1.018E+02, 1.026E+02, 8.851E+01, 1.060E+02, 1.108E+02, 8.964E+01, 1.041E+02, 1.141E+02, 8.798E+00, 1.619E-01, 2.701E-02, 1.004E+02
 7.300E+02, 1.011E+02, 1.034E+02, 8.886E+01, 1.051E+02, 1.094E+02, 8.929E+01, 1.048E+02, 1.160E+02, 9.329E+00, 1.610E-01, 2.749E-02, 1.014E+02
 7.400E+02, 1.025E+02, 1.024E+02, 9.055E+01, 1.054E+02, 1.115E+02, 8.971E+01, 1.043E+02, 1.130E+02, 9.314E+00, 1.607E-01, 2.770E-02, 1.006E+02
 7.500E+02, 1.021E+02, 1.023E+02, 8.989E+01, 1.052E+02, 1.112E+02, 9.032E+01, 1.037E+02, 1.128E+02, 9.693E+00, 1.600E-01, 2.805E-02, 1.010E+02
 7.600E+02, 1.026E+02, 1.025E+02, 9.163E+01, 1.045E+02, 1.115E+02, 9.061E+01, 1.044E+02, 1.126E+02, 8.996E+00, 1.593E-01, 2.849E-02, 1.002E+02
 7.700E+02, 1.036E+02, 1.011E+02, 9.127E+01, 1.072E+02, 1.123E+02, 9.019E+01, 1.039E+02, 1.093E+02, 9.472E+00, 1.591E-01, 2.858E-02, 1.007E+02
 7.800E+02, 1.026E+02, 1.015E+02, 8.972E+01, 1.054E+02, 1.128E+02, 9.078E+01, 1.030E+02, 1.108E+02, 8.989E+00, 1.583E-01, 2.905E-02, 1.007E+02
 7.900E+02, 1.037E+02, 1.023E+02, 9.075E+01, 1.069E+02, 1.136E+02, 9.159E+01, 1.038E+02, 1.115E+02, 9.331E+00, 1.576E-01, 2.943E-02, 9.992E+01
 8.000E+02, 1.042E+02, 1.020E+02, 9.187E+01, 1.080E+02, 1.129E+02, 8.970E+01, 1.036E+02, 1.126E+02, 9.362E+00, 1.568E-01, 2.987E-02, 1.007E+02
 8.100E+02, 1.053E+02, 1.025E+02, 9.220E+01, 1.093E+02, 1.143E+02, 9.107E+01, 1.044E+02, 1.122E+02, 9.447E+00, 1.559E-01, 3.035E-02, 1.004E+02
 8.200E+02, 1.038E+02, 1.020E+02, 9.001E+01, 1.087E+02, 1.126E+02, 8.997E+01, 1.039E+02, 1.122E+02, 9.410E+00, 1.554E-01, 3.063E-02, 1.003E+02
 8.300E+02, 1.042E+02, 1.022E+02, 9.035E+01, 1.082E+02, 1.140E+02, 9.072E+01, 1.027E+02, 1.130E+02, 9.212E+00, 1.546E-01, 3.111E-02, 1.002E+02
 8.400E+02, 1.043E+02, 1.028E+02, 9.056E+01, 1.087E+02, 1.136E+02, 9.059E+01, 1.038E+02, 1.140E+02, 9.650E+00, 1.536E-01, 3.164E-02, 1.004E+02
 8.500E+02, 1.040E+02, 1.039E+02, 9.201E+01, 1.087E+02, 1.112E+02, 9.076E+01, 1.048E+02, 1.161E+02, 9.324E+00, 1.532E-01, 3.189E-02, 1.001E+02
 8.600E+02, 1.033E+02, 1.032E+02, 9.211E+01, 1.054E+02, 1.124E+02, 9.079E+01, 1.048E+02, 1.141E+02, 9.615E+00, 1.525E-01, 3.224E-02, 1.002E+02
 8.700E+02, 1.030E+02, 1.024E+02, 9.143E+01, 1.049E+02, 1.127E+02, 9.060E+01, 1.044E+02, 1.122E+02, 9.601E+00, 1.520E-01, 3.253E-02, 1.000E+02
 8.800E+02, 1.040E+02, 1.019E+02, 9.219E+01, 1.061E+02, 1.137E+02, 9.023E+01, 1.031E+02, 1.124E+02, 9.600E+00, 1.515E-01, 3.281E-02, 1.009E+02
 8.900E+02, 1.036E+02, 1.032E+02, 9.120E+01, 1.063E+02, 1.133E+02, 9.124E+01, 1.042E+02, 1.141E+02, 9.312E+00, 1.506E-01, 3.332E-02, 1.008E+02
 9.000E+02, 1.053E+02, 1.034E+02, 9.129E+01, 1.088E+02, 1.159E+02, 9.205E+01, 1.045E+02, 1.137E+02, 9.579E+00, 1.497E-01, 3.382E-02, 9.997E+01
 9.100E+02, 1.045E+02, 1.040E+02, 9.172E+01, 1.074E+02, 1.143E+02, 9.043E+01, 1.068E+02, 1.149E+02, 9.229E+00, 1.489E-01, 3.426E-02, 1.005E+02
 9.200E+02, 1.065E+02, 1.043E+02, 9.199E+01, 1.106E+02, 1.168E+02, 9.165E+01, 1.069E+02, 1.143E+02, 9.108E+00, 1.483E-01, 3.463E-02, 1.003E+02
 9.300E+02, 1.060E+02, 1.038E+02, 9.180E+01, 1.111E+02, 1.151E+02, 9.148E+01, 1.045E+02, 1.154E+02, 9.685E+00, 1.477E-01, 3.496E-02, 1.007E+02
 9.400E+02, 1.050E+02, 1.045E+02, 9.098E+01, 1.101E+02, 1.138E+02, 9.203E+01, 1.064E+02, 1.150E+02, 9.357E+00, 1.469E-01, 3.538E-02, 1.001E+02
 9.500E+02, 1.052E+02, 1.045E+02, 9.278E+01, 1.090E+02, 1.137E+02, 9.156E+01, 1.053E+02, 1.167E+02, 9.489E+00, 1.461E-01, 3.587E-02, 1.007E+02
 9.600E+02, 1.050E+02, 1.049E+02, 9.272E+01, 1.089E+02, 1.134E+02, 9.183E+01, 1.072E+02, 1.156E+02, 9.002E+00, 1.453E-01, 3.629E-02, 1.003E+02
 9.700E+02, 1.056E+02, 1.047E+02, 9.291E+01, 1.100E+02, 1.140E+02, 9.219E+01, 1.053E+02, 1.165E+02, 9.853E+00, 1.450E-01, 3.648E-02, 1.008E+02
 9.800E+02, 1.064E+02, 1.044E+02, 9.294E+01, 1.112E+02, 1.149E+02, 9.195E+01, 1.051E+02, 1.161E+02, 9.494E+00, 1.443E-01, 3.687E-02, 1.003E+02
 9.900E+02, 1.076E+02, 1.045E+02, 9.375E+01, 1.131E+02, 1.161E+02, 9.182E+01, 1.056E+02, 1.160E+02, 1.094E+01, 1.437E-01, 3.719E-02, 1.009E+02
 1.000E+03, 1.054E+02, 1.036E+02, 9.231E+01, 1.089E+02, 1.149E+02, 9.145E+01, 1.049E+02, 1.144E+02, 9.959E+00, 1.430E-01, 3.758E-02, 1.006E+02
 1.010E+03, 1.054E+02, 1.041E+02, 9.315E+01, 1.090E+02, 1.140E+02, 9.221E+01, 1.048E+02, 1.154E+02, 9.398E+00, 1.422E-01, 3.803E-02, 1.000E+02
 1.020E+03, 1.047E+02, 1.053E+02, 9.216E+01, 1.075E+02, 1.145E+02, 9.287E+01, 1.070E+02, 1.162E+02, 9.686E+00, 1.417E-01, 3.833E-02, 1.010E+02
 1.030E+03, 1.045E+02, 1.050E+02, 9.342E+01, 1.065E+02, 1.136E+02, 9.343E+01, 1.062E+02, 1.154E+02, 9.268E+00, 1.407E-01, 3.885E-02, 9.935E+01
 1.040E+03, 1.067E+02, 1.044E+02, 9.312E+01, 1.115E+02, 1.156E+02, 9.356E+01, 1.059E+02, 1.139E+02, 1.021E+01, 1.403E-01, 3.910E-02, 1.003E+02
 1.050E+03, 1.069E+02, 1.047E+02, 9.152E+01, 1.111E+02, 1.180E+02, 9.277E+01, 1.068E+02, 1.145E+02, 8.714E+00, 1.396E-01, 3.945E-02, 9.691E+01
 1.060E+03, 1.072E+02, 1.054E+02, 9.396E+01, 1.096E+02, 1.179E+02, 9.406E+01, 1.089E+02, 1.134E+02, 7.386E+00, 1.391E-01, 3.977E-02, 9.170E+01
 1.070E+03, 1.049E+02, 1.059E+02, 9.224E+01, 1.089E+02, 1.136E+02, 9.340E+01, 1.095E+02, 1.148E+02, 7.425E+00, 1.385E-01, 4.008E-02, 8.930E+01
 1.080E+03, 1.045E+02, 1.051E+02, 9.080E+01, 1.078E+02, 1.150E+02, 9.271E+01, 1.081E+02, 1.145E+02, 5.971E+00, 1.378E-01, 4.047E-02, 8.845E+01
 1.090E+03, 1.042E+02, 1.053E+02, 9.085E+01, 1.082E+02, 1.137E+02, 9.145E+01, 1.084E+02, 1.161E+02, 5.926E+00, 1.375E-01, 4.064E-02, 8.607E+01
 1.100E+03, 1.035E+02, 1.042E+02, 8.909E+01, 1.082E+02, 1.131E+02, 9.147E+01, 1.053E+02, 1.159E+02, 1.316E+01, 1.370E-01, 4.092E-02, 9.548E+01
 1.110E+03, 1.036E+02, 1.019E+02, 9.040E+01, 1.079E+02, 1.125E+02, 8.930E+01, 1.041E+02, 1.123E+02,-3.373E+00, 1.367E-01, 4.106E-02, 6.708E+01
 1.120E+03, 1.016E+02, 1.027E+02, 8.957E+01, 1.054E+02, 1.099E+02, 9.142E+01, 1.045E+02, 1.122E+02, 1.067E+01, 1.364E-01, 4.117E-02, 9.395E+01
 1.130E+03, 1.015E+02, 1.020E+02, 8.944E+01, 1.048E+02, 1.103E+02, 9.117E+01, 1.021E+02, 1.128E+02, 4.538E+00, 1.361E-01, 4.134E-02, 7.459E+01
 1.140E+03, 1.011E+02, 1.003E+02, 8.871E+01, 1.049E+02, 1.098E+02, 8.986E+01, 1.013E+02, 1.097E+02, 2.842E+00, 1.362E-01, 4.131E-02, 7.073E+01
 1.150E+03, 1.006E+02, 1.016E+02, 8.784E+01, 1.038E+02, 1.101E+02, 8.978E+01, 1.024E+02, 1.126E+02, 1.781E+01, 1.356E-01, 4.160E-02, 1.027E+02
 1.160E+03, 1.002E+02, 1.002E+02, 8.770E+01, 1.042E+02, 1.088E+02, 8.839E+01, 1.020E+02, 1.102E+02,-1.254E+01, 1.354E-01, 4.173E-02, 4.803E+01
 1.170E+03, 9.858E+01, 1.004E+02, 8.717E+01, 1.006E+02, 1.080E+02, 8.879E+01, 1.006E+02, 1.118E+02, 1.753E+01, 1.350E-01, 4.195E-02, 9.742E+01
 1.180E+03, 9.841E+01, 9.967E+01, 8.747E+01, 1.024E+02, 1.054E+02, 8.882E+01, 1.016E+02, 1.086E+02, 4.760E+00, 1.352E-01, 4.182E-02, 6.341E+01
 1.190E+03, 9.846E+01, 9.763E+01, 8.815E+01, 1.013E+02, 1.059E+02, 8.738E+01, 9.796E+01, 1.076E+02, 7.569E+00, 1.347E-01, 4.208E-02, 7.541E+01
 1.200E+03, 9.734E+01, 9.826E+01, 8.560E+01, 9.953E+01, 1.069E+02, 8.824E+01, 9.878E+01, 1.077E+02, 1.208E+01, 1.347E-01, 4.209E-02, 6.221E+01
 1.210E+03, 9.616E+01, 9.636E+01, 8.617E+01, 9.879E+01, 1.035E+02, 8.822E+01, 9.812E+01, 1.027E+02,-4.597E+00, 1.348E-01, 4.196E-02, 4.302E+01
 1.220E+03, 9.415E+01, 9.525E+01, 8.568E+01, 9.569E+01, 1.011E+02, 8.789E+01, 9.549E+01, 1.024E+02, 3.530E+00, 1.346E-01, 4.207E-02, 5.278E+01
 1.230E+03, 9.216E+01, 9.219E+01, 8.440E+01, 9.404E+01, 9.803E+01, 8.590E+01, 9.383E+01, 9.683E+01,-1.193E+01, 1.350E-01, 4.187E-02, 3.143E+00
 1.240E+03, 8.943E+01, 9.094E+01, 8.169E+01, 9.134E+01, 9.527E+01, 8.343E+01, 9.234E+01, 9.704E+01, 5.851E+00, 1.363E-01, 4.116E-02, 5.887E-01
 1.250E+03, 8.817E+01, 8.846E+01, 8.295E+01, 8.950E+01, 9.206E+01, 8.047E+01, 8.948E+01, 9.542E+01,-1.970E+00, 1.378E-01, 4.033E-02, 0.000E+00
 1.260E+03, 8.717E+01, 8.631E+01, 8.110E+01, 8.853E+01, 9.189E+01, 7.912E+01, 8.602E+01, 9.380E+01, 1.784E+00, 1.361E-01, 4.117E-02, 0.000E+00
 1.270E+03, 8.555E+01, 8.518E+01, 7.843E+01, 8.736E+01, 9.085E+01, 7.978E+01, 8.535E+01, 9.041E+01, 2.797E+00, 1.363E-01, 4.101E-02, 8.133E-03
 1.280E+03, 8.375E+01, 8.401E+01, 7.638E+01, 8.597E+01, 8.890E+01, 7.770E+01, 8.498E+01, 8.936E+01, 5.807E+00, 1.373E-01, 4.054E-02, 0.000E+00
 1.290E+03, 8.291E+01, 8.254E+01, 7.617E+01, 8.509E+01, 8.747E+01, 7.500E+01, 8.337E+01, 8.926E+01, 2.786E+00, 1.366E-01, 4.085E-02, 0.000E+00
 1.300E+03, 8.147E+01, 8.167E+01, 7.439E+01, 8.428E+01, 8.573E+01, 7.456E+01, 8.252E+01, 8.793E+01, 3.227E+00, 1.369E-01, 4.067E-02, 0.000E+00
 1.310E+03, 8.039E+01, 7.949E+01, 7.386E+01, 8.275E+01, 8.456E+01, 7.315E+01, 8.000E+01, 8.531E+01, 2.643E+00, 1.372E-01, 4.053E-02, 0.000E+00
