s,C,C,C,C,C,C,C,C,Pa,mol/mol,mol/mol,kW
Time,"West_All_TCs","East_All_TCs","West_Bottom_TCs","West_Middle_TCs","West_Upper_TCs","East_Bottom_TCs","East_Middle_TCs","East_Upper_TCs","Pressure","O2","CO2","HRR"
-6.000E+01, 2.600E+01, 2.600E+01, 2.600E+01, 2.600E+01, 2.600E+01, 2.600E+01, 2.600E+01, 2.600E+01,-9.592E-06, 2.095E-01, 3.901E-04, 0.000E+00
-4.998E+01, 2.599E+01, 2.599E+01, 2.599E+01, 2.599E+01, 2.599E+01, 2.599E+01, 2.599E+01, 2.599E+01,-2.106E+01, 2.095E-01, 3.901E-04, 0.000E+00
-3.996E+01, 2.598E+01, 2.599E+01, 2.598E+01, 2.598E+01, 2.598E+01, 2.599E+01, 2.598E+01, 2.598E+01,-2.096E+01, 2.095E-01, 3.901E-04, 0.000E+00
-2.994E+01, 2.598E+01, 2.599E+01, 2.598E+01, 2.598E+01, 2.598E+01, 2.600E+01, 2.599E+01, 2.598E+01,-2.095E+01, 2.095E-01, 3.901E-04, 0.000E+00
-1.992E+01, 2.598E+01, 2.599E+01, 2.598E+01, 2.598E+01, 2.598E+01, 2.600E+01, 2.599E+01, 2.598E+01,-2.094E+01, 2.095E-01, 3.901E-04, 0.000E+00
-9.896E+00, 2.598E+01, 2.600E+01, 2.598E+01, 2.598E+01, 2.598E+01, 2.601E+01, 2.600E+01, 2.599E+01,-2.093E+01, 2.095E-01, 3.901E-04, 0.000E+00
 1.301E-02, 2.598E+01, 2.600E+01, 2.598E+01, 2.598E+01, 2.598E+01, 2.602E+01, 2.600E+01, 2.599E+01,-2.092E+01, 2.095E-01, 3.901E-04, 1.766E-04
 1.003E+01, 2.675E+01, 2.691E+01, 2.648E+01, 2.615E+01, 2.762E+01, 2.673E+01, 2.622E+01, 2.779E+01,-3.735E+00, 2.094E-01, 4.725E-04, 3.272E+01
 2.002E+01, 3.031E+01, 3.131E+01, 2.760E+01, 2.787E+01, 3.545E+01, 2.883E+01, 2.789E+01, 3.720E+01, 3.018E+01, 2.085E-01, 9.728E-04, 9.951E+01
 3.001E+01, 3.827E+01, 4.004E+01, 2.911E+01, 3.550E+01, 5.021E+01, 3.137E+01, 3.493E+01, 5.383E+01, 1.134E+02, 2.068E-01, 1.937E-03, 1.661E+02
 4.001E+01, 5.140E+01, 5.265E+01, 3.257E+01, 5.194E+01, 6.967E+01, 3.537E+01, 5.170E+01, 7.087E+01, 1.570E+02, 2.052E-01, 2.796E-03, 2.008E+02
 5.001E+01, 6.336E+01, 6.484E+01, 3.918E+01, 6.792E+01, 8.298E+01, 4.171E+01, 6.750E+01, 8.530E+01, 1.182E+02, 2.035E-01, 3.779E-03, 2.006E+02
 6.002E+01, 7.502E+01, 7.731E+01, 4.836E+01, 8.235E+01, 9.435E+01, 5.037E+01, 8.320E+01, 9.837E+01, 8.376E+01, 2.020E-01, 4.622E-03, 2.007E+02
 7.001E+01, 8.640E+01, 8.674E+01, 5.813E+01, 9.416E+01, 1.069E+02, 6.050E+01, 9.145E+01, 1.083E+02, 5.534E+01, 2.009E-01, 5.245E-03, 2.010E+02
 8.001E+01, 9.512E+01, 9.658E+01, 6.847E+01, 1.026E+02, 1.142E+02, 6.923E+01, 1.021E+02, 1.184E+02, 3.541E+01, 1.991E-01, 6.238E-03, 2.010E+02
 9.000E+01, 1.042E+02, 1.052E+02, 7.760E+01, 1.134E+02, 1.217E+02, 7.938E+01, 1.102E+02, 1.262E+02, 2.201E+01, 1.977E-01, 6.997E-03, 2.006E+02
 1.000E+02, 1.104E+02, 1.112E+02, 8.404E+01, 1.177E+02, 1.294E+02, 8.589E+01, 1.157E+02, 1.322E+02, 1.366E+01, 1.968E-01, 7.519E-03, 2.005E+02
 1.100E+02, 1.153E+02, 1.179E+02, 9.024E+01, 1.236E+02, 1.320E+02, 9.209E+01, 1.220E+02, 1.395E+02, 1.061E+01, 1.954E-01, 8.284E-03, 2.007E+02
 1.200E+02, 1.225E+02, 1.218E+02, 9.649E+01, 1.308E+02, 1.401E+02, 9.639E+01, 1.281E+02, 1.409E+02, 9.358E+00, 1.941E-01, 9.026E-03, 2.009E+02
 1.300E+02, 1.247E+02, 1.268E+02, 1.019E+02, 1.306E+02, 1.416E+02, 1.013E+02, 1.341E+02, 1.450E+02, 8.211E+00, 1.930E-01, 9.627E-03, 2.004E+02
 1.400E+02, 1.281E+02, 1.295E+02, 1.051E+02, 1.344E+02, 1.449E+02, 1.066E+02, 1.336E+02, 1.481E+02, 5.610E+00, 1.913E-01, 1.059E-02, 2.004E+02
 1.500E+02, 1.314E+02, 1.329E+02, 1.072E+02, 1.384E+02, 1.485E+02, 1.090E+02, 1.362E+02, 1.534E+02, 3.773E+00, 1.899E-01, 1.137E-02, 2.009E+02
 1.600E+02, 1.328E+02, 1.342E+02, 1.083E+02, 1.393E+02, 1.507E+02, 1.119E+02, 1.391E+02, 1.515E+02, 1.105E+00, 1.890E-01, 1.188E-02, 2.008E+02
 1.700E+02, 1.337E+02, 1.371E+02, 1.108E+02, 1.398E+02, 1.505E+02, 1.121E+02, 1.420E+02, 1.571E+02,-1.574E-01, 1.873E-01, 1.281E-02, 2.008E+02
 1.800E+02, 1.369E+02, 1.380E+02, 1.136E+02, 1.446E+02, 1.523E+02, 1.150E+02, 1.426E+02, 1.565E+02,-1.660E+00, 1.864E-01, 1.334E-02, 2.000E+02
 1.900E+02, 1.368E+02, 1.382E+02, 1.134E+02, 1.428E+02, 1.542E+02, 1.161E+02, 1.424E+02, 1.560E+02,-2.501E+00, 1.850E-01, 1.413E-02, 2.001E+02
 2.000E+02, 1.372E+02, 1.393E+02, 1.156E+02, 1.414E+02, 1.547E+02, 1.185E+02, 1.432E+02, 1.561E+02,-3.303E+00, 1.838E-01, 1.478E-02, 2.000E+02
 2.100E+02, 1.389E+02, 1.407E+02, 1.162E+02, 1.449E+02, 1.555E+02, 1.209E+02, 1.447E+02, 1.566E+02,-4.524E+00, 1.826E-01, 1.542E-02, 2.005E+02
 2.200E+02, 1.382E+02, 1.415E+02, 1.146E+02, 1.446E+02, 1.556E+02, 1.197E+02, 1.471E+02, 1.578E+02,-5.881E+00, 1.807E-01, 1.650E-02, 2.008E+02
 2.300E+02, 1.389E+02, 1.437E+02, 1.144E+02, 1.444E+02, 1.579E+02, 1.216E+02, 1.492E+02, 1.603E+02,-6.246E+00, 1.798E-01, 1.702E-02, 2.005E+02
 2.400E+02, 1.393E+02, 1.436E+02, 1.139E+02, 1.426E+02, 1.615E+02, 1.209E+02, 1.490E+02, 1.608E+02,-6.349E+00, 1.784E-01, 1.778E-02, 2.000E+02
 2.500E+02, 1.406E+02, 1.440E+02, 1.144E+02, 1.466E+02, 1.608E+02, 1.217E+02, 1.518E+02, 1.584E+02,-7.282E+00, 1.778E-01, 1.814E-02, 2.001E+02
 2.600E+02, 1.407E+02, 1.437E+02, 1.170E+02, 1.463E+02, 1.589E+02, 1.193E+02, 1.509E+02, 1.609E+02,-5.615E+00, 1.758E-01, 1.925E-02, 2.004E+02
 2.700E+02, 1.404E+02, 1.472E+02, 1.145E+02, 1.452E+02, 1.616E+02, 1.271E+02, 1.536E+02, 1.609E+02,-5.073E+00, 1.753E-01, 1.952E-02, 2.016E+02
 2.800E+02, 1.400E+02, 1.442E+02, 1.157E+02, 1.436E+02, 1.606E+02, 1.229E+02, 1.496E+02, 1.601E+02,-6.645E+00, 1.740E-01, 2.024E-02, 2.004E+02
 2.900E+02, 1.401E+02, 1.476E+02, 1.173E+02, 1.452E+02, 1.579E+02, 1.263E+02, 1.540E+02, 1.624E+02,-6.387E+00, 1.731E-01, 2.077E-02, 2.000E+02
 3.000E+02, 1.398E+02, 1.456E+02, 1.185E+02, 1.434E+02, 1.575E+02, 1.247E+02, 1.496E+02, 1.625E+02,-6.274E+00, 1.719E-01, 2.142E-02, 2.006E+02
 3.100E+02, 1.415E+02, 1.455E+02, 1.188E+02, 1.461E+02, 1.597E+02, 1.245E+02, 1.522E+02, 1.598E+02,-8.315E+00, 1.709E-01, 2.196E-02, 1.999E+02
 3.200E+02, 1.410E+02, 1.426E+02, 1.196E+02, 1.427E+02, 1.606E+02, 1.223E+02, 1.464E+02, 1.591E+02,-7.181E+00, 1.700E-01, 2.248E-02, 2.008E+02
 3.300E+02, 1.439E+02, 1.445E+02, 1.195E+02, 1.501E+02, 1.620E+02, 1.244E+02, 1.509E+02, 1.583E+02,-7.962E+00, 1.693E-01, 2.287E-02, 2.008E+02
 3.400E+02, 1.469E+02, 1.453E+02, 1.209E+02, 1.533E+02, 1.666E+02, 1.223E+02, 1.509E+02, 1.628E+02,-9.240E+00, 1.675E-01, 2.385E-02, 2.002E+02
 3.500E+02, 1.447E+02, 1.469E+02, 1.169E+02, 1.508E+02, 1.664E+02, 1.232E+02, 1.523E+02, 1.653E+02,-8.681E+00, 1.664E-01, 2.452E-02, 2.014E+02
 3.600E+02, 1.445E+02, 1.463E+02, 1.187E+02, 1.488E+02, 1.661E+02, 1.236E+02, 1.522E+02, 1.630E+02,-8.252E+00, 1.651E-01, 2.524E-02, 2.000E+02
 3.700E+02, 1.442E+02, 1.475E+02, 1.193E+02, 1.493E+02, 1.639E+02, 1.257E+02, 1.542E+02, 1.626E+02,-6.758E+00, 1.644E-01, 2.563E-02, 2.007E+02
 3.800E+02, 1.440E+02, 1.460E+02, 1.186E+02, 1.480E+02, 1.654E+02, 1.232E+02, 1.536E+02, 1.612E+02,-7.883E+00, 1.634E-01, 2.616E-02, 2.007E+02
 3.900E+02, 1.458E+02, 1.470E+02, 1.191E+02, 1.509E+02, 1.675E+02, 1.273E+02, 1.521E+02, 1.617E+02,-8.331E+00, 1.624E-01, 2.674E-02, 2.004E+02
 4.000E+02, 1.450E+02, 1.475E+02, 1.204E+02, 1.509E+02, 1.637E+02, 1.277E+02, 1.506E+02, 1.642E+02,-6.836E+00, 1.612E-01, 2.739E-02, 2.001E+02
 4.100E+02, 1.442E+02, 1.462E+02, 1.208E+02, 1.469E+02, 1.651E+02, 1.283E+02, 1.501E+02, 1.604E+02,-7.395E+00, 1.607E-01, 2.766E-02, 2.008E+02
 4.200E+02, 1.448E+02, 1.494E+02, 1.199E+02, 1.492E+02, 1.653E+02, 1.292E+02, 1.565E+02, 1.624E+02,-7.000E+00, 1.599E-01, 2.815E-02, 2.009E+02
 4.300E+02, 1.465E+02, 1.491E+02, 1.210E+02, 1.529E+02, 1.654E+02, 1.277E+02, 1.566E+02, 1.631E+02,-7.600E+00, 1.588E-01, 2.876E-02, 1.999E+02
 4.400E+02, 1.451E+02, 1.494E+02, 1.198E+02, 1.515E+02, 1.640E+02, 1.311E+02, 1.549E+02, 1.624E+02,-6.111E+00, 1.577E-01, 2.936E-02, 2.008E+02
 4.500E+02, 1.446E+02, 1.487E+02, 1.196E+02, 1.485E+02, 1.656E+02, 1.293E+02, 1.537E+02, 1.632E+02,-7.049E+00, 1.574E-01, 2.953E-02, 2.010E+02
 4.600E+02, 1.453E+02, 1.506E+02, 1.201E+02, 1.483E+02, 1.675E+02, 1.311E+02, 1.562E+02, 1.646E+02,-7.019E+00, 1.560E-01, 3.030E-02, 2.006E+02
 4.700E+02, 1.459E+02, 1.513E+02, 1.195E+02, 1.511E+02, 1.671E+02, 1.313E+02, 1.582E+02, 1.643E+02,-7.570E+00, 1.554E-01, 3.065E-02, 2.001E+02
 4.800E+02, 1.450E+02, 1.485E+02, 1.197E+02, 1.511E+02, 1.643E+02, 1.299E+02, 1.516E+02, 1.641E+02,-6.903E+00, 1.542E-01, 3.131E-02, 2.007E+02
 4.900E+02, 1.455E+02, 1.507E+02, 1.224E+02, 1.508E+02, 1.633E+02, 1.294E+02, 1.549E+02, 1.677E+02,-6.105E+00, 1.528E-01, 3.208E-02, 1.996E+02
 5.000E+02, 1.458E+02, 1.495E+02, 1.249E+02, 1.489E+02, 1.636E+02, 1.270E+02, 1.551E+02, 1.663E+02,-6.210E+00, 1.525E-01, 3.227E-02, 2.005E+02
 5.100E+02, 1.473E+02, 1.510E+02, 1.242E+02, 1.537E+02, 1.638E+02, 1.296E+02, 1.555E+02, 1.678E+02,-9.362E+00, 1.515E-01, 3.284E-02, 1.997E+02
 5.200E+02, 1.484E+02, 1.482E+02, 1.249E+02, 1.538E+02, 1.665E+02, 1.258E+02, 1.518E+02, 1.671E+02,-7.609E+00, 1.502E-01, 3.356E-02, 2.012E+02
 5.300E+02, 1.475E+02, 1.503E+02, 1.224E+02, 1.547E+02, 1.654E+02, 1.290E+02, 1.545E+02, 1.675E+02,-8.975E+00, 1.493E-01, 3.406E-02, 1.996E+02
 5.400E+02, 1.487E+02, 1.495E+02, 1.236E+02, 1.552E+02, 1.673E+02, 1.264E+02, 1.551E+02, 1.669E+02,-7.163E+00, 1.486E-01, 3.446E-02, 2.011E+02
 5.500E+02, 1.491E+02, 1.497E+02, 1.231E+02, 1.560E+02, 1.684E+02, 1.279E+02, 1.531E+02, 1.681E+02,-8.003E+00, 1.478E-01, 3.486E-02, 2.010E+02
 5.600E+02, 1.514E+02, 1.495E+02, 1.248E+02, 1.571E+02, 1.723E+02, 1.264E+02, 1.550E+02, 1.671E+02,-9.291E+00, 1.471E-01, 3.527E-02, 1.998E+02
 5.700E+02, 1.520E+02, 1.494E+02, 1.246E+02, 1.575E+02, 1.739E+02, 1.266E+02, 1.547E+02, 1.669E+02,-8.256E+00, 1.466E-01, 3.557E-02, 2.011E+02
 5.800E+02, 1.517E+02, 1.506E+02, 1.273E+02, 1.583E+02, 1.694E+02, 1.262E+02, 1.578E+02, 1.677E+02,-8.195E+00, 1.459E-01, 3.595E-02, 2.007E+02
 5.900E+02, 1.519E+02, 1.502E+02, 1.268E+02, 1.609E+02, 1.681E+02, 1.262E+02, 1.555E+02, 1.688E+02,-7.602E+00, 1.449E-01, 3.653E-02, 2.006E+02
 6.000E+02, 1.516E+02, 1.508E+02, 1.277E+02, 1.589E+02, 1.683E+02, 1.273E+02, 1.582E+02, 1.668E+02,-6.843E+00, 1.445E-01, 3.671E-02, 2.005E+02
 6.100E+02, 1.511E+02, 1.501E+02, 1.277E+02, 1.594E+02, 1.663E+02, 1.257E+02, 1.562E+02, 1.685E+02,-6.289E+00, 1.437E-01, 3.720E-02, 2.010E+02
 6.200E+02, 1.522E+02, 1.524E+02, 1.292E+02, 1.599E+02, 1.675E+02, 1.293E+02, 1.570E+02, 1.708E+02,-6.841E+00, 1.426E-01, 3.782E-02, 2.003E+02
 6.300E+02, 1.532E+02, 1.515E+02, 1.292E+02, 1.600E+02, 1.705E+02, 1.284E+02, 1.556E+02, 1.705E+02,-6.051E+00, 1.416E-01, 3.837E-02, 2.016E+02
 6.400E+02, 1.530E+02, 1.521E+02, 1.310E+02, 1.602E+02, 1.677E+02, 1.276E+02, 1.553E+02, 1.732E+02,-6.711E+00, 1.408E-01, 3.881E-02, 2.005E+02
 6.500E+02, 1.545E+02, 1.514E+02, 1.345E+02, 1.612E+02, 1.680E+02, 1.272E+02, 1.563E+02, 1.707E+02,-6.627E+00, 1.404E-01, 3.900E-02, 1.998E+02
 6.600E+02, 1.548E+02, 1.496E+02, 1.356E+02, 1.605E+02, 1.684E+02, 1.262E+02, 1.548E+02, 1.678E+02,-8.165E+00, 1.399E-01, 3.932E-02, 1.994E+02
 6.700E+02, 1.531E+02, 1.502E+02, 1.285E+02, 1.562E+02, 1.745E+02, 1.301E+02, 1.547E+02, 1.657E+02,-7.847E+00, 1.390E-01, 3.982E-02, 1.995E+02
 6.800E+02, 1.525E+02, 1.507E+02, 1.283E+02, 1.565E+02, 1.725E+02, 1.303E+02, 1.538E+02, 1.679E+02,-7.915E+00, 1.378E-01, 4.046E-02, 2.009E+02
 6.900E+02, 1.546E+02, 1.535E+02, 1.320E+02, 1.600E+02, 1.719E+02, 1.311E+02, 1.596E+02, 1.697E+02,-8.535E+00, 1.373E-01, 4.074E-02, 1.997E+02
 7.000E+02, 1.530E+02, 1.561E+02, 1.304E+02, 1.566E+02, 1.719E+02, 1.322E+02, 1.616E+02, 1.745E+02,-6.877E+00, 1.360E-01, 4.150E-02, 2.016E+02
 7.100E+02, 1.535E+02, 1.558E+02, 1.300E+02, 1.595E+02, 1.711E+02, 1.316E+02, 1.614E+02, 1.743E+02,-8.946E+00, 1.351E-01, 4.196E-02, 2.003E+02
 7.200E+02, 1.568E+02, 1.559E+02, 1.299E+02, 1.634E+02, 1.769E+02, 1.306E+02, 1.619E+02, 1.751E+02,-8.152E+00, 1.347E-01, 4.223E-02, 2.010E+02
 7.300E+02, 1.551E+02, 1.563E+02, 1.287E+02, 1.608E+02, 1.758E+02, 1.339E+02, 1.608E+02, 1.740E+02,-7.433E+00, 1.340E-01, 4.260E-02, 2.003E+02
 7.400E+02, 1.546E+02, 1.564E+02, 1.296E+02, 1.603E+02, 1.740E+02, 1.312E+02, 1.628E+02, 1.753E+02,-8.324E+00, 1.333E-01, 4.300E-02, 2.007E+02
 7.500E+02, 1.546E+02, 1.560E+02, 1.274E+02, 1.596E+02, 1.769E+02, 1.322E+02, 1.629E+02, 1.730E+02,-9.188E+00, 1.327E-01, 4.332E-02, 2.000E+02
 7.600E+02, 1.568E+02, 1.542E+02, 1.296E+02, 1.640E+02, 1.769E+02, 1.293E+02, 1.611E+02, 1.721E+02,-7.739E+00, 1.321E-01, 4.367E-02, 2.006E+02
 7.700E+02, 1.548E+02, 1.554E+02, 1.281E+02, 1.626E+02, 1.737E+02, 1.337E+02, 1.619E+02, 1.706E+02,-8.091E+00, 1.317E-01, 4.387E-02, 1.996E+02
 7.800E+02, 1.529E+02, 1.548E+02, 1.274E+02, 1.579E+02, 1.734E+02, 1.336E+02, 1.620E+02, 1.689E+02,-7.099E+00, 1.310E-01, 4.429E-02, 2.000E+02
 7.900E+02, 1.533E+02, 1.566E+02, 1.278E+02, 1.592E+02, 1.730E+02, 1.350E+02, 1.652E+02, 1.697E+02,-6.092E+00, 1.305E-01, 4.458E-02, 2.002E+02
 8.000E+02, 1.533E+02, 1.556E+02, 1.272E+02, 1.574E+02, 1.752E+02, 1.351E+02, 1.611E+02, 1.707E+02,-6.921E+00, 1.300E-01, 4.481E-02, 1.989E+02
 8.100E+02, 1.520E+02, 1.587E+02, 1.273E+02, 1.587E+02, 1.699E+02, 1.350E+02, 1.662E+02, 1.748E+02,-6.340E+00, 1.293E-01, 4.523E-02, 1.981E+02
 8.200E+02, 1.514E+02, 1.550E+02, 1.278E+02, 1.569E+02, 1.695E+02, 1.341E+02, 1.595E+02, 1.716E+02,-9.014E+00, 1.285E-01, 4.564E-02, 1.966E+02
 8.300E+02, 1.523E+02, 1.592E+02, 1.292E+02, 1.589E+02, 1.688E+02, 1.352E+02, 1.625E+02, 1.800E+02,-9.766E+00, 1.284E-01, 4.573E-02, 1.929E+02
 8.400E+02, 1.527E+02, 1.547E+02, 1.295E+02, 1.581E+02, 1.704E+02, 1.334E+02, 1.600E+02, 1.706E+02,-8.478E+00, 1.284E-01, 4.574E-02, 1.951E+02
 8.500E+02, 1.542E+02, 1.536E+02, 1.306E+02, 1.590E+02, 1.729E+02, 1.359E+02, 1.578E+02, 1.673E+02,-5.648E+00, 1.282E-01, 4.580E-02, 1.973E+02
 8.600E+02, 1.549E+02, 1.531E+02, 1.307E+02, 1.602E+02, 1.738E+02, 1.346E+02, 1.561E+02, 1.685E+02,-6.648E+00, 1.277E-01, 4.613E-02, 1.963E+02
 8.700E+02, 1.547E+02, 1.531E+02, 1.310E+02, 1.617E+02, 1.712E+02, 1.345E+02, 1.563E+02, 1.686E+02,-1.052E+01, 1.265E-01, 4.678E-02, 1.928E+02
 8.800E+02, 1.538E+02, 1.538E+02, 1.323E+02, 1.593E+02, 1.699E+02, 1.317E+02, 1.587E+02, 1.711E+02,-9.784E+00, 1.259E-01, 4.712E-02, 1.909E+02
 8.900E+02, 1.550E+02, 1.538E+02, 1.335E+02, 1.614E+02, 1.701E+02, 1.316E+02, 1.582E+02, 1.714E+02,-8.307E+00, 1.253E-01, 4.745E-02, 1.920E+02
 9.000E+02, 1.564E+02, 1.539E+02, 1.337E+02, 1.634E+02, 1.722E+02, 1.325E+02, 1.565E+02, 1.729E+02,-7.393E+00, 1.248E-01, 4.770E-02, 1.918E+02
 9.100E+02, 1.534E+02, 1.553E+02, 1.348E+02, 1.593E+02, 1.660E+02, 1.334E+02, 1.587E+02, 1.738E+02,-8.923E+00, 1.251E-01, 4.752E-02, 1.898E+02
 9.200E+02, 1.534E+02, 1.545E+02, 1.349E+02, 1.596E+02, 1.658E+02, 1.320E+02, 1.578E+02, 1.737E+02,-1.137E+01, 1.246E-01, 4.783E-02, 1.855E+02
 9.300E+02, 1.550E+02, 1.548E+02, 1.360E+02, 1.609E+02, 1.680E+02, 1.332E+02, 1.580E+02, 1.733E+02,-9.816E+00, 1.244E-01, 4.789E-02, 1.868E+02
 9.400E+02, 1.536E+02, 1.534E+02, 1.326E+02, 1.580E+02, 1.702E+02, 1.321E+02, 1.575E+02, 1.704E+02,-8.170E+00, 1.240E-01, 4.812E-02, 1.876E+02
 9.500E+02, 1.535E+02, 1.530E+02, 1.346E+02, 1.577E+02, 1.681E+02, 1.313E+02, 1.564E+02, 1.712E+02,-9.517E+00, 1.232E-01, 4.856E-02, 1.833E+02
 9.600E+02, 1.555E+02, 1.525E+02, 1.352E+02, 1.595E+02, 1.717E+02, 1.329E+02, 1.566E+02, 1.679E+02,-8.358E+00, 1.230E-01, 4.870E-02, 1.841E+02
 9.700E+02, 1.539E+02, 1.528E+02, 1.334E+02, 1.607E+02, 1.676E+02, 1.333E+02, 1.562E+02, 1.691E+02,-1.153E+01, 1.225E-01, 4.895E-02, 1.791E+02
 9.800E+02, 1.540E+02, 1.540E+02, 1.324E+02, 1.610E+02, 1.686E+02, 1.328E+02, 1.584E+02, 1.707E+02,-9.453E+00, 1.221E-01, 4.917E-02, 1.799E+02
 9.900E+02, 1.561E+02, 1.556E+02, 1.358E+02, 1.631E+02, 1.694E+02, 1.343E+02, 1.609E+02, 1.716E+02,-8.255E+00, 1.214E-01, 4.952E-02, 1.800E+02
 1.000E+03, 1.543E+02, 1.524E+02, 1.329E+02, 1.611E+02, 1.689E+02, 1.330E+02, 1.569E+02, 1.674E+02,-9.412E+00, 1.214E-01, 4.956E-02, 1.790E+02
 1.010E+03, 1.541E+02, 1.542E+02, 1.333E+02, 1.612E+02, 1.678E+02, 1.349E+02, 1.589E+02, 1.688E+02,-5.175E+00, 1.208E-01, 4.989E-02, 1.841E+02
 1.020E+03, 1.545E+02, 1.536E+02, 1.350E+02, 1.613E+02, 1.672E+02, 1.342E+02, 1.579E+02, 1.686E+02,-8.920E+00, 1.208E-01, 4.989E-02, 1.798E+02
 1.030E+03, 1.541E+02, 1.527E+02, 1.340E+02, 1.600E+02, 1.682E+02, 1.338E+02, 1.574E+02, 1.670E+02,-7.155E+00, 1.205E-01, 5.003E-02, 1.801E+02
 1.040E+03, 1.542E+02, 1.518E+02, 1.350E+02, 1.602E+02, 1.675E+02, 1.341E+02, 1.553E+02, 1.660E+02,-7.431E+00, 1.205E-01, 5.001E-02, 1.796E+02
 1.050E+03, 1.529E+02, 1.528E+02, 1.347E+02, 1.561E+02, 1.679E+02, 1.330E+02, 1.571E+02, 1.684E+02,-8.692E+00, 1.203E-01, 5.013E-02, 1.801E+02
 1.060E+03, 1.527E+02, 1.520E+02, 1.342E+02, 1.560E+02, 1.678E+02, 1.334E+02, 1.548E+02, 1.678E+02,-1.948E+01, 1.202E-01, 5.020E-02, 1.636E+02
 1.070E+03, 1.512E+02, 1.505E+02, 1.317E+02, 1.540E+02, 1.678E+02, 1.344E+02, 1.530E+02, 1.642E+02,-9.707E+00, 1.195E-01, 5.055E-02, 1.715E+02
 1.080E+03, 1.512E+02, 1.512E+02, 1.315E+02, 1.548E+02, 1.673E+02, 1.346E+02, 1.552E+02, 1.638E+02,-1.173E+01, 1.193E-01, 5.066E-02, 1.713E+02
 1.090E+03, 1.502E+02, 1.508E+02, 1.305E+02, 1.561E+02, 1.641E+02, 1.342E+02, 1.543E+02, 1.638E+02,-5.057E+01, 1.191E-01, 5.073E-02, 1.442E+02
 1.100E+03, 1.492E+02, 1.522E+02, 1.313E+02, 1.535E+02, 1.629E+02, 1.374E+02, 1.531E+02, 1.662E+02, 6.662E-01, 1.187E-01, 5.097E-02, 1.810E+02
 1.110E+03, 1.503E+02, 1.507E+02, 1.321E+02, 1.550E+02, 1.638E+02, 1.336E+02, 1.539E+02, 1.647E+02,-3.875E+01, 1.189E-01, 5.082E-02, 1.427E+02
 1.120E+03, 1.505E+02, 1.517E+02, 1.306E+02, 1.564E+02, 1.645E+02, 1.387E+02, 1.567E+02, 1.599E+02,-3.980E+01, 1.191E-01, 5.069E-02, 1.552E+02
 1.130E+03, 1.476E+02, 1.517E+02, 1.291E+02, 1.504E+02, 1.634E+02, 1.363E+02, 1.556E+02, 1.631E+02,-3.773E+01, 1.196E-01, 5.044E-02, 1.480E+02
 1.140E+03, 1.479E+02, 1.504E+02, 1.288E+02, 1.517E+02, 1.633E+02, 1.361E+02, 1.535E+02, 1.616E+02,-2.673E+01, 1.198E-01, 5.030E-02, 1.650E+02
 1.150E+03, 1.496E+02, 1.527E+02, 1.305E+02, 1.533E+02, 1.650E+02, 1.375E+02, 1.557E+02, 1.648E+02,-2.756E+01, 1.199E-01, 5.022E-02, 1.632E+02
 1.160E+03, 1.474E+02, 1.512E+02, 1.294E+02, 1.508E+02, 1.621E+02, 1.373E+02, 1.541E+02, 1.621E+02,-6.332E+01, 1.202E-01, 5.002E-02, 1.330E+02
 1.170E+03, 1.459E+02, 1.509E+02, 1.269E+02, 1.501E+02, 1.608E+02, 1.395E+02, 1.528E+02, 1.604E+02,-3.327E+01, 1.205E-01, 4.982E-02, 1.416E+02
 1.180E+03, 1.446E+02, 1.469E+02, 1.265E+02, 1.485E+02, 1.588E+02, 1.367E+02, 1.482E+02, 1.557E+02,-4.302E+01, 1.211E-01, 4.947E-02, 1.333E+02
 1.190E+03, 1.435E+02, 1.485E+02, 1.267E+02, 1.467E+02, 1.570E+02, 1.370E+02, 1.504E+02, 1.582E+02,-3.677E+01, 1.220E-01, 4.898E-02, 1.322E+02
 1.200E+03, 1.419E+02, 1.465E+02, 1.278E+02, 1.463E+02, 1.518E+02, 1.386E+02, 1.471E+02, 1.538E+02,-8.795E+01, 1.229E-01, 4.841E-02, 8.293E+01
 1.210E+03, 1.413E+02, 1.449E+02, 1.262E+02, 1.459E+02, 1.517E+02, 1.395E+02, 1.446E+02, 1.505E+02,-2.371E+01, 1.249E-01, 4.728E-02, 1.089E+02
 1.220E+03, 1.399E+02, 1.438E+02, 1.270E+02, 1.426E+02, 1.502E+02, 1.376E+02, 1.447E+02, 1.490E+02,-4.155E+01, 1.258E-01, 4.674E-02, 1.033E+02
 1.230E+03, 1.371E+02, 1.481E+02, 1.244E+02, 1.408E+02, 1.460E+02, 1.397E+02, 1.495E+02, 1.549E+02,-5.403E+01, 1.271E-01, 4.604E-02, 7.477E+01
 1.240E+03, 1.358E+02, 1.438E+02, 1.269E+02, 1.391E+02, 1.413E+02, 1.410E+02, 1.418E+02, 1.486E+02,-4.779E+01, 1.283E-01, 4.537E-02, 8.912E+00
 1.250E+03, 1.351E+02, 1.351E+02, 1.286E+02, 1.357E+02, 1.411E+02, 1.236E+02, 1.347E+02, 1.468E+02,-1.962E+01, 1.283E-01, 4.526E-02, 0.000E+00
 1.260E+03, 1.360E+02, 1.354E+02, 1.277E+02, 1.381E+02, 1.421E+02, 1.285E+02, 1.351E+02, 1.428E+02,-3.308E+01, 1.279E-01, 4.546E-02, 5.616E+00
 1.270E+03, 1.307E+02, 1.306E+02, 1.214E+02, 1.338E+02, 1.369E+02, 1.204E+02, 1.308E+02, 1.407E+02,-3.040E+01, 1.305E-01, 4.394E-02, 1.903E+01
 1.280E+03, 1.318E+02, 1.298E+02, 1.231E+02, 1.314E+02, 1.409E+02, 1.175E+02, 1.286E+02, 1.432E+02,-5.890E+00, 1.297E-01, 4.440E-02, 3.508E-02
 1.290E+03, 1.337E+02, 1.351E+02, 1.209E+02, 1.379E+02, 1.422E+02, 1.332E+02, 1.297E+02, 1.424E+02,-2.352E+01, 1.291E-01, 4.476E-02, 1.082E-01
 1.300E+03, 1.292E+02, 1.308E+02, 1.165E+02, 1.333E+02, 1.379E+02, 1.226E+02, 1.302E+02, 1.397E+02,-3.627E+01, 1.312E-01, 4.372E-02, 4.133E+00
 1.310E+03, 1.274E+02, 1.337E+02, 1.166E+02, 1.307E+02, 1.350E+02, 1.257E+02, 1.346E+02, 1.408E+02,-3.459E+00, 1.320E-01, 4.335E-02, 1.073E-02
