s,C,C,C,C,C,C,C,C,Pa,mol/mol,mol/mol,kW
Time,"West_All_TCs","East_All_TCs","West_Bottom_TCs","West_Middle_TCs","West_Upper_TCs","East_Bottom_TCs","East_Middle_TCs","East_Upper_TCs","Pressure","O2","CO2","HRR"
-6.000E+01, 4.000E+01, 4.000E+01, 4.000E+01, 4.000E+01, 4.000E+01, 4.000E+01, 4.000E+01, 4.000E+01,-9.106E-06, 2.095E-01, 3.901E-04, 0.000E+00
-4.990E+01, 3.941E+01, 3.918E+01, 3.992E+01, 3.743E+01, 4.088E+01, 3.958E+01, 3.533E+01, 4.264E+01,-7.616E+01, 2.095E-01, 3.901E-04, 0.000E+00
-4.000E+01, 3.942E+01, 3.988E+01, 3.870E+01, 3.786E+01, 4.171E+01, 3.718E+01, 3.701E+01, 4.545E+01,-8.063E+01, 2.095E-01, 3.901E-04, 0.000E+00
-2.994E+01, 3.917E+01, 4.015E+01, 3.663E+01, 3.679E+01, 4.411E+01, 3.665E+01, 3.613E+01, 4.767E+01,-8.008E+01, 2.095E-01, 3.901E-04, 0.000E+00
-1.997E+01, 3.856E+01, 4.104E+01, 3.615E+01, 3.598E+01, 4.355E+01, 3.646E+01, 3.726E+01, 4.940E+01,-7.976E+01, 2.095E-01, 3.901E-04, 0.000E+00
-9.951E+00, 3.816E+01, 4.077E+01, 3.606E+01, 3.576E+01, 4.267E+01, 3.663E+01, 3.793E+01, 4.776E+01,-7.939E+01, 2.095E-01, 3.901E-04, 0.000E+00
 1.414E-03, 3.863E+01, 4.040E+01, 3.614E+01, 3.655E+01, 4.319E+01, 3.647E+01, 3.809E+01, 4.663E+01,-7.905E+01, 2.095E-01, 3.901E-04, 0.000E+00
 1.002E+01, 3.968E+01, 4.131E+01, 3.681E+01, 3.815E+01, 4.408E+01, 3.748E+01, 4.057E+01, 4.588E+01,-3.632E+01, 2.095E-01, 3.901E-04, 3.244E+01
 2.002E+01, 4.384E+01, 4.592E+01, 3.894E+01, 4.790E+01, 4.469E+01, 3.999E+01, 5.073E+01, 4.702E+01, 4.449E+00, 2.095E-01, 3.901E-04, 9.939E+01
 3.000E+01, 5.288E+01, 5.427E+01, 4.328E+01, 6.959E+01, 4.576E+01, 4.650E+01, 7.103E+01, 4.529E+01, 4.339E+01, 2.095E-01, 3.902E-04, 1.661E+02
 4.002E+01, 6.535E+01, 6.631E+01, 5.318E+01, 9.613E+01, 4.676E+01, 5.594E+01, 9.800E+01, 4.498E+01, 5.692E+01, 2.095E-01, 3.909E-04, 1.999E+02
 5.000E+01, 7.833E+01, 7.797E+01, 6.597E+01, 1.196E+02, 4.937E+01, 6.698E+01, 1.200E+02, 4.696E+01, 2.883E+01, 2.090E-01, 7.158E-04, 2.000E+02
 6.001E+01, 8.785E+01, 8.829E+01, 7.712E+01, 1.363E+02, 5.011E+01, 7.947E+01, 1.353E+02, 5.008E+01, 1.186E+01, 2.083E-01, 1.059E-03, 1.999E+02
 7.000E+01, 9.737E+01, 9.773E+01, 9.016E+01, 1.497E+02, 5.230E+01, 9.080E+01, 1.504E+02, 5.201E+01, 4.556E+00, 2.079E-01, 1.301E-03, 2.003E+02
 8.001E+01, 1.054E+02, 1.059E+02, 1.009E+02, 1.611E+02, 5.427E+01, 1.025E+02, 1.613E+02, 5.400E+01,-4.323E+00, 2.075E-01, 1.518E-03, 2.000E+02
 9.001E+01, 1.114E+02, 1.110E+02, 1.120E+02, 1.662E+02, 5.592E+01, 1.141E+02, 1.626E+02, 5.623E+01,-1.010E+01, 2.069E-01, 1.876E-03, 2.004E+02
 1.000E+02, 1.164E+02, 1.159E+02, 1.189E+02, 1.724E+02, 5.784E+01, 1.218E+02, 1.682E+02, 5.765E+01,-1.864E+01, 2.064E-01, 2.154E-03, 2.000E+02
 1.100E+02, 1.206E+02, 1.212E+02, 1.263E+02, 1.763E+02, 5.922E+01, 1.278E+02, 1.767E+02, 5.890E+01,-2.617E+01, 2.058E-01, 2.472E-03, 1.999E+02
 1.200E+02, 1.228E+02, 1.237E+02, 1.324E+02, 1.758E+02, 6.030E+01, 1.324E+02, 1.783E+02, 6.037E+01,-3.129E+01, 2.051E-01, 2.870E-03, 2.004E+02
 1.300E+02, 1.255E+02, 1.277E+02, 1.362E+02, 1.787E+02, 6.160E+01, 1.361E+02, 1.846E+02, 6.232E+01,-4.050E+01, 2.045E-01, 3.214E-03, 1.999E+02
 1.400E+02, 1.276E+02, 1.293E+02, 1.374E+02, 1.821E+02, 6.332E+01, 1.402E+02, 1.847E+02, 6.300E+01,-4.739E+01, 2.040E-01, 3.507E-03, 2.001E+02
 1.500E+02, 1.282E+02, 1.307E+02, 1.368E+02, 1.826E+02, 6.534E+01, 1.417E+02, 1.864E+02, 6.406E+01,-5.406E+01, 2.032E-01, 3.942E-03, 2.003E+02
 1.600E+02, 1.278E+02, 1.338E+02, 1.385E+02, 1.806E+02, 6.433E+01, 1.438E+02, 1.923E+02, 6.529E+01,-5.456E+01, 2.023E-01, 4.446E-03, 2.000E+02
 1.700E+02, 1.298E+02, 1.345E+02, 1.393E+02, 1.844E+02, 6.561E+01, 1.437E+02, 1.938E+02, 6.598E+01,-5.452E+01, 2.016E-01, 4.854E-03, 2.003E+02
 1.800E+02, 1.320E+02, 1.345E+02, 1.425E+02, 1.861E+02, 6.737E+01, 1.455E+02, 1.908E+02, 6.724E+01,-5.679E+01, 2.003E-01, 5.548E-03, 1.995E+02
 1.900E+02, 1.340E+02, 1.336E+02, 1.436E+02, 1.905E+02, 6.797E+01, 1.449E+02, 1.876E+02, 6.818E+01,-5.695E+01, 1.996E-01, 5.942E-03, 2.006E+02
 2.000E+02, 1.338E+02, 1.344E+02, 1.435E+02, 1.893E+02, 6.869E+01, 1.479E+02, 1.866E+02, 6.875E+01,-5.907E+01, 1.987E-01, 6.437E-03, 1.997E+02
 2.100E+02, 1.342E+02, 1.373E+02, 1.427E+02, 1.899E+02, 6.992E+01, 1.506E+02, 1.926E+02, 6.867E+01,-6.418E+01, 1.976E-01, 7.058E-03, 2.005E+02
 2.200E+02, 1.325E+02, 1.370E+02, 1.437E+02, 1.856E+02, 6.832E+01, 1.473E+02, 1.945E+02, 6.928E+01,-6.088E+01, 1.967E-01, 7.558E-03, 1.998E+02
 2.300E+02, 1.341E+02, 1.371E+02, 1.440E+02, 1.885E+02, 6.971E+01, 1.491E+02, 1.922E+02, 7.014E+01,-6.429E+01, 1.957E-01, 8.102E-03, 2.002E+02
 2.400E+02, 1.349E+02, 1.384E+02, 1.441E+02, 1.900E+02, 7.052E+01, 1.503E+02, 1.945E+02, 7.029E+01,-6.342E+01, 1.951E-01, 8.455E-03, 2.000E+02
 2.500E+02, 1.352E+02, 1.383E+02, 1.468E+02, 1.889E+02, 7.002E+01, 1.499E+02, 1.940E+02, 7.089E+01,-6.275E+01, 1.940E-01, 9.058E-03, 2.002E+02
 2.600E+02, 1.362E+02, 1.381E+02, 1.476E+02, 1.903E+02, 7.061E+01, 1.505E+02, 1.929E+02, 7.076E+01,-6.167E+01, 1.929E-01, 9.689E-03, 2.000E+02
 2.700E+02, 1.363E+02, 1.392E+02, 1.481E+02, 1.899E+02, 7.084E+01, 1.530E+02, 1.931E+02, 7.143E+01,-6.174E+01, 1.922E-01, 1.009E-02, 2.000E+02
 2.800E+02, 1.367E+02, 1.411E+02, 1.463E+02, 1.924E+02, 7.137E+01, 1.545E+02, 1.978E+02, 7.092E+01,-6.421E+01, 1.912E-01, 1.064E-02, 1.998E+02
 2.900E+02, 1.353E+02, 1.420E+02, 1.454E+02, 1.886E+02, 7.174E+01, 1.531E+02, 2.017E+02, 7.111E+01,-6.060E+01, 1.899E-01, 1.136E-02, 2.003E+02
 3.000E+02, 1.381E+02, 1.410E+02, 1.482E+02, 1.943E+02, 7.171E+01, 1.522E+02, 1.994E+02, 7.157E+01,-6.261E+01, 1.890E-01, 1.189E-02, 1.993E+02
 3.100E+02, 1.386E+02, 1.411E+02, 1.490E+02, 1.942E+02, 7.268E+01, 1.556E+02, 1.960E+02, 7.175E+01,-6.413E+01, 1.883E-01, 1.225E-02, 2.006E+02
 3.200E+02, 1.392E+02, 1.406E+02, 1.501E+02, 1.953E+02, 7.221E+01, 1.545E+02, 1.949E+02, 7.233E+01,-5.970E+01, 1.871E-01, 1.292E-02, 2.001E+02
 3.300E+02, 1.393E+02, 1.403E+02, 1.501E+02, 1.949E+02, 7.290E+01, 1.525E+02, 1.956E+02, 7.268E+01,-6.156E+01, 1.861E-01, 1.347E-02, 1.999E+02
 3.400E+02, 1.401E+02, 1.422E+02, 1.510E+02, 1.957E+02, 7.347E+01, 1.556E+02, 1.979E+02, 7.304E+01,-6.098E+01, 1.849E-01, 1.415E-02, 2.003E+02
 3.500E+02, 1.390E+02, 1.437E+02, 1.483E+02, 1.960E+02, 7.255E+01, 1.572E+02, 2.007E+02, 7.312E+01,-6.066E+01, 1.839E-01, 1.470E-02, 2.001E+02
 3.600E+02, 1.410E+02, 1.442E+02, 1.519E+02, 1.977E+02, 7.346E+01, 1.546E+02, 2.046E+02, 7.324E+01,-5.853E+01, 1.830E-01, 1.522E-02, 2.005E+02
 3.700E+02, 1.411E+02, 1.441E+02, 1.514E+02, 1.970E+02, 7.502E+01, 1.574E+02, 2.009E+02, 7.404E+01,-6.433E+01, 1.817E-01, 1.597E-02, 2.000E+02
 3.800E+02, 1.415E+02, 1.420E+02, 1.523E+02, 1.969E+02, 7.534E+01, 1.553E+02, 1.977E+02, 7.291E+01,-6.268E+01, 1.811E-01, 1.628E-02, 1.997E+02
 3.900E+02, 1.428E+02, 1.430E+02, 1.536E+02, 1.994E+02, 7.539E+01, 1.538E+02, 2.012E+02, 7.403E+01,-6.160E+01, 1.797E-01, 1.705E-02, 2.002E+02
 4.000E+02, 1.416E+02, 1.438E+02, 1.526E+02, 1.980E+02, 7.420E+01, 1.587E+02, 1.987E+02, 7.403E+01,-6.157E+01, 1.791E-01, 1.742E-02, 1.999E+02
 4.100E+02, 1.422E+02, 1.464E+02, 1.527E+02, 1.980E+02, 7.593E+01, 1.622E+02, 2.031E+02, 7.375E+01,-6.082E+01, 1.783E-01, 1.786E-02, 2.000E+02
 4.200E+02, 1.411E+02, 1.474E+02, 1.513E+02, 1.968E+02, 7.518E+01, 1.605E+02, 2.074E+02, 7.425E+01,-6.231E+01, 1.774E-01, 1.837E-02, 2.006E+02
 4.300E+02, 1.427E+02, 1.454E+02, 1.540E+02, 1.979E+02, 7.615E+01, 1.558E+02, 2.058E+02, 7.455E+01,-6.216E+01, 1.764E-01, 1.894E-02, 2.001E+02
 4.400E+02, 1.433E+02, 1.461E+02, 1.534E+02, 2.015E+02, 7.506E+01, 1.604E+02, 2.036E+02, 7.445E+01,-6.111E+01, 1.753E-01, 1.955E-02, 1.998E+02
 4.500E+02, 1.443E+02, 1.447E+02, 1.540E+02, 2.014E+02, 7.734E+01, 1.582E+02, 2.014E+02, 7.443E+01,-6.082E+01, 1.743E-01, 2.008E-02, 2.007E+02
 4.600E+02, 1.462E+02, 1.471E+02, 1.565E+02, 2.043E+02, 7.788E+01, 1.606E+02, 2.059E+02, 7.493E+01,-6.510E+01, 1.737E-01, 2.044E-02, 1.997E+02
 4.700E+02, 1.451E+02, 1.474E+02, 1.549E+02, 2.037E+02, 7.665E+01, 1.621E+02, 2.054E+02, 7.484E+01,-5.915E+01, 1.726E-01, 2.102E-02, 1.994E+02
 4.800E+02, 1.444E+02, 1.489E+02, 1.533E+02, 2.019E+02, 7.802E+01, 1.626E+02, 2.088E+02, 7.519E+01,-5.876E+01, 1.719E-01, 2.140E-02, 2.007E+02
 4.900E+02, 1.448E+02, 1.483E+02, 1.575E+02, 2.001E+02, 7.694E+01, 1.602E+02, 2.086E+02, 7.626E+01,-6.069E+01, 1.707E-01, 2.209E-02, 2.000E+02
 5.000E+02, 1.455E+02, 1.476E+02, 1.556E+02, 2.044E+02, 7.660E+01, 1.610E+02, 2.054E+02, 7.626E+01,-6.452E+01, 1.701E-01, 2.241E-02, 2.000E+02
 5.100E+02, 1.472E+02, 1.476E+02, 1.575E+02, 2.077E+02, 7.649E+01, 1.614E+02, 2.057E+02, 7.591E+01,-6.080E+01, 1.695E-01, 2.276E-02, 2.000E+02
 5.200E+02, 1.477E+02, 1.491E+02, 1.575E+02, 2.075E+02, 7.799E+01, 1.625E+02, 2.084E+02, 7.643E+01,-6.030E+01, 1.685E-01, 2.335E-02, 2.001E+02
 5.300E+02, 1.467E+02, 1.498E+02, 1.570E+02, 2.050E+02, 7.798E+01, 1.654E+02, 2.072E+02, 7.662E+01,-6.380E+01, 1.678E-01, 2.371E-02, 2.001E+02
 5.400E+02, 1.460E+02, 1.504E+02, 1.578E+02, 2.034E+02, 7.694E+01, 1.656E+02, 2.095E+02, 7.593E+01,-6.020E+01, 1.674E-01, 2.393E-02, 2.005E+02
 5.500E+02, 1.462E+02, 1.510E+02, 1.585E+02, 2.021E+02, 7.803E+01, 1.647E+02, 2.115E+02, 7.684E+01,-5.956E+01, 1.664E-01, 2.450E-02, 1.994E+02
 5.600E+02, 1.475E+02, 1.504E+02, 1.586E+02, 2.050E+02, 7.896E+01, 1.653E+02, 2.092E+02, 7.683E+01,-6.223E+01, 1.656E-01, 2.496E-02, 2.002E+02
 5.700E+02, 1.490E+02, 1.510E+02, 1.607E+02, 2.070E+02, 7.927E+01, 1.627E+02, 2.128E+02, 7.756E+01,-6.033E+01, 1.649E-01, 2.536E-02, 1.998E+02
 5.800E+02, 1.494E+02, 1.500E+02, 1.609E+02, 2.083E+02, 7.889E+01, 1.657E+02, 2.071E+02, 7.705E+01,-6.459E+01, 1.645E-01, 2.557E-02, 2.000E+02
 5.900E+02, 1.483E+02, 1.535E+02, 1.594E+02, 2.076E+02, 7.801E+01, 1.711E+02, 2.129E+02, 7.659E+01,-6.068E+01, 1.641E-01, 2.579E-02, 2.003E+02
 6.000E+02, 1.470E+02, 1.524E+02, 1.578E+02, 2.047E+02, 7.867E+01, 1.676E+02, 2.117E+02, 7.786E+01,-6.188E+01, 1.634E-01, 2.616E-02, 1.998E+02
 6.100E+02, 1.477E+02, 1.511E+02, 1.599E+02, 2.045E+02, 7.865E+01, 1.667E+02, 2.101E+02, 7.669E+01,-5.990E+01, 1.628E-01, 2.650E-02, 2.002E+02
 6.200E+02, 1.491E+02, 1.529E+02, 1.607E+02, 2.069E+02, 7.972E+01, 1.675E+02, 2.131E+02, 7.811E+01,-6.254E+01, 1.619E-01, 2.702E-02, 2.000E+02
 6.300E+02, 1.492E+02, 1.514E+02, 1.608E+02, 2.077E+02, 7.912E+01, 1.645E+02, 2.120E+02, 7.754E+01,-5.773E+01, 1.616E-01, 2.720E-02, 1.999E+02
 6.400E+02, 1.501E+02, 1.509E+02, 1.623E+02, 2.084E+02, 7.962E+01, 1.641E+02, 2.109E+02, 7.765E+01,-5.731E+01, 1.610E-01, 2.751E-02, 2.000E+02
 6.500E+02, 1.513E+02, 1.535E+02, 1.615E+02, 2.117E+02, 8.077E+01, 1.682E+02, 2.139E+02, 7.834E+01,-6.196E+01, 1.603E-01, 2.788E-02, 2.004E+02
 6.600E+02, 1.499E+02, 1.542E+02, 1.607E+02, 2.089E+02, 8.011E+01, 1.676E+02, 2.155E+02, 7.954E+01,-5.872E+01, 1.594E-01, 2.839E-02, 2.004E+02
 6.700E+02, 1.516E+02, 1.555E+02, 1.652E+02, 2.088E+02, 8.085E+01, 1.673E+02, 2.203E+02, 7.884E+01,-5.735E+01, 1.589E-01, 2.867E-02, 1.996E+02
 6.800E+02, 1.510E+02, 1.564E+02, 1.636E+02, 2.085E+02, 8.068E+01, 1.712E+02, 2.185E+02, 7.950E+01,-6.105E+01, 1.582E-01, 2.910E-02, 2.004E+02
 6.900E+02, 1.522E+02, 1.561E+02, 1.634E+02, 2.112E+02, 8.182E+01, 1.719E+02, 2.170E+02, 7.932E+01,-6.398E+01, 1.578E-01, 2.928E-02, 1.994E+02
 7.000E+02, 1.543E+02, 1.540E+02, 1.669E+02, 2.155E+02, 8.052E+01, 1.684E+02, 2.134E+02, 8.010E+01,-6.185E+01, 1.573E-01, 2.959E-02, 2.003E+02
 7.100E+02, 1.524E+02, 1.535E+02, 1.647E+02, 2.117E+02, 8.069E+01, 1.695E+02, 2.112E+02, 7.976E+01,-5.881E+01, 1.570E-01, 2.976E-02, 1.998E+02
 7.200E+02, 1.522E+02, 1.562E+02, 1.631E+02, 2.116E+02, 8.193E+01, 1.720E+02, 2.165E+02, 8.027E+01,-6.349E+01, 1.564E-01, 3.009E-02, 1.998E+02
 7.300E+02, 1.508E+02, 1.553E+02, 1.620E+02, 2.084E+02, 8.188E+01, 1.705E+02, 2.154E+02, 7.996E+01,-6.020E+01, 1.560E-01, 3.029E-02, 1.999E+02
 7.400E+02, 1.510E+02, 1.567E+02, 1.640E+02, 2.072E+02, 8.193E+01, 1.709E+02, 2.182E+02, 8.107E+01,-5.864E+01, 1.555E-01, 3.058E-02, 2.001E+02
 7.500E+02, 1.538E+02, 1.559E+02, 1.670E+02, 2.115E+02, 8.281E+01, 1.723E+02, 2.153E+02, 8.008E+01,-5.927E+01, 1.552E-01, 3.075E-02, 1.999E+02
 7.600E+02, 1.536E+02, 1.564E+02, 1.644E+02, 2.127E+02, 8.361E+01, 1.747E+02, 2.137E+02, 8.086E+01,-6.062E+01, 1.544E-01, 3.119E-02, 2.004E+02
 7.700E+02, 1.553E+02, 1.565E+02, 1.660E+02, 2.159E+02, 8.385E+01, 1.711E+02, 2.176E+02, 8.065E+01,-6.021E+01, 1.542E-01, 3.131E-02, 1.999E+02
 7.800E+02, 1.548E+02, 1.550E+02, 1.669E+02, 2.132E+02, 8.429E+01, 1.706E+02, 2.136E+02, 8.083E+01,-5.960E+01, 1.536E-01, 3.162E-02, 2.002E+02
 7.900E+02, 1.540E+02, 1.565E+02, 1.643E+02, 2.144E+02, 8.328E+01, 1.748E+02, 2.143E+02, 8.050E+01,-6.307E+01, 1.532E-01, 3.189E-02, 2.002E+02
 8.000E+02, 1.552E+02, 1.575E+02, 1.653E+02, 2.168E+02, 8.344E+01, 1.726E+02, 2.188E+02, 8.106E+01,-5.944E+01, 1.528E-01, 3.209E-02, 1.995E+02
 8.100E+02, 1.542E+02, 1.614E+02, 1.657E+02, 2.135E+02, 8.362E+01, 1.741E+02, 2.277E+02, 8.223E+01,-5.841E+01, 1.521E-01, 3.249E-02, 2.001E+02
 8.200E+02, 1.556E+02, 1.595E+02, 1.681E+02, 2.141E+02, 8.464E+01, 1.756E+02, 2.211E+02, 8.180E+01,-5.829E+01, 1.518E-01, 3.263E-02, 2.003E+02
 8.300E+02, 1.553E+02, 1.595E+02, 1.654E+02, 2.156E+02, 8.489E+01, 1.759E+02, 2.202E+02, 8.250E+01,-6.115E+01, 1.512E-01, 3.297E-02, 1.999E+02
 8.400E+02, 1.576E+02, 1.568E+02, 1.699E+02, 2.178E+02, 8.497E+01, 1.736E+02, 2.153E+02, 8.161E+01,-5.744E+01, 1.510E-01, 3.311E-02, 2.003E+02
 8.500E+02, 1.564E+02, 1.582E+02, 1.679E+02, 2.158E+02, 8.565E+01, 1.734E+02, 2.178E+02, 8.336E+01,-6.358E+01, 1.504E-01, 3.343E-02, 2.000E+02
 8.600E+02, 1.560E+02, 1.603E+02, 1.655E+02, 2.168E+02, 8.573E+01, 1.766E+02, 2.209E+02, 8.341E+01,-6.111E+01, 1.502E-01, 3.357E-02, 2.001E+02
 8.700E+02, 1.557E+02, 1.601E+02, 1.668E+02, 2.150E+02, 8.514E+01, 1.759E+02, 2.223E+02, 8.217E+01,-5.922E+01, 1.499E-01, 3.372E-02, 1.997E+02
 8.800E+02, 1.577E+02, 1.610E+02, 1.692E+02, 2.180E+02, 8.596E+01, 1.768E+02, 2.235E+02, 8.268E+01,-5.914E+01, 1.498E-01, 3.376E-02, 2.011E+02
 8.900E+02, 1.571E+02, 1.605E+02, 1.676E+02, 2.174E+02, 8.623E+01, 1.782E+02, 2.201E+02, 8.330E+01,-6.122E+01, 1.494E-01, 3.400E-02, 1.996E+02
 9.000E+02, 1.567E+02, 1.599E+02, 1.675E+02, 2.173E+02, 8.518E+01, 1.749E+02, 2.212E+02, 8.358E+01,-5.930E+01, 1.488E-01, 3.432E-02, 2.000E+02
 9.100E+02, 1.581E+02, 1.604E+02, 1.697E+02, 2.179E+02, 8.669E+01, 1.754E+02, 2.219E+02, 8.383E+01,-5.757E+01, 1.486E-01, 3.444E-02, 1.999E+02
 9.200E+02, 1.581E+02, 1.621E+02, 1.678E+02, 2.189E+02, 8.753E+01, 1.781E+02, 2.239E+02, 8.436E+01,-6.182E+01, 1.481E-01, 3.471E-02, 1.998E+02
 9.300E+02, 1.577E+02, 1.631E+02, 1.689E+02, 2.166E+02, 8.751E+01, 1.763E+02, 2.298E+02, 8.330E+01,-5.385E+01, 1.481E-01, 3.473E-02, 2.005E+02
 9.400E+02, 1.583E+02, 1.619E+02, 1.705E+02, 2.159E+02, 8.858E+01, 1.771E+02, 2.230E+02, 8.556E+01,-5.766E+01, 1.474E-01, 3.511E-02, 2.003E+02
 9.500E+02, 1.588E+02, 1.626E+02, 1.715E+02, 2.165E+02, 8.837E+01, 1.785E+02, 2.244E+02, 8.484E+01,-5.976E+01, 1.472E-01, 3.523E-02, 1.993E+02
 9.600E+02, 1.595E+02, 1.631E+02, 1.706E+02, 2.205E+02, 8.748E+01, 1.769E+02, 2.273E+02, 8.507E+01,-6.382E+01, 1.469E-01, 3.539E-02, 2.005E+02
 9.700E+02, 1.608E+02, 1.621E+02, 1.717E+02, 2.223E+02, 8.839E+01, 1.766E+02, 2.239E+02, 8.581E+01,-6.114E+01, 1.466E-01, 3.553E-02, 1.996E+02
 9.800E+02, 1.589E+02, 1.631E+02, 1.685E+02, 2.203E+02, 8.778E+01, 1.811E+02, 2.232E+02, 8.483E+01,-6.188E+01, 1.466E-01, 3.557E-02, 2.004E+02
 9.900E+02, 1.587E+02, 1.625E+02, 1.701E+02, 2.182E+02, 8.765E+01, 1.794E+02, 2.227E+02, 8.545E+01,-5.995E+01, 1.464E-01, 3.568E-02, 1.997E+02
 1.000E+03, 1.599E+02, 1.634E+02, 1.717E+02, 2.198E+02, 8.830E+01, 1.792E+02, 2.248E+02, 8.621E+01,-5.949E+01, 1.462E-01, 3.581E-02, 2.001E+02
 1.010E+03, 1.587E+02, 1.641E+02, 1.712E+02, 2.174E+02, 8.760E+01, 1.801E+02, 2.264E+02, 8.590E+01,-5.985E+01, 1.460E-01, 3.592E-02, 1.997E+02
 1.020E+03, 1.611E+02, 1.618E+02, 1.752E+02, 2.198E+02, 8.842E+01, 1.776E+02, 2.225E+02, 8.532E+01,-5.698E+01, 1.460E-01, 3.592E-02, 1.996E+02
 1.030E+03, 1.616E+02, 1.631E+02, 1.739E+02, 2.215E+02, 8.941E+01, 1.791E+02, 2.232E+02, 8.710E+01,-6.290E+01, 1.454E-01, 3.621E-02, 2.002E+02
 1.040E+03, 1.616E+02, 1.639E+02, 1.719E+02, 2.245E+02, 8.829E+01, 1.805E+02, 2.254E+02, 8.569E+01,-6.091E+01, 1.451E-01, 3.638E-02, 1.998E+02
 1.050E+03, 1.600E+02, 1.644E+02, 1.699E+02, 2.213E+02, 8.881E+01, 1.825E+02, 2.251E+02, 8.556E+01,-6.001E+01, 1.451E-01, 3.642E-02, 2.001E+02
 1.060E+03, 1.603E+02, 1.647E+02, 1.711E+02, 2.206E+02, 8.928E+01, 1.800E+02, 2.285E+02, 8.552E+01,-5.666E+01, 1.450E-01, 3.646E-02, 2.002E+02
 1.070E+03, 1.621E+02, 1.644E+02, 1.747E+02, 2.226E+02, 8.914E+01, 1.821E+02, 2.246E+02, 8.647E+01,-5.679E+01, 1.447E-01, 3.661E-02, 1.999E+02
 1.080E+03, 1.630E+02, 1.641E+02, 1.730E+02, 2.256E+02, 9.038E+01, 1.794E+02, 2.258E+02, 8.717E+01,-5.726E+01, 1.443E-01, 3.682E-02, 2.002E+02
 1.090E+03, 1.623E+02, 1.654E+02, 1.751E+02, 2.208E+02, 9.107E+01, 1.818E+02, 2.263E+02, 8.799E+01,-5.753E+01, 1.441E-01, 3.695E-02, 1.993E+02
 1.100E+03, 1.654E+02, 1.638E+02, 1.756E+02, 2.285E+02, 9.216E+01, 1.797E+02, 2.241E+02, 8.761E+01,-6.287E+01, 1.439E-01, 3.704E-02, 2.007E+02
 1.110E+03, 1.637E+02, 1.639E+02, 1.734E+02, 2.273E+02, 9.024E+01, 1.817E+02, 2.227E+02, 8.729E+01,-6.487E+01, 1.437E-01, 3.715E-02, 2.003E+02
 1.120E+03, 1.625E+02, 1.652E+02, 1.722E+02, 2.246E+02, 9.061E+01, 1.812E+02, 2.271E+02, 8.736E+01,-5.920E+01, 1.434E-01, 3.732E-02, 2.002E+02
 1.130E+03, 1.630E+02, 1.676E+02, 1.735E+02, 2.248E+02, 9.076E+01, 1.832E+02, 2.313E+02, 8.833E+01,-5.862E+01, 1.434E-01, 3.733E-02, 1.999E+02
 1.140E+03, 1.632E+02, 1.671E+02, 1.740E+02, 2.241E+02, 9.145E+01, 1.828E+02, 2.300E+02, 8.843E+01,-5.686E+01, 1.432E-01, 3.744E-02, 2.006E+02
 1.150E+03, 1.637E+02, 1.661E+02, 1.741E+02, 2.251E+02, 9.204E+01, 1.810E+02, 2.291E+02, 8.830E+01,-6.233E+01, 1.432E-01, 3.747E-02, 2.002E+02
 1.160E+03, 1.651E+02, 1.659E+02, 1.779E+02, 2.256E+02, 9.171E+01, 1.814E+02, 2.278E+02, 8.855E+01,-5.829E+01, 1.429E-01, 3.760E-02, 2.006E+02
 1.170E+03, 1.650E+02, 1.679E+02, 1.764E+02, 2.263E+02, 9.223E+01, 1.811E+02, 2.334E+02, 8.910E+01,-5.898E+01, 1.428E-01, 3.766E-02, 1.997E+02
 1.180E+03, 1.631E+02, 1.695E+02, 1.759E+02, 2.224E+02, 9.104E+01, 1.854E+02, 2.341E+02, 8.904E+01,-6.068E+01, 1.428E-01, 3.770E-02, 1.997E+02
 1.190E+03, 1.631E+02, 1.698E+02, 1.734E+02, 2.226E+02, 9.320E+01, 1.864E+02, 2.353E+02, 8.763E+01,-6.117E+01, 1.427E-01, 3.772E-02, 2.000E+02
 1.200E+03, 1.645E+02, 1.691E+02, 1.765E+02, 2.252E+02, 9.183E+01, 1.831E+02, 2.341E+02, 9.019E+01,-6.064E+01, 1.425E-01, 3.783E-02, 1.998E+02
 1.210E+03, 1.647E+02, 1.685E+02, 1.762E+02, 2.262E+02, 9.173E+01, 1.849E+02, 2.314E+02, 8.931E+01,-5.677E+01, 1.426E-01, 3.779E-02, 2.000E+02
 1.220E+03, 1.663E+02, 1.660E+02, 1.782E+02, 2.274E+02, 9.319E+01, 1.805E+02, 2.292E+02, 8.827E+01,-6.149E+01, 1.425E-01, 3.784E-02, 2.001E+02
 1.230E+03, 1.663E+02, 1.679E+02, 1.782E+02, 2.275E+02, 9.317E+01, 1.825E+02, 2.313E+02, 8.976E+01,-5.575E+01, 1.423E-01, 3.798E-02, 1.995E+02
 1.240E+03, 1.671E+02, 1.677E+02, 1.793E+02, 2.281E+02, 9.376E+01, 1.830E+02, 2.304E+02, 8.962E+01,-6.029E+01, 1.421E-01, 3.810E-02, 2.002E+02
 1.250E+03, 1.660E+02, 1.710E+02, 1.764E+02, 2.285E+02, 9.330E+01, 1.870E+02, 2.360E+02, 8.987E+01,-6.119E+01, 1.418E-01, 3.823E-02, 1.999E+02
 1.260E+03, 1.662E+02, 1.715E+02, 1.796E+02, 2.251E+02, 9.403E+01, 1.874E+02, 2.371E+02, 8.993E+01,-5.802E+01, 1.418E-01, 3.826E-02, 2.002E+02
 1.270E+03, 1.663E+02, 1.717E+02, 1.781E+02, 2.268E+02, 9.400E+01, 1.887E+02, 2.355E+02, 9.075E+01,-6.065E+01, 1.418E-01, 3.825E-02, 2.000E+02
 1.280E+03, 1.673E+02, 1.702E+02, 1.805E+02, 2.272E+02, 9.409E+01, 1.875E+02, 2.320E+02, 9.101E+01,-5.923E+01, 1.418E-01, 3.826E-02, 1.996E+02
 1.290E+03, 1.688E+02, 1.699E+02, 1.819E+02, 2.300E+02, 9.464E+01, 1.874E+02, 2.310E+02, 9.144E+01,-6.385E+01, 1.416E-01, 3.838E-02, 1.996E+02
 1.300E+03, 1.674E+02, 1.704E+02, 1.767E+02, 2.303E+02, 9.530E+01, 1.884E+02, 2.311E+02, 9.164E+01,-6.087E+01, 1.415E-01, 3.843E-02, 2.004E+02
 1.310E+03, 1.660E+02, 1.708E+02, 1.763E+02, 2.271E+02, 9.471E+01, 1.890E+02, 2.331E+02, 9.033E+01,-6.038E+01, 1.416E-01, 3.838E-02, 2.002E+02
