s,C,C,C,C,C,C,C,C,Pa,mol/mol,mol/mol,kW
Time,"West_All_TCs","East_All_TCs","West_Bottom_TCs","West_Middle_TCs","West_Upper_TCs","East_Bottom_TCs","East_Middle_TCs","East_Upper_TCs","Pressure","O2","CO2","HRR"
-6.000E+01, 2.500E+01, 2.500E+01, 2.500E+01, 2.500E+01, 2.500E+01, 2.500E+01, 2.500E+01, 2.500E+01,-9.627E-06, 2.095E-01, 3.901E-04, 0.000E+00
-4.999E+01, 2.403E+01, 2.320E+01, 2.461E+01, 1.991E+01, 2.755E+01, 2.223E+01, 1.452E+01, 3.287E+01,-4.087E+02, 2.095E-01, 3.901E-04, 0.000E+00
-3.998E+01, 2.412E+01, 2.465E+01, 2.038E+01, 1.988E+01, 3.208E+01, 1.985E+01, 1.806E+01, 3.604E+01,-4.691E+02, 2.095E-01, 3.901E-04, 0.000E+00
-2.998E+01, 2.272E+01, 2.621E+01, 1.876E+01, 1.908E+01, 3.032E+01, 2.157E+01, 2.090E+01, 3.615E+01,-4.638E+02, 2.095E-01, 3.901E-04, 0.000E+00
-1.999E+01, 2.211E+01, 2.568E+01, 1.884E+01, 1.923E+01, 2.824E+01, 2.159E+01, 2.201E+01, 3.343E+01,-4.565E+02, 2.095E-01, 3.901E-04, 0.000E+00
-9.973E+00, 2.229E+01, 2.573E+01, 1.928E+01, 2.021E+01, 2.740E+01, 2.245E+01, 2.299E+01, 3.174E+01,-4.530E+02, 2.095E-01, 3.901E-04, 0.000E+00
 1.653E-02, 2.261E+01, 2.531E+01, 1.999E+01, 2.131E+01, 2.652E+01, 2.286E+01, 2.310E+01, 2.997E+01,-4.507E+02, 2.095E-01, 3.901E-04, 4.031E-05
 1.001E+01, 2.414E+01, 2.676E+01, 2.132E+01, 2.339E+01, 2.770E+01, 2.408E+01, 2.632E+01, 2.990E+01,-3.561E+02, 2.095E-01, 3.901E-04, 3.233E+01
 2.002E+01, 2.851E+01, 2.927E+01, 2.492E+01, 3.218E+01, 2.843E+01, 2.489E+01, 3.301E+01, 2.990E+01,-1.709E+02, 2.095E-01, 3.901E-04, 9.919E+01
 3.001E+01, 3.667E+01, 3.820E+01, 2.768E+01, 5.133E+01, 3.101E+01, 3.020E+01, 5.501E+01, 2.941E+01,-6.477E+01, 2.095E-01, 3.911E-04, 1.659E+02
 4.001E+01, 4.908E+01, 4.929E+01, 3.537E+01, 7.665E+01, 3.524E+01, 3.830E+01, 7.960E+01, 2.997E+01,-4.795E+01, 2.093E-01, 5.149E-04, 2.000E+02
 5.002E+01, 6.005E+01, 6.050E+01, 4.691E+01, 9.480E+01, 3.846E+01, 5.027E+01, 9.833E+01, 3.288E+01,-8.323E+01, 2.086E-01, 8.913E-04, 1.998E+02
 6.001E+01, 7.006E+01, 7.159E+01, 5.787E+01, 1.090E+02, 4.332E+01, 6.068E+01, 1.145E+02, 3.959E+01,-1.140E+02, 2.073E-01, 1.655E-03, 2.003E+02
 7.001E+01, 7.821E+01, 8.021E+01, 6.878E+01, 1.161E+02, 4.979E+01, 7.077E+01, 1.242E+02, 4.567E+01,-1.535E+02, 2.065E-01, 2.083E-03, 1.999E+02
 8.002E+01, 8.555E+01, 8.672E+01, 7.638E+01, 1.264E+02, 5.384E+01, 8.051E+01, 1.310E+02, 4.868E+01,-2.077E+02, 2.058E-01, 2.461E-03, 1.998E+02
 9.001E+01, 9.117E+01, 9.271E+01, 8.348E+01, 1.319E+02, 5.816E+01, 8.601E+01, 1.390E+02, 5.311E+01,-2.416E+02, 2.048E-01, 3.053E-03, 2.004E+02
 1.000E+02, 9.536E+01, 9.722E+01, 8.950E+01, 1.347E+02, 6.191E+01, 9.388E+01, 1.409E+02, 5.687E+01,-2.689E+02, 2.035E-01, 3.742E-03, 2.001E+02
 1.100E+02, 9.846E+01, 1.019E+02, 9.231E+01, 1.385E+02, 6.453E+01, 9.954E+01, 1.473E+02, 5.885E+01,-3.139E+02, 2.030E-01, 4.032E-03, 1.997E+02
 1.200E+02, 1.003E+02, 1.026E+02, 9.661E+01, 1.381E+02, 6.613E+01, 1.020E+02, 1.453E+02, 6.055E+01,-3.326E+02, 2.024E-01, 4.397E-03, 1.999E+02
 1.300E+02, 1.027E+02, 1.065E+02, 9.835E+01, 1.420E+02, 6.771E+01, 1.085E+02, 1.486E+02, 6.247E+01,-3.361E+02, 2.016E-01, 4.833E-03, 2.002E+02
 1.400E+02, 1.048E+02, 1.089E+02, 1.017E+02, 1.413E+02, 7.152E+01, 1.111E+02, 1.512E+02, 6.439E+01,-3.570E+02, 2.005E-01, 5.433E-03, 2.002E+02
 1.500E+02, 1.060E+02, 1.099E+02, 1.018E+02, 1.442E+02, 7.191E+01, 1.116E+02, 1.507E+02, 6.745E+01,-3.727E+02, 1.993E-01, 6.116E-03, 2.003E+02
 1.600E+02, 1.074E+02, 1.121E+02, 1.034E+02, 1.460E+02, 7.282E+01, 1.122E+02, 1.549E+02, 6.927E+01,-3.777E+02, 1.984E-01, 6.639E-03, 2.000E+02
 1.700E+02, 1.079E+02, 1.109E+02, 1.040E+02, 1.459E+02, 7.391E+01, 1.133E+02, 1.524E+02, 6.693E+01,-3.853E+02, 1.979E-01, 6.889E-03, 1.999E+02
 1.800E+02, 1.095E+02, 1.142E+02, 1.048E+02, 1.479E+02, 7.583E+01, 1.167E+02, 1.554E+02, 7.056E+01,-3.821E+02, 1.966E-01, 7.608E-03, 1.999E+02
 1.900E+02, 1.103E+02, 1.154E+02, 1.035E+02, 1.497E+02, 7.784E+01, 1.173E+02, 1.593E+02, 6.963E+01,-3.844E+02, 1.962E-01, 7.825E-03, 2.006E+02
 2.000E+02, 1.113E+02, 1.141E+02, 1.051E+02, 1.509E+02, 7.790E+01, 1.142E+02, 1.563E+02, 7.192E+01,-3.886E+02, 1.953E-01, 8.327E-03, 1.997E+02
 2.100E+02, 1.105E+02, 1.155E+02, 1.054E+02, 1.499E+02, 7.618E+01, 1.173E+02, 1.583E+02, 7.089E+01,-3.909E+02, 1.948E-01, 8.651E-03, 1.997E+02
 2.200E+02, 1.113E+02, 1.167E+02, 1.063E+02, 1.508E+02, 7.666E+01, 1.193E+02, 1.604E+02, 7.055E+01,-3.861E+02, 1.943E-01, 8.905E-03, 2.003E+02
 2.300E+02, 1.124E+02, 1.161E+02, 1.065E+02, 1.528E+02, 7.780E+01, 1.186E+02, 1.586E+02, 7.092E+01,-3.994E+02, 1.934E-01, 9.402E-03, 2.003E+02
 2.400E+02, 1.112E+02, 1.183E+02, 1.077E+02, 1.486E+02, 7.714E+01, 1.181E+02, 1.632E+02, 7.355E+01,-3.761E+02, 1.927E-01, 9.791E-03, 1.999E+02
 2.500E+02, 1.127E+02, 1.165E+02, 1.099E+02, 1.514E+02, 7.683E+01, 1.181E+02, 1.580E+02, 7.349E+01,-3.831E+02, 1.923E-01, 1.001E-02, 1.999E+02
 2.600E+02, 1.162E+02, 1.155E+02, 1.140E+02, 1.546E+02, 8.015E+01, 1.194E+02, 1.548E+02, 7.242E+01,-3.779E+02, 1.920E-01, 1.017E-02, 1.999E+02
 2.700E+02, 1.124E+02, 1.173E+02, 1.091E+02, 1.501E+02, 7.800E+01, 1.249E+02, 1.531E+02, 7.393E+01,-4.004E+02, 1.914E-01, 1.055E-02, 1.998E+02
 2.800E+02, 1.136E+02, 1.145E+02, 1.098E+02, 1.508E+02, 8.022E+01, 1.173E+02, 1.542E+02, 7.214E+01,-3.880E+02, 1.914E-01, 1.053E-02, 2.000E+02
 2.900E+02, 1.134E+02, 1.166E+02, 1.073E+02, 1.536E+02, 7.920E+01, 1.209E+02, 1.562E+02, 7.287E+01,-3.753E+02, 1.910E-01, 1.076E-02, 2.004E+02
 3.000E+02, 1.152E+02, 1.185E+02, 1.097E+02, 1.554E+02, 8.054E+01, 1.217E+02, 1.609E+02, 7.288E+01,-3.825E+02, 1.906E-01, 1.099E-02, 2.003E+02
 3.100E+02, 1.144E+02, 1.194E+02, 1.101E+02, 1.538E+02, 7.946E+01, 1.221E+02, 1.625E+02, 7.361E+01,-3.834E+02, 1.900E-01, 1.132E-02, 1.997E+02
 3.200E+02, 1.162E+02, 1.189E+02, 1.123E+02, 1.568E+02, 7.948E+01, 1.225E+02, 1.594E+02, 7.466E+01,-3.679E+02, 1.893E-01, 1.170E-02, 2.001E+02
 3.300E+02, 1.151E+02, 1.202E+02, 1.090E+02, 1.577E+02, 7.850E+01, 1.233E+02, 1.614E+02, 7.569E+01,-3.805E+02, 1.891E-01, 1.184E-02, 1.997E+02
 3.400E+02, 1.183E+02, 1.203E+02, 1.131E+02, 1.601E+02, 8.172E+01, 1.227E+02, 1.633E+02, 7.488E+01,-3.762E+02, 1.888E-01, 1.195E-02, 2.002E+02
 3.500E+02, 1.168E+02, 1.214E+02, 1.114E+02, 1.579E+02, 8.098E+01, 1.242E+02, 1.639E+02, 7.608E+01,-3.872E+02, 1.883E-01, 1.226E-02, 2.001E+02
 3.600E+02, 1.166E+02, 1.221E+02, 1.124E+02, 1.562E+02, 8.126E+01, 1.238E+02, 1.662E+02, 7.632E+01,-3.773E+02, 1.882E-01, 1.234E-02, 2.004E+02
 3.700E+02, 1.183E+02, 1.219E+02, 1.136E+02, 1.587E+02, 8.252E+01, 1.245E+02, 1.652E+02, 7.611E+01,-3.669E+02, 1.879E-01, 1.246E-02, 1.998E+02
 3.800E+02, 1.188E+02, 1.213E+02, 1.145E+02, 1.613E+02, 8.058E+01, 1.247E+02, 1.622E+02, 7.679E+01,-3.663E+02, 1.876E-01, 1.262E-02, 2.002E+02
 3.900E+02, 1.173E+02, 1.226E+02, 1.127E+02, 1.567E+02, 8.249E+01, 1.264E+02, 1.639E+02, 7.749E+01,-3.708E+02, 1.875E-01, 1.273E-02, 2.002E+02
 4.000E+02, 1.191E+02, 1.224E+02, 1.166E+02, 1.582E+02, 8.243E+01, 1.245E+02, 1.649E+02, 7.769E+01,-3.551E+02, 1.874E-01, 1.276E-02, 1.997E+02
 4.100E+02, 1.178E+02, 1.236E+02, 1.145E+02, 1.561E+02, 8.266E+01, 1.281E+02, 1.667E+02, 7.601E+01,-3.615E+02, 1.873E-01, 1.284E-02, 2.004E+02
 4.200E+02, 1.190E+02, 1.215E+02, 1.170E+02, 1.572E+02, 8.279E+01, 1.276E+02, 1.598E+02, 7.719E+01,-3.748E+02, 1.870E-01, 1.298E-02, 1.996E+02
 4.300E+02, 1.171E+02, 1.244E+02, 1.138E+02, 1.549E+02, 8.248E+01, 1.302E+02, 1.652E+02, 7.779E+01,-3.637E+02, 1.870E-01, 1.300E-02, 1.994E+02
 4.400E+02, 1.194E+02, 1.225E+02, 1.166E+02, 1.593E+02, 8.218E+01, 1.281E+02, 1.602E+02, 7.927E+01,-3.719E+02, 1.869E-01, 1.307E-02, 1.999E+02
 4.500E+02, 1.216E+02, 1.239E+02, 1.196E+02, 1.616E+02, 8.368E+01, 1.319E+02, 1.627E+02, 7.705E+01,-3.574E+02, 1.869E-01, 1.303E-02, 1.994E+02
 4.600E+02, 1.198E+02, 1.229E+02, 1.157E+02, 1.603E+02, 8.328E+01, 1.294E+02, 1.644E+02, 7.490E+01,-3.698E+02, 1.870E-01, 1.298E-02, 2.001E+02
 4.700E+02, 1.219E+02, 1.251E+02, 1.179E+02, 1.616E+02, 8.612E+01, 1.299E+02, 1.677E+02, 7.780E+01,-3.432E+02, 1.867E-01, 1.313E-02, 2.007E+02
 4.800E+02, 1.208E+02, 1.246E+02, 1.183E+02, 1.611E+02, 8.300E+01, 1.291E+02, 1.676E+02, 7.718E+01,-3.600E+02, 1.866E-01, 1.322E-02, 1.999E+02
 4.900E+02, 1.211E+02, 1.261E+02, 1.177E+02, 1.605E+02, 8.508E+01, 1.314E+02, 1.682E+02, 7.850E+01,-3.459E+02, 1.864E-01, 1.333E-02, 2.001E+02
 5.000E+02, 1.227E+02, 1.291E+02, 1.194E+02, 1.632E+02, 8.551E+01, 1.307E+02, 1.757E+02, 8.091E+01,-3.528E+02, 1.861E-01, 1.346E-02, 2.000E+02
 5.100E+02, 1.224E+02, 1.315E+02, 1.182E+02, 1.625E+02, 8.651E+01, 1.341E+02, 1.807E+02, 7.959E+01,-3.426E+02, 1.860E-01, 1.354E-02, 2.000E+02
 5.200E+02, 1.212E+02, 1.256E+02, 1.193E+02, 1.596E+02, 8.485E+01, 1.320E+02, 1.661E+02, 7.857E+01,-3.587E+02, 1.859E-01, 1.359E-02, 2.001E+02
 5.300E+02, 1.255E+02, 1.262E+02, 1.255E+02, 1.647E+02, 8.620E+01, 1.317E+02, 1.675E+02, 7.920E+01,-3.476E+02, 1.859E-01, 1.358E-02, 1.994E+02
 5.400E+02, 1.206E+02, 1.274E+02, 1.180E+02, 1.591E+02, 8.453E+01, 1.342E+02, 1.675E+02, 8.063E+01,-3.533E+02, 1.858E-01, 1.366E-02, 2.000E+02
 5.500E+02, 1.221E+02, 1.285E+02, 1.212E+02, 1.586E+02, 8.666E+01, 1.322E+02, 1.730E+02, 8.023E+01,-3.509E+02, 1.858E-01, 1.368E-02, 2.005E+02
 5.600E+02, 1.243E+02, 1.278E+02, 1.180E+02, 1.675E+02, 8.723E+01, 1.329E+02, 1.705E+02, 8.015E+01,-3.535E+02, 1.857E-01, 1.369E-02, 1.997E+02
 5.700E+02, 1.239E+02, 1.281E+02, 1.200E+02, 1.655E+02, 8.620E+01, 1.320E+02, 1.706E+02, 8.181E+01,-3.529E+02, 1.855E-01, 1.384E-02, 2.007E+02
 5.800E+02, 1.235E+02, 1.298E+02, 1.191E+02, 1.647E+02, 8.687E+01, 1.326E+02, 1.751E+02, 8.167E+01,-3.495E+02, 1.853E-01, 1.394E-02, 1.998E+02
 5.900E+02, 1.259E+02, 1.275E+02, 1.219E+02, 1.679E+02, 8.796E+01, 1.312E+02, 1.700E+02, 8.110E+01,-3.505E+02, 1.852E-01, 1.397E-02, 2.001E+02
 6.000E+02, 1.246E+02, 1.302E+02, 1.188E+02, 1.663E+02, 8.876E+01, 1.347E+02, 1.739E+02, 8.202E+01,-3.400E+02, 1.852E-01, 1.400E-02, 2.002E+02
 6.100E+02, 1.252E+02, 1.279E+02, 1.202E+02, 1.672E+02, 8.816E+01, 1.317E+02, 1.699E+02, 8.222E+01,-3.667E+02, 1.851E-01, 1.404E-02, 2.001E+02
 6.200E+02, 1.256E+02, 1.300E+02, 1.227E+02, 1.660E+02, 8.799E+01, 1.344E+02, 1.740E+02, 8.144E+01,-3.528E+02, 1.851E-01, 1.406E-02, 2.002E+02
 6.300E+02, 1.246E+02, 1.281E+02, 1.215E+02, 1.634E+02, 8.889E+01, 1.312E+02, 1.702E+02, 8.285E+01,-3.636E+02, 1.849E-01, 1.417E-02, 1.995E+02
 6.400E+02, 1.251E+02, 1.328E+02, 1.210E+02, 1.658E+02, 8.865E+01, 1.332E+02, 1.805E+02, 8.477E+01,-3.405E+02, 1.848E-01, 1.421E-02, 2.000E+02
 6.500E+02, 1.258E+02, 1.302E+02, 1.201E+02, 1.678E+02, 8.944E+01, 1.332E+02, 1.746E+02, 8.286E+01,-3.493E+02, 1.848E-01, 1.422E-02, 2.001E+02
 6.600E+02, 1.264E+02, 1.312E+02, 1.221E+02, 1.675E+02, 8.976E+01, 1.349E+02, 1.774E+02, 8.125E+01,-3.595E+02, 1.848E-01, 1.420E-02, 2.003E+02
 6.700E+02, 1.258E+02, 1.326E+02, 1.203E+02, 1.680E+02, 8.926E+01, 1.347E+02, 1.792E+02, 8.394E+01,-3.487E+02, 1.846E-01, 1.431E-02, 2.001E+02
 6.800E+02, 1.273E+02, 1.343E+02, 1.220E+02, 1.708E+02, 8.908E+01, 1.356E+02, 1.828E+02, 8.455E+01,-3.402E+02, 1.845E-01, 1.440E-02, 2.002E+02
 6.900E+02, 1.273E+02, 1.317E+02, 1.219E+02, 1.699E+02, 9.023E+01, 1.356E+02, 1.771E+02, 8.241E+01,-3.567E+02, 1.845E-01, 1.437E-02, 2.001E+02
 7.000E+02, 1.276E+02, 1.313E+02, 1.222E+02, 1.722E+02, 8.824E+01, 1.340E+02, 1.765E+02, 8.343E+01,-3.548E+02, 1.846E-01, 1.432E-02, 2.007E+02
 7.100E+02, 1.279E+02, 1.329E+02, 1.238E+02, 1.699E+02, 8.992E+01, 1.367E+02, 1.777E+02, 8.433E+01,-3.461E+02, 1.845E-01, 1.441E-02, 1.996E+02
 7.200E+02, 1.274E+02, 1.307E+02, 1.249E+02, 1.672E+02, 8.999E+01, 1.342E+02, 1.736E+02, 8.445E+01,-3.392E+02, 1.845E-01, 1.440E-02, 2.001E+02
 7.300E+02, 1.285E+02, 1.301E+02, 1.266E+02, 1.697E+02, 8.913E+01, 1.330E+02, 1.738E+02, 8.337E+01,-3.469E+02, 1.845E-01, 1.437E-02, 2.001E+02
 7.400E+02, 1.268E+02, 1.313E+02, 1.219E+02, 1.687E+02, 8.971E+01, 1.366E+02, 1.739E+02, 8.340E+01,-3.563E+02, 1.845E-01, 1.437E-02, 1.999E+02
 7.500E+02, 1.282E+02, 1.306E+02, 1.242E+02, 1.699E+02, 9.055E+01, 1.348E+02, 1.719E+02, 8.496E+01,-3.476E+02, 1.846E-01, 1.434E-02, 2.001E+02
 7.600E+02, 1.279E+02, 1.342E+02, 1.233E+02, 1.685E+02, 9.189E+01, 1.370E+02, 1.787E+02, 8.697E+01,-3.358E+02, 1.845E-01, 1.437E-02, 2.004E+02
 7.700E+02, 1.286E+02, 1.339E+02, 1.232E+02, 1.716E+02, 9.111E+01, 1.376E+02, 1.782E+02, 8.579E+01,-3.449E+02, 1.845E-01, 1.438E-02, 2.002E+02
 7.800E+02, 1.305E+02, 1.340E+02, 1.249E+02, 1.719E+02, 9.448E+01, 1.367E+02, 1.804E+02, 8.499E+01,-3.486E+02, 1.846E-01, 1.434E-02, 2.004E+02
 7.900E+02, 1.296E+02, 1.337E+02, 1.248E+02, 1.722E+02, 9.188E+01, 1.366E+02, 1.798E+02, 8.465E+01,-3.499E+02, 1.845E-01, 1.438E-02, 2.000E+02
 8.000E+02, 1.299E+02, 1.347E+02, 1.253E+02, 1.731E+02, 9.126E+01, 1.374E+02, 1.802E+02, 8.663E+01,-3.505E+02, 1.844E-01, 1.442E-02, 2.001E+02
 8.100E+02, 1.321E+02, 1.337E+02, 1.251E+02, 1.777E+02, 9.336E+01, 1.378E+02, 1.779E+02, 8.537E+01,-3.511E+02, 1.844E-01, 1.444E-02, 1.999E+02
 8.200E+02, 1.293E+02, 1.354E+02, 1.243E+02, 1.718E+02, 9.169E+01, 1.376E+02, 1.819E+02, 8.677E+01,-3.422E+02, 1.843E-01, 1.448E-02, 1.999E+02
 8.300E+02, 1.321E+02, 1.365E+02, 1.257E+02, 1.763E+02, 9.425E+01, 1.375E+02, 1.840E+02, 8.810E+01,-3.410E+02, 1.843E-01, 1.450E-02, 2.003E+02
 8.400E+02, 1.323E+02, 1.357E+02, 1.269E+02, 1.756E+02, 9.430E+01, 1.367E+02, 1.832E+02, 8.707E+01,-3.461E+02, 1.843E-01, 1.447E-02, 2.005E+02
 8.500E+02, 1.303E+02, 1.346E+02, 1.253E+02, 1.738E+02, 9.172E+01, 1.389E+02, 1.798E+02, 8.516E+01,-3.536E+02, 1.844E-01, 1.443E-02, 1.996E+02
 8.600E+02, 1.303E+02, 1.347E+02, 1.256E+02, 1.735E+02, 9.186E+01, 1.382E+02, 1.801E+02, 8.559E+01,-3.457E+02, 1.844E-01, 1.445E-02, 2.002E+02
 8.700E+02, 1.331E+02, 1.356E+02, 1.283E+02, 1.763E+02, 9.471E+01, 1.384E+02, 1.813E+02, 8.720E+01,-3.433E+02, 1.842E-01, 1.456E-02, 2.005E+02
 8.800E+02, 1.292E+02, 1.379E+02, 1.254E+02, 1.702E+02, 9.197E+01, 1.397E+02, 1.850E+02, 8.893E+01,-3.401E+02, 1.841E-01, 1.459E-02, 1.994E+02
 8.900E+02, 1.330E+02, 1.380E+02, 1.288E+02, 1.769E+02, 9.340E+01, 1.388E+02, 1.874E+02, 8.788E+01,-3.407E+02, 1.841E-01, 1.458E-02, 2.001E+02
 9.000E+02, 1.332E+02, 1.358E+02, 1.276E+02, 1.779E+02, 9.419E+01, 1.382E+02, 1.816E+02, 8.774E+01,-3.463E+02, 1.841E-01, 1.460E-02, 2.000E+02
 9.100E+02, 1.320E+02, 1.365E+02, 1.273E+02, 1.767E+02, 9.190E+01, 1.388E+02, 1.816E+02, 8.916E+01,-3.498E+02, 1.840E-01, 1.464E-02, 2.002E+02
 9.200E+02, 1.331E+02, 1.374E+02, 1.278E+02, 1.774E+02, 9.394E+01, 1.388E+02, 1.843E+02, 8.910E+01,-3.478E+02, 1.841E-01, 1.460E-02, 1.997E+02
 9.300E+02, 1.329E+02, 1.373E+02, 1.273E+02, 1.768E+02, 9.465E+01, 1.383E+02, 1.833E+02, 9.026E+01,-3.396E+02, 1.841E-01, 1.462E-02, 2.000E+02
 9.400E+02, 1.328E+02, 1.383E+02, 1.253E+02, 1.758E+02, 9.722E+01, 1.404E+02, 1.850E+02, 8.941E+01,-3.367E+02, 1.841E-01, 1.463E-02, 1.998E+02
 9.500E+02, 1.337E+02, 1.378E+02, 1.287E+02, 1.754E+02, 9.700E+01, 1.398E+02, 1.836E+02, 9.017E+01,-3.357E+02, 1.840E-01, 1.464E-02, 2.007E+02
 9.600E+02, 1.345E+02, 1.366E+02, 1.291E+02, 1.756E+02, 9.877E+01, 1.393E+02, 1.826E+02, 8.782E+01,-3.404E+02, 1.842E-01, 1.457E-02, 2.000E+02
 9.700E+02, 1.350E+02, 1.383E+02, 1.287E+02, 1.778E+02, 9.844E+01, 1.418E+02, 1.843E+02, 8.871E+01,-3.409E+02, 1.842E-01, 1.454E-02, 2.001E+02
 9.800E+02, 1.341E+02, 1.387E+02, 1.302E+02, 1.770E+02, 9.504E+01, 1.403E+02, 1.854E+02, 9.036E+01,-3.456E+02, 1.841E-01, 1.462E-02, 2.002E+02
 9.900E+02, 1.337E+02, 1.401E+02, 1.281E+02, 1.748E+02, 9.815E+01, 1.425E+02, 1.877E+02, 9.026E+01,-3.418E+02, 1.841E-01, 1.459E-02, 1.995E+02
 1.000E+03, 1.348E+02, 1.388E+02, 1.289E+02, 1.796E+02, 9.597E+01, 1.410E+02, 1.868E+02, 8.847E+01,-3.419E+02, 1.842E-01, 1.452E-02, 2.002E+02
 1.010E+03, 1.360E+02, 1.399E+02, 1.288E+02, 1.790E+02, 1.001E+02, 1.425E+02, 1.869E+02, 9.032E+01,-3.401E+02, 1.841E-01, 1.461E-02, 2.002E+02
 1.020E+03, 1.348E+02, 1.418E+02, 1.294E+02, 1.755E+02, 9.947E+01, 1.402E+02, 1.956E+02, 8.956E+01,-3.457E+02, 1.841E-01, 1.458E-02, 1.999E+02
 1.030E+03, 1.347E+02, 1.386E+02, 1.297E+02, 1.775E+02, 9.702E+01, 1.402E+02, 1.859E+02, 8.983E+01,-3.305E+02, 1.843E-01, 1.451E-02, 2.004E+02
 1.040E+03, 1.338E+02, 1.380E+02, 1.300E+02, 1.744E+02, 9.691E+01, 1.435E+02, 1.810E+02, 8.950E+01,-3.431E+02, 1.843E-01, 1.451E-02, 2.000E+02
 1.050E+03, 1.341E+02, 1.412E+02, 1.297E+02, 1.754E+02, 9.708E+01, 1.455E+02, 1.875E+02, 9.068E+01,-3.377E+02, 1.842E-01, 1.453E-02, 1.999E+02
 1.060E+03, 1.356E+02, 1.412E+02, 1.306E+02, 1.790E+02, 9.708E+01, 1.450E+02, 1.864E+02, 9.221E+01,-3.406E+02, 1.843E-01, 1.452E-02, 2.003E+02
 1.070E+03, 1.361E+02, 1.409E+02, 1.296E+02, 1.807E+02, 9.810E+01, 1.436E+02, 1.869E+02, 9.205E+01,-3.380E+02, 1.842E-01, 1.453E-02, 2.001E+02
 1.080E+03, 1.366E+02, 1.403E+02, 1.324E+02, 1.785E+02, 9.892E+01, 1.424E+02, 1.881E+02, 9.022E+01,-3.427E+02, 1.842E-01, 1.454E-02, 2.002E+02
 1.090E+03, 1.360E+02, 1.418E+02, 1.313E+02, 1.794E+02, 9.726E+01, 1.446E+02, 1.901E+02, 9.070E+01,-3.418E+02, 1.842E-01, 1.453E-02, 1.999E+02
 1.100E+03, 1.360E+02, 1.422E+02, 1.294E+02, 1.795E+02, 9.926E+01, 1.464E+02, 1.879E+02, 9.227E+01,-3.406E+02, 1.842E-01, 1.455E-02, 1.998E+02
 1.110E+03, 1.353E+02, 1.410E+02, 1.292E+02, 1.780E+02, 9.866E+01, 1.448E+02, 1.875E+02, 9.074E+01,-3.449E+02, 1.841E-01, 1.459E-02, 2.002E+02
 1.120E+03, 1.364E+02, 1.413E+02, 1.298E+02, 1.800E+02, 9.934E+01, 1.449E+02, 1.876E+02, 9.140E+01,-3.370E+02, 1.842E-01, 1.457E-02, 2.009E+02
 1.130E+03, 1.366E+02, 1.416E+02, 1.318E+02, 1.794E+02, 9.869E+01, 1.442E+02, 1.866E+02, 9.412E+01,-3.420E+02, 1.840E-01, 1.469E-02, 1.997E+02
 1.140E+03, 1.357E+02, 1.435E+02, 1.295E+02, 1.797E+02, 9.788E+01, 1.481E+02, 1.894E+02, 9.306E+01,-3.330E+02, 1.840E-01, 1.464E-02, 2.003E+02
 1.150E+03, 1.379E+02, 1.417E+02, 1.317E+02, 1.808E+02, 1.011E+02, 1.453E+02, 1.887E+02, 9.104E+01,-3.421E+02, 1.841E-01, 1.462E-02, 2.002E+02
 1.160E+03, 1.386E+02, 1.409E+02, 1.332E+02, 1.821E+02, 1.004E+02, 1.428E+02, 1.880E+02, 9.184E+01,-3.414E+02, 1.840E-01, 1.464E-02, 1.997E+02
 1.170E+03, 1.367E+02, 1.426E+02, 1.294E+02, 1.808E+02, 9.990E+01, 1.435E+02, 1.912E+02, 9.309E+01,-3.372E+02, 1.839E-01, 1.471E-02, 2.001E+02
 1.180E+03, 1.385E+02, 1.424E+02, 1.330E+02, 1.832E+02, 9.933E+01, 1.458E+02, 1.880E+02, 9.328E+01,-3.323E+02, 1.840E-01, 1.467E-02, 2.007E+02
 1.190E+03, 1.373E+02, 1.409E+02, 1.316E+02, 1.807E+02, 9.946E+01, 1.446E+02, 1.860E+02, 9.206E+01,-3.437E+02, 1.841E-01, 1.462E-02, 1.998E+02
 1.200E+03, 1.376E+02, 1.411E+02, 1.326E+02, 1.823E+02, 9.790E+01, 1.438E+02, 1.854E+02, 9.390E+01,-3.359E+02, 1.840E-01, 1.464E-02, 2.004E+02
 1.210E+03, 1.384E+02, 1.416E+02, 1.344E+02, 1.803E+02, 1.005E+02, 1.436E+02, 1.871E+02, 9.420E+01,-3.354E+02, 1.840E-01, 1.465E-02, 1.997E+02
 1.220E+03, 1.382E+02, 1.403E+02, 1.315E+02, 1.825E+02, 1.005E+02, 1.438E+02, 1.841E+02, 9.307E+01,-3.431E+02, 1.840E-01, 1.464E-02, 2.001E+02
 1.230E+03, 1.387E+02, 1.416E+02, 1.321E+02, 1.828E+02, 1.011E+02, 1.437E+02, 1.874E+02, 9.388E+01,-3.372E+02, 1.839E-01, 1.472E-02, 2.004E+02
 1.240E+03, 1.392E+02, 1.428E+02, 1.331E+02, 1.837E+02, 1.010E+02, 1.458E+02, 1.876E+02, 9.495E+01,-3.370E+02, 1.839E-01, 1.472E-02, 2.001E+02
 1.250E+03, 1.397E+02, 1.425E+02, 1.335E+02, 1.838E+02, 1.017E+02, 1.438E+02, 1.883E+02, 9.550E+01,-3.360E+02, 1.838E-01, 1.476E-02, 2.000E+02
 1.260E+03, 1.394E+02, 1.430E+02, 1.337E+02, 1.824E+02, 1.021E+02, 1.445E+02, 1.901E+02, 9.428E+01,-3.335E+02, 1.840E-01, 1.467E-02, 2.006E+02
 1.270E+03, 1.397E+02, 1.425E+02, 1.327E+02, 1.847E+02, 1.018E+02, 1.445E+02, 1.887E+02, 9.425E+01,-3.356E+02, 1.841E-01, 1.463E-02, 2.001E+02
 1.280E+03, 1.392E+02, 1.445E+02, 1.334E+02, 1.841E+02, 1.001E+02, 1.470E+02, 1.911E+02, 9.528E+01,-3.336E+02, 1.839E-01, 1.473E-02, 2.000E+02
 1.290E+03, 1.386E+02, 1.455E+02, 1.330E+02, 1.817E+02, 1.010E+02, 1.470E+02, 1.942E+02, 9.522E+01,-3.337E+02, 1.838E-01, 1.477E-02, 2.000E+02
 1.300E+03, 1.385E+02, 1.458E+02, 1.327E+02, 1.812E+02, 1.017E+02, 1.477E+02, 1.935E+02, 9.604E+01,-3.272E+02, 1.840E-01, 1.469E-02, 2.002E+02
 1.310E+03, 1.394E+02, 1.446E+02, 1.325E+02, 1.834E+02, 1.024E+02, 1.474E+02, 1.910E+02, 9.532E+01,-3.297E+02, 1.839E-01, 1.470E-02, 2.002E+02
