s,C,C,C,C,C,C,C,C,Pa,mol/mol,mol/mol,kW
Time,"West_All_TCs","East_All_TCs","West_Bottom_TCs","West_Middle_TCs","West_Upper_TCs","East_Bottom_TCs","East_Middle_TCs","East_Upper_TCs","Pressure","O2","CO2","HRR"
-6.000E+01, 2.100E+01, 2.100E+01, 2.100E+01, 2.100E+01, 2.100E+01, 2.100E+01, 2.100E+01, 2.100E+01,-9.768E-06, 2.095E-01, 3.901E-04, 0.000E+00
-4.998E+01, 2.100E+01, 2.100E+01, 2.100E+01, 2.100E+01, 2.100E+01, 2.100E+01, 2.100E+01, 2.100E+01,-7.076E-04, 2.095E-01, 3.901E-04, 0.000E+00
-3.996E+01, 2.100E+01, 2.100E+01, 2.100E+01, 2.100E+01, 2.100E+01, 2.100E+01, 2.100E+01, 2.100E+01,-3.345E-05, 2.095E-01, 3.901E-04, 0.000E+00
-2.994E+01, 2.100E+01, 2.100E+01, 2.100E+01, 2.100E+01, 2.100E+01, 2.100E+01, 2.100E+01, 2.100E+01,-3.016E-05, 2.095E-01, 3.901E-04, 0.000E+00
-1.992E+01, 2.100E+01, 2.100E+01, 2.100E+01, 2.100E+01, 2.100E+01, 2.100E+01, 2.100E+01, 2.100E+01,-3.188E-05, 2.095E-01, 3.901E-04, 0.000E+00
-9.896E+00, 2.100E+01, 2.100E+01, 2.100E+01, 2.100E+01, 2.100E+01, 2.100E+01, 2.100E+01, 2.100E+01,-3.398E-05, 2.095E-01, 3.901E-04, 0.000E+00
 1.301E-02, 2.100E+01, 2.100E+01, 2.100E+01, 2.100E+01, 2.100E+01, 2.100E+01, 2.100E+01, 2.100E+01,-3.370E-05, 2.095E-01, 3.901E-04, 2.637E-04
 1.000E+01, 2.262E+01, 2.292E+01, 2.176E+01, 2.129E+01, 2.480E+01, 2.225E+01, 2.138E+01, 2.513E+01, 3.213E+01, 2.092E-01, 5.684E-04, 4.931E+01
 2.001E+01, 2.869E+01, 2.913E+01, 2.360E+01, 2.636E+01, 3.610E+01, 2.525E+01, 2.554E+01, 3.660E+01, 1.903E+02, 2.079E-01, 1.283E-03, 1.490E+02
 3.001E+01, 4.230E+01, 4.345E+01, 2.619E+01, 4.298E+01, 5.771E+01, 2.892E+01, 4.088E+01, 6.054E+01, 4.585E+02, 2.055E-01, 2.629E-03, 2.494E+02
 4.001E+01, 6.223E+01, 6.324E+01, 3.454E+01, 6.784E+01, 8.433E+01, 3.806E+01, 6.596E+01, 8.569E+01, 6.068E+02, 2.031E-01, 3.994E-03, 3.011E+02
 5.000E+01, 8.250E+01, 8.296E+01, 5.102E+01, 9.086E+01, 1.056E+02, 5.288E+01, 8.952E+01, 1.065E+02, 4.849E+02, 2.010E-01, 5.186E-03, 3.004E+02
 6.000E+01, 1.000E+02, 1.021E+02, 6.780E+01, 1.076E+02, 1.248E+02, 6.962E+01, 1.081E+02, 1.285E+02, 3.596E+02, 1.980E-01, 6.820E-03, 3.011E+02
 7.001E+01, 1.159E+02, 1.189E+02, 8.454E+01, 1.242E+02, 1.390E+02, 8.796E+01, 1.254E+02, 1.432E+02, 2.516E+02, 1.959E-01, 8.035E-03, 3.005E+02
 8.001E+01, 1.330E+02, 1.336E+02, 1.005E+02, 1.425E+02, 1.561E+02, 1.025E+02, 1.414E+02, 1.570E+02, 1.708E+02, 1.938E-01, 9.181E-03, 3.001E+02
 9.001E+01, 1.423E+02, 1.445E+02, 1.119E+02, 1.509E+02, 1.643E+02, 1.127E+02, 1.512E+02, 1.696E+02, 1.116E+02, 1.914E-01, 1.051E-02, 3.002E+02
 1.000E+02, 1.517E+02, 1.512E+02, 1.197E+02, 1.617E+02, 1.737E+02, 1.194E+02, 1.567E+02, 1.775E+02, 7.354E+01, 1.888E-01, 1.197E-02, 3.008E+02
 1.100E+02, 1.575E+02, 1.609E+02, 1.295E+02, 1.661E+02, 1.771E+02, 1.297E+02, 1.664E+02, 1.867E+02, 5.001E+01, 1.867E-01, 1.315E-02, 3.004E+02
 1.200E+02, 1.619E+02, 1.653E+02, 1.325E+02, 1.692E+02, 1.840E+02, 1.373E+02, 1.691E+02, 1.894E+02, 3.755E+01, 1.840E-01, 1.466E-02, 3.010E+02
 1.300E+02, 1.690E+02, 1.683E+02, 1.404E+02, 1.762E+02, 1.904E+02, 1.404E+02, 1.718E+02, 1.928E+02, 2.841E+01, 1.820E-01, 1.578E-02, 3.001E+02
 1.400E+02, 1.715E+02, 1.746E+02, 1.432E+02, 1.758E+02, 1.955E+02, 1.464E+02, 1.818E+02, 1.957E+02, 2.209E+01, 1.794E-01, 1.724E-02, 3.010E+02
 1.500E+02, 1.743E+02, 1.741E+02, 1.458E+02, 1.789E+02, 1.984E+02, 1.464E+02, 1.773E+02, 1.988E+02, 2.115E+01, 1.770E-01, 1.855E-02, 3.003E+02
 1.600E+02, 1.769E+02, 1.742E+02, 1.507E+02, 1.836E+02, 1.964E+02, 1.478E+02, 1.789E+02, 1.961E+02, 2.053E+01, 1.753E-01, 1.955E-02, 3.003E+02
 1.700E+02, 1.775E+02, 1.740E+02, 1.474E+02, 1.860E+02, 1.990E+02, 1.461E+02, 1.788E+02, 1.972E+02, 1.779E+01, 1.728E-01, 2.092E-02, 2.988E+02
 1.800E+02, 1.783E+02, 1.764E+02, 1.500E+02, 1.861E+02, 1.987E+02, 1.499E+02, 1.831E+02, 1.962E+02, 1.842E+01, 1.707E-01, 2.211E-02, 2.995E+02
 1.900E+02, 1.783E+02, 1.757E+02, 1.513E+02, 1.822E+02, 2.014E+02, 1.509E+02, 1.795E+02, 1.969E+02, 1.806E+01, 1.674E-01, 2.391E-02, 3.007E+02
 2.000E+02, 1.809E+02, 1.800E+02, 1.519E+02, 1.873E+02, 2.036E+02, 1.567E+02, 1.866E+02, 1.967E+02, 1.704E+01, 1.653E-01, 2.511E-02, 2.982E+02
 2.100E+02, 1.786E+02, 1.785E+02, 1.494E+02, 1.832E+02, 2.033E+02, 1.564E+02, 1.840E+02, 1.951E+02, 1.716E+01, 1.619E-01, 2.700E-02, 2.995E+02
 2.200E+02, 1.808E+02, 1.799E+02, 1.529E+02, 1.860E+02, 2.034E+02, 1.557E+02, 1.868E+02, 1.971E+02, 1.800E+01, 1.601E-01, 2.804E-02, 3.002E+02
 2.300E+02, 1.808E+02, 1.806E+02, 1.546E+02, 1.854E+02, 2.026E+02, 1.577E+02, 1.868E+02, 1.973E+02, 1.752E+01, 1.573E-01, 2.956E-02, 2.993E+02
 2.400E+02, 1.782E+02, 1.821E+02, 1.512E+02, 1.822E+02, 2.012E+02, 1.619E+02, 1.862E+02, 1.982E+02, 1.762E+01, 1.547E-01, 3.102E-02, 2.992E+02
 2.500E+02, 1.799E+02, 1.815E+02, 1.505E+02, 1.835E+02, 2.058E+02, 1.617E+02, 1.844E+02, 1.983E+02, 1.845E+01, 1.517E-01, 3.270E-02, 2.982E+02
 2.600E+02, 1.807E+02, 1.809E+02, 1.505E+02, 1.831E+02, 2.084E+02, 1.634E+02, 1.854E+02, 1.940E+02, 1.729E+01, 1.497E-01, 3.384E-02, 2.988E+02
 2.700E+02, 1.805E+02, 1.824E+02, 1.512E+02, 1.835E+02, 2.068E+02, 1.637E+02, 1.851E+02, 1.984E+02, 1.686E+01, 1.470E-01, 3.535E-02, 2.989E+02
 2.800E+02, 1.816E+02, 1.837E+02, 1.501E+02, 1.842E+02, 2.106E+02, 1.628E+02, 1.884E+02, 1.997E+02, 1.849E+01, 1.444E-01, 3.681E-02, 3.000E+02
 2.900E+02, 1.799E+02, 1.841E+02, 1.490E+02, 1.842E+02, 2.064E+02, 1.620E+02, 1.866E+02, 2.038E+02, 1.859E+01, 1.406E-01, 3.894E-02, 2.976E+02
 3.000E+02, 1.791E+02, 1.846E+02, 1.495E+02, 1.834E+02, 2.044E+02, 1.633E+02, 1.880E+02, 2.025E+02, 1.765E+01, 1.384E-01, 4.013E-02, 2.991E+02
 3.100E+02, 1.808E+02, 1.822E+02, 1.537E+02, 1.851E+02, 2.037E+02, 1.571E+02, 1.832E+02, 2.062E+02, 1.733E+01, 1.359E-01, 4.153E-02, 2.973E+02
 3.200E+02, 1.813E+02, 1.833E+02, 1.563E+02, 1.861E+02, 2.015E+02, 1.547E+02, 1.868E+02, 2.085E+02, 1.657E+01, 1.326E-01, 4.338E-02, 2.937E+02
 3.300E+02, 1.816E+02, 1.847E+02, 1.609E+02, 1.843E+02, 1.995E+02, 1.580E+02, 1.881E+02, 2.081E+02, 1.345E+01, 1.310E-01, 4.429E-02, 2.884E+02
 3.400E+02, 1.830E+02, 1.888E+02, 1.598E+02, 1.912E+02, 1.979E+02, 1.565E+02, 1.919E+02, 2.182E+02, 1.624E+01, 1.275E-01, 4.624E-02, 2.895E+02
 3.500E+02, 1.797E+02, 1.860E+02, 1.634E+02, 1.879E+02, 1.878E+02, 1.572E+02, 1.924E+02, 2.083E+02,-1.375E+01, 1.265E-01, 4.672E-02, 2.361E+02
 3.600E+02, 1.768E+02, 1.981E+02, 1.653E+02, 1.793E+02, 1.857E+02, 1.487E+02, 2.172E+02, 2.283E+02,-1.833E+01, 1.247E-01, 4.766E-02, 2.239E+02
 3.700E+02, 1.700E+02, 1.882E+02, 1.604E+02, 1.724E+02, 1.774E+02, 1.516E+02, 1.936E+02, 2.195E+02, 1.623E+01, 1.245E-01, 4.772E-02, 2.402E+02
 3.800E+02, 1.708E+02, 1.810E+02, 1.618E+02, 1.702E+02, 1.804E+02, 1.529E+02, 1.853E+02, 2.049E+02,-5.192E+01, 1.241E-01, 4.793E-02, 1.911E+02
 3.900E+02, 1.686E+02, 1.675E+02, 1.484E+02, 1.732E+02, 1.841E+02, 1.499E+02, 1.678E+02, 1.850E+02, 1.702E+01, 1.242E-01, 4.781E-02, 2.296E+02
 4.000E+02, 1.671E+02, 1.704E+02, 1.466E+02, 1.719E+02, 1.829E+02, 1.513E+02, 1.752E+02, 1.848E+02, 7.503E+00, 1.227E-01, 4.869E-02, 2.155E+02
 4.100E+02, 1.659E+02, 1.769E+02, 1.457E+02, 1.709E+02, 1.810E+02, 1.502E+02, 1.761E+02, 2.043E+02, 1.356E+02, 1.200E-01, 5.011E-02, 2.383E+02
 4.200E+02, 1.623E+02, 1.668E+02, 1.407E+02, 1.685E+02, 1.777E+02, 1.472E+02, 1.685E+02, 1.848E+02,-5.842E+01, 1.212E-01, 4.938E-02, 1.508E+02
 4.300E+02, 1.607E+02, 1.682E+02, 1.430E+02, 1.658E+02, 1.733E+02, 1.502E+02, 1.677E+02, 1.867E+02, 5.459E+01, 1.213E-01, 4.923E-02, 1.886E+02
 4.400E+02, 1.540E+02, 1.769E+02, 1.405E+02, 1.591E+02, 1.625E+02, 1.910E+02, 1.660E+02, 1.736E+02,-4.067E+01, 1.217E-01, 4.895E-02, 5.841E+01
 4.500E+02, 1.494E+02, 1.780E+02, 1.417E+02, 1.517E+02, 1.547E+02, 1.906E+02, 1.757E+02, 1.677E+02,-6.720E+00, 1.233E-01, 4.797E-02, 1.556E+01
 4.600E+02, 1.469E+02, 1.465E+02, 1.397E+02, 1.485E+02, 1.524E+02, 1.364E+02, 1.468E+02, 1.564E+02,-1.713E+01, 1.242E-01, 4.756E-02, 0.000E+00
 4.700E+02, 1.391E+02, 1.392E+02, 1.288E+02, 1.431E+02, 1.453E+02, 1.283E+02, 1.406E+02, 1.488E+02,-1.429E+01, 1.255E-01, 4.688E-02, 0.000E+00
 4.800E+02, 1.341E+02, 1.431E+02, 1.254E+02, 1.380E+02, 1.390E+02, 1.528E+02, 1.348E+02, 1.416E+02,-2.123E+01, 1.258E-01, 4.660E-02, 0.000E+00
 4.900E+02, 1.270E+02, 1.287E+02, 1.185E+02, 1.301E+02, 1.324E+02, 1.153E+02, 1.328E+02, 1.382E+02,-1.551E+01, 1.261E-01, 4.607E-02, 1.157E-01
 5.000E+02, 1.223E+02, 1.225E+02, 1.161E+02, 1.240E+02, 1.268E+02, 1.157E+02, 1.223E+02, 1.295E+02,-6.402E+00, 1.268E-01, 4.557E-02, 1.874E+00
 5.100E+02, 1.181E+02, 1.151E+02, 1.114E+02, 1.206E+02, 1.223E+02, 1.029E+02, 1.165E+02, 1.259E+02,-5.988E+00, 1.269E-01, 4.552E-02, 7.719E-01
 5.200E+02, 1.146E+02, 1.254E+02, 1.072E+02, 1.166E+02, 1.199E+02, 1.304E+02, 1.222E+02, 1.237E+02,-6.263E+00, 1.264E-01, 4.568E-02, 0.000E+00
 5.300E+02, 1.100E+02, 1.130E+02, 1.017E+02, 1.132E+02, 1.152E+02, 1.063E+02, 1.127E+02, 1.201E+02,-9.498E-01, 1.272E-01, 4.525E-02, 0.000E+00
 5.400E+02, 1.096E+02, 1.069E+02, 1.049E+02, 1.108E+02, 1.130E+02, 9.552E+01, 1.088E+02, 1.164E+02,-2.366E+00, 1.267E-01, 4.529E-02, 0.000E+00
 5.500E+02, 1.068E+02, 1.041E+02, 1.006E+02, 1.088E+02, 1.111E+02, 9.401E+01, 1.044E+02, 1.140E+02, 7.994E-01, 1.270E-01, 4.516E-02, 0.000E+00
 5.600E+02, 1.029E+02, 1.015E+02, 9.543E+01, 1.055E+02, 1.079E+02, 9.271E+01, 1.021E+02, 1.096E+02, 3.930E+00, 1.270E-01, 4.505E-02, 0.000E+00
 5.700E+02, 1.025E+02, 9.978E+01, 9.689E+01, 1.044E+02, 1.061E+02, 9.095E+01, 1.009E+02, 1.075E+02, 3.272E+00, 1.265E-01, 4.492E-02, 0.000E+00
 5.800E+02, 9.971E+01, 1.004E+02, 9.537E+01, 1.012E+02, 1.025E+02, 9.393E+01, 1.007E+02, 1.066E+02, 4.523E+00, 1.268E-01, 4.485E-02, 0.000E+00
 5.900E+02, 9.747E+01, 9.577E+01, 9.257E+01, 9.910E+01, 1.007E+02, 8.638E+01, 9.800E+01, 1.029E+02, 4.021E+00, 1.264E-01, 4.472E-02, 0.000E+00
 6.000E+02, 9.606E+01, 9.509E+01, 9.211E+01, 9.671E+01, 9.936E+01, 8.722E+01, 9.699E+01, 1.011E+02, 4.361E+00, 1.263E-01, 4.472E-02, 0.000E+00
