s,C,C,C,C,C,C,C,C,Pa,mol/mol,mol/mol,kW
Time,"West_All_TCs","East_All_TCs","West_Bottom_TCs","West_Middle_TCs","West_Upper_TCs","East_Bottom_TCs","East_Middle_TCs","East_Upper_TCs","Pressure","O2","CO2","HRR"
-6.000E+01, 2.800E+01, 2.800E+01, 2.800E+01, 2.800E+01, 2.800E+01, 2.800E+01, 2.800E+01, 2.800E+01,-9.522E-06, 2.095E-01, 3.901E-04, 0.000E+00
-4.998E+01, 2.797E+01, 2.797E+01, 2.797E+01, 2.796E+01, 2.797E+01, 2.797E+01, 2.796E+01, 2.797E+01,-6.292E+01, 2.095E-01, 3.901E-04, 0.000E+00
-3.996E+01, 2.795E+01, 2.796E+01, 2.795E+01, 2.795E+01, 2.794E+01, 2.797E+01, 2.795E+01, 2.796E+01,-6.315E+01, 2.095E-01, 3.901E-04, 0.000E+00
-2.999E+01, 2.795E+01, 2.796E+01, 2.795E+01, 2.794E+01, 2.794E+01, 2.798E+01, 2.795E+01, 2.795E+01,-6.323E+01, 2.095E-01, 3.901E-04, 0.000E+00
-1.994E+01, 2.794E+01, 2.796E+01, 2.795E+01, 2.794E+01, 2.794E+01, 2.799E+01, 2.795E+01, 2.795E+01,-6.325E+01, 2.095E-01, 3.901E-04, 0.000E+00
-9.951E+00, 2.794E+01, 2.797E+01, 2.795E+01, 2.794E+01, 2.794E+01, 2.799E+01, 2.796E+01, 2.795E+01,-6.325E+01, 2.095E-01, 3.901E-04, 0.000E+00
 4.717E-02, 2.794E+01, 2.797E+01, 2.795E+01, 2.794E+01, 2.794E+01, 2.799E+01, 2.796E+01, 2.795E+01,-6.327E+01, 2.095E-01, 3.901E-04, 6.858E-04
 1.001E+01, 2.895E+01, 2.942E+01, 2.844E+01, 3.044E+01, 2.797E+01, 2.886E+01, 3.143E+01, 2.798E+01,-2.682E+01, 2.095E-01, 3.901E-04, 3.275E+01
 2.002E+01, 3.354E+01, 3.440E+01, 3.065E+01, 4.182E+01, 2.816E+01, 3.125E+01, 4.399E+01, 2.797E+01, 5.737E+00, 2.095E-01, 3.901E-04, 9.932E+01
 3.001E+01, 4.207E+01, 4.339E+01, 3.344E+01, 6.338E+01, 2.939E+01, 3.561E+01, 6.664E+01, 2.791E+01, 4.286E+01, 2.095E-01, 3.901E-04, 1.658E+02
 4.001E+01, 5.468E+01, 5.433E+01, 4.078E+01, 9.310E+01, 3.017E+01, 4.272E+01, 9.199E+01, 2.828E+01, 5.499E+01, 2.095E-01, 4.350E-04, 2.002E+02
 5.001E+01, 6.535E+01, 6.583E+01, 4.965E+01, 1.135E+02, 3.291E+01, 5.177E+01, 1.138E+02, 3.192E+01, 2.861E+01, 2.089E-01, 7.781E-04, 2.005E+02
 6.002E+01, 7.443E+01, 7.705E+01, 6.084E+01, 1.286E+02, 3.383E+01, 6.261E+01, 1.343E+02, 3.426E+01, 1.612E+01, 2.085E-01, 1.002E-03, 1.999E+02
 7.001E+01, 8.330E+01, 8.575E+01, 7.269E+01, 1.405E+02, 3.670E+01, 7.487E+01, 1.455E+02, 3.687E+01, 9.750E+00, 2.080E-01, 1.273E-03, 2.001E+02
 8.002E+01, 9.132E+01, 9.380E+01, 8.235E+01, 1.523E+02, 3.933E+01, 8.444E+01, 1.572E+02, 3.974E+01,-2.240E+00, 2.074E-01, 1.614E-03, 2.003E+02
 9.001E+01, 9.709E+01, 9.904E+01, 9.103E+01, 1.592E+02, 4.100E+01, 9.280E+01, 1.631E+02, 4.127E+01,-6.765E+00, 2.069E-01, 1.841E-03, 1.998E+02
 1.000E+02, 1.013E+02, 1.045E+02, 9.824E+01, 1.628E+02, 4.294E+01, 1.009E+02, 1.682E+02, 4.425E+01,-1.231E+01, 2.063E-01, 2.186E-03, 2.001E+02
 1.100E+02, 1.045E+02, 1.084E+02, 1.045E+02, 1.647E+02, 4.431E+01, 1.064E+02, 1.734E+02, 4.524E+01,-1.908E+01, 2.062E-01, 2.280E-03, 2.003E+02
 1.200E+02, 1.083E+02, 1.113E+02, 1.088E+02, 1.701E+02, 4.592E+01, 1.109E+02, 1.773E+02, 4.571E+01,-2.323E+01, 2.057E-01, 2.557E-03, 2.000E+02
 1.300E+02, 1.115E+02, 1.143E+02, 1.116E+02, 1.749E+02, 4.797E+01, 1.193E+02, 1.760E+02, 4.766E+01,-2.849E+01, 2.048E-01, 3.054E-03, 2.000E+02
 1.400E+02, 1.132E+02, 1.158E+02, 1.158E+02, 1.744E+02, 4.944E+01, 1.192E+02, 1.782E+02, 5.001E+01,-3.746E+01, 2.043E-01, 3.323E-03, 2.002E+02
 1.500E+02, 1.148E+02, 1.170E+02, 1.171E+02, 1.774E+02, 4.987E+01, 1.213E+02, 1.795E+02, 5.014E+01,-4.050E+01, 2.039E-01, 3.521E-03, 2.000E+02
 1.600E+02, 1.164E+02, 1.178E+02, 1.193E+02, 1.788E+02, 5.118E+01, 1.210E+02, 1.813E+02, 5.105E+01,-4.095E+01, 2.030E-01, 4.055E-03, 1.999E+02
 1.700E+02, 1.181E+02, 1.193E+02, 1.211E+02, 1.819E+02, 5.135E+01, 1.235E+02, 1.832E+02, 5.122E+01,-4.103E+01, 2.027E-01, 4.235E-03, 2.001E+02
 1.800E+02, 1.195E+02, 1.205E+02, 1.217E+02, 1.840E+02, 5.274E+01, 1.243E+02, 1.849E+02, 5.224E+01,-4.442E+01, 2.017E-01, 4.748E-03, 2.000E+02
 1.900E+02, 1.202E+02, 1.213E+02, 1.229E+02, 1.840E+02, 5.358E+01, 1.248E+02, 1.858E+02, 5.329E+01,-4.629E+01, 2.011E-01, 5.112E-03, 1.998E+02
 2.000E+02, 1.209E+02, 1.225E+02, 1.232E+02, 1.852E+02, 5.427E+01, 1.275E+02, 1.860E+02, 5.409E+01,-4.350E+01, 2.001E-01, 5.658E-03, 2.004E+02
 2.100E+02, 1.225E+02, 1.232E+02, 1.264E+02, 1.868E+02, 5.434E+01, 1.288E+02, 1.862E+02, 5.456E+01,-4.891E+01, 1.993E-01, 6.129E-03, 2.005E+02
 2.200E+02, 1.215E+02, 1.247E+02, 1.279E+02, 1.827E+02, 5.391E+01, 1.302E+02, 1.884E+02, 5.544E+01,-4.937E+01, 1.987E-01, 6.472E-03, 1.998E+02
 2.300E+02, 1.224E+02, 1.249E+02, 1.284E+02, 1.836E+02, 5.508E+01, 1.313E+02, 1.884E+02, 5.485E+01,-4.642E+01, 1.982E-01, 6.716E-03, 2.005E+02
 2.400E+02, 1.229E+02, 1.267E+02, 1.298E+02, 1.834E+02, 5.561E+01, 1.328E+02, 1.913E+02, 5.604E+01,-4.926E+01, 1.971E-01, 7.362E-03, 2.001E+02
 2.500E+02, 1.233E+02, 1.283E+02, 1.315E+02, 1.836E+02, 5.490E+01, 1.335E+02, 1.955E+02, 5.588E+01,-4.835E+01, 1.966E-01, 7.626E-03, 1.998E+02
 2.600E+02, 1.230E+02, 1.296E+02, 1.315E+02, 1.824E+02, 5.503E+01, 1.383E+02, 1.938E+02, 5.663E+01,-4.670E+01, 1.959E-01, 8.035E-03, 2.001E+02
 2.700E+02, 1.235E+02, 1.288E+02, 1.314E+02, 1.834E+02, 5.575E+01, 1.380E+02, 1.921E+02, 5.623E+01,-4.907E+01, 1.950E-01, 8.529E-03, 2.000E+02
 2.800E+02, 1.244E+02, 1.284E+02, 1.328E+02, 1.845E+02, 5.600E+01, 1.384E+02, 1.898E+02, 5.704E+01,-5.056E+01, 1.940E-01, 9.103E-03, 2.002E+02
 2.900E+02, 1.270E+02, 1.279E+02, 1.341E+02, 1.893E+02, 5.758E+01, 1.342E+02, 1.936E+02, 5.593E+01,-5.641E+01, 1.935E-01, 9.362E-03, 2.000E+02
 3.000E+02, 1.270E+02, 1.289E+02, 1.340E+02, 1.895E+02, 5.751E+01, 1.371E+02, 1.929E+02, 5.658E+01,-5.245E+01, 1.922E-01, 1.008E-02, 2.004E+02
 3.100E+02, 1.275E+02, 1.291E+02, 1.344E+02, 1.909E+02, 5.729E+01, 1.359E+02, 1.935E+02, 5.787E+01,-5.319E+01, 1.918E-01, 1.033E-02, 1.999E+02
 3.200E+02, 1.264E+02, 1.303E+02, 1.333E+02, 1.895E+02, 5.650E+01, 1.365E+02, 1.972E+02, 5.733E+01,-5.045E+01, 1.911E-01, 1.068E-02, 2.007E+02
 3.300E+02, 1.270E+02, 1.298E+02, 1.355E+02, 1.888E+02, 5.685E+01, 1.353E+02, 1.966E+02, 5.755E+01,-4.851E+01, 1.902E-01, 1.121E-02, 2.000E+02
 3.400E+02, 1.276E+02, 1.319E+02, 1.349E+02, 1.899E+02, 5.799E+01, 1.402E+02, 1.973E+02, 5.822E+01,-4.995E+01, 1.892E-01, 1.174E-02, 2.001E+02
 3.500E+02, 1.277E+02, 1.319E+02, 1.362E+02, 1.895E+02, 5.748E+01, 1.383E+02, 1.992E+02, 5.811E+01,-4.933E+01, 1.885E-01, 1.213E-02, 2.000E+02
 3.600E+02, 1.283E+02, 1.327E+02, 1.372E+02, 1.894E+02, 5.840E+01, 1.409E+02, 1.997E+02, 5.747E+01,-4.981E+01, 1.879E-01, 1.249E-02, 2.000E+02
 3.700E+02, 1.294E+02, 1.333E+02, 1.376E+02, 1.919E+02, 5.876E+01, 1.388E+02, 2.017E+02, 5.930E+01,-4.854E+01, 1.866E-01, 1.319E-02, 2.002E+02
 3.800E+02, 1.303E+02, 1.332E+02, 1.377E+02, 1.935E+02, 5.958E+01, 1.391E+02, 2.000E+02, 6.038E+01,-5.187E+01, 1.854E-01, 1.387E-02, 1.999E+02
 3.900E+02, 1.304E+02, 1.344E+02, 1.385E+02, 1.935E+02, 5.932E+01, 1.398E+02, 2.046E+02, 5.891E+01,-5.372E+01, 1.848E-01, 1.424E-02, 2.004E+02
 4.000E+02, 1.306E+02, 1.341E+02, 1.392E+02, 1.937E+02, 5.882E+01, 1.413E+02, 2.023E+02, 5.866E+01,-4.615E+01, 1.840E-01, 1.467E-02, 1.998E+02
 4.100E+02, 1.303E+02, 1.349E+02, 1.384E+02, 1.929E+02, 5.969E+01, 1.430E+02, 2.030E+02, 5.860E+01,-5.179E+01, 1.832E-01, 1.513E-02, 1.999E+02
 4.200E+02, 1.311E+02, 1.351E+02, 1.389E+02, 1.945E+02, 5.998E+01, 1.427E+02, 2.028E+02, 5.962E+01,-4.999E+01, 1.821E-01, 1.570E-02, 2.006E+02
 4.300E+02, 1.321E+02, 1.368E+02, 1.404E+02, 1.960E+02, 5.975E+01, 1.415E+02, 2.087E+02, 6.022E+01,-4.935E+01, 1.811E-01, 1.627E-02, 1.999E+02
 4.400E+02, 1.316E+02, 1.351E+02, 1.402E+02, 1.952E+02, 5.925E+01, 1.428E+02, 2.035E+02, 5.908E+01,-5.375E+01, 1.805E-01, 1.661E-02, 2.003E+02
 4.500E+02, 1.323E+02, 1.348E+02, 1.401E+02, 1.961E+02, 6.056E+01, 1.421E+02, 2.042E+02, 5.820E+01,-5.288E+01, 1.804E-01, 1.669E-02, 1.999E+02
 4.600E+02, 1.337E+02, 1.351E+02, 1.405E+02, 2.003E+02, 6.024E+01, 1.429E+02, 2.020E+02, 6.042E+01,-5.500E+01, 1.787E-01, 1.761E-02, 2.002E+02
 4.700E+02, 1.331E+02, 1.369E+02, 1.407E+02, 1.982E+02, 6.051E+01, 1.444E+02, 2.056E+02, 6.083E+01,-5.310E+01, 1.785E-01, 1.775E-02, 2.002E+02
 4.800E+02, 1.323E+02, 1.378E+02, 1.403E+02, 1.966E+02, 5.988E+01, 1.448E+02, 2.093E+02, 5.926E+01,-4.810E+01, 1.775E-01, 1.827E-02, 1.998E+02
 4.900E+02, 1.335E+02, 1.369E+02, 1.406E+02, 1.996E+02, 6.032E+01, 1.464E+02, 2.054E+02, 5.902E+01,-4.980E+01, 1.770E-01, 1.860E-02, 1.998E+02
 5.000E+02, 1.330E+02, 1.383E+02, 1.410E+02, 1.973E+02, 6.065E+01, 1.455E+02, 2.094E+02, 6.011E+01,-4.648E+01, 1.760E-01, 1.911E-02, 2.002E+02
 5.100E+02, 1.351E+02, 1.383E+02, 1.427E+02, 2.009E+02, 6.154E+01, 1.432E+02, 2.103E+02, 6.139E+01,-5.064E+01, 1.751E-01, 1.963E-02, 2.003E+02
 5.200E+02, 1.348E+02, 1.391E+02, 1.423E+02, 2.000E+02, 6.209E+01, 1.453E+02, 2.110E+02, 6.085E+01,-5.301E+01, 1.743E-01, 2.008E-02, 1.999E+02
 5.300E+02, 1.360E+02, 1.393E+02, 1.434E+02, 2.027E+02, 6.197E+01, 1.489E+02, 2.082E+02, 6.062E+01,-4.605E+01, 1.736E-01, 2.045E-02, 1.999E+02
 5.400E+02, 1.373E+02, 1.381E+02, 1.456E+02, 2.036E+02, 6.290E+01, 1.429E+02, 2.095E+02, 6.197E+01,-5.171E+01, 1.725E-01, 2.111E-02, 1.999E+02
 5.500E+02, 1.364E+02, 1.403E+02, 1.437E+02, 2.031E+02, 6.252E+01, 1.486E+02, 2.100E+02, 6.248E+01,-5.436E+01, 1.720E-01, 2.134E-02, 2.001E+02
 5.600E+02, 1.365E+02, 1.386E+02, 1.439E+02, 2.038E+02, 6.191E+01, 1.454E+02, 2.092E+02, 6.119E+01,-5.635E+01, 1.716E-01, 2.158E-02, 1.999E+02
 5.700E+02, 1.365E+02, 1.408E+02, 1.438E+02, 2.029E+02, 6.264E+01, 1.483E+02, 2.135E+02, 6.071E+01,-4.980E+01, 1.710E-01, 2.195E-02, 2.002E+02
 5.800E+02, 1.361E+02, 1.390E+02, 1.451E+02, 2.013E+02, 6.187E+01, 1.457E+02, 2.096E+02, 6.160E+01,-5.290E+01, 1.698E-01, 2.262E-02, 1.996E+02
 5.900E+02, 1.356E+02, 1.396E+02, 1.446E+02, 2.004E+02, 6.172E+01, 1.472E+02, 2.097E+02, 6.185E+01,-5.306E+01, 1.690E-01, 2.303E-02, 2.000E+02
 6.000E+02, 1.371E+02, 1.391E+02, 1.454E+02, 2.036E+02, 6.225E+01, 1.473E+02, 2.085E+02, 6.138E+01,-5.017E+01, 1.683E-01, 2.342E-02, 2.003E+02
 6.100E+02, 1.380E+02, 1.410E+02, 1.458E+02, 2.061E+02, 6.229E+01, 1.464E+02, 2.146E+02, 6.198E+01,-5.350E+01, 1.680E-01, 2.361E-02, 2.003E+02
 6.200E+02, 1.373E+02, 1.409E+02, 1.459E+02, 2.038E+02, 6.227E+01, 1.484E+02, 2.124E+02, 6.199E+01,-4.859E+01, 1.675E-01, 2.389E-02, 1.999E+02
 6.300E+02, 1.369E+02, 1.434E+02, 1.453E+02, 2.027E+02, 6.275E+01, 1.498E+02, 2.180E+02, 6.243E+01,-4.859E+01, 1.667E-01, 2.435E-02, 2.002E+02
 6.400E+02, 1.387E+02, 1.409E+02, 1.473E+02, 2.043E+02, 6.459E+01, 1.488E+02, 2.122E+02, 6.174E+01,-4.732E+01, 1.663E-01, 2.456E-02, 1.998E+02
 6.500E+02, 1.388E+02, 1.423E+02, 1.471E+02, 2.043E+02, 6.495E+01, 1.516E+02, 2.117E+02, 6.368E+01,-4.958E+01, 1.651E-01, 2.522E-02, 1.999E+02
 6.600E+02, 1.392E+02, 1.424E+02, 1.479E+02, 2.045E+02, 6.528E+01, 1.494E+02, 2.132E+02, 6.455E+01,-4.905E+01, 1.644E-01, 2.561E-02, 2.003E+02
 6.700E+02, 1.399E+02, 1.430E+02, 1.474E+02, 2.076E+02, 6.476E+01, 1.491E+02, 2.150E+02, 6.497E+01,-5.065E+01, 1.633E-01, 2.624E-02, 2.005E+02
 6.800E+02, 1.409E+02, 1.434E+02, 1.484E+02, 2.096E+02, 6.477E+01, 1.497E+02, 2.156E+02, 6.479E+01,-4.985E+01, 1.625E-01, 2.666E-02, 1.998E+02
 6.900E+02, 1.405E+02, 1.465E+02, 1.480E+02, 2.070E+02, 6.638E+01, 1.529E+02, 2.214E+02, 6.518E+01,-5.042E+01, 1.616E-01, 2.715E-02, 2.003E+02
 7.000E+02, 1.397E+02, 1.469E+02, 1.488E+02, 2.038E+02, 6.640E+01, 1.552E+02, 2.196E+02, 6.589E+01,-5.111E+01, 1.612E-01, 2.738E-02, 1.998E+02
 7.100E+02, 1.409E+02, 1.456E+02, 1.492E+02, 2.072E+02, 6.626E+01, 1.551E+02, 2.167E+02, 6.499E+01,-4.567E+01, 1.605E-01, 2.780E-02, 2.003E+02
 7.200E+02, 1.417E+02, 1.452E+02, 1.494E+02, 2.081E+02, 6.768E+01, 1.523E+02, 2.170E+02, 6.634E+01,-5.296E+01, 1.599E-01, 2.816E-02, 1.995E+02
 7.300E+02, 1.415E+02, 1.449E+02, 1.490E+02, 2.085E+02, 6.690E+01, 1.545E+02, 2.133E+02, 6.691E+01,-5.517E+01, 1.593E-01, 2.849E-02, 2.003E+02
 7.400E+02, 1.428E+02, 1.451E+02, 1.521E+02, 2.090E+02, 6.738E+01, 1.526E+02, 2.176E+02, 6.525E+01,-4.864E+01, 1.589E-01, 2.866E-02, 2.000E+02
 7.500E+02, 1.429E+02, 1.470E+02, 1.512E+02, 2.098E+02, 6.772E+01, 1.553E+02, 2.188E+02, 6.690E+01,-5.017E+01, 1.581E-01, 2.914E-02, 2.001E+02
 7.600E+02, 1.416E+02, 1.455E+02, 1.502E+02, 2.089E+02, 6.586E+01, 1.520E+02, 2.184E+02, 6.621E+01,-5.782E+01, 1.578E-01, 2.931E-02, 1.990E+02
 7.700E+02, 1.409E+02, 1.461E+02, 1.503E+02, 2.058E+02, 6.659E+01, 1.564E+02, 2.166E+02, 6.535E+01,-4.991E+01, 1.574E-01, 2.955E-02, 2.002E+02
 7.800E+02, 1.431E+02, 1.465E+02, 1.504E+02, 2.115E+02, 6.729E+01, 1.563E+02, 2.170E+02, 6.616E+01,-5.077E+01, 1.567E-01, 2.989E-02, 1.993E+02
 7.900E+02, 1.427E+02, 1.458E+02, 1.511E+02, 2.098E+02, 6.721E+01, 1.545E+02, 2.161E+02, 6.679E+01,-5.002E+01, 1.562E-01, 3.022E-02, 2.003E+02
 8.000E+02, 1.446E+02, 1.464E+02, 1.524E+02, 2.128E+02, 6.869E+01, 1.564E+02, 2.161E+02, 6.675E+01,-5.502E+01, 1.559E-01, 3.037E-02, 1.998E+02
 8.100E+02, 1.438E+02, 1.476E+02, 1.521E+02, 2.106E+02, 6.876E+01, 1.550E+02, 2.211E+02, 6.682E+01,-5.219E+01, 1.551E-01, 3.080E-02, 2.003E+02
 8.200E+02, 1.439E+02, 1.483E+02, 1.535E+02, 2.097E+02, 6.842E+01, 1.568E+02, 2.212E+02, 6.695E+01,-4.310E+01, 1.545E-01, 3.114E-02, 2.002E+02
 8.300E+02, 1.437E+02, 1.488E+02, 1.531E+02, 2.096E+02, 6.853E+01, 1.583E+02, 2.188E+02, 6.938E+01,-4.516E+01, 1.539E-01, 3.150E-02, 1.992E+02
 8.400E+02, 1.442E+02, 1.503E+02, 1.521E+02, 2.111E+02, 6.946E+01, 1.605E+02, 2.205E+02, 6.987E+01,-4.756E+01, 1.533E-01, 3.182E-02, 1.991E+02
 8.500E+02, 1.453E+02, 1.489E+02, 1.535E+02, 2.117E+02, 7.063E+01, 1.559E+02, 2.221E+02, 6.871E+01,-5.535E+01, 1.529E-01, 3.204E-02, 1.994E+02
 8.600E+02, 1.457E+02, 1.473E+02, 1.531E+02, 2.139E+02, 7.016E+01, 1.543E+02, 2.185E+02, 6.899E+01,-5.358E+01, 1.524E-01, 3.233E-02, 1.997E+02
 8.700E+02, 1.466E+02, 1.498E+02, 1.548E+02, 2.150E+02, 7.008E+01, 1.615E+02, 2.183E+02, 6.964E+01,-4.808E+01, 1.516E-01, 3.276E-02, 2.001E+02
 8.800E+02, 1.475E+02, 1.499E+02, 1.564E+02, 2.151E+02, 7.084E+01, 1.555E+02, 2.236E+02, 7.070E+01,-4.946E+01, 1.511E-01, 3.304E-02, 2.001E+02
 8.900E+02, 1.474E+02, 1.508E+02, 1.552E+02, 2.162E+02, 7.068E+01, 1.571E+02, 2.252E+02, 7.011E+01,-5.047E+01, 1.509E-01, 3.315E-02, 1.997E+02
 9.000E+02, 1.464E+02, 1.514E+02, 1.554E+02, 2.135E+02, 7.039E+01, 1.587E+02, 2.252E+02, 7.027E+01,-4.935E+01, 1.505E-01, 3.339E-02, 1.979E+02
 9.100E+02, 1.461E+02, 1.525E+02, 1.545E+02, 2.122E+02, 7.157E+01, 1.619E+02, 2.240E+02, 7.151E+01,-5.512E+01, 1.499E-01, 3.374E-02, 1.978E+02
 9.200E+02, 1.462E+02, 1.513E+02, 1.546E+02, 2.121E+02, 7.202E+01, 1.646E+02, 2.190E+02, 7.026E+01,-4.725E+01, 1.497E-01, 3.385E-02, 1.998E+02
 9.300E+02, 1.476E+02, 1.493E+02, 1.549E+02, 2.150E+02, 7.300E+01, 1.582E+02, 2.202E+02, 6.965E+01,-5.124E+01, 1.493E-01, 3.406E-02, 2.002E+02
 9.400E+02, 1.482E+02, 1.495E+02, 1.564E+02, 2.147E+02, 7.355E+01, 1.577E+02, 2.206E+02, 7.017E+01,-5.051E+01, 1.487E-01, 3.440E-02, 1.998E+02
 9.500E+02, 1.487E+02, 1.511E+02, 1.557E+02, 2.170E+02, 7.324E+01, 1.597E+02, 2.224E+02, 7.119E+01,-5.153E+01, 1.482E-01, 3.469E-02, 2.002E+02
 9.600E+02, 1.497E+02, 1.523E+02, 1.560E+02, 2.206E+02, 7.253E+01, 1.583E+02, 2.264E+02, 7.237E+01,-5.146E+01, 1.477E-01, 3.493E-02, 1.995E+02
 9.700E+02, 1.480E+02, 1.518E+02, 1.559E+02, 2.155E+02, 7.259E+01, 1.621E+02, 2.213E+02, 7.194E+01,-5.645E+01, 1.475E-01, 3.505E-02, 1.941E+02
 9.800E+02, 1.487E+02, 1.529E+02, 1.572E+02, 2.148E+02, 7.403E+01, 1.598E+02, 2.256E+02, 7.335E+01,-4.517E+01, 1.468E-01, 3.545E-02, 2.024E+02
 9.900E+02, 1.479E+02, 1.547E+02, 1.552E+02, 2.147E+02, 7.396E+01, 1.643E+02, 2.274E+02, 7.255E+01,-5.070E+01, 1.465E-01, 3.563E-02, 1.993E+02
 1.000E+03, 1.504E+02, 1.509E+02, 1.581E+02, 2.176E+02, 7.541E+01, 1.619E+02, 2.188E+02, 7.185E+01,-5.388E+01, 1.463E-01, 3.572E-02, 2.007E+02
 1.010E+03, 1.508E+02, 1.534E+02, 1.587E+02, 2.187E+02, 7.509E+01, 1.639E+02, 2.238E+02, 7.266E+01,-5.188E+01, 1.458E-01, 3.600E-02, 2.000E+02
 1.020E+03, 1.515E+02, 1.512E+02, 1.609E+02, 2.191E+02, 7.457E+01, 1.586E+02, 2.223E+02, 7.270E+01,-5.317E+01, 1.457E-01, 3.607E-02, 2.001E+02
 1.030E+03, 1.513E+02, 1.542E+02, 1.581E+02, 2.224E+02, 7.350E+01, 1.625E+02, 2.272E+02, 7.272E+01,-5.498E+01, 1.454E-01, 3.625E-02, 1.997E+02
 1.040E+03, 1.503E+02, 1.542E+02, 1.592E+02, 2.186E+02, 7.301E+01, 1.610E+02, 2.282E+02, 7.333E+01,-5.358E+01, 1.448E-01, 3.658E-02, 1.990E+02
 1.050E+03, 1.510E+02, 1.537E+02, 1.597E+02, 2.195E+02, 7.378E+01, 1.599E+02, 2.283E+02, 7.287E+01,-4.827E+01, 1.447E-01, 3.660E-02, 2.003E+02
 1.060E+03, 1.510E+02, 1.558E+02, 1.596E+02, 2.189E+02, 7.453E+01, 1.640E+02, 2.301E+02, 7.343E+01,-4.698E+01, 1.445E-01, 3.673E-02, 1.989E+02
 1.070E+03, 1.519E+02, 1.554E+02, 1.598E+02, 2.204E+02, 7.549E+01, 1.625E+02, 2.292E+02, 7.452E+01,-5.073E+01, 1.442E-01, 3.691E-02, 1.997E+02
 1.080E+03, 1.512E+02, 1.547E+02, 1.592E+02, 2.191E+02, 7.518E+01, 1.633E+02, 2.260E+02, 7.484E+01,-5.912E+01, 1.440E-01, 3.704E-02, 1.995E+02
 1.090E+03, 1.523E+02, 1.545E+02, 1.597E+02, 2.220E+02, 7.509E+01, 1.625E+02, 2.267E+02, 7.428E+01,-4.824E+01, 1.437E-01, 3.716E-02, 1.999E+02
 1.100E+03, 1.515E+02, 1.543E+02, 1.598E+02, 2.192E+02, 7.539E+01, 1.623E+02, 2.275E+02, 7.293E+01,-4.901E+01, 1.436E-01, 3.722E-02, 2.004E+02
 1.110E+03, 1.546E+02, 1.566E+02, 1.612E+02, 2.254E+02, 7.697E+01, 1.640E+02, 2.311E+02, 7.467E+01,-5.204E+01, 1.434E-01, 3.738E-02, 1.994E+02
 1.120E+03, 1.540E+02, 1.571E+02, 1.613E+02, 2.248E+02, 7.599E+01, 1.641E+02, 2.317E+02, 7.534E+01,-5.199E+01, 1.431E-01, 3.751E-02, 1.998E+02
 1.130E+03, 1.534E+02, 1.574E+02, 1.612E+02, 2.222E+02, 7.698E+01, 1.618E+02, 2.360E+02, 7.433E+01,-5.279E+01, 1.430E-01, 3.757E-02, 1.998E+02
 1.140E+03, 1.523E+02, 1.557E+02, 1.606E+02, 2.200E+02, 7.635E+01, 1.621E+02, 2.312E+02, 7.378E+01,-5.653E+01, 1.428E-01, 3.770E-02, 1.996E+02
 1.150E+03, 1.522E+02, 1.550E+02, 1.606E+02, 2.199E+02, 7.622E+01, 1.614E+02, 2.290E+02, 7.450E+01,-4.816E+01, 1.426E-01, 3.778E-02, 1.996E+02
 1.160E+03, 1.531E+02, 1.558E+02, 1.608E+02, 2.214E+02, 7.719E+01, 1.628E+02, 2.292E+02, 7.535E+01,-5.303E+01, 1.424E-01, 3.790E-02, 2.002E+02
 1.170E+03, 1.546E+02, 1.554E+02, 1.601E+02, 2.262E+02, 7.739E+01, 1.638E+02, 2.285E+02, 7.398E+01,-4.863E+01, 1.424E-01, 3.791E-02, 2.005E+02
 1.180E+03, 1.554E+02, 1.573E+02, 1.611E+02, 2.267E+02, 7.841E+01, 1.653E+02, 2.308E+02, 7.570E+01,-5.298E+01, 1.422E-01, 3.805E-02, 1.993E+02
 1.190E+03, 1.538E+02, 1.587E+02, 1.614E+02, 2.220E+02, 7.792E+01, 1.639E+02, 2.355E+02, 7.678E+01,-4.881E+01, 1.418E-01, 3.823E-02, 2.005E+02
 1.200E+03, 1.531E+02, 1.578E+02, 1.614E+02, 2.207E+02, 7.717E+01, 1.642E+02, 2.324E+02, 7.684E+01,-5.609E+01, 1.418E-01, 3.824E-02, 1.999E+02
 1.210E+03, 1.539E+02, 1.570E+02, 1.619E+02, 2.216E+02, 7.819E+01, 1.669E+02, 2.285E+02, 7.564E+01,-4.715E+01, 1.419E-01, 3.820E-02, 2.001E+02
 1.220E+03, 1.549E+02, 1.579E+02, 1.623E+02, 2.236E+02, 7.871E+01, 1.659E+02, 2.327E+02, 7.527E+01,-5.122E+01, 1.417E-01, 3.829E-02, 1.998E+02
 1.230E+03, 1.568E+02, 1.571E+02, 1.640E+02, 2.269E+02, 7.971E+01, 1.648E+02, 2.300E+02, 7.655E+01,-5.299E+01, 1.414E-01, 3.844E-02, 2.000E+02
 1.240E+03, 1.566E+02, 1.579E+02, 1.638E+02, 2.267E+02, 7.926E+01, 1.641E+02, 2.323E+02, 7.742E+01,-5.325E+01, 1.413E-01, 3.853E-02, 2.004E+02
 1.250E+03, 1.554E+02, 1.600E+02, 1.619E+02, 2.253E+02, 7.905E+01, 1.671E+02, 2.347E+02, 7.813E+01,-5.364E+01, 1.412E-01, 3.858E-02, 1.996E+02
 1.260E+03, 1.544E+02, 1.578E+02, 1.620E+02, 2.232E+02, 7.796E+01, 1.663E+02, 2.316E+02, 7.557E+01,-5.003E+01, 1.411E-01, 3.862E-02, 1.991E+02
 1.270E+03, 1.554E+02, 1.597E+02, 1.629E+02, 2.230E+02, 8.021E+01, 1.692E+02, 2.326E+02, 7.718E+01,-4.645E+01, 1.410E-01, 3.869E-02, 1.994E+02
 1.280E+03, 1.559E+02, 1.592E+02, 1.632E+02, 2.248E+02, 7.960E+01, 1.682E+02, 2.306E+02, 7.892E+01,-5.000E+01, 1.406E-01, 3.889E-02, 2.000E+02
 1.290E+03, 1.563E+02, 1.587E+02, 1.639E+02, 2.249E+02, 8.023E+01, 1.693E+02, 2.291E+02, 7.759E+01,-5.462E+01, 1.407E-01, 3.887E-02, 2.004E+02
 1.300E+03, 1.574E+02, 1.587E+02, 1.643E+02, 2.269E+02, 8.080E+01, 1.673E+02, 2.301E+02, 7.874E+01,-5.020E+01, 1.404E-01, 3.904E-02, 2.002E+02
 1.310E+03, 1.588E+02, 1.598E+02, 1.670E+02, 2.278E+02, 8.155E+01, 1.703E+02, 2.313E+02, 7.788E+01,-5.366E+01, 1.404E-01, 3.904E-02, 2.002E+02
