s,C,C,C,C,C,C,C,C,Pa,mol/mol,mol/mol,kW
Time,"West_All_TCs","East_All_TCs","West_Bottom_TCs","West_Middle_TCs","West_Upper_TCs","East_Bottom_TCs","East_Middle_TCs","East_Upper_TCs","Pressure","O2","CO2","HRR"
-6.000E+01, 2.700E+01, 2.700E+01, 2.700E+01, 2.700E+01, 2.700E+01, 2.700E+01, 2.700E+01, 2.700E+01,-9.557E-06, 2.095E-01, 3.901E-04, 0.000E+00
-4.998E+01, 2.700E+01, 2.700E+01, 2.700E+01, 2.700E+01, 2.700E+01, 2.700E+01, 2.700E+01, 2.700E+01,-2.105E-05, 2.095E-01, 3.901E-04, 0.000E+00
-3.996E+01, 2.700E+01, 2.700E+01, 2.700E+01, 2.700E+01, 2.700E+01, 2.700E+01, 2.700E+01, 2.700E+01, 5.564E-06, 2.095E-01, 3.901E-04, 0.000E+00
-2.994E+01, 2.700E+01, 2.700E+01, 2.700E+01, 2.700E+01, 2.700E+01, 2.700E+01, 2.700E+01, 2.700E+01, 5.353E-07, 2.095E-01, 3.901E-04, 0.000E+00
-1.992E+01, 2.700E+01, 2.700E+01, 2.700E+01, 2.700E+01, 2.700E+01, 2.700E+01, 2.700E+01, 2.700E+01, 7.084E-06, 2.095E-01, 3.901E-04, 0.000E+00
-9.896E+00, 2.700E+01, 2.700E+01, 2.700E+01, 2.700E+01, 2.700E+01, 2.700E+01, 2.700E+01, 2.700E+01, 3.540E-06, 2.095E-01, 3.901E-04, 0.000E+00
 1.301E-02, 2.700E+01, 2.700E+01, 2.700E+01, 2.700E+01, 2.700E+01, 2.700E+01, 2.700E+01, 2.700E+01, 4.480E-06, 2.095E-01, 3.901E-04, 1.761E-04
 1.001E+01, 2.804E+01, 2.822E+01, 2.750E+01, 2.963E+01, 2.700E+01, 2.773E+01, 2.991E+01, 2.700E+01, 3.888E-03, 2.095E-01, 3.901E-04, 3.309E+01
 2.001E+01, 3.208E+01, 3.276E+01, 2.951E+01, 3.970E+01, 2.703E+01, 3.047E+01, 4.083E+01, 2.700E+01,-7.740E-03, 2.095E-01, 3.901E-04, 9.875E+01
 3.001E+01, 4.088E+01, 4.136E+01, 3.209E+01, 6.260E+01, 2.796E+01, 3.563E+01, 6.147E+01, 2.699E+01,-6.079E-02, 2.095E-01, 3.901E-04, 1.658E+02
 4.001E+01, 5.131E+01, 5.222E+01, 4.073E+01, 8.235E+01, 3.086E+01, 4.356E+01, 8.567E+01, 2.743E+01, 3.659E-01, 2.094E-01, 4.712E-04, 1.994E+02
 5.000E+01, 6.027E+01, 6.051E+01, 4.813E+01, 9.880E+01, 3.387E+01, 5.342E+01, 9.780E+01, 3.031E+01, 3.457E-01, 2.090E-01, 6.981E-04, 2.001E+02
 6.002E+01, 6.764E+01, 6.883E+01, 5.554E+01, 1.128E+02, 3.456E+01, 5.906E+01, 1.126E+02, 3.485E+01, 4.211E-01, 2.083E-01, 1.094E-03, 2.000E+02
 7.001E+01, 7.149E+01, 7.280E+01, 5.795E+01, 1.192E+02, 3.735E+01, 6.223E+01, 1.182E+02, 3.799E+01, 2.452E-01, 2.078E-01, 1.348E-03, 2.001E+02
 8.001E+01, 7.546E+01, 7.712E+01, 6.353E+01, 1.228E+02, 4.001E+01, 6.585E+01, 1.253E+02, 4.017E+01, 1.365E-01, 2.076E-01, 1.480E-03, 1.987E+02
 9.001E+01, 7.817E+01, 8.037E+01, 6.479E+01, 1.281E+02, 4.166E+01, 6.957E+01, 1.291E+02, 4.250E+01, 1.260E-01, 2.073E-01, 1.633E-03, 2.025E+02
 1.000E+02, 8.017E+01, 8.392E+01, 6.587E+01, 1.311E+02, 4.356E+01, 7.397E+01, 1.334E+02, 4.436E+01, 2.908E-01, 2.070E-01, 1.817E-03, 1.990E+02
 1.100E+02, 8.140E+01, 8.503E+01, 6.674E+01, 1.307E+02, 4.679E+01, 7.572E+01, 1.328E+02, 4.653E+01, 5.331E-01, 2.065E-01, 2.079E-03, 1.987E+02
 1.200E+02, 8.227E+01, 8.666E+01, 6.778E+01, 1.295E+02, 4.953E+01, 7.567E+01, 1.347E+02, 4.962E+01, 7.275E-01, 2.058E-01, 2.467E-03, 2.020E+02
 1.300E+02, 8.458E+01, 8.849E+01, 6.826E+01, 1.330E+02, 5.252E+01, 7.497E+01, 1.389E+02, 5.165E+01, 3.070E-01, 2.053E-01, 2.759E-03, 1.997E+02
 1.400E+02, 8.527E+01, 8.934E+01, 6.834E+01, 1.354E+02, 5.207E+01, 7.750E+01, 1.376E+02, 5.296E+01,-8.768E-02, 2.049E-01, 3.004E-03, 2.010E+02
 1.500E+02, 8.583E+01, 8.852E+01, 6.861E+01, 1.350E+02, 5.390E+01, 7.486E+01, 1.375E+02, 5.318E+01, 3.462E-01, 2.047E-01, 3.073E-03, 2.004E+02
 1.600E+02, 8.596E+01, 9.015E+01, 6.944E+01, 1.346E+02, 5.383E+01, 7.652E+01, 1.405E+02, 5.340E+01, 2.253E-01, 2.043E-01, 3.307E-03, 1.994E+02
 1.700E+02, 8.766E+01, 9.085E+01, 6.996E+01, 1.378E+02, 5.517E+01, 7.826E+01, 1.398E+02, 5.453E+01, 4.120E-02, 2.039E-01, 3.565E-03, 1.998E+02
 1.800E+02, 8.711E+01, 9.153E+01, 7.019E+01, 1.355E+02, 5.566E+01, 7.960E+01, 1.400E+02, 5.503E+01, 4.816E-01, 2.036E-01, 3.703E-03, 1.991E+02
 1.900E+02, 8.635E+01, 9.294E+01, 7.086E+01, 1.330E+02, 5.523E+01, 7.827E+01, 1.435E+02, 5.704E+01, 3.146E-01, 2.031E-01, 4.004E-03, 2.014E+02
 2.000E+02, 8.780E+01, 9.220E+01, 7.023E+01, 1.367E+02, 5.649E+01, 8.066E+01, 1.396E+02, 5.635E+01, 1.717E-01, 2.028E-01, 4.179E-03, 1.988E+02
 2.100E+02, 8.841E+01, 9.191E+01, 7.132E+01, 1.360E+02, 5.795E+01, 7.741E+01, 1.422E+02, 5.614E+01, 7.035E-01, 2.025E-01, 4.327E-03, 2.012E+02
 2.200E+02, 8.889E+01, 9.323E+01, 7.204E+01, 1.366E+02, 5.803E+01, 7.973E+01, 1.420E+02, 5.801E+01,-2.153E-02, 2.019E-01, 4.672E-03, 1.983E+02
 2.300E+02, 8.891E+01, 9.359E+01, 7.050E+01, 1.378E+02, 5.841E+01, 8.098E+01, 1.425E+02, 5.731E+01, 9.187E-01, 2.017E-01, 4.753E-03, 2.007E+02
 2.400E+02, 8.976E+01, 9.337E+01, 7.386E+01, 1.349E+02, 6.047E+01, 8.033E+01, 1.418E+02, 5.801E+01, 6.198E-01, 2.012E-01, 5.044E-03, 1.997E+02
 2.500E+02, 8.995E+01, 9.438E+01, 7.215E+01, 1.377E+02, 5.994E+01, 8.086E+01, 1.425E+02, 5.973E+01, 6.760E-01, 2.009E-01, 5.244E-03, 1.996E+02
 2.600E+02, 9.050E+01, 9.335E+01, 7.223E+01, 1.383E+02, 6.094E+01, 7.937E+01, 1.405E+02, 6.019E+01, 2.901E-01, 2.005E-01, 5.438E-03, 2.000E+02
 2.700E+02, 9.004E+01, 9.459E+01, 7.161E+01, 1.372E+02, 6.128E+01, 8.014E+01, 1.443E+02, 5.931E+01, 4.994E-01, 2.003E-01, 5.530E-03, 2.004E+02
 2.800E+02, 9.028E+01, 9.457E+01, 7.215E+01, 1.379E+02, 6.078E+01, 8.074E+01, 1.439E+02, 5.908E+01, 3.278E-01, 2.000E-01, 5.739E-03, 1.993E+02
 2.900E+02, 9.119E+01, 9.505E+01, 7.128E+01, 1.418E+02, 6.046E+01, 8.158E+01, 1.452E+02, 5.837E+01, 1.883E-01, 1.998E-01, 5.840E-03, 2.008E+02
 3.000E+02, 9.070E+01, 9.571E+01, 7.058E+01, 1.401E+02, 6.137E+01, 8.474E+01, 1.441E+02, 5.825E+01, 8.441E-01, 1.995E-01, 6.018E-03, 1.989E+02
 3.100E+02, 9.014E+01, 9.600E+01, 7.125E+01, 1.388E+02, 6.034E+01, 8.101E+01, 1.473E+02, 5.964E+01, 6.075E-01, 1.991E-01, 6.212E-03, 1.994E+02
 3.200E+02, 9.067E+01, 9.578E+01, 7.094E+01, 1.390E+02, 6.204E+01, 8.213E+01, 1.442E+02, 6.104E+01, 3.473E-01, 1.989E-01, 6.349E-03, 2.002E+02
 3.300E+02, 9.088E+01, 9.569E+01, 7.285E+01, 1.399E+02, 5.993E+01, 8.155E+01, 1.447E+02, 6.083E+01, 2.759E-01, 1.988E-01, 6.408E-03, 2.004E+02
 3.400E+02, 9.130E+01, 9.473E+01, 7.202E+01, 1.394E+02, 6.247E+01, 8.206E+01, 1.434E+02, 5.877E+01, 9.857E-01, 1.985E-01, 6.542E-03, 1.991E+02
 3.500E+02, 9.126E+01, 9.566E+01, 7.077E+01, 1.396E+02, 6.347E+01, 8.171E+01, 1.433E+02, 6.192E+01, 9.476E-01, 1.983E-01, 6.692E-03, 2.010E+02
 3.600E+02, 9.154E+01, 9.677E+01, 7.180E+01, 1.391E+02, 6.366E+01, 8.219E+01, 1.438E+02, 6.432E+01, 2.340E-01, 1.979E-01, 6.875E-03, 2.001E+02
 3.700E+02, 9.250E+01, 9.698E+01, 7.089E+01, 1.435E+02, 6.314E+01, 8.409E+01, 1.446E+02, 6.224E+01,-4.347E-02, 1.979E-01, 6.884E-03, 2.001E+02
 3.800E+02, 9.282E+01, 9.638E+01, 7.267E+01, 1.416E+02, 6.420E+01, 8.225E+01, 1.464E+02, 6.049E+01, 6.963E-01, 1.978E-01, 6.945E-03, 2.007E+02
 3.900E+02, 9.242E+01, 9.776E+01, 7.300E+01, 1.409E+02, 6.336E+01, 8.455E+01, 1.467E+02, 6.204E+01, 8.387E-01, 1.976E-01, 7.084E-03, 1.985E+02
 4.000E+02, 9.275E+01, 9.750E+01, 7.303E+01, 1.428E+02, 6.238E+01, 8.388E+01, 1.457E+02, 6.293E+01, 5.057E-02, 1.974E-01, 7.172E-03, 1.990E+02
 4.100E+02, 9.458E+01, 9.788E+01, 7.624E+01, 1.447E+02, 6.284E+01, 8.793E+01, 1.444E+02, 6.127E+01, 6.937E-01, 1.973E-01, 7.211E-03, 2.011E+02
 4.200E+02, 9.324E+01, 9.708E+01, 7.263E+01, 1.428E+02, 6.433E+01, 8.363E+01, 1.449E+02, 6.270E+01, 1.048E+00, 1.972E-01, 7.298E-03, 1.997E+02
 4.300E+02, 9.309E+01, 9.706E+01, 7.239E+01, 1.412E+02, 6.572E+01, 8.143E+01, 1.462E+02, 6.351E+01, 7.406E-01, 1.970E-01, 7.416E-03, 2.000E+02
 4.400E+02, 9.389E+01, 9.829E+01, 7.423E+01, 1.431E+02, 6.435E+01, 8.389E+01, 1.465E+02, 6.449E+01, 4.481E-01, 1.968E-01, 7.514E-03, 1.995E+02
 4.500E+02, 9.303E+01, 9.829E+01, 7.228E+01, 1.403E+02, 6.649E+01, 8.293E+01, 1.480E+02, 6.389E+01, 5.822E-01, 1.968E-01, 7.539E-03, 1.997E+02
 4.600E+02, 9.425E+01, 9.854E+01, 7.108E+01, 1.463E+02, 6.539E+01, 8.200E+01, 1.487E+02, 6.492E+01, 6.736E-01, 1.966E-01, 7.598E-03, 2.002E+02
 4.700E+02, 9.442E+01, 9.625E+01, 7.333E+01, 1.440E+02, 6.596E+01, 7.957E+01, 1.460E+02, 6.315E+01, 3.669E-01, 1.966E-01, 7.632E-03, 1.993E+02
 4.800E+02, 9.364E+01, 9.765E+01, 7.423E+01, 1.406E+02, 6.608E+01, 8.268E+01, 1.474E+02, 6.291E+01, 8.347E-01, 1.965E-01, 7.692E-03, 2.008E+02
 4.900E+02, 9.308E+01, 9.857E+01, 7.124E+01, 1.411E+02, 6.690E+01, 8.146E+01, 1.501E+02, 6.414E+01, 9.136E-01, 1.964E-01, 7.760E-03, 2.007E+02
 5.000E+02, 9.498E+01, 1.006E+02, 7.288E+01, 1.463E+02, 6.580E+01, 8.529E+01, 1.500E+02, 6.647E+01, 5.142E-01, 1.962E-01, 7.862E-03, 1.992E+02
 5.100E+02, 9.344E+01, 9.839E+01, 7.067E+01, 1.428E+02, 6.688E+01, 8.146E+01, 1.482E+02, 6.548E+01, 7.798E-01, 1.962E-01, 7.865E-03, 1.993E+02
 5.200E+02, 9.469E+01, 9.900E+01, 7.268E+01, 1.448E+02, 6.661E+01, 8.359E+01, 1.494E+02, 6.402E+01, 7.242E-01, 1.961E-01, 7.889E-03, 2.004E+02
 5.300E+02, 9.563E+01, 9.979E+01, 7.400E+01, 1.458E+02, 6.710E+01, 8.606E+01, 1.486E+02, 6.465E+01, 6.833E-01, 1.960E-01, 7.940E-03, 1.981E+02
 5.400E+02, 9.560E+01, 1.006E+02, 7.484E+01, 1.461E+02, 6.588E+01, 8.525E+01, 1.499E+02, 6.651E+01, 6.496E-01, 1.960E-01, 7.979E-03, 2.009E+02
 5.500E+02, 9.545E+01, 1.003E+02, 7.593E+01, 1.421E+02, 6.836E+01, 8.375E+01, 1.510E+02, 6.625E+01, 8.906E-01, 1.959E-01, 8.007E-03, 1.989E+02
 5.600E+02, 9.578E+01, 1.002E+02, 7.537E+01, 1.440E+02, 6.797E+01, 8.362E+01, 1.514E+02, 6.551E+01, 5.003E-01, 1.959E-01, 8.039E-03, 2.007E+02
 5.700E+02, 9.632E+01, 1.007E+02, 7.574E+01, 1.456E+02, 6.759E+01, 8.804E+01, 1.488E+02, 6.512E+01, 2.048E-01, 1.958E-01, 8.064E-03, 2.000E+02
 5.800E+02, 9.512E+01, 1.002E+02, 7.508E+01, 1.441E+02, 6.614E+01, 8.560E+01, 1.499E+02, 6.508E+01, 7.715E-01, 1.958E-01, 8.097E-03, 1.995E+02
 5.900E+02, 9.514E+01, 1.003E+02, 7.410E+01, 1.447E+02, 6.663E+01, 8.315E+01, 1.511E+02, 6.659E+01, 7.825E-01, 1.957E-01, 8.154E-03, 1.997E+02
 6.000E+02, 9.602E+01, 9.825E+01, 7.474E+01, 1.445E+02, 6.881E+01, 8.151E+01, 1.469E+02, 6.632E+01, 8.848E-01, 1.956E-01, 8.157E-03, 2.007E+02
 6.100E+02, 9.588E+01, 1.001E+02, 7.303E+01, 1.457E+02, 6.896E+01, 8.504E+01, 1.487E+02, 6.662E+01, 1.011E+00, 1.956E-01, 8.191E-03, 1.996E+02
 6.200E+02, 9.592E+01, 1.010E+02, 7.510E+01, 1.452E+02, 6.747E+01, 8.424E+01, 1.503E+02, 6.831E+01, 3.042E-01, 1.955E-01, 8.229E-03, 1.991E+02
 6.300E+02, 9.712E+01, 1.013E+02, 7.489E+01, 1.480E+02, 6.845E+01, 8.321E+01, 1.517E+02, 6.897E+01, 8.658E-01, 1.954E-01, 8.268E-03, 2.006E+02
 6.400E+02, 9.664E+01, 1.005E+02, 7.401E+01, 1.474E+02, 6.850E+01, 8.590E+01, 1.484E+02, 6.710E+01, 9.221E-01, 1.954E-01, 8.279E-03, 2.000E+02
 6.500E+02, 9.637E+01, 1.014E+02, 7.240E+01, 1.465E+02, 7.021E+01, 8.520E+01, 1.505E+02, 6.850E+01, 6.559E-01, 1.954E-01, 8.289E-03, 1.998E+02
 6.600E+02, 9.649E+01, 1.002E+02, 7.276E+01, 1.458E+02, 7.092E+01, 8.398E+01, 1.508E+02, 6.577E+01, 4.449E-01, 1.954E-01, 8.290E-03, 2.003E+02
 6.700E+02, 9.656E+01, 1.016E+02, 7.392E+01, 1.463E+02, 6.952E+01, 8.655E+01, 1.503E+02, 6.779E+01, 4.457E-01, 1.953E-01, 8.328E-03, 1.996E+02
 6.800E+02, 9.601E+01, 1.020E+02, 7.410E+01, 1.432E+02, 7.068E+01, 8.700E+01, 1.519E+02, 6.709E+01, 8.632E-01, 1.953E-01, 8.353E-03, 2.015E+02
 6.900E+02, 9.576E+01, 1.015E+02, 7.544E+01, 1.424E+02, 6.948E+01, 8.396E+01, 1.528E+02, 6.782E+01, 6.023E-01, 1.953E-01, 8.359E-03, 1.987E+02
 7.000E+02, 9.615E+01, 1.017E+02, 7.383E+01, 1.428E+02, 7.176E+01, 8.371E+01, 1.535E+02, 6.782E+01, 1.186E+00, 1.953E-01, 8.362E-03, 1.994E+02
 7.100E+02, 9.624E+01, 1.006E+02, 7.343E+01, 1.454E+02, 6.991E+01, 8.275E+01, 1.494E+02, 6.953E+01, 6.541E-01, 1.953E-01, 8.373E-03, 2.000E+02
 7.200E+02, 9.607E+01, 1.018E+02, 7.361E+01, 1.443E+02, 7.025E+01, 8.389E+01, 1.525E+02, 6.905E+01, 8.855E-01, 1.953E-01, 8.375E-03, 1.996E+02
 7.300E+02, 9.666E+01, 1.019E+02, 7.395E+01, 1.463E+02, 6.972E+01, 8.649E+01, 1.499E+02, 6.940E+01, 4.506E-01, 1.952E-01, 8.382E-03, 2.007E+02
 7.400E+02, 9.808E+01, 1.023E+02, 7.508E+01, 1.488E+02, 7.036E+01, 8.539E+01, 1.525E+02, 6.887E+01, 1.539E-01, 1.952E-01, 8.403E-03, 1.994E+02
 7.500E+02, 9.740E+01, 1.022E+02, 7.446E+01, 1.482E+02, 6.955E+01, 8.675E+01, 1.525E+02, 6.740E+01, 8.341E-01, 1.952E-01, 8.404E-03, 2.007E+02
 7.600E+02, 9.734E+01, 1.008E+02, 7.448E+01, 1.476E+02, 6.994E+01, 8.087E+01, 1.528E+02, 6.855E+01, 8.064E-01, 1.952E-01, 8.428E-03, 1.989E+02
 7.700E+02, 9.638E+01, 1.022E+02, 7.276E+01, 1.452E+02, 7.115E+01, 8.505E+01, 1.524E+02, 6.902E+01, 1.056E+00, 1.951E-01, 8.436E-03, 2.008E+02
 7.800E+02, 9.811E+01, 1.023E+02, 7.412E+01, 1.497E+02, 7.046E+01, 8.777E+01, 1.494E+02, 6.981E+01, 3.938E-01, 1.951E-01, 8.439E-03, 2.003E+02
 7.900E+02, 9.872E+01, 1.017E+02, 7.595E+01, 1.503E+02, 6.987E+01, 8.547E+01, 1.502E+02, 6.940E+01,-7.291E-02, 1.951E-01, 8.440E-03, 1.984E+02
 8.000E+02, 9.851E+01, 1.023E+02, 7.796E+01, 1.466E+02, 7.096E+01, 8.488E+01, 1.535E+02, 6.864E+01, 7.712E-01, 1.951E-01, 8.441E-03, 1.997E+02
 8.100E+02, 9.893E+01, 1.009E+02, 7.623E+01, 1.491E+02, 7.150E+01, 8.471E+01, 1.512E+02, 6.690E+01, 1.160E+00, 1.951E-01, 8.438E-03, 2.009E+02
 8.200E+02, 9.783E+01, 1.026E+02, 7.530E+01, 1.470E+02, 7.119E+01, 8.370E+01, 1.539E+02, 7.027E+01, 1.101E+00, 1.952E-01, 8.422E-03, 1.996E+02
 8.300E+02, 9.831E+01, 1.040E+02, 7.497E+01, 1.480E+02, 7.199E+01, 8.454E+01, 1.546E+02, 7.282E+01, 1.206E+00, 1.951E-01, 8.465E-03, 1.999E+02
 8.400E+02, 9.869E+01, 1.043E+02, 7.402E+01, 1.486E+02, 7.344E+01, 8.632E+01, 1.548E+02, 7.194E+01, 6.908E-01, 1.951E-01, 8.453E-03, 2.005E+02
 8.500E+02, 9.854E+01, 1.029E+02, 7.335E+01, 1.485E+02, 7.371E+01, 8.640E+01, 1.514E+02, 7.098E+01, 5.803E-01, 1.951E-01, 8.449E-03, 1.986E+02
 8.600E+02, 9.975E+01, 1.030E+02, 7.561E+01, 1.500E+02, 7.366E+01, 8.624E+01, 1.516E+02, 7.109E+01, 9.618E-01, 1.951E-01, 8.460E-03, 1.999E+02
 8.700E+02, 9.881E+01, 1.034E+02, 7.575E+01, 1.485E+02, 7.220E+01, 8.586E+01, 1.529E+02, 7.133E+01, 7.541E-01, 1.951E-01, 8.469E-03, 2.002E+02
 8.800E+02, 9.846E+01, 1.030E+02, 7.552E+01, 1.470E+02, 7.281E+01, 8.630E+01, 1.517E+02, 7.096E+01, 6.805E-01, 1.951E-01, 8.467E-03, 1.993E+02
 8.900E+02, 9.821E+01, 1.048E+02, 7.533E+01, 1.458E+02, 7.348E+01, 9.024E+01, 1.523E+02, 7.182E+01, 1.040E+00, 1.951E-01, 8.463E-03, 2.011E+02
 9.000E+02, 9.850E+01, 1.038E+02, 7.400E+01, 1.474E+02, 7.407E+01, 8.440E+01, 1.555E+02, 7.154E+01, 1.166E+00, 1.951E-01, 8.466E-03, 1.991E+02
 9.100E+02, 9.928E+01, 1.015E+02, 7.520E+01, 1.458E+02, 7.686E+01, 8.481E+01, 1.495E+02, 7.010E+01, 1.069E+00, 1.951E-01, 8.463E-03, 2.002E+02
 9.200E+02, 9.917E+01, 1.046E+02, 7.589E+01, 1.471E+02, 7.452E+01, 8.918E+01, 1.519E+02, 7.282E+01, 1.185E+00, 1.951E-01, 8.438E-03, 1.998E+02
 9.300E+02, 9.998E+01, 1.053E+02, 7.730E+01, 1.481E+02, 7.451E+01, 8.948E+01, 1.532E+02, 7.315E+01, 3.920E-01, 1.952E-01, 8.421E-03, 1.992E+02
 9.400E+02, 1.001E+02, 1.049E+02, 7.714E+01, 1.505E+02, 7.258E+01, 8.924E+01, 1.545E+02, 7.085E+01, 1.596E-01, 1.952E-01, 8.416E-03, 1.993E+02
 9.500E+02, 9.981E+01, 1.033E+02, 7.632E+01, 1.503E+02, 7.285E+01, 8.471E+01, 1.559E+02, 6.940E+01, 1.151E+00, 1.952E-01, 8.421E-03, 1.993E+02
 9.600E+02, 1.012E+02, 1.049E+02, 7.793E+01, 1.511E+02, 7.447E+01, 8.851E+01, 1.547E+02, 7.141E+01, 1.034E+00, 1.952E-01, 8.409E-03, 1.991E+02
 9.700E+02, 9.982E+01, 1.049E+02, 7.529E+01, 1.504E+02, 7.378E+01, 8.638E+01, 1.552E+02, 7.308E+01, 1.109E+00, 1.952E-01, 8.394E-03, 2.019E+02
 9.800E+02, 9.914E+01, 1.040E+02, 7.503E+01, 1.480E+02, 7.442E+01, 8.200E+01, 1.548E+02, 7.507E+01, 1.167E+00, 1.952E-01, 8.433E-03, 1.987E+02
 9.900E+02, 9.960E+01, 1.039E+02, 7.391E+01, 1.493E+02, 7.562E+01, 8.469E+01, 1.528E+02, 7.415E+01, 1.143E+00, 1.952E-01, 8.431E-03, 1.994E+02
 1.000E+03, 1.002E+02, 1.057E+02, 7.606E+01, 1.485E+02, 7.594E+01, 8.962E+01, 1.529E+02, 7.462E+01, 5.583E-01, 1.952E-01, 8.411E-03, 2.006E+02
 1.010E+03, 1.006E+02, 1.053E+02, 7.558E+01, 1.501E+02, 7.612E+01, 8.767E+01, 1.549E+02, 7.329E+01, 7.525E-01, 1.952E-01, 8.421E-03, 2.015E+02
 1.020E+03, 1.007E+02, 1.039E+02, 7.486E+01, 1.514E+02, 7.567E+01, 8.506E+01, 1.539E+02, 7.266E+01, 1.124E+00, 1.952E-01, 8.427E-03, 2.000E+02
 1.030E+03, 1.005E+02, 1.044E+02, 7.631E+01, 1.495E+02, 7.585E+01, 8.490E+01, 1.547E+02, 7.376E+01, 1.232E+00, 1.952E-01, 8.420E-03, 1.981E+02
 1.040E+03, 1.001E+02, 1.050E+02, 7.455E+01, 1.490E+02, 7.662E+01, 8.549E+01, 1.547E+02, 7.481E+01, 7.975E-01, 1.952E-01, 8.408E-03, 2.004E+02
 1.050E+03, 1.009E+02, 1.046E+02, 7.691E+01, 1.497E+02, 7.608E+01, 8.610E+01, 1.534E+02, 7.430E+01, 7.927E-01, 1.952E-01, 8.421E-03, 2.009E+02
 1.060E+03, 1.006E+02, 1.047E+02, 7.444E+01, 1.507E+02, 7.664E+01, 8.564E+01, 1.553E+02, 7.326E+01, 1.216E+00, 1.952E-01, 8.414E-03, 1.983E+02
 1.070E+03, 1.007E+02, 1.051E+02, 7.515E+01, 1.503E+02, 7.664E+01, 8.623E+01, 1.547E+02, 7.446E+01, 1.032E+00, 1.951E-01, 8.438E-03, 2.014E+02
 1.080E+03, 1.009E+02, 1.065E+02, 7.665E+01, 1.500E+02, 7.592E+01, 8.924E+01, 1.555E+02, 7.468E+01, 8.024E-01, 1.952E-01, 8.429E-03, 2.005E+02
 1.090E+03, 1.017E+02, 1.050E+02, 7.679E+01, 1.515E+02, 7.688E+01, 8.481E+01, 1.561E+02, 7.415E+01, 7.027E-01, 1.952E-01, 8.413E-03, 1.991E+02
 1.100E+03, 1.013E+02, 1.056E+02, 7.714E+01, 1.508E+02, 7.604E+01, 8.644E+01, 1.547E+02, 7.566E+01, 6.636E-01, 1.952E-01, 8.421E-03, 1.987E+02
 1.110E+03, 1.020E+02, 1.064E+02, 7.764E+01, 1.509E+02, 7.747E+01, 8.889E+01, 1.564E+02, 7.394E+01, 1.292E+00, 1.952E-01, 8.418E-03, 2.020E+02
 1.120E+03, 1.017E+02, 1.053E+02, 7.442E+01, 1.515E+02, 7.920E+01, 8.598E+01, 1.575E+02, 7.237E+01, 1.248E+00, 1.952E-01, 8.412E-03, 1.996E+02
 1.130E+03, 1.019E+02, 1.058E+02, 7.813E+01, 1.512E+02, 7.651E+01, 8.658E+01, 1.543E+02, 7.664E+01, 5.429E-01, 1.951E-01, 8.441E-03, 1.991E+02
 1.140E+03, 1.010E+02, 1.061E+02, 7.485E+01, 1.507E+02, 7.737E+01, 8.742E+01, 1.540E+02, 7.692E+01, 1.050E+00, 1.952E-01, 8.422E-03, 2.002E+02
 1.150E+03, 1.003E+02, 1.052E+02, 7.532E+01, 1.486E+02, 7.702E+01, 8.690E+01, 1.539E+02, 7.471E+01, 1.092E+00, 1.952E-01, 8.417E-03, 1.974E+02
 1.160E+03, 1.002E+02, 1.056E+02, 7.293E+01, 1.502E+02, 7.757E+01, 8.508E+01, 1.564E+02, 7.525E+01, 1.213E+00, 1.952E-01, 8.407E-03, 2.009E+02
 1.170E+03, 1.007E+02, 1.065E+02, 7.334E+01, 1.511E+02, 7.766E+01, 8.722E+01, 1.560E+02, 7.635E+01, 9.101E-01, 1.952E-01, 8.417E-03, 2.005E+02
 1.180E+03, 1.025E+02, 1.064E+02, 7.771E+01, 1.528E+02, 7.705E+01, 9.032E+01, 1.528E+02, 7.612E+01, 2.488E-01, 1.952E-01, 8.396E-03, 1.977E+02
 1.190E+03, 1.014E+02, 1.057E+02, 7.772E+01, 1.501E+02, 7.631E+01, 8.676E+01, 1.560E+02, 7.428E+01, 8.366E-01, 1.952E-01, 8.382E-03, 2.020E+02
 1.200E+03, 1.015E+02, 1.062E+02, 7.721E+01, 1.481E+02, 7.924E+01, 8.796E+01, 1.566E+02, 7.413E+01, 1.287E+00, 1.952E-01, 8.397E-03, 1.994E+02
 1.210E+03, 1.029E+02, 1.056E+02, 7.705E+01, 1.531E+02, 7.872E+01, 8.639E+01, 1.552E+02, 7.528E+01, 1.012E+00, 1.953E-01, 8.358E-03, 1.989E+02
 1.220E+03, 1.024E+02, 1.079E+02, 7.808E+01, 1.518E+02, 7.714E+01, 8.886E+01, 1.587E+02, 7.613E+01, 9.099E-01, 1.953E-01, 8.354E-03, 2.001E+02
 1.230E+03, 1.016E+02, 1.071E+02, 7.660E+01, 1.506E+02, 7.755E+01, 8.701E+01, 1.582E+02, 7.625E+01, 8.503E-01, 1.952E-01, 8.381E-03, 2.009E+02
 1.240E+03, 1.014E+02, 1.066E+02, 7.442E+01, 1.520E+02, 7.784E+01, 8.944E+01, 1.557E+02, 7.462E+01, 4.568E-01, 1.953E-01, 8.357E-03, 1.999E+02
 1.250E+03, 1.021E+02, 1.077E+02, 7.521E+01, 1.522E+02, 7.881E+01, 8.745E+01, 1.600E+02, 7.579E+01, 1.183E+00, 1.953E-01, 8.369E-03, 1.991E+02
 1.260E+03, 1.031E+02, 1.073E+02, 7.632E+01, 1.540E+02, 7.879E+01, 8.693E+01, 1.581E+02, 7.691E+01, 6.528E-01, 1.952E-01, 8.384E-03, 2.000E+02
 1.270E+03, 1.032E+02, 1.073E+02, 7.637E+01, 1.554E+02, 7.780E+01, 8.825E+01, 1.566E+02, 7.700E+01, 9.883E-01, 1.952E-01, 8.403E-03, 1.982E+02
 1.280E+03, 1.020E+02, 1.102E+02, 7.529E+01, 1.522E+02, 7.863E+01, 8.967E+01, 1.625E+02, 7.842E+01, 5.894E-01, 1.952E-01, 8.423E-03, 2.011E+02
 1.290E+03, 1.032E+02, 1.055E+02, 7.778E+01, 1.528E+02, 7.905E+01, 8.703E+01, 1.533E+02, 7.617E+01, 8.751E-01, 1.952E-01, 8.412E-03, 1.998E+02
 1.300E+03, 1.023E+02, 1.053E+02, 7.591E+01, 1.526E+02, 7.830E+01, 8.483E+01, 1.557E+02, 7.529E+01, 1.028E+00, 1.952E-01, 8.391E-03, 1.986E+02
 1.310E+03, 1.037E+02, 1.077E+02, 7.736E+01, 1.558E+02, 7.794E+01, 8.589E+01, 1.583E+02, 7.893E+01, 7.701E-01, 1.952E-01, 8.403E-03, 2.003E+02
