s,C,C,C,C,C,C,C,C,Pa,mol/mol,mol/mol,kW
Time,"West_All_TCs","East_All_TCs","West_Bottom_TCs","West_Middle_TCs","West_Upper_TCs","East_Bottom_TCs","East_Middle_TCs","East_Upper_TCs","Pressure","O2","CO2","HRR"
-6.000E+01, 2.500E+01, 2.500E+01, 2.500E+01, 2.500E+01, 2.500E+01, 2.500E+01, 2.500E+01, 2.500E+01,-9.627E-06, 2.095E-01, 3.901E-04, 0.000E+00
-4.998E+01, 2.499E+01, 2.499E+01, 2.499E+01, 2.499E+01, 2.499E+01, 2.499E+01, 2.499E+01, 2.499E+01,-1.838E+01, 2.095E-01, 3.901E-04, 0.000E+00
-3.996E+01, 2.498E+01, 2.499E+01, 2.499E+01, 2.498E+01, 2.498E+01, 2.499E+01, 2.499E+01, 2.499E+01,-1.761E+01, 2.095E-01, 3.901E-04, 0.000E+00
-2.994E+01, 2.498E+01, 2.499E+01, 2.499E+01, 2.498E+01, 2.497E+01, 2.501E+01, 2.499E+01, 2.499E+01,-1.762E+01, 2.095E-01, 3.901E-04, 0.000E+00
-1.992E+01, 2.498E+01, 2.500E+01, 2.498E+01, 2.498E+01, 2.497E+01, 2.502E+01, 2.499E+01, 2.499E+01,-1.763E+01, 2.095E-01, 3.901E-04, 0.000E+00
-9.896E+00, 2.498E+01, 2.500E+01, 2.498E+01, 2.498E+01, 2.497E+01, 2.503E+01, 2.499E+01, 2.499E+01,-1.763E+01, 2.095E-01, 3.901E-04, 0.000E+00
 1.301E-02, 2.498E+01, 2.500E+01, 2.498E+01, 2.498E+01, 2.498E+01, 2.503E+01, 2.499E+01, 2.499E+01,-1.764E+01, 2.095E-01, 3.901E-04, 2.201E-04
 1.002E+01, 2.611E+01, 2.648E+01, 2.560E+01, 2.775E+01, 2.499E+01, 2.595E+01, 2.851E+01, 2.500E+01, 1.181E+00, 2.095E-01, 3.901E-04, 4.086E+01
 2.001E+01, 3.126E+01, 3.154E+01, 2.831E+01, 4.024E+01, 2.523E+01, 2.915E+01, 4.042E+01, 2.503E+01, 5.728E+01, 2.095E-01, 3.901E-04, 1.237E+02
 3.000E+01, 4.160E+01, 4.257E+01, 3.371E+01, 6.505E+01, 2.604E+01, 3.552E+01, 6.709E+01, 2.510E+01, 1.713E+02, 2.095E-01, 3.960E-04, 2.069E+02
 4.000E+01, 5.685E+01, 5.731E+01, 4.609E+01, 9.751E+01, 2.695E+01, 4.847E+01, 9.764E+01, 2.581E+01, 2.151E+02, 2.093E-01, 5.204E-04, 2.500E+02
 5.000E+01, 7.104E+01, 7.216E+01, 6.165E+01, 1.229E+02, 2.855E+01, 6.359E+01, 1.248E+02, 2.811E+01, 1.439E+02, 2.090E-01, 7.193E-04, 2.501E+02
 6.001E+01, 8.125E+01, 8.408E+01, 7.793E+01, 1.370E+02, 2.885E+01, 7.907E+01, 1.433E+02, 2.984E+01, 9.158E+01, 2.087E-01, 8.461E-04, 2.497E+02
 7.000E+01, 9.186E+01, 9.427E+01, 9.287E+01, 1.527E+02, 3.001E+01, 9.453E+01, 1.576E+02, 3.062E+01, 5.587E+01, 2.085E-01, 9.592E-04, 2.496E+02
 8.002E+01, 1.018E+02, 1.029E+02, 1.064E+02, 1.674E+02, 3.141E+01, 1.076E+02, 1.693E+02, 3.182E+01, 3.621E+01, 2.082E-01, 1.124E-03, 2.486E+02
 9.002E+01, 1.108E+02, 1.094E+02, 1.200E+02, 1.792E+02, 3.308E+01, 1.204E+02, 1.740E+02, 3.391E+01, 2.520E+01, 2.078E-01, 1.364E-03, 2.510E+02
 1.000E+02, 1.156E+02, 1.161E+02, 1.288E+02, 1.835E+02, 3.438E+01, 1.316E+02, 1.815E+02, 3.534E+01, 1.413E+01, 2.075E-01, 1.559E-03, 2.510E+02
 1.100E+02, 1.225E+02, 1.205E+02, 1.393E+02, 1.923E+02, 3.588E+01, 1.396E+02, 1.851E+02, 3.686E+01, 7.774E+00, 2.071E-01, 1.780E-03, 2.477E+02
 1.200E+02, 1.245E+02, 1.249E+02, 1.431E+02, 1.930E+02, 3.756E+01, 1.474E+02, 1.891E+02, 3.813E+01, 3.630E+00, 2.068E-01, 1.930E-03, 2.511E+02
 1.300E+02, 1.284E+02, 1.288E+02, 1.501E+02, 1.969E+02, 3.818E+01, 1.506E+02, 1.971E+02, 3.868E+01,-3.869E+00, 2.064E-01, 2.153E-03, 2.494E+02
 1.400E+02, 1.323E+02, 1.301E+02, 1.531E+02, 2.046E+02, 3.932E+01, 1.550E+02, 1.960E+02, 3.945E+01,-6.102E+00, 2.060E-01, 2.354E-03, 2.495E+02
 1.500E+02, 1.332E+02, 1.315E+02, 1.572E+02, 2.016E+02, 4.081E+01, 1.567E+02, 1.969E+02, 4.089E+01,-8.396E+00, 2.055E-01, 2.655E-03, 2.492E+02
 1.600E+02, 1.331E+02, 1.328E+02, 1.575E+02, 2.014E+02, 4.039E+01, 1.576E+02, 1.992E+02, 4.147E+01,-1.230E+01, 2.051E-01, 2.865E-03, 2.495E+02
 1.700E+02, 1.345E+02, 1.345E+02, 1.581E+02, 2.048E+02, 4.051E+01, 1.597E+02, 2.026E+02, 4.125E+01,-1.027E+01, 2.048E-01, 3.019E-03, 2.503E+02
 1.800E+02, 1.343E+02, 1.383E+02, 1.570E+02, 2.046E+02, 4.133E+01, 1.604E+02, 2.117E+02, 4.294E+01,-1.248E+01, 2.040E-01, 3.492E-03, 2.497E+02
 1.900E+02, 1.350E+02, 1.389E+02, 1.560E+02, 2.059E+02, 4.311E+01, 1.629E+02, 2.106E+02, 4.324E+01,-1.179E+01, 2.036E-01, 3.727E-03, 2.485E+02
 2.000E+02, 1.382E+02, 1.383E+02, 1.587E+02, 2.124E+02, 4.364E+01, 1.628E+02, 2.093E+02, 4.290E+01,-1.286E+01, 2.033E-01, 3.905E-03, 2.494E+02
 2.100E+02, 1.370E+02, 1.401E+02, 1.591E+02, 2.083E+02, 4.357E+01, 1.650E+02, 2.122E+02, 4.321E+01,-1.288E+01, 2.024E-01, 4.369E-03, 2.497E+02
 2.200E+02, 1.375E+02, 1.402E+02, 1.579E+02, 2.108E+02, 4.361E+01, 1.654E+02, 2.114E+02, 4.389E+01,-1.755E+01, 2.020E-01, 4.629E-03, 2.450E+02
 2.300E+02, 1.397E+02, 1.401E+02, 1.606E+02, 2.148E+02, 4.363E+01, 1.640E+02, 2.118E+02, 4.449E+01,-1.267E+01, 2.013E-01, 5.000E-03, 2.504E+02
 2.400E+02, 1.381E+02, 1.401E+02, 1.579E+02, 2.123E+02, 4.402E+01, 1.616E+02, 2.140E+02, 4.481E+01,-1.678E+01, 2.005E-01, 5.424E-03, 2.500E+02
 2.500E+02, 1.403E+02, 1.407E+02, 1.602E+02, 2.171E+02, 4.344E+01, 1.645E+02, 2.135E+02, 4.410E+01,-1.846E+01, 2.001E-01, 5.652E-03, 2.447E+02
 2.600E+02, 1.421E+02, 1.431E+02, 1.624E+02, 2.203E+02, 4.343E+01, 1.665E+02, 2.182E+02, 4.452E+01,-1.199E+01, 1.996E-01, 5.925E-03, 2.549E+02
 2.700E+02, 1.414E+02, 1.440E+02, 1.646E+02, 2.163E+02, 4.325E+01, 1.658E+02, 2.213E+02, 4.502E+01,-2.179E+01, 1.991E-01, 6.229E-03, 2.466E+02
 2.800E+02, 1.415E+02, 1.449E+02, 1.625E+02, 2.171E+02, 4.506E+01, 1.703E+02, 2.199E+02, 4.449E+01,-1.725E+01, 1.987E-01, 6.457E-03, 2.513E+02
 2.900E+02, 1.419E+02, 1.433E+02, 1.662E+02, 2.149E+02, 4.453E+01, 1.674E+02, 2.188E+02, 4.380E+01,-2.244E+01, 1.977E-01, 7.022E-03, 2.375E+02
 3.000E+02, 1.425E+02, 1.482E+02, 1.662E+02, 2.169E+02, 4.422E+01, 1.717E+02, 2.290E+02, 4.403E+01,-1.550E+01, 1.972E-01, 7.266E-03, 2.459E+02
 3.100E+02, 1.418E+02, 1.449E+02, 1.644E+02, 2.173E+02, 4.364E+01, 1.703E+02, 2.196E+02, 4.481E+01,-2.842E+01, 1.966E-01, 7.623E-03, 2.284E+02
 3.200E+02, 1.382E+02, 1.419E+02, 1.599E+02, 2.113E+02, 4.341E+01, 1.674E+02, 2.133E+02, 4.507E+01,-8.009E+01, 1.959E-01, 7.996E-03, 1.698E+02
 3.300E+02, 1.342E+02, 1.424E+02, 1.519E+02, 2.065E+02, 4.434E+01, 1.667E+02, 2.154E+02, 4.512E+01, 1.041E+01, 1.955E-01, 8.232E-03, 2.239E+02
 3.400E+02, 1.329E+02, 1.377E+02, 1.554E+02, 1.985E+02, 4.482E+01, 1.574E+02, 2.101E+02, 4.561E+01,-9.940E+01, 1.948E-01, 8.635E-03, 9.835E+01
 3.500E+02, 1.293E+02, 1.426E+02, 1.454E+02, 1.960E+02, 4.648E+01, 1.658E+02, 2.171E+02, 4.492E+01, 5.140E+01, 1.945E-01, 8.797E-03, 2.038E+02
 3.600E+02, 1.265E+02, 1.322E+02, 1.471E+02, 1.857E+02, 4.673E+01, 1.554E+02, 1.944E+02, 4.699E+01,-7.969E+01, 1.928E-01, 9.751E-03, 6.180E+00
 3.700E+02, 1.262E+02, 1.593E+02, 1.469E+02, 1.855E+02, 4.614E+01, 2.088E+02, 2.220E+02, 4.705E+01,-4.262E+01, 1.929E-01, 9.679E-03, 5.930E-01
 3.800E+02, 1.203E+02, 1.332E+02, 1.370E+02, 1.765E+02, 4.734E+01, 1.634E+02, 1.901E+02, 4.612E+01,-7.494E+01, 1.929E-01, 9.703E-03, 5.295E+00
 3.900E+02, 1.175E+02, 1.200E+02, 1.356E+02, 1.703E+02, 4.660E+01, 1.321E+02, 1.814E+02, 4.641E+01,-2.752E+01, 1.921E-01, 1.012E-02, 3.587E+00
 4.000E+02, 1.176E+02, 1.296E+02, 1.306E+02, 1.755E+02, 4.678E+01, 1.360E+02, 2.067E+02, 4.630E+01, 1.424E+01, 1.917E-01, 1.038E-02, 6.836E+00
 4.100E+02, 1.177E+02, 1.227E+02, 1.245E+02, 1.825E+02, 4.609E+01, 1.329E+02, 1.883E+02, 4.675E+01,-5.723E+01, 1.910E-01, 1.078E-02, 2.198E+00
 4.200E+02, 1.158E+02, 1.192E+02, 1.257E+02, 1.750E+02, 4.661E+01, 1.197E+02, 1.914E+02, 4.635E+01,-4.490E+01, 1.910E-01, 1.077E-02, 1.490E+00
 4.300E+02, 1.176E+02, 1.283E+02, 1.221E+02, 1.831E+02, 4.759E+01, 1.213E+02, 2.181E+02, 4.550E+01, 3.190E+01, 1.909E-01, 1.078E-02, 7.280E-01
 4.400E+02, 1.172E+02, 1.322E+02, 1.185E+02, 1.858E+02, 4.723E+01, 1.273E+02, 2.228E+02, 4.644E+01,-2.386E+01, 1.902E-01, 1.119E-02, 5.605E-02
 4.500E+02, 1.156E+02, 1.261E+02, 1.188E+02, 1.808E+02, 4.718E+01, 1.226E+02, 2.092E+02, 4.651E+01,-4.138E+01, 1.904E-01, 1.111E-02, 1.207E+00
 4.600E+02, 1.149E+02, 1.715E+02, 1.150E+02, 1.818E+02, 4.801E+01, 1.632E+02, 3.039E+02, 4.739E+01, 4.741E+01, 1.902E-01, 1.122E-02, 1.625E+00
 4.700E+02, 1.197E+02, 1.288E+02, 1.170E+02, 1.936E+02, 4.842E+01, 1.182E+02, 2.203E+02, 4.796E+01, 1.916E+01, 1.897E-01, 1.147E-02, 2.643E-02
 4.800E+02, 1.186E+02, 1.392E+02, 1.156E+02, 1.908E+02, 4.954E+01, 1.365E+02, 2.314E+02, 4.958E+01,-2.332E+01, 1.879E-01, 1.247E-02, 2.739E-01
 4.900E+02, 1.169E+02, 1.426E+02, 1.155E+02, 1.843E+02, 5.083E+01, 1.185E+02, 2.601E+02, 4.921E+01, 7.349E+00, 1.881E-01, 1.235E-02, 2.815E+00
 5.000E+02, 1.209E+02, 1.420E+02, 1.149E+02, 1.963E+02, 5.140E+01, 1.193E+02, 2.567E+02, 5.003E+01, 2.495E+01, 1.880E-01, 1.244E-02, 2.306E+00
 5.100E+02, 1.209E+02, 1.299E+02, 1.152E+02, 1.968E+02, 5.070E+01, 1.147E+02, 2.234E+02, 5.170E+01,-3.268E+01, 1.873E-01, 1.283E-02, 3.934E-01
 5.200E+02, 1.190E+02, 1.242E+02, 1.149E+02, 1.903E+02, 5.179E+01, 1.132E+02, 2.083E+02, 5.113E+01,-3.199E+01, 1.874E-01, 1.278E-02, 1.109E-01
 5.300E+02, 1.171E+02, 1.234E+02, 1.123E+02, 1.856E+02, 5.323E+01, 1.089E+02, 2.098E+02, 5.148E+01,-1.475E+01, 1.871E-01, 1.293E-02, 3.096E-01
 5.400E+02, 1.210E+02, 1.279E+02, 1.118E+02, 1.974E+02, 5.387E+01, 1.095E+02, 2.216E+02, 5.268E+01, 1.502E+01, 1.865E-01, 1.329E-02, 6.735E-01
 5.500E+02, 1.192E+02, 1.271E+02, 1.115E+02, 1.911E+02, 5.506E+01, 1.106E+02, 2.175E+02, 5.309E+01,-2.619E+01, 1.865E-01, 1.325E-02, 6.117E-01
 5.600E+02, 1.161E+02, 1.221E+02, 1.103E+02, 1.833E+02, 5.474E+01, 1.057E+02, 2.067E+02, 5.375E+01,-4.178E+01, 1.860E-01, 1.352E-02, 1.557E+00
 5.700E+02, 1.136E+02, 1.188E+02, 1.085E+02, 1.776E+02, 5.469E+01, 1.020E+02, 1.998E+02, 5.467E+01,-2.822E+01, 1.864E-01, 1.332E-02, 2.175E+00
 5.800E+02, 1.129E+02, 1.175E+02, 1.060E+02, 1.765E+02, 5.607E+01, 1.001E+02, 1.976E+02, 5.487E+01,-2.814E+01, 1.860E-01, 1.356E-02, 1.432E+00
 5.900E+02, 1.123E+02, 1.163E+02, 1.047E+02, 1.746E+02, 5.759E+01, 9.992E+01, 1.933E+02, 5.563E+01,-2.232E+01, 1.845E-01, 1.440E-02, 4.804E-01
 6.000E+02, 1.115E+02, 1.164E+02, 1.028E+02, 1.741E+02, 5.759E+01, 9.740E+01, 1.951E+02, 5.662E+01,-1.831E+01, 1.842E-01, 1.454E-02, 2.503E-02
 6.100E+02, 1.105E+02, 1.132E+02, 1.009E+02, 1.716E+02, 5.897E+01, 9.539E+01, 1.870E+02, 5.711E+01,-2.590E+01, 1.838E-01, 1.478E-02, 1.932E+00
 6.200E+02, 1.088E+02, 1.142E+02, 9.948E+01, 1.679E+02, 5.903E+01, 9.515E+01, 1.899E+02, 5.768E+01,-2.344E+01, 1.836E-01, 1.490E-02, 9.938E-02
 6.300E+02, 1.082E+02, 1.109E+02, 9.703E+01, 1.673E+02, 6.035E+01, 9.166E+01, 1.830E+02, 5.811E+01,-1.883E+01, 1.835E-01, 1.494E-02, 6.330E-01
 6.400E+02, 1.060E+02, 1.104E+02, 9.566E+01, 1.628E+02, 5.960E+01, 8.991E+01, 1.827E+02, 5.861E+01,-2.572E+01, 1.833E-01, 1.508E-02, 1.121E+00
 6.500E+02, 1.058E+02, 1.089E+02, 9.413E+01, 1.625E+02, 6.074E+01, 8.818E+01, 1.795E+02, 5.916E+01,-1.829E+01, 1.830E-01, 1.523E-02, 7.317E-01
 6.600E+02, 1.043E+02, 1.093E+02, 9.179E+01, 1.599E+02, 6.114E+01, 8.667E+01, 1.814E+02, 5.969E+01,-1.518E+01, 1.822E-01, 1.568E-02, 2.091E-02
 6.700E+02, 1.040E+02, 1.069E+02, 9.076E+01, 1.588E+02, 6.239E+01, 8.496E+01, 1.752E+02, 6.066E+01,-1.778E+01, 1.817E-01, 1.596E-02, 2.997E-01
 6.800E+02, 1.029E+02, 1.065E+02, 9.013E+01, 1.560E+02, 6.259E+01, 8.364E+01, 1.736E+02, 6.221E+01,-1.719E+01, 1.807E-01, 1.649E-02, 8.570E-01
 6.901E+02, 1.023E+02, 1.052E+02, 8.970E+01, 1.537E+02, 6.352E+01, 8.352E+01, 1.697E+02, 6.241E+01,-1.793E+01, 1.807E-01, 1.650E-02, 5.248E-01
 7.000E+02, 1.017E+02, 1.059E+02, 8.882E+01, 1.518E+02, 6.440E+01, 8.394E+01, 1.712E+02, 6.258E+01,-1.473E+01, 1.808E-01, 1.647E-02, 1.147E+00
 7.100E+02, 1.009E+02, 1.055E+02, 8.768E+01, 1.504E+02, 6.465E+01, 8.427E+01, 1.685E+02, 6.365E+01,-1.480E+01, 1.803E-01, 1.672E-02, 5.426E-02
 7.200E+02, 1.007E+02, 1.059E+02, 8.727E+01, 1.500E+02, 6.489E+01, 8.579E+01, 1.683E+02, 6.369E+01,-1.208E+01, 1.808E-01, 1.647E-02, 2.676E-01
 7.300E+02, 9.974E+01, 1.052E+02, 8.664E+01, 1.474E+02, 6.516E+01, 8.387E+01, 1.670E+02, 6.460E+01,-1.249E+01, 1.804E-01, 1.670E-02, 2.654E-01
 7.400E+02, 9.975E+01, 1.061E+02, 8.596E+01, 1.455E+02, 6.776E+01, 8.058E+01, 1.722E+02, 6.554E+01,-1.219E+01, 1.790E-01, 1.747E-02, 3.159E-02
 7.500E+02, 9.882E+01, 1.067E+02, 8.499E+01, 1.440E+02, 6.747E+01, 8.033E+01, 1.723E+02, 6.733E+01,-1.074E+01, 1.784E-01, 1.782E-02, 3.522E-01
 7.600E+02, 9.925E+01, 1.049E+02, 8.387E+01, 1.440E+02, 6.992E+01, 7.943E+01, 1.666E+02, 6.873E+01,-8.126E+00, 1.784E-01, 1.778E-02, 1.989E-01
 7.700E+02, 1.002E+02, 1.042E+02, 8.284E+01, 1.449E+02, 7.295E+01, 7.898E+01, 1.629E+02, 7.079E+01,-1.198E+01, 1.774E-01, 1.833E-02, 2.030E-04
 7.800E+02, 1.008E+02, 1.066E+02, 8.235E+01, 1.450E+02, 7.511E+01, 7.914E+01, 1.678E+02, 7.279E+01,-1.504E+00, 1.762E-01, 1.904E-02, 2.351E-04
 7.900E+02, 1.025E+02, 1.039E+02, 8.186E+01, 1.460E+02, 7.966E+01, 7.803E+01, 1.594E+02, 7.432E+01, 1.317E-01, 1.749E-01, 1.977E-02, 2.676E-03
 8.000E+02, 1.040E+02, 1.063E+02, 8.206E+01, 1.465E+02, 8.341E+01, 7.859E+01, 1.623E+02, 7.805E+01, 1.619E+00, 1.739E-01, 2.032E-02, 1.544E-03
 8.100E+02, 1.068E+02, 1.091E+02, 8.194E+01, 1.472E+02, 9.136E+01, 7.995E+01, 1.631E+02, 8.430E+01, 5.349E+00, 1.720E-01, 2.137E-02, 3.559E-03
 8.200E+02, 1.095E+02, 1.117E+02, 8.198E+01, 1.483E+02, 9.825E+01, 8.000E+01, 1.671E+02, 8.812E+01, 5.771E+00, 1.707E-01, 2.210E-02, 7.012E-03
 8.300E+02, 1.106E+02, 1.131E+02, 8.224E+01, 1.484E+02, 1.013E+02, 7.989E+01, 1.662E+02, 9.329E+01, 3.165E+00, 1.690E-01, 2.304E-02, 6.248E-03
 8.400E+02, 1.127E+02, 1.150E+02, 8.204E+01, 1.499E+02, 1.060E+02, 7.882E+01, 1.703E+02, 9.585E+01, 1.485E+01, 1.679E-01, 2.367E-02, 9.916E-03
 8.500E+02, 1.144E+02, 1.187E+02, 8.150E+01, 1.519E+02, 1.098E+02, 7.947E+01, 1.754E+02, 1.012E+02, 1.308E+01, 1.672E-01, 2.402E-02, 1.580E-02
 8.600E+02, 1.166E+02, 1.222E+02, 8.203E+01, 1.553E+02, 1.125E+02, 8.046E+01, 1.818E+02, 1.043E+02, 1.955E+01, 1.661E-01, 2.469E-02, 2.200E-01
 8.700E+02, 1.200E+02, 1.239E+02, 8.263E+01, 1.582E+02, 1.191E+02, 7.912E+01, 1.853E+02, 1.072E+02, 1.173E+01, 1.641E-01, 2.577E-02, 5.858E-01
 8.800E+02, 1.217E+02, 1.255E+02, 8.303E+01, 1.596E+02, 1.226E+02, 7.951E+01, 1.860E+02, 1.109E+02, 8.487E+00, 1.620E-01, 2.694E-02, 6.935E-02
 8.900E+02, 1.230E+02, 1.357E+02, 8.282E+01, 1.646E+02, 1.215E+02, 8.089E+01, 2.125E+02, 1.137E+02, 3.357E+01, 1.610E-01, 2.751E-02, 5.921E+00
 9.000E+02, 1.309E+02, 1.537E+02, 8.529E+01, 1.831E+02, 1.244E+02, 8.396E+01, 2.641E+02, 1.130E+02, 6.574E+01, 1.605E-01, 2.779E-02, 2.132E+01
 9.100E+02, 1.372E+02, 1.625E+02, 8.819E+01, 2.009E+02, 1.226E+02, 8.794E+01, 2.871E+02, 1.125E+02, 7.822E+01, 1.589E-01, 2.867E-02, 1.412E+01
 9.200E+02, 1.426E+02, 1.767E+02, 9.253E+01, 2.143E+02, 1.210E+02, 9.377E+01, 3.250E+02, 1.115E+02, 8.500E+01, 1.576E-01, 2.944E-02, 8.462E+00
 9.300E+02, 1.498E+02, 1.825E+02, 9.839E+01, 2.292E+02, 1.218E+02, 1.011E+02, 3.345E+02, 1.120E+02, 6.527E+01, 1.563E-01, 3.012E-02, 1.088E+01
 9.400E+02, 1.557E+02, 1.858E+02, 1.048E+02, 2.431E+02, 1.191E+02, 1.070E+02, 3.388E+02, 1.116E+02, 4.629E+01, 1.535E-01, 3.173E-02, 1.808E+01
 9.500E+02, 1.615E+02, 1.910E+02, 1.104E+02, 2.519E+02, 1.223E+02, 1.137E+02, 3.490E+02, 1.103E+02, 2.989E+01, 1.518E-01, 3.265E-02, 1.916E+01
 9.600E+02, 1.599E+02, 1.878E+02, 1.154E+02, 2.488E+02, 1.156E+02, 1.202E+02, 3.329E+02, 1.104E+02,-1.391E+01, 1.503E-01, 3.347E-02, 1.406E+01
 9.700E+02, 1.602E+02, 1.876E+02, 1.197E+02, 2.490E+02, 1.120E+02, 1.245E+02, 3.308E+02, 1.074E+02,-1.117E+01, 1.509E-01, 3.318E-02, 4.363E+00
 9.800E+02, 1.604E+02, 1.837E+02, 1.229E+02, 2.497E+02, 1.087E+02, 1.280E+02, 3.194E+02, 1.038E+02,-1.851E+01, 1.509E-01, 3.314E-02, 4.865E+00
 9.900E+02, 1.586E+02, 1.826E+02, 1.248E+02, 2.465E+02, 1.044E+02, 1.302E+02, 3.157E+02, 1.019E+02,-1.781E+01, 1.504E-01, 3.342E-02, 6.248E+00
 1.000E+03, 1.592E+02, 1.828E+02, 1.266E+02, 2.497E+02, 1.012E+02, 1.314E+02, 3.169E+02, 1.002E+02,-1.540E+01, 1.502E-01, 3.357E-02, 5.723E+00
