s,C,C,C,C,C,C,C,C,Pa,mol/mol,mol/mol,kW
Time,"West_All_TCs","East_All_TCs","West_Bottom_TCs","West_Middle_TCs","West_Upper_TCs","East_Bottom_TCs","East_Middle_TCs","East_Upper_TCs","Pressure","O2","CO2","HRR"
-6.000E+01, 3.100E+01, 3.100E+01, 3.100E+01, 3.100E+01, 3.100E+01, 3.100E+01, 3.100E+01, 3.100E+01,-9.418E-06, 2.095E-01, 3.901E-04, 0.000E+00
-4.999E+01, 3.100E+01, 3.100E+01, 3.100E+01, 3.100E+01, 3.100E+01, 3.100E+01, 3.100E+01, 3.100E+01,-6.764E-04, 2.095E-01, 3.901E-04, 0.000E+00
-3.999E+01, 3.100E+01, 3.100E+01, 3.100E+01, 3.100E+01, 3.100E+01, 3.100E+01, 3.100E+01, 3.100E+01,-3.168E-05, 2.095E-01, 3.901E-04, 0.000E+00
-2.998E+01, 3.100E+01, 3.100E+01, 3.100E+01, 3.100E+01, 3.100E+01, 3.100E+01, 3.100E+01, 3.100E+01,-2.838E-05, 2.095E-01, 3.901E-04, 0.000E+00
-1.997E+01, 3.100E+01, 3.100E+01, 3.100E+01, 3.100E+01, 3.100E+01, 3.100E+01, 3.100E+01, 3.100E+01,-2.992E-05, 2.095E-01, 3.901E-04, 0.000E+00
-9.967E+00, 3.100E+01, 3.100E+01, 3.100E+01, 3.100E+01, 3.100E+01, 3.100E+01, 3.100E+01, 3.100E+01,-3.181E-05, 2.095E-01, 3.901E-04, 0.000E+00
 3.957E-02, 3.100E+01, 3.100E+01, 3.100E+01, 3.100E+01, 3.100E+01, 3.100E+01, 3.100E+01, 3.100E+01,-2.734E-05, 2.095E-01, 3.901E-04, 7.030E-04
 1.003E+01, 3.203E+01, 3.233E+01, 3.148E+01, 3.117E+01, 3.344E+01, 3.179E+01, 3.123E+01, 3.396E+01, 1.548E+01, 2.093E-01, 5.346E-04, 3.337E+01
 2.002E+01, 3.610E+01, 3.644E+01, 3.266E+01, 3.294E+01, 4.269E+01, 3.386E+01, 3.341E+01, 4.205E+01, 8.762E+01, 2.085E-01, 9.832E-04, 9.944E+01
 3.000E+01, 4.454E+01, 4.542E+01, 3.442E+01, 4.231E+01, 5.689E+01, 3.652E+01, 4.118E+01, 5.856E+01, 2.099E+02, 2.068E-01, 1.908E-03, 1.661E+02
 4.001E+01, 5.704E+01, 5.847E+01, 3.826E+01, 5.773E+01, 7.514E+01, 4.010E+01, 5.728E+01, 7.802E+01, 2.756E+02, 2.046E-01, 3.160E-03, 2.004E+02
 5.001E+01, 6.937E+01, 7.062E+01, 4.543E+01, 7.369E+01, 8.899E+01, 4.696E+01, 7.339E+01, 9.152E+01, 2.258E+02, 2.031E-01, 3.995E-03, 2.005E+02
 6.002E+01, 8.196E+01, 8.225E+01, 5.328E+01, 8.945E+01, 1.032E+02, 5.733E+01, 8.583E+01, 1.036E+02, 1.796E+02, 2.016E-01, 4.806E-03, 2.007E+02
 7.001E+01, 9.192E+01, 9.389E+01, 6.498E+01, 9.953E+01, 1.113E+02, 6.584E+01, 1.007E+02, 1.151E+02, 1.365E+02, 2.001E-01, 5.661E-03, 2.006E+02
 8.000E+01, 1.024E+02, 1.034E+02, 7.504E+01, 1.092E+02, 1.231E+02, 7.621E+01, 1.083E+02, 1.255E+02, 1.027E+02, 1.987E-01, 6.453E-03, 2.003E+02
 9.001E+01, 1.105E+02, 1.123E+02, 8.523E+01, 1.165E+02, 1.297E+02, 8.605E+01, 1.177E+02, 1.330E+02, 7.568E+01, 1.970E-01, 7.387E-03, 2.006E+02
 1.000E+02, 1.168E+02, 1.190E+02, 9.159E+01, 1.224E+02, 1.365E+02, 9.377E+01, 1.238E+02, 1.395E+02, 5.652E+01, 1.956E-01, 8.155E-03, 2.006E+02
 1.100E+02, 1.246E+02, 1.241E+02, 9.999E+01, 1.313E+02, 1.426E+02, 9.989E+01, 1.288E+02, 1.435E+02, 4.319E+01, 1.944E-01, 8.849E-03, 2.009E+02
 1.200E+02, 1.274E+02, 1.306E+02, 1.035E+02, 1.340E+02, 1.445E+02, 1.070E+02, 1.340E+02, 1.508E+02, 3.199E+01, 1.924E-01, 9.959E-03, 2.006E+02
 1.300E+02, 1.328E+02, 1.328E+02, 1.112E+02, 1.380E+02, 1.492E+02, 1.090E+02, 1.371E+02, 1.522E+02, 2.578E+01, 1.914E-01, 1.050E-02, 2.004E+02
 1.400E+02, 1.356E+02, 1.361E+02, 1.143E+02, 1.410E+02, 1.515E+02, 1.128E+02, 1.399E+02, 1.556E+02, 2.139E+01, 1.903E-01, 1.113E-02, 2.008E+02
 1.500E+02, 1.378E+02, 1.381E+02, 1.143E+02, 1.443E+02, 1.549E+02, 1.186E+02, 1.417E+02, 1.540E+02, 1.747E+01, 1.894E-01, 1.164E-02, 2.004E+02
 1.600E+02, 1.404E+02, 1.415E+02, 1.199E+02, 1.457E+02, 1.555E+02, 1.202E+02, 1.438E+02, 1.607E+02, 1.544E+01, 1.873E-01, 1.283E-02, 1.996E+02
 1.700E+02, 1.412E+02, 1.444E+02, 1.220E+02, 1.470E+02, 1.545E+02, 1.229E+02, 1.479E+02, 1.624E+02, 1.447E+01, 1.859E-01, 1.358E-02, 2.001E+02
 1.800E+02, 1.432E+02, 1.444E+02, 1.235E+02, 1.489E+02, 1.572E+02, 1.235E+02, 1.462E+02, 1.636E+02, 1.406E+01, 1.842E-01, 1.456E-02, 2.004E+02
 1.900E+02, 1.454E+02, 1.459E+02, 1.257E+02, 1.501E+02, 1.604E+02, 1.249E+02, 1.483E+02, 1.644E+02, 1.275E+01, 1.825E-01, 1.549E-02, 2.005E+02
 2.000E+02, 1.455E+02, 1.471E+02, 1.269E+02, 1.485E+02, 1.612E+02, 1.260E+02, 1.505E+02, 1.648E+02, 1.302E+01, 1.812E-01, 1.624E-02, 2.006E+02
 2.100E+02, 1.476E+02, 1.477E+02, 1.277E+02, 1.537E+02, 1.615E+02, 1.284E+02, 1.503E+02, 1.643E+02, 1.313E+01, 1.800E-01, 1.688E-02, 2.009E+02
 2.200E+02, 1.476E+02, 1.482E+02, 1.283E+02, 1.504E+02, 1.641E+02, 1.307E+02, 1.522E+02, 1.616E+02, 1.237E+01, 1.786E-01, 1.769E-02, 2.007E+02
 2.300E+02, 1.471E+02, 1.496E+02, 1.274E+02, 1.502E+02, 1.638E+02, 1.307E+02, 1.536E+02, 1.643E+02, 1.259E+01, 1.766E-01, 1.882E-02, 2.008E+02
 2.400E+02, 1.493E+02, 1.495E+02, 1.279E+02, 1.538E+02, 1.664E+02, 1.308E+02, 1.520E+02, 1.655E+02, 1.217E+01, 1.751E-01, 1.962E-02, 2.002E+02
 2.500E+02, 1.494E+02, 1.508E+02, 1.288E+02, 1.541E+02, 1.652E+02, 1.302E+02, 1.542E+02, 1.681E+02, 1.230E+01, 1.730E-01, 2.081E-02, 2.011E+02
 2.600E+02, 1.519E+02, 1.486E+02, 1.300E+02, 1.574E+02, 1.684E+02, 1.302E+02, 1.522E+02, 1.634E+02, 1.244E+01, 1.723E-01, 2.121E-02, 2.002E+02
 2.700E+02, 1.491E+02, 1.502E+02, 1.300E+02, 1.536E+02, 1.636E+02, 1.326E+02, 1.532E+02, 1.649E+02, 1.240E+01, 1.707E-01, 2.207E-02, 2.003E+02
 2.800E+02, 1.503E+02, 1.509E+02, 1.332E+02, 1.548E+02, 1.629E+02, 1.315E+02, 1.544E+02, 1.667E+02, 1.242E+01, 1.689E-01, 2.312E-02, 2.012E+02
 2.900E+02, 1.534E+02, 1.515E+02, 1.318E+02, 1.588E+02, 1.696E+02, 1.319E+02, 1.552E+02, 1.673E+02, 1.254E+01, 1.673E-01, 2.398E-02, 1.999E+02
 3.000E+02, 1.537E+02, 1.511E+02, 1.330E+02, 1.620E+02, 1.661E+02, 1.314E+02, 1.546E+02, 1.673E+02, 1.258E+01, 1.659E-01, 2.477E-02, 2.007E+02
 3.100E+02, 1.523E+02, 1.503E+02, 1.337E+02, 1.566E+02, 1.665E+02, 1.297E+02, 1.532E+02, 1.681E+02, 1.293E+01, 1.641E-01, 2.576E-02, 2.002E+02
 3.200E+02, 1.555E+02, 1.504E+02, 1.338E+02, 1.604E+02, 1.723E+02, 1.312E+02, 1.529E+02, 1.670E+02, 1.257E+01, 1.626E-01, 2.662E-02, 1.998E+02
 3.300E+02, 1.545E+02, 1.509E+02, 1.341E+02, 1.611E+02, 1.684E+02, 1.314E+02, 1.538E+02, 1.674E+02, 1.220E+01, 1.614E-01, 2.731E-02, 2.000E+02
 3.400E+02, 1.518E+02, 1.511E+02, 1.314E+02, 1.573E+02, 1.667E+02, 1.318E+02, 1.526E+02, 1.690E+02, 1.283E+01, 1.592E-01, 2.854E-02, 1.994E+02
 3.500E+02, 1.520E+02, 1.512E+02, 1.305E+02, 1.574E+02, 1.682E+02, 1.325E+02, 1.557E+02, 1.653E+02, 1.271E+01, 1.575E-01, 2.948E-02, 2.000E+02
 3.600E+02, 1.524E+02, 1.515E+02, 1.318E+02, 1.555E+02, 1.698E+02, 1.316E+02, 1.553E+02, 1.676E+02, 1.298E+01, 1.561E-01, 3.023E-02, 2.003E+02
 3.700E+02, 1.557E+02, 1.523E+02, 1.340E+02, 1.626E+02, 1.707E+02, 1.331E+02, 1.554E+02, 1.683E+02, 1.266E+01, 1.546E-01, 3.111E-02, 2.005E+02
 3.800E+02, 1.546E+02, 1.529E+02, 1.341E+02, 1.623E+02, 1.675E+02, 1.330E+02, 1.568E+02, 1.691E+02, 1.284E+01, 1.522E-01, 3.243E-02, 2.002E+02
 3.900E+02, 1.525E+02, 1.532E+02, 1.314E+02, 1.591E+02, 1.671E+02, 1.324E+02, 1.569E+02, 1.703E+02, 1.296E+01, 1.510E-01, 3.312E-02, 2.008E+02
 4.000E+02, 1.534E+02, 1.550E+02, 1.325E+02, 1.597E+02, 1.680E+02, 1.329E+02, 1.611E+02, 1.712E+02, 1.258E+01, 1.493E-01, 3.405E-02, 2.003E+02
 4.100E+02, 1.537E+02, 1.559E+02, 1.327E+02, 1.586E+02, 1.697E+02, 1.351E+02, 1.591E+02, 1.735E+02, 1.269E+01, 1.472E-01, 3.522E-02, 1.996E+02
 4.200E+02, 1.544E+02, 1.553E+02, 1.318E+02, 1.607E+02, 1.708E+02, 1.336E+02, 1.596E+02, 1.726E+02, 1.269E+01, 1.459E-01, 3.597E-02, 2.007E+02
 4.300E+02, 1.551E+02, 1.550E+02, 1.337E+02, 1.617E+02, 1.700E+02, 1.348E+02, 1.587E+02, 1.715E+02, 1.289E+01, 1.442E-01, 3.692E-02, 2.001E+02
 4.400E+02, 1.546E+02, 1.561E+02, 1.338E+02, 1.587E+02, 1.713E+02, 1.345E+02, 1.574E+02, 1.763E+02, 1.273E+01, 1.419E-01, 3.819E-02, 2.002E+02
 4.500E+02, 1.554E+02, 1.582E+02, 1.337E+02, 1.616E+02, 1.709E+02, 1.359E+02, 1.633E+02, 1.754E+02, 1.289E+01, 1.405E-01, 3.898E-02, 2.007E+02
 4.600E+02, 1.559E+02, 1.581E+02, 1.341E+02, 1.627E+02, 1.710E+02, 1.351E+02, 1.605E+02, 1.788E+02, 1.278E+01, 1.385E-01, 4.006E-02, 2.009E+02
 4.700E+02, 1.570E+02, 1.573E+02, 1.329E+02, 1.645E+02, 1.735E+02, 1.355E+02, 1.620E+02, 1.743E+02, 1.294E+01, 1.372E-01, 4.084E-02, 1.998E+02
 4.800E+02, 1.564E+02, 1.569E+02, 1.337E+02, 1.623E+02, 1.732E+02, 1.349E+02, 1.620E+02, 1.738E+02, 1.311E+01, 1.350E-01, 4.205E-02, 1.995E+02
 4.900E+02, 1.597E+02, 1.570E+02, 1.376E+02, 1.692E+02, 1.723E+02, 1.353E+02, 1.604E+02, 1.753E+02, 3.893E+00, 1.338E-01, 4.270E-02, 1.792E+02
 5.000E+02, 1.562E+02, 1.559E+02, 1.344E+02, 1.641E+02, 1.701E+02, 1.327E+02, 1.582E+02, 1.767E+02, 2.202E+01, 1.319E-01, 4.376E-02, 1.973E+02
 5.100E+02, 1.552E+02, 1.544E+02, 1.344E+02, 1.614E+02, 1.699E+02, 1.339E+02, 1.575E+02, 1.716E+02, 1.609E+01, 1.319E-01, 4.375E-02, 1.867E+02
 5.200E+02, 1.545E+02, 1.533E+02, 1.362E+02, 1.594E+02, 1.680E+02, 1.328E+02, 1.561E+02, 1.711E+02, 1.236E+01, 1.304E-01, 4.456E-02, 1.888E+02
 5.300E+02, 1.532E+02, 1.527E+02, 1.344E+02, 1.577E+02, 1.675E+02, 1.323E+02, 1.555E+02, 1.702E+02, 7.895E+00, 1.292E-01, 4.523E-02, 1.685E+02
 5.400E+02, 1.492E+02, 1.494E+02, 1.297E+02, 1.527E+02, 1.653E+02, 1.308E+02, 1.516E+02, 1.657E+02,-1.255E+01, 1.284E-01, 4.563E-02, 1.479E+02
 5.500E+02, 1.458E+02, 1.464E+02, 1.270E+02, 1.498E+02, 1.606E+02, 1.286E+02, 1.492E+02, 1.613E+02,-2.591E+01, 1.278E-01, 4.595E-02, 1.196E+02
 5.600E+02, 1.440E+02, 1.457E+02, 1.245E+02, 1.470E+02, 1.605E+02, 1.284E+02, 1.464E+02, 1.623E+02, 3.091E+01, 1.268E-01, 4.646E-02, 1.838E+02
 5.700E+02, 1.455E+02, 1.463E+02, 1.246E+02, 1.491E+02, 1.627E+02, 1.276E+02, 1.508E+02, 1.605E+02, 1.735E+01, 1.266E-01, 4.656E-02, 1.491E+02
 5.800E+02, 1.456E+02, 1.462E+02, 1.237E+02, 1.506E+02, 1.625E+02, 1.295E+02, 1.516E+02, 1.576E+02,-3.141E+00, 1.266E-01, 4.656E-02, 1.465E+02
 5.900E+02, 1.433E+02, 1.433E+02, 1.227E+02, 1.485E+02, 1.588E+02, 1.265E+02, 1.485E+02, 1.551E+02,-1.373E+01, 1.255E-01, 4.717E-02, 1.268E+02
 6.000E+02, 1.411E+02, 1.416E+02, 1.218E+02, 1.481E+02, 1.533E+02, 1.253E+02, 1.469E+02, 1.526E+02,-1.446E+00, 1.254E-01, 4.721E-02, 1.259E+02
 6.100E+02, 1.393E+02, 1.406E+02, 1.211E+02, 1.448E+02, 1.521E+02, 1.267E+02, 1.449E+02, 1.502E+02, 2.321E+00, 1.250E-01, 4.738E-02, 1.238E+02
 6.200E+02, 1.387E+02, 1.398E+02, 1.217E+02, 1.444E+02, 1.500E+02, 1.265E+02, 1.411E+02, 1.518E+02, 4.670E+01, 1.248E-01, 4.741E-02, 1.456E+02
 6.300E+02, 1.374E+02, 1.378E+02, 1.234E+02, 1.410E+02, 1.478E+02, 1.252E+02, 1.387E+02, 1.494E+02, 7.585E+00, 1.249E-01, 4.735E-02, 1.060E+02
 6.400E+02, 1.317E+02, 1.353E+02, 1.169E+02, 1.351E+02, 1.432E+02, 1.265E+02, 1.373E+02, 1.419E+02,-1.260E+01, 1.251E-01, 4.723E-02, 8.051E+01
 6.500E+02, 1.273E+02, 1.398E+02, 1.148E+02, 1.308E+02, 1.361E+02, 1.388E+02, 1.388E+02, 1.418E+02,-1.188E+01, 1.272E-01, 4.587E-02, 1.933E+01
 6.600E+02, 1.228E+02, 1.257E+02, 1.135E+02, 1.261E+02, 1.288E+02, 1.145E+02, 1.274E+02, 1.353E+02,-4.312E+00, 1.305E-01, 4.416E-02, 0.000E+00
 6.700E+02, 1.229E+02, 1.212E+02, 1.169E+02, 1.247E+02, 1.272E+02, 1.103E+02, 1.231E+02, 1.303E+02, 1.806E+00, 1.289E-01, 4.496E-02, 0.000E+00
 6.801E+02, 1.186E+02, 1.197E+02, 1.117E+02, 1.213E+02, 1.228E+02, 1.152E+02, 1.202E+02, 1.236E+02,-1.907E+01, 1.285E-01, 4.512E-02, 1.082E-02
 6.900E+02, 1.142E+02, 1.127E+02, 1.077E+02, 1.161E+02, 1.189E+02, 1.045E+02, 1.136E+02, 1.201E+02,-5.641E+00, 1.308E-01, 4.380E-02, 0.000E+00
 7.000E+02, 1.122E+02, 1.096E+02, 1.075E+02, 1.134E+02, 1.156E+02, 9.982E+01, 1.106E+02, 1.185E+02, 4.628E+00, 1.288E-01, 4.469E-02, 0.000E+00
 7.100E+02, 1.098E+02, 1.061E+02, 1.047E+02, 1.119E+02, 1.129E+02, 9.890E+01, 1.065E+02, 1.130E+02,-1.194E+00, 1.294E-01, 4.449E-02, 0.000E+00
 7.200E+02, 1.047E+02, 1.051E+02, 9.743E+01, 1.077E+02, 1.089E+02, 9.818E+01, 1.057E+02, 1.115E+02,-1.813E-01, 1.302E-01, 4.402E-02, 0.000E+00
 7.300E+02, 1.033E+02, 1.025E+02, 9.908E+01, 1.043E+02, 1.065E+02, 9.482E+01, 1.039E+02, 1.089E+02, 1.465E+00, 1.298E-01, 4.406E-02, 0.000E+00
 7.400E+02, 1.008E+02, 9.881E+01, 9.501E+01, 1.029E+02, 1.044E+02, 9.036E+01, 1.007E+02, 1.054E+02, 1.322E+00, 1.303E-01, 4.381E-02, 0.000E+00
 7.500E+02, 9.850E+01, 9.708E+01, 9.336E+01, 9.971E+01, 1.024E+02, 9.039E+01, 9.778E+01, 1.031E+02, 1.978E+00, 1.301E-01, 4.389E-02, 0.000E+00
 7.600E+02, 9.678E+01, 9.456E+01, 9.257E+01, 9.801E+01, 9.977E+01, 8.844E+01, 9.475E+01, 1.005E+02, 2.804E+00, 1.302E-01, 4.366E-02, 0.000E+00
 7.700E+02, 9.430E+01, 9.259E+01, 8.961E+01, 9.594E+01, 9.736E+01, 8.606E+01, 9.252E+01, 9.919E+01, 3.482E+00, 1.303E-01, 4.358E-02, 0.000E+00
 7.800E+02, 9.308E+01, 9.142E+01, 8.877E+01, 9.423E+01, 9.625E+01, 8.420E+01, 9.217E+01, 9.789E+01, 3.775E+00, 1.303E-01, 4.346E-02, 0.000E+00
 7.900E+02, 9.068E+01, 8.997E+01, 8.534E+01, 9.215E+01, 9.455E+01, 8.253E+01, 9.122E+01, 9.617E+01, 4.080E+00, 1.303E-01, 4.332E-02, 0.000E+00
 8.000E+02, 9.020E+01, 8.907E+01, 8.693E+01, 9.083E+01, 9.283E+01, 8.378E+01, 8.920E+01, 9.424E+01, 4.218E+00, 1.305E-01, 4.326E-02, 0.000E+00
 8.100E+02, 8.861E+01, 8.775E+01, 8.534E+01, 8.959E+01, 9.089E+01, 8.281E+01, 8.778E+01, 9.264E+01, 3.719E+00, 1.307E-01, 4.310E-02, 0.000E+00
 8.200E+02, 8.691E+01, 8.582E+01, 8.404E+01, 8.781E+01, 8.889E+01, 8.066E+01, 8.600E+01, 9.079E+01, 4.488E+00, 1.306E-01, 4.305E-02, 0.000E+00
 8.300E+02, 8.597E+01, 8.447E+01, 8.369E+01, 8.655E+01, 8.767E+01, 7.949E+01, 8.478E+01, 8.913E+01, 4.059E+00, 1.303E-01, 4.300E-02, 0.000E+00
 8.400E+02, 8.462E+01, 8.333E+01, 8.224E+01, 8.512E+01, 8.649E+01, 7.824E+01, 8.431E+01, 8.745E+01, 4.240E+00, 1.302E-01, 4.297E-02, 0.000E+00
 8.500E+02, 8.312E+01, 8.253E+01, 8.024E+01, 8.415E+01, 8.497E+01, 7.841E+01, 8.303E+01, 8.616E+01, 4.085E+00, 1.306E-01, 4.284E-02, 0.000E+00
 8.600E+02, 8.171E+01, 8.134E+01, 7.919E+01, 8.245E+01, 8.348E+01, 7.739E+01, 8.142E+01, 8.522E+01, 3.336E+00, 1.305E-01, 4.261E-02, 0.000E+00
 8.701E+02, 8.072E+01, 8.040E+01, 7.840E+01, 8.133E+01, 8.243E+01, 7.665E+01, 8.084E+01, 8.370E+01, 4.222E+00, 1.305E-01, 4.268E-02, 0.000E+00
 8.800E+02, 7.981E+01, 7.874E+01, 7.762E+01, 8.045E+01, 8.135E+01, 7.407E+01, 7.954E+01, 8.260E+01, 4.382E+00, 1.304E-01, 4.259E-02, 0.000E+00
 8.900E+02, 7.872E+01, 7.767E+01, 7.679E+01, 7.926E+01, 8.010E+01, 7.377E+01, 7.786E+01, 8.139E+01, 4.231E+00, 1.304E-01, 4.246E-02, 0.000E+00
 9.001E+02, 7.723E+01, 7.690E+01, 7.477E+01, 7.799E+01, 7.892E+01, 7.305E+01, 7.715E+01, 8.052E+01, 4.243E+00, 1.307E-01, 4.236E-02, 0.000E+00
 9.101E+02, 7.659E+01, 7.595E+01, 7.483E+01, 7.696E+01, 7.799E+01, 7.270E+01, 7.618E+01, 7.896E+01, 4.200E+00, 1.306E-01, 4.240E-02, 0.000E+00
 9.200E+02, 7.524E+01, 7.514E+01, 7.248E+01, 7.618E+01, 7.707E+01, 7.235E+01, 7.481E+01, 7.827E+01, 4.384E+00, 1.307E-01, 4.213E-02, 0.000E+00
 9.300E+02, 7.462E+01, 7.379E+01, 7.247E+01, 7.520E+01, 7.620E+01, 7.045E+01, 7.353E+01, 7.738E+01, 4.862E+00, 1.303E-01, 4.209E-02, 0.000E+00
 9.400E+02, 7.380E+01, 7.375E+01, 7.148E+01, 7.454E+01, 7.539E+01, 7.065E+01, 7.395E+01, 7.666E+01, 4.985E+00, 1.301E-01, 4.216E-02, 0.000E+00
 9.500E+02, 7.369E+01, 7.276E+01, 7.234E+01, 7.392E+01, 7.481E+01, 6.956E+01, 7.295E+01, 7.577E+01, 4.487E+00, 1.304E-01, 4.218E-02, 0.000E+00
 9.600E+02, 7.290E+01, 7.172E+01, 7.098E+01, 7.347E+01, 7.425E+01, 6.875E+01, 7.117E+01, 7.523E+01, 4.452E+00, 1.303E-01, 4.200E-02, 0.000E+00
 9.701E+02, 7.175E+01, 7.058E+01, 6.912E+01, 7.283E+01, 7.329E+01, 6.810E+01, 7.008E+01, 7.356E+01, 4.793E+00, 1.301E-01, 4.163E-02, 0.000E+00
 9.800E+02, 7.090E+01, 7.089E+01, 6.826E+01, 7.187E+01, 7.258E+01, 6.868E+01, 7.081E+01, 7.317E+01, 4.652E+00, 1.300E-01, 4.177E-02, 0.000E+00
 9.900E+02, 7.084E+01, 6.986E+01, 6.927E+01, 7.119E+01, 7.206E+01, 6.690E+01, 7.013E+01, 7.255E+01, 4.466E+00, 1.300E-01, 4.179E-02, 0.000E+00
 1.000E+03, 7.053E+01, 6.917E+01, 6.929E+01, 7.076E+01, 7.153E+01, 6.622E+01, 6.938E+01, 7.190E+01, 3.850E+00, 1.300E-01, 4.183E-02, 0.000E+00
