s,C,C,C,C,C,C,C,C,Pa,mol/mol,mol/mol,kW
Time,West_All_TCs,East_All_TCs,West_Bottom_TCs,West_Middle_TCs,West_Upper_TCs,East_Bottom_TCs,East_Middle_TCs,East_Upper_TCs,Pressure,O2,CO2,HRR
-6.000E+01, 2.500E+01, 2.500E+01, 2.500E+01, 2.500E+01, 2.500E+01, 2.500E+01, 2.500E+01, 2.500E+01,-9.627E-06, 2.095E-01, 3.901E-04, 0.000E+00
-4.999E+01, 2.500E+01, 2.500E+01, 2.500E+01, 2.500E+01, 2.500E+01, 2.500E+01, 2.500E+01, 2.500E+01,-6.953E-04, 2.095E-01, 3.901E-04, 0.000E+00
-3.999E+01, 2.500E+01, 2.500E+01, 2.500E+01, 2.500E+01, 2.500E+01, 2.500E+01, 2.500E+01, 2.500E+01,-3.120E-05, 2.095E-01, 3.901E-04, 0.000E+00
-2.998E+01, 2.500E+01, 2.500E+01, 2.500E+01, 2.500E+01, 2.500E+01, 2.500E+01, 2.500E+01, 2.500E+01,-2.652E-05, 2.095E-01, 3.901E-04, 0.000E+00
-1.997E+01, 2.500E+01, 2.500E+01, 2.500E+01, 2.500E+01, 2.500E+01, 2.500E+01, 2.500E+01, 2.500E+01,-2.689E-05, 2.095E-01, 3.901E-04, 0.000E+00
-9.967E+00, 2.500E+01, 2.500E+01, 2.500E+01, 2.500E+01, 2.500E+01, 2.500E+01, 2.500E+01, 2.500E+01,-2.775E-05, 2.095E-01, 3.901E-04, 0.000E+00
 3.957E-02, 2.500E+01, 2.500E+01, 2.500E+01, 2.500E+01, 2.500E+01, 2.500E+01, 2.500E+01, 2.500E+01,-2.570E-05, 2.095E-01, 3.901E-04, 3.535E-04
 1.002E+01, 2.525E+01, 2.529E+01, 2.531E+01, 2.513E+01, 2.532E+01, 2.538E+01, 2.515E+01, 2.533E+01, 4.505E+00, 2.094E-01, 4.496E-04, 1.647E+01
 2.001E+01, 2.629E+01, 2.641E+01, 2.602E+01, 2.557E+01, 2.728E+01, 2.630E+01, 2.556E+01, 2.737E+01, 2.487E+01, 2.088E-01, 7.877E-04, 4.962E+01
 3.002E+01, 2.945E+01, 2.976E+01, 2.700E+01, 2.801E+01, 3.334E+01, 2.744E+01, 2.822E+01, 3.361E+01, 5.990E+01, 2.084E-01, 1.038E-03, 8.299E+01
 4.001E+01, 3.542E+01, 3.580E+01, 2.802E+01, 3.454E+01, 4.371E+01, 2.859E+01, 3.477E+01, 4.404E+01, 7.961E+01, 2.073E-01, 1.659E-03, 1.000E+02
 5.001E+01, 4.095E+01, 4.144E+01, 3.045E+01, 4.163E+01, 5.078E+01, 3.075E+01, 4.139E+01, 5.219E+01, 7.133E+01, 2.064E-01, 2.169E-03, 1.001E+02
 6.001E+01, 4.652E+01, 4.733E+01, 3.297E+01, 4.870E+01, 5.790E+01, 3.452E+01, 4.945E+01, 5.803E+01, 6.147E+01, 2.058E-01, 2.508E-03, 1.001E+02
 7.000E+01, 5.235E+01, 5.228E+01, 3.732E+01, 5.473E+01, 6.501E+01, 3.783E+01, 5.394E+01, 6.507E+01, 5.255E+01, 2.048E-01, 3.039E-03, 1.001E+02
 8.000E+01, 5.741E+01, 5.783E+01, 4.217E+01, 6.084E+01, 6.920E+01, 4.257E+01, 6.155E+01, 6.936E+01, 4.522E+01, 2.043E-01, 3.294E-03, 1.001E+02
 9.001E+01, 6.223E+01, 6.222E+01, 4.628E+01, 6.609E+01, 7.432E+01, 4.655E+01, 6.630E+01, 7.381E+01, 3.850E+01, 2.038E-01, 3.610E-03, 1.002E+02
 1.000E+02, 6.591E+01, 6.711E+01, 5.044E+01, 6.981E+01, 7.747E+01, 5.130E+01, 7.052E+01, 7.951E+01, 3.314E+01, 2.027E-01, 4.209E-03, 1.002E+02
 1.100E+02, 6.956E+01, 7.095E+01, 5.507E+01, 7.445E+01, 7.916E+01, 5.569E+01, 7.432E+01, 8.284E+01, 2.809E+01, 2.022E-01, 4.489E-03, 1.001E+02
 1.200E+02, 7.315E+01, 7.380E+01, 5.938E+01, 7.777E+01, 8.230E+01, 5.857E+01, 7.765E+01, 8.517E+01, 2.420E+01, 2.019E-01, 4.684E-03, 1.002E+02
 1.300E+02, 7.548E+01, 7.754E+01, 6.266E+01, 7.981E+01, 8.398E+01, 6.376E+01, 8.183E+01, 8.703E+01, 2.076E+01, 2.014E-01, 4.963E-03, 1.003E+02
 1.400E+02, 7.939E+01, 7.925E+01, 6.660E+01, 8.419E+01, 8.740E+01, 6.613E+01, 8.295E+01, 8.867E+01, 1.777E+01, 2.007E-01, 5.320E-03, 1.002E+02
 1.500E+02, 8.140E+01, 8.202E+01, 6.845E+01, 8.630E+01, 8.944E+01, 7.010E+01, 8.452E+01, 9.145E+01, 1.547E+01, 2.001E-01, 5.659E-03, 1.001E+02
 1.600E+02, 8.342E+01, 8.463E+01, 7.201E+01, 8.734E+01, 9.091E+01, 7.325E+01, 8.719E+01, 9.346E+01, 1.381E+01, 1.996E-01, 5.960E-03, 1.002E+02
 1.700E+02, 8.570E+01, 8.608E+01, 7.461E+01, 8.912E+01, 9.336E+01, 7.431E+01, 8.846E+01, 9.546E+01, 1.268E+01, 1.989E-01, 6.324E-03, 1.003E+02
 1.800E+02, 8.710E+01, 8.799E+01, 7.527E+01, 9.058E+01, 9.547E+01, 7.675E+01, 9.094E+01, 9.627E+01, 1.137E+01, 1.984E-01, 6.594E-03, 1.002E+02
 1.900E+02, 8.855E+01, 8.921E+01, 7.687E+01, 9.196E+01, 9.681E+01, 7.763E+01, 9.146E+01, 9.855E+01, 1.042E+01, 1.978E-01, 6.977E-03, 1.001E+02
 2.000E+02, 9.030E+01, 9.032E+01, 7.888E+01, 9.268E+01, 9.932E+01, 7.884E+01, 9.267E+01, 9.945E+01, 1.002E+01, 1.972E-01, 7.313E-03, 1.002E+02
 2.100E+02, 9.117E+01, 9.179E+01, 7.903E+01, 9.560E+01, 9.887E+01, 8.075E+01, 9.418E+01, 1.004E+02, 9.618E+00, 1.966E-01, 7.647E-03, 1.002E+02
 2.200E+02, 9.251E+01, 9.338E+01, 8.017E+01, 9.698E+01, 1.004E+02, 8.313E+01, 9.651E+01, 1.005E+02, 9.437E+00, 1.958E-01, 8.059E-03, 1.006E+02
 2.300E+02, 9.403E+01, 9.342E+01, 8.228E+01, 9.775E+01, 1.021E+02, 8.143E+01, 9.628E+01, 1.025E+02, 9.145E+00, 1.949E-01, 8.597E-03, 1.002E+02
 2.400E+02, 9.437E+01, 9.509E+01, 8.362E+01, 9.730E+01, 1.022E+02, 8.345E+01, 9.764E+01, 1.042E+02, 8.957E+00, 1.943E-01, 8.910E-03, 1.005E+02
 2.500E+02, 9.482E+01, 9.488E+01, 8.385E+01, 9.776E+01, 1.029E+02, 8.348E+01, 9.741E+01, 1.038E+02, 8.835E+00, 1.938E-01, 9.191E-03, 1.004E+02
 2.600E+02, 9.563E+01, 9.547E+01, 8.407E+01, 9.852E+01, 1.043E+02, 8.467E+01, 9.830E+01, 1.034E+02, 8.674E+00, 1.932E-01, 9.540E-03, 1.001E+02
 2.700E+02, 9.595E+01, 9.740E+01, 8.409E+01, 9.950E+01, 1.043E+02, 8.604E+01, 1.017E+02, 1.045E+02, 8.627E+00, 1.924E-01, 9.983E-03, 1.001E+02
 2.800E+02, 9.703E+01, 9.753E+01, 8.597E+01, 9.937E+01, 1.057E+02, 8.527E+01, 1.010E+02, 1.064E+02, 8.715E+00, 1.915E-01, 1.047E-02, 1.003E+02
 2.900E+02, 9.757E+01, 9.755E+01, 8.707E+01, 9.989E+01, 1.057E+02, 8.639E+01, 1.007E+02, 1.055E+02, 8.829E+00, 1.913E-01, 1.058E-02, 1.006E+02
 3.000E+02, 9.772E+01, 9.782E+01, 8.655E+01, 1.016E+02, 1.050E+02, 8.745E+01, 1.012E+02, 1.048E+02, 8.754E+00, 1.906E-01, 1.099E-02, 1.005E+02
 3.100E+02, 9.859E+01, 9.713E+01, 8.803E+01, 1.020E+02, 1.058E+02, 8.668E+01, 9.942E+01, 1.053E+02, 8.693E+00, 1.902E-01, 1.118E-02, 1.004E+02
 3.200E+02, 1.008E+02, 9.835E+01, 8.894E+01, 1.034E+02, 1.101E+02, 8.755E+01, 1.007E+02, 1.068E+02, 8.828E+00, 1.893E-01, 1.172E-02, 1.009E+02
 3.300E+02, 1.022E+02, 9.758E+01, 9.130E+01, 1.044E+02, 1.109E+02, 8.673E+01, 9.965E+01, 1.064E+02, 8.861E+00, 1.887E-01, 1.206E-02, 1.010E+02
 3.400E+02, 9.964E+01, 9.921E+01, 8.961E+01, 1.031E+02, 1.062E+02, 8.943E+01, 1.021E+02, 1.061E+02, 8.753E+00, 1.879E-01, 1.250E-02, 1.004E+02
 3.500E+02, 1.006E+02, 9.918E+01, 9.083E+01, 1.040E+02, 1.071E+02, 8.802E+01, 1.016E+02, 1.079E+02, 8.751E+00, 1.873E-01, 1.283E-02, 1.010E+02
 3.600E+02, 9.964E+01, 9.941E+01, 8.752E+01, 1.032E+02, 1.082E+02, 8.854E+01, 1.010E+02, 1.087E+02, 8.838E+00, 1.865E-01, 1.328E-02, 1.006E+02
 3.700E+02, 1.009E+02, 9.993E+01, 8.970E+01, 1.048E+02, 1.083E+02, 8.892E+01, 1.016E+02, 1.093E+02, 8.773E+00, 1.855E-01, 1.383E-02, 1.004E+02
 3.800E+02, 1.029E+02, 1.005E+02, 9.196E+01, 1.065E+02, 1.103E+02, 8.897E+01, 1.025E+02, 1.101E+02, 9.087E+00, 1.849E-01, 1.414E-02, 1.010E+02
 3.900E+02, 1.015E+02, 9.976E+01, 8.907E+01, 1.047E+02, 1.105E+02, 8.858E+01, 1.011E+02, 1.096E+02, 8.711E+00, 1.844E-01, 1.446E-02, 1.003E+02
 4.000E+02, 1.012E+02, 1.004E+02, 8.940E+01, 1.050E+02, 1.090E+02, 8.988E+01, 1.023E+02, 1.089E+02, 8.804E+00, 1.838E-01, 1.477E-02, 1.004E+02
 4.100E+02, 1.025E+02, 1.008E+02, 9.333E+01, 1.050E+02, 1.091E+02, 8.947E+01, 1.025E+02, 1.103E+02, 9.082E+00, 1.830E-01, 1.520E-02, 1.010E+02
 4.200E+02, 1.025E+02, 1.008E+02, 9.366E+01, 1.054E+02, 1.084E+02, 8.897E+01, 1.040E+02, 1.096E+02, 8.913E+00, 1.824E-01, 1.554E-02, 1.003E+02
 4.300E+02, 1.016E+02, 1.007E+02, 9.191E+01, 1.038E+02, 1.091E+02, 8.886E+01, 1.018E+02, 1.115E+02, 8.963E+00, 1.814E-01, 1.612E-02, 1.006E+02
 4.400E+02, 1.019E+02, 1.011E+02, 9.181E+01, 1.061E+02, 1.078E+02, 8.883E+01, 1.036E+02, 1.110E+02, 8.908E+00, 1.810E-01, 1.633E-02, 1.005E+02
 4.500E+02, 1.034E+02, 1.003E+02, 9.461E+01, 1.058E+02, 1.097E+02, 8.951E+01, 1.020E+02, 1.095E+02, 9.112E+00, 1.802E-01, 1.678E-02, 1.003E+02
 4.600E+02, 1.010E+02, 1.004E+02, 9.162E+01, 1.016E+02, 1.099E+02, 9.062E+01, 1.025E+02, 1.080E+02, 8.790E+00, 1.798E-01, 1.699E-02, 1.003E+02
 4.700E+02, 1.029E+02, 1.012E+02, 9.421E+01, 1.047E+02, 1.098E+02, 9.195E+01, 1.033E+02, 1.082E+02, 8.845E+00, 1.790E-01, 1.743E-02, 1.003E+02
 4.800E+02, 1.029E+02, 1.009E+02, 9.336E+01, 1.048E+02, 1.104E+02, 9.178E+01, 1.023E+02, 1.087E+02, 9.453E+00, 1.785E-01, 1.774E-02, 1.018E+02
 4.900E+02, 1.021E+02, 1.012E+02, 9.226E+01, 1.035E+02, 1.106E+02, 9.264E+01, 1.025E+02, 1.083E+02, 8.876E+00, 1.777E-01, 1.816E-02, 1.003E+02
 5.000E+02, 1.015E+02, 1.039E+02, 9.259E+01, 1.035E+02, 1.085E+02, 9.545E+01, 1.064E+02, 1.099E+02, 9.239E+00, 1.769E-01, 1.864E-02, 1.005E+02
 5.100E+02, 1.004E+02, 1.077E+02, 9.212E+01, 1.024E+02, 1.068E+02, 9.874E+01, 1.104E+02, 1.139E+02, 9.006E+00, 1.757E-01, 1.930E-02, 1.007E+02
 5.200E+02, 1.018E+02, 1.027E+02, 9.329E+01, 1.031E+02, 1.089E+02, 9.339E+01, 1.046E+02, 1.101E+02, 9.063E+00, 1.754E-01, 1.947E-02, 1.008E+02
 5.300E+02, 1.029E+02, 1.019E+02, 9.552E+01, 1.041E+02, 1.090E+02, 9.180E+01, 1.030E+02, 1.110E+02, 9.349E+00, 1.746E-01, 1.994E-02, 1.014E+02
 5.400E+02, 1.044E+02, 1.014E+02, 9.409E+01, 1.060E+02, 1.130E+02, 9.343E+01, 1.030E+02, 1.077E+02, 8.891E+00, 1.744E-01, 2.004E-02, 1.007E+02
 5.500E+02, 1.045E+02, 1.012E+02, 9.577E+01, 1.061E+02, 1.117E+02, 9.343E+01, 1.025E+02, 1.076E+02, 9.075E+00, 1.736E-01, 2.047E-02, 1.010E+02
 5.600E+02, 1.031E+02, 1.028E+02, 9.435E+01, 1.051E+02, 1.099E+02, 9.486E+01, 1.038E+02, 1.099E+02, 9.140E+00, 1.725E-01, 2.112E-02, 1.002E+02
 5.700E+02, 1.032E+02, 1.028E+02, 9.323E+01, 1.060E+02, 1.103E+02, 9.238E+01, 1.051E+02, 1.111E+02, 9.032E+00, 1.717E-01, 2.156E-02, 1.007E+02
 5.800E+02, 1.031E+02, 1.032E+02, 9.291E+01, 1.055E+02, 1.109E+02, 9.244E+01, 1.054E+02, 1.117E+02, 9.172E+00, 1.708E-01, 2.202E-02, 1.013E+02
 5.900E+02, 1.047E+02, 1.026E+02, 9.356E+01, 1.069E+02, 1.136E+02, 9.309E+01, 1.043E+02, 1.105E+02, 9.140E+00, 1.705E-01, 2.221E-02, 1.003E+02
 6.000E+02, 1.051E+02, 1.032E+02, 9.301E+01, 1.069E+02, 1.152E+02, 9.339E+01, 1.053E+02, 1.109E+02, 8.962E+00, 1.698E-01, 2.261E-02, 1.007E+02
 6.100E+02, 1.047E+02, 1.042E+02, 9.315E+01, 1.074E+02, 1.137E+02, 9.472E+01, 1.071E+02, 1.109E+02, 9.306E+00, 1.694E-01, 2.283E-02, 1.010E+02
 6.200E+02, 1.052E+02, 1.034E+02, 9.386E+01, 1.078E+02, 1.140E+02, 9.241E+01, 1.057E+02, 1.122E+02, 9.103E+00, 1.686E-01, 2.328E-02, 1.012E+02
 6.300E+02, 1.051E+02, 1.050E+02, 9.316E+01, 1.083E+02, 1.139E+02, 9.330E+01, 1.076E+02, 1.142E+02, 9.401E+00, 1.676E-01, 2.382E-02, 1.009E+02
 6.400E+02, 1.039E+02, 1.057E+02, 9.250E+01, 1.068E+02, 1.126E+02, 9.424E+01, 1.094E+02, 1.134E+02, 9.085E+00, 1.667E-01, 2.431E-02, 1.012E+02
 6.500E+02, 1.038E+02, 1.048E+02, 9.215E+01, 1.051E+02, 1.141E+02, 9.305E+01, 1.085E+02, 1.128E+02, 9.254E+00, 1.661E-01, 2.465E-02, 1.009E+02
 6.600E+02, 1.048E+02, 1.057E+02, 9.255E+01, 1.080E+02, 1.139E+02, 9.764E+01, 1.078E+02, 1.116E+02, 9.294E+00, 1.653E-01, 2.509E-02, 1.011E+02
 6.700E+02, 1.045E+02, 1.067E+02, 9.176E+01, 1.061E+02, 1.156E+02, 9.747E+01, 1.094E+02, 1.133E+02, 9.414E+00, 1.648E-01, 2.538E-02, 1.009E+02
 6.800E+02, 1.038E+02, 1.072E+02, 9.254E+01, 1.055E+02, 1.134E+02, 9.842E+01, 1.104E+02, 1.128E+02, 9.104E+00, 1.639E-01, 2.592E-02, 1.004E+02
 6.900E+02, 1.043E+02, 1.084E+02, 9.353E+01, 1.065E+02, 1.128E+02, 9.902E+01, 1.114E+02, 1.148E+02, 9.274E+00, 1.630E-01, 2.638E-02, 1.008E+02
 7.000E+02, 1.033E+02, 1.079E+02, 9.326E+01, 1.051E+02, 1.115E+02, 9.806E+01, 1.078E+02, 1.180E+02, 9.525E+00, 1.619E-01, 2.703E-02, 1.014E+02
 7.100E+02, 1.040E+02, 1.054E+02, 9.307E+01, 1.064E+02, 1.125E+02, 9.678E+01, 1.065E+02, 1.128E+02, 9.099E+00, 1.618E-01, 2.709E-02, 1.005E+02
 7.200E+02, 1.062E+02, 1.072E+02, 9.568E+01, 1.094E+02, 1.136E+02, 9.680E+01, 1.109E+02, 1.138E+02, 9.413E+00, 1.609E-01, 2.756E-02, 1.005E+02
 7.300E+02, 1.054E+02, 1.056E+02, 9.554E+01, 1.082E+02, 1.125E+02, 9.474E+01, 1.063E+02, 1.157E+02, 9.384E+00, 1.600E-01, 2.806E-02, 1.009E+02
 7.400E+02, 1.067E+02, 1.058E+02, 9.684E+01, 1.095E+02, 1.137E+02, 9.600E+01, 1.071E+02, 1.144E+02, 9.362E+00, 1.597E-01, 2.826E-02, 1.005E+02
 7.500E+02, 1.078E+02, 1.041E+02, 1.005E+02, 1.087E+02, 1.142E+02, 9.447E+01, 1.045E+02, 1.134E+02, 9.579E+00, 1.590E-01, 2.865E-02, 1.010E+02
 7.600E+02, 1.073E+02, 1.046E+02, 9.643E+01, 1.107E+02, 1.147E+02, 9.510E+01, 1.061E+02, 1.127E+02, 9.428E+00, 1.586E-01, 2.884E-02, 1.007E+02
 7.700E+02, 1.062E+02, 1.043E+02, 9.505E+01, 1.084E+02, 1.152E+02, 9.418E+01, 1.057E+02, 1.130E+02, 9.363E+00, 1.579E-01, 2.927E-02, 1.002E+02
 7.800E+02, 1.072E+02, 1.044E+02, 9.574E+01, 1.090E+02, 1.168E+02, 9.426E+01, 1.059E+02, 1.131E+02, 9.555E+00, 1.570E-01, 2.974E-02, 1.002E+02
 7.900E+02, 1.059E+02, 1.058E+02, 9.462E+01, 1.080E+02, 1.152E+02, 9.663E+01, 1.070E+02, 1.138E+02, 9.469E+00, 1.560E-01, 3.030E-02, 1.010E+02
 8.000E+02, 1.060E+02, 1.073E+02, 9.605E+01, 1.074E+02, 1.145E+02, 9.609E+01, 1.096E+02, 1.161E+02, 9.298E+00, 1.555E-01, 3.061E-02, 1.008E+02
 8.100E+02, 1.066E+02, 1.067E+02, 9.617E+01, 1.093E+02, 1.145E+02, 9.537E+01, 1.103E+02, 1.145E+02, 9.378E+00, 1.548E-01, 3.098E-02, 1.008E+02
 8.200E+02, 1.068E+02, 1.085E+02, 9.533E+01, 1.097E+02, 1.155E+02, 9.788E+01, 1.121E+02, 1.154E+02, 9.571E+00, 1.541E-01, 3.135E-02, 1.012E+02
 8.300E+02, 1.076E+02, 1.070E+02, 9.477E+01, 1.103E+02, 1.178E+02, 9.620E+01, 1.104E+02, 1.142E+02, 9.378E+00, 1.534E-01, 3.175E-02, 1.008E+02
 8.400E+02, 1.069E+02, 1.085E+02, 9.436E+01, 1.104E+02, 1.161E+02, 9.802E+01, 1.128E+02, 1.147E+02, 9.637E+00, 1.526E-01, 3.221E-02, 1.010E+02
 8.500E+02, 1.056E+02, 1.102E+02, 9.302E+01, 1.071E+02, 1.165E+02, 1.017E+02, 1.131E+02, 1.158E+02, 9.397E+00, 1.519E-01, 3.260E-02, 1.004E+02
 8.600E+02, 1.064E+02, 1.086E+02, 9.395E+01, 1.092E+02, 1.161E+02, 9.829E+01, 1.114E+02, 1.162E+02, 9.854E+00, 1.512E-01, 3.296E-02, 1.008E+02
 8.700E+02, 1.058E+02, 1.100E+02, 9.431E+01, 1.073E+02, 1.159E+02, 1.011E+02, 1.125E+02, 1.166E+02, 9.394E+00, 1.502E-01, 3.354E-02, 1.004E+02
 8.800E+02, 1.059E+02, 1.083E+02, 9.440E+01, 1.081E+02, 1.153E+02, 9.894E+01, 1.111E+02, 1.150E+02, 9.570E+00, 1.496E-01, 3.387E-02, 1.007E+02
 8.900E+02, 1.053E+02, 1.082E+02, 9.455E+01, 1.071E+02, 1.141E+02, 9.976E+01, 1.091E+02, 1.157E+02, 9.600E+00, 1.486E-01, 3.444E-02, 1.008E+02
 9.000E+02, 1.057E+02, 1.079E+02, 9.565E+01, 1.074E+02, 1.140E+02, 9.752E+01, 1.101E+02, 1.162E+02, 9.639E+00, 1.479E-01, 3.485E-02, 1.003E+02
 9.100E+02, 1.059E+02, 1.075E+02, 9.584E+01, 1.076E+02, 1.144E+02, 9.796E+01, 1.099E+02, 1.146E+02, 9.687E+00, 1.476E-01, 3.501E-02, 1.009E+02
 9.200E+02, 1.069E+02, 1.067E+02, 9.620E+01, 1.096E+02, 1.148E+02, 9.690E+01, 1.094E+02, 1.136E+02, 9.733E+00, 1.469E-01, 3.538E-02, 1.010E+02
 9.300E+02, 1.079E+02, 1.071E+02, 9.675E+01, 1.103E+02, 1.167E+02, 9.670E+01, 1.089E+02, 1.156E+02, 9.584E+00, 1.459E-01, 3.596E-02, 1.008E+02
 9.400E+02, 1.074E+02, 1.061E+02, 9.619E+01, 1.102E+02, 1.159E+02, 9.668E+01, 1.072E+02, 1.144E+02, 9.620E+00, 1.454E-01, 3.622E-02, 1.012E+02
 9.500E+02, 1.070E+02, 1.077E+02, 9.684E+01, 1.093E+02, 1.150E+02, 9.648E+01, 1.093E+02, 1.173E+02, 9.755E+00, 1.442E-01, 3.690E-02, 1.006E+02
 9.600E+02, 1.092E+02, 1.087E+02, 1.003E+02, 1.119E+02, 1.154E+02, 9.754E+01, 1.110E+02, 1.177E+02, 9.544E+00, 1.435E-01, 3.729E-02, 1.004E+02
 9.700E+02, 1.101E+02, 1.082E+02, 1.011E+02, 1.136E+02, 1.157E+02, 9.644E+01, 1.094E+02, 1.188E+02, 9.658E+00, 1.427E-01, 3.773E-02, 1.008E+02
 9.800E+02, 1.101E+02, 1.082E+02, 9.870E+01, 1.139E+02, 1.176E+02, 9.712E+01, 1.096E+02, 1.180E+02, 9.743E+00, 1.421E-01, 3.806E-02, 1.003E+02
 9.900E+02, 1.111E+02, 1.079E+02, 1.000E+02, 1.155E+02, 1.179E+02, 9.769E+01, 1.101E+02, 1.159E+02, 9.765E+00, 1.419E-01, 3.818E-02, 1.004E+02
 1.000E+03, 1.110E+02, 1.069E+02, 1.012E+02, 1.120E+02, 1.197E+02, 9.667E+01, 1.087E+02, 1.154E+02, 9.674E+00, 1.410E-01, 3.870E-02, 1.003E+02
 1.010E+03, 1.098E+02, 1.074E+02, 9.911E+01, 1.134E+02, 1.169E+02, 9.703E+01, 1.100E+02, 1.153E+02, 9.749E+00, 1.404E-01, 3.900E-02, 1.008E+02
 1.020E+03, 1.096E+02, 1.072E+02, 9.921E+01, 1.125E+02, 1.172E+02, 9.664E+01, 1.100E+02, 1.149E+02, 7.337E+00, 1.399E-01, 3.930E-02, 9.087E+01
 1.030E+03, 1.106E+02, 1.060E+02, 1.002E+02, 1.125E+02, 1.191E+02, 9.594E+01, 1.085E+02, 1.136E+02, 8.610E+00, 1.394E-01, 3.957E-02, 9.192E+01
 1.040E+03, 1.085E+02, 1.052E+02, 9.817E+01, 1.117E+02, 1.155E+02, 9.548E+01, 1.079E+02, 1.121E+02, 6.224E+00, 1.388E-01, 3.992E-02, 8.335E+01
 1.050E+03, 1.061E+02, 1.045E+02, 9.616E+01, 1.089E+02, 1.133E+02, 9.545E+01, 1.065E+02, 1.117E+02, 6.934E+00, 1.383E-01, 4.020E-02, 8.711E+01
 1.060E+03, 1.048E+02, 1.044E+02, 9.470E+01, 1.074E+02, 1.122E+02, 9.535E+01, 1.069E+02, 1.111E+02, 4.837E+00, 1.377E-01, 4.047E-02, 7.910E+01
 1.070E+03, 1.032E+02, 1.040E+02, 9.338E+01, 1.058E+02, 1.104E+02, 9.271E+01, 1.078E+02, 1.114E+02,-8.584E+00, 1.373E-01, 4.069E-02, 6.604E+01
 1.080E+03, 1.024E+02, 1.039E+02, 9.246E+01, 1.035E+02, 1.112E+02, 9.434E+01, 1.068E+02, 1.106E+02, 1.384E+01, 1.369E-01, 4.093E-02, 9.286E+01
 1.090E+03, 1.018E+02, 1.002E+02, 9.200E+01, 1.044E+02, 1.090E+02, 9.057E+01, 1.025E+02, 1.074E+02,-7.851E+00, 1.368E-01, 4.096E-02, 5.327E+01
 1.100E+03, 9.924E+01, 9.989E+01, 9.029E+01, 1.015E+02, 1.059E+02, 8.953E+01, 1.028E+02, 1.073E+02, 4.315E+00, 1.367E-01, 4.095E-02, 6.268E+01
 1.110E+03, 9.827E+01, 9.850E+01, 9.032E+01, 9.977E+01, 1.047E+02, 8.989E+01, 1.008E+02, 1.048E+02, 4.853E+00, 1.371E-01, 4.078E-02, 4.061E+01
 1.120E+03, 9.692E+01, 1.245E+02, 9.002E+01, 9.918E+01, 1.016E+02, 1.420E+02, 1.226E+02, 1.091E+02, 2.346E+00, 1.370E-01, 4.079E-02, 6.586E-01
 1.130E+03, 9.687E+01, 1.005E+02, 9.328E+01, 9.740E+01, 9.992E+01, 9.713E+01, 1.001E+02, 1.043E+02, 2.622E+00, 1.376E-01, 4.048E-02, 8.907E-02
 1.140E+03, 9.618E+01, 9.481E+01, 9.250E+01, 9.661E+01, 9.945E+01, 8.903E+01, 9.551E+01, 9.990E+01, 1.188E+00, 1.377E-01, 4.038E-02, 2.533E+00
 1.150E+03, 9.287E+01, 9.582E+01, 8.808E+01, 9.452E+01, 9.602E+01, 8.854E+01, 9.613E+01, 1.028E+02, 5.574E+00, 1.374E-01, 4.045E-02, 2.735E+01
 1.160E+03, 9.073E+01, 9.303E+01, 8.777E+01, 9.131E+01, 9.312E+01, 9.241E+01, 9.098E+01, 9.569E+01,-2.687E+00, 1.381E-01, 4.014E-02, 3.761E+00
 1.170E+03, 8.989E+01, 9.195E+01, 8.697E+01, 9.037E+01, 9.233E+01, 9.086E+01, 9.047E+01, 9.450E+01, 5.840E+00, 1.384E-01, 3.997E-02, 5.348E-02
 1.180E+03, 8.990E+01, 8.793E+01, 8.609E+01, 9.089E+01, 9.271E+01, 8.384E+01, 8.795E+01, 9.200E+01, 4.067E+00, 1.381E-01, 4.008E-02, 0.000E+00
 1.190E+03, 8.743E+01, 8.760E+01, 8.442E+01, 8.790E+01, 8.997E+01, 8.509E+01, 8.748E+01, 9.024E+01, 1.833E+00, 1.383E-01, 3.994E-02, 0.000E+00
 1.200E+03, 8.536E+01, 9.280E+01, 8.250E+01, 8.616E+01, 8.741E+01, 9.651E+01, 9.061E+01, 9.129E+01, 4.269E+00, 1.385E-01, 3.986E-02, 0.000E+00
 1.210E+03, 8.375E+01, 9.238E+01, 8.065E+01, 8.461E+01, 8.599E+01, 9.802E+01, 9.046E+01, 8.865E+01, 4.283E+00, 1.384E-01, 3.985E-02, 2.800E-02
 1.220E+03, 8.278E+01, 8.355E+01, 7.895E+01, 8.342E+01, 8.597E+01, 8.109E+01, 8.372E+01, 8.583E+01, 4.245E+00, 1.383E-01, 3.983E-02, 0.000E+00
 1.230E+03, 8.228E+01, 8.074E+01, 7.914E+01, 8.308E+01, 8.461E+01, 7.667E+01, 8.119E+01, 8.437E+01, 5.220E+00, 1.384E-01, 3.982E-02, 0.000E+00
 1.240E+03, 8.107E+01, 7.961E+01, 7.809E+01, 8.173E+01, 8.339E+01, 7.567E+01, 7.961E+01, 8.355E+01, 4.363E+00, 1.382E-01, 3.988E-02, 0.000E+00
 1.250E+03, 7.931E+01, 8.145E+01, 7.592E+01, 8.014E+01, 8.187E+01, 7.779E+01, 8.115E+01, 8.541E+01, 4.801E+00, 1.383E-01, 3.985E-02, 0.000E+00
 1.260E+03, 7.842E+01, 7.730E+01, 7.538E+01, 7.941E+01, 8.049E+01, 7.384E+01, 7.717E+01, 8.087E+01, 4.628E+00, 1.384E-01, 3.974E-02, 0.000E+00
 1.270E+03, 7.726E+01, 7.715E+01, 7.409E+01, 7.810E+01, 7.960E+01, 7.416E+01, 7.719E+01, 8.010E+01, 4.718E+00, 1.383E-01, 3.978E-02, 0.000E+00
 1.280E+03, 7.640E+01, 7.564E+01, 7.386E+01, 7.684E+01, 7.850E+01, 7.148E+01, 7.657E+01, 7.887E+01, 5.118E+00, 1.380E-01, 3.965E-02, 0.000E+00
 1.290E+03, 7.611E+01, 7.461E+01, 7.368E+01, 7.657E+01, 7.809E+01, 7.104E+01, 7.488E+01, 7.791E+01, 4.318E+00, 1.382E-01, 3.978E-02, 0.000E+00
 1.300E+03, 7.447E+01, 7.691E+01, 7.150E+01, 7.528E+01, 7.664E+01, 7.277E+01, 7.830E+01, 7.964E+01, 5.227E+00, 1.383E-01, 3.970E-02, 0.000E+00
 1.310E+03, 7.368E+01, 7.428E+01, 7.126E+01, 7.432E+01, 7.546E+01, 6.968E+01, 7.476E+01, 7.841E+01, 5.244E+00, 1.381E-01, 3.972E-02, 0.000E+00
