s,C,C,C,C,C,C,C,C,Pa,mol/mol,mol/mol,kW
Time,"West_All_TCs","East_All_TCs","West_Bottom_TCs","West_Middle_TCs","West_Upper_TCs","East_Bottom_TCs","East_Middle_TCs","East_Upper_TCs","Pressure","O2","CO2","HRR"
-6.000E+01, 3.400E+01, 3.400E+01, 3.400E+01, 3.400E+01, 3.400E+01, 3.400E+01, 3.400E+01, 3.400E+01,-9.314E-06, 2.095E-01, 3.901E-04, 0.000E+00
-4.991E+01, 3.395E+01, 3.396E+01, 3.396E+01, 3.395E+01, 3.396E+01, 3.396E+01, 3.395E+01, 3.396E+01,-7.902E+01, 2.095E-01, 3.901E-04, 0.000E+00
-3.995E+01, 3.394E+01, 3.395E+01, 3.394E+01, 3.394E+01, 3.393E+01, 3.398E+01, 3.394E+01, 3.394E+01,-7.998E+01, 2.095E-01, 3.901E-04, 0.000E+00
-2.998E+01, 3.393E+01, 3.396E+01, 3.394E+01, 3.393E+01, 3.393E+01, 3.399E+01, 3.394E+01, 3.394E+01,-8.009E+01, 2.095E-01, 3.901E-04, 0.000E+00
-1.996E+01, 3.393E+01, 3.396E+01, 3.393E+01, 3.393E+01, 3.393E+01, 3.399E+01, 3.394E+01, 3.394E+01,-8.012E+01, 2.095E-01, 3.901E-04, 0.000E+00
-9.938E+00, 3.393E+01, 3.396E+01, 3.393E+01, 3.393E+01, 3.393E+01, 3.399E+01, 3.395E+01, 3.394E+01,-8.012E+01, 2.095E-01, 3.901E-04, 0.000E+00
 1.692E-02, 3.393E+01, 3.396E+01, 3.394E+01, 3.393E+01, 3.393E+01, 3.399E+01, 3.395E+01, 3.394E+01,-8.012E+01, 2.095E-01, 3.901E-04, 2.042E-04
 1.000E+01, 3.510E+01, 3.521E+01, 3.446E+01, 3.686E+01, 3.399E+01, 3.466E+01, 3.701E+01, 3.397E+01,-3.890E+01, 2.095E-01, 3.901E-04, 3.248E+01
 2.001E+01, 3.951E+01, 3.976E+01, 3.652E+01, 4.724E+01, 3.478E+01, 3.695E+01, 4.834E+01, 3.398E+01, 1.197E+00, 2.095E-01, 3.901E-04, 9.932E+01
 3.000E+01, 4.780E+01, 4.850E+01, 4.051E+01, 6.752E+01, 3.538E+01, 4.171E+01, 6.987E+01, 3.392E+01, 2.974E+01, 2.095E-01, 3.901E-04, 1.658E+02
 4.001E+01, 5.960E+01, 6.036E+01, 4.814E+01, 9.449E+01, 3.616E+01, 5.071E+01, 9.608E+01, 3.428E+01, 4.029E+01, 2.094E-01, 4.473E-04, 2.000E+02
 5.001E+01, 7.143E+01, 7.331E+01, 6.016E+01, 1.151E+02, 3.906E+01, 6.273E+01, 1.198E+02, 3.740E+01, 2.011E+01, 2.089E-01, 7.535E-04, 2.001E+02
 6.002E+01, 8.138E+01, 8.278E+01, 7.285E+01, 1.308E+02, 4.046E+01, 7.495E+01, 1.328E+02, 4.057E+01, 7.681E+00, 2.083E-01, 1.062E-03, 2.003E+02
 7.001E+01, 8.999E+01, 9.232E+01, 8.629E+01, 1.407E+02, 4.300E+01, 8.820E+01, 1.459E+02, 4.281E+01, 1.165E+00, 2.080E-01, 1.239E-03, 2.002E+02
 8.001E+01, 9.679E+01, 9.929E+01, 9.640E+01, 1.493E+02, 4.472E+01, 9.916E+01, 1.539E+02, 4.479E+01,-5.563E+00, 2.076E-01, 1.452E-03, 1.999E+02
 9.000E+01, 1.033E+02, 1.050E+02, 1.068E+02, 1.564E+02, 4.667E+01, 1.094E+02, 1.585E+02, 4.704E+01,-1.294E+01, 2.071E-01, 1.766E-03, 2.002E+02
 1.000E+02, 1.075E+02, 1.102E+02, 1.130E+02, 1.605E+02, 4.907E+01, 1.147E+02, 1.668E+02, 4.903E+01,-1.802E+01, 2.066E-01, 2.062E-03, 2.001E+02
 1.100E+02, 1.101E+02, 1.150E+02, 1.182E+02, 1.609E+02, 5.116E+01, 1.209E+02, 1.720E+02, 5.208E+01,-3.013E+01, 2.060E-01, 2.397E-03, 2.000E+02
 1.200E+02, 1.136E+02, 1.161E+02, 1.233E+02, 1.655E+02, 5.194E+01, 1.265E+02, 1.690E+02, 5.292E+01,-3.803E+01, 2.055E-01, 2.630E-03, 1.997E+02
 1.300E+02, 1.154E+02, 1.192E+02, 1.241E+02, 1.682E+02, 5.397E+01, 1.305E+02, 1.731E+02, 5.416E+01,-4.631E+01, 2.049E-01, 2.999E-03, 2.001E+02
 1.400E+02, 1.177E+02, 1.221E+02, 1.268E+02, 1.708E+02, 5.562E+01, 1.362E+02, 1.745E+02, 5.567E+01,-4.931E+01, 2.042E-01, 3.372E-03, 1.998E+02
 1.500E+02, 1.188E+02, 1.226E+02, 1.279E+02, 1.712E+02, 5.725E+01, 1.339E+02, 1.771E+02, 5.691E+01,-5.015E+01, 2.035E-01, 3.759E-03, 2.000E+02
 1.600E+02, 1.207E+02, 1.223E+02, 1.310E+02, 1.726E+02, 5.867E+01, 1.332E+02, 1.764E+02, 5.718E+01,-5.734E+01, 2.030E-01, 4.073E-03, 2.004E+02
 1.700E+02, 1.213E+02, 1.252E+02, 1.298E+02, 1.750E+02, 5.919E+01, 1.351E+02, 1.815E+02, 5.902E+01,-6.224E+01, 2.018E-01, 4.724E-03, 2.000E+02
 1.800E+02, 1.234E+02, 1.241E+02, 1.336E+02, 1.769E+02, 5.974E+01, 1.343E+02, 1.791E+02, 5.885E+01,-6.746E+01, 2.014E-01, 4.953E-03, 2.004E+02
 1.900E+02, 1.235E+02, 1.274E+02, 1.316E+02, 1.798E+02, 5.927E+01, 1.399E+02, 1.833E+02, 5.905E+01,-6.295E+01, 2.004E-01, 5.507E-03, 2.000E+02
 2.000E+02, 1.242E+02, 1.264E+02, 1.336E+02, 1.792E+02, 6.000E+01, 1.381E+02, 1.815E+02, 5.974E+01,-6.724E+01, 1.998E-01, 5.818E-03, 1.999E+02
 2.100E+02, 1.255E+02, 1.278E+02, 1.325E+02, 1.834E+02, 6.070E+01, 1.390E+02, 1.836E+02, 6.064E+01,-6.339E+01, 1.990E-01, 6.261E-03, 1.999E+02
 2.200E+02, 1.253E+02, 1.283E+02, 1.340E+02, 1.812E+02, 6.064E+01, 1.385E+02, 1.854E+02, 6.098E+01,-6.804E+01, 1.982E-01, 6.740E-03, 2.001E+02
 2.300E+02, 1.261E+02, 1.296E+02, 1.345E+02, 1.821E+02, 6.155E+01, 1.424E+02, 1.845E+02, 6.201E+01,-6.921E+01, 1.974E-01, 7.171E-03, 1.999E+02
 2.400E+02, 1.267E+02, 1.281E+02, 1.360E+02, 1.838E+02, 6.029E+01, 1.369E+02, 1.867E+02, 6.082E+01,-6.303E+01, 1.968E-01, 7.506E-03, 2.001E+02
 2.500E+02, 1.261E+02, 1.295E+02, 1.361E+02, 1.817E+02, 6.054E+01, 1.402E+02, 1.871E+02, 6.127E+01,-6.613E+01, 1.961E-01, 7.910E-03, 2.002E+02
 2.600E+02, 1.265E+02, 1.316E+02, 1.347E+02, 1.841E+02, 6.053E+01, 1.439E+02, 1.882E+02, 6.261E+01,-6.341E+01, 1.950E-01, 8.507E-03, 2.001E+02
 2.700E+02, 1.278E+02, 1.306E+02, 1.372E+02, 1.851E+02, 6.117E+01, 1.417E+02, 1.886E+02, 6.157E+01,-6.512E+01, 1.945E-01, 8.800E-03, 2.001E+02
 2.800E+02, 1.269E+02, 1.313E+02, 1.364E+02, 1.818E+02, 6.261E+01, 1.433E+02, 1.886E+02, 6.185E+01,-6.540E+01, 1.933E-01, 9.461E-03, 2.002E+02
 2.900E+02, 1.291E+02, 1.320E+02, 1.384E+02, 1.864E+02, 6.255E+01, 1.433E+02, 1.896E+02, 6.310E+01,-6.626E+01, 1.923E-01, 1.003E-02, 2.000E+02
 3.000E+02, 1.290E+02, 1.342E+02, 1.392E+02, 1.849E+02, 6.311E+01, 1.469E+02, 1.924E+02, 6.333E+01,-6.394E+01, 1.914E-01, 1.054E-02, 1.999E+02
 3.100E+02, 1.301E+02, 1.332E+02, 1.397E+02, 1.876E+02, 6.281E+01, 1.468E+02, 1.897E+02, 6.292E+01,-6.445E+01, 1.910E-01, 1.074E-02, 2.004E+02
 3.200E+02, 1.300E+02, 1.350E+02, 1.402E+02, 1.869E+02, 6.278E+01, 1.485E+02, 1.929E+02, 6.366E+01,-7.030E+01, 1.896E-01, 1.154E-02, 1.998E+02
 3.300E+02, 1.300E+02, 1.347E+02, 1.407E+02, 1.868E+02, 6.244E+01, 1.499E+02, 1.915E+02, 6.253E+01,-6.161E+01, 1.892E-01, 1.174E-02, 2.004E+02
 3.400E+02, 1.298E+02, 1.356E+02, 1.405E+02, 1.856E+02, 6.326E+01, 1.501E+02, 1.932E+02, 6.355E+01,-6.149E+01, 1.880E-01, 1.244E-02, 2.004E+02
 3.500E+02, 1.296E+02, 1.364E+02, 1.409E+02, 1.836E+02, 6.431E+01, 1.499E+02, 1.954E+02, 6.393E+01,-6.401E+01, 1.871E-01, 1.292E-02, 2.000E+02
 3.600E+02, 1.313E+02, 1.343E+02, 1.413E+02, 1.878E+02, 6.477E+01, 1.446E+02, 1.951E+02, 6.302E+01,-6.609E+01, 1.866E-01, 1.320E-02, 1.997E+02
 3.700E+02, 1.309E+02, 1.369E+02, 1.405E+02, 1.870E+02, 6.521E+01, 1.476E+02, 1.993E+02, 6.363E+01,-6.429E+01, 1.858E-01, 1.368E-02, 2.002E+02
 3.800E+02, 1.322E+02, 1.348E+02, 1.439E+02, 1.886E+02, 6.413E+01, 1.475E+02, 1.920E+02, 6.490E+01,-6.254E+01, 1.848E-01, 1.420E-02, 1.998E+02
 3.900E+02, 1.338E+02, 1.380E+02, 1.429E+02, 1.933E+02, 6.508E+01, 1.510E+02, 1.981E+02, 6.489E+01,-7.115E+01, 1.836E-01, 1.488E-02, 2.000E+02
 4.000E+02, 1.329E+02, 1.383E+02, 1.428E+02, 1.911E+02, 6.480E+01, 1.536E+02, 1.962E+02, 6.525E+01,-6.683E+01, 1.830E-01, 1.524E-02, 1.995E+02
 4.100E+02, 1.322E+02, 1.381E+02, 1.412E+02, 1.904E+02, 6.486E+01, 1.497E+02, 1.999E+02, 6.475E+01,-7.014E+01, 1.822E-01, 1.567E-02, 2.001E+02
 4.200E+02, 1.324E+02, 1.366E+02, 1.422E+02, 1.890E+02, 6.602E+01, 1.500E+02, 1.961E+02, 6.371E+01,-6.040E+01, 1.816E-01, 1.599E-02, 2.000E+02
 4.300E+02, 1.331E+02, 1.369E+02, 1.441E+02, 1.895E+02, 6.584E+01, 1.484E+02, 1.964E+02, 6.585E+01,-6.420E+01, 1.804E-01, 1.668E-02, 2.005E+02
 4.400E+02, 1.343E+02, 1.376E+02, 1.457E+02, 1.902E+02, 6.696E+01, 1.501E+02, 1.972E+02, 6.555E+01,-6.107E+01, 1.794E-01, 1.724E-02, 1.998E+02
 4.500E+02, 1.355E+02, 1.384E+02, 1.465E+02, 1.924E+02, 6.759E+01, 1.538E+02, 1.961E+02, 6.540E+01,-6.477E+01, 1.789E-01, 1.754E-02, 2.000E+02
 4.600E+02, 1.350E+02, 1.406E+02, 1.465E+02, 1.932E+02, 6.525E+01, 1.558E+02, 1.988E+02, 6.715E+01,-6.518E+01, 1.776E-01, 1.822E-02, 2.003E+02
 4.700E+02, 1.362E+02, 1.405E+02, 1.471E+02, 1.949E+02, 6.677E+01, 1.559E+02, 2.003E+02, 6.538E+01,-6.197E+01, 1.769E-01, 1.864E-02, 2.000E+02
 4.800E+02, 1.367E+02, 1.419E+02, 1.472E+02, 1.957E+02, 6.717E+01, 1.541E+02, 2.047E+02, 6.683E+01,-6.533E+01, 1.762E-01, 1.901E-02, 2.003E+02
 4.900E+02, 1.350E+02, 1.420E+02, 1.472E+02, 1.913E+02, 6.652E+01, 1.567E+02, 2.018E+02, 6.731E+01,-6.202E+01, 1.754E-01, 1.948E-02, 1.996E+02
 5.000E+02, 1.350E+02, 1.408E+02, 1.474E+02, 1.910E+02, 6.655E+01, 1.554E+02, 2.003E+02, 6.671E+01,-6.392E+01, 1.748E-01, 1.983E-02, 2.006E+02
 5.100E+02, 1.345E+02, 1.414E+02, 1.463E+02, 1.913E+02, 6.582E+01, 1.554E+02, 2.028E+02, 6.599E+01,-6.064E+01, 1.739E-01, 2.033E-02, 1.999E+02
 5.200E+02, 1.374E+02, 1.408E+02, 1.493E+02, 1.955E+02, 6.749E+01, 1.532E+02, 2.028E+02, 6.651E+01,-6.616E+01, 1.731E-01, 2.076E-02, 1.998E+02
 5.300E+02, 1.376E+02, 1.420E+02, 1.493E+02, 1.970E+02, 6.657E+01, 1.550E+02, 2.041E+02, 6.698E+01,-6.674E+01, 1.724E-01, 2.112E-02, 1.998E+02
 5.400E+02, 1.391E+02, 1.414E+02, 1.498E+02, 2.004E+02, 6.699E+01, 1.565E+02, 2.004E+02, 6.729E+01,-6.558E+01, 1.717E-01, 2.152E-02, 2.002E+02
 5.500E+02, 1.386E+02, 1.425E+02, 1.491E+02, 1.983E+02, 6.844E+01, 1.574E+02, 2.019E+02, 6.810E+01,-6.113E+01, 1.707E-01, 2.211E-02, 2.005E+02
 5.600E+02, 1.376E+02, 1.447E+02, 1.470E+02, 1.978E+02, 6.803E+01, 1.622E+02, 2.042E+02, 6.769E+01,-6.332E+01, 1.701E-01, 2.242E-02, 1.998E+02
 5.700E+02, 1.369E+02, 1.441E+02, 1.469E+02, 1.955E+02, 6.846E+01, 1.565E+02, 2.081E+02, 6.754E+01,-6.878E+01, 1.695E-01, 2.274E-02, 2.001E+02
 5.800E+02, 1.386E+02, 1.433E+02, 1.506E+02, 1.973E+02, 6.774E+01, 1.578E+02, 2.037E+02, 6.825E+01,-6.526E+01, 1.688E-01, 2.318E-02, 1.998E+02
 5.900E+02, 1.400E+02, 1.435E+02, 1.504E+02, 2.014E+02, 6.808E+01, 1.612E+02, 2.018E+02, 6.750E+01,-6.563E+01, 1.686E-01, 2.324E-02, 1.999E+02
 6.000E+02, 1.408E+02, 1.434E+02, 1.525E+02, 2.012E+02, 6.859E+01, 1.587E+02, 2.035E+02, 6.812E+01,-6.252E+01, 1.676E-01, 2.382E-02, 2.001E+02
 6.100E+02, 1.403E+02, 1.438E+02, 1.518E+02, 2.002E+02, 6.879E+01, 1.601E+02, 2.034E+02, 6.800E+01,-6.560E+01, 1.671E-01, 2.411E-02, 1.999E+02
 6.200E+02, 1.402E+02, 1.459E+02, 1.518E+02, 2.007E+02, 6.813E+01, 1.614E+02, 2.075E+02, 6.883E+01,-6.302E+01, 1.663E-01, 2.458E-02, 2.007E+02
 6.300E+02, 1.406E+02, 1.446E+02, 1.522E+02, 2.016E+02, 6.806E+01, 1.586E+02, 2.073E+02, 6.776E+01,-6.275E+01, 1.661E-01, 2.468E-02, 2.000E+02
 6.400E+02, 1.403E+02, 1.466E+02, 1.514E+02, 2.005E+02, 6.901E+01, 1.628E+02, 2.079E+02, 6.919E+01,-6.447E+01, 1.653E-01, 2.512E-02, 1.997E+02
 6.500E+02, 1.415E+02, 1.464E+02, 1.531E+02, 2.018E+02, 6.948E+01, 1.601E+02, 2.107E+02, 6.846E+01,-6.199E+01, 1.649E-01, 2.532E-02, 1.999E+02
 6.600E+02, 1.418E+02, 1.458E+02, 1.545E+02, 2.006E+02, 7.043E+01, 1.600E+02, 2.082E+02, 6.927E+01,-6.403E+01, 1.639E-01, 2.588E-02, 2.000E+02
 6.700E+02, 1.436E+02, 1.466E+02, 1.550E+02, 2.058E+02, 6.988E+01, 1.624E+02, 2.084E+02, 6.904E+01,-6.487E+01, 1.636E-01, 2.608E-02, 2.002E+02
 6.800E+02, 1.428E+02, 1.467E+02, 1.538E+02, 2.055E+02, 6.921E+01, 1.648E+02, 2.048E+02, 7.043E+01,-6.446E+01, 1.629E-01, 2.645E-02, 2.003E+02
 6.900E+02, 1.414E+02, 1.487E+02, 1.514E+02, 2.029E+02, 7.005E+01, 1.676E+02, 2.091E+02, 6.935E+01,-6.219E+01, 1.626E-01, 2.665E-02, 2.004E+02
 7.000E+02, 1.414E+02, 1.461E+02, 1.520E+02, 2.015E+02, 7.081E+01, 1.590E+02, 2.089E+02, 7.031E+01,-6.488E+01, 1.618E-01, 2.704E-02, 1.995E+02
 7.100E+02, 1.422E+02, 1.467E+02, 1.531E+02, 2.036E+02, 7.001E+01, 1.608E+02, 2.095E+02, 6.963E+01,-6.370E+01, 1.616E-01, 2.716E-02, 2.000E+02
 7.200E+02, 1.433E+02, 1.476E+02, 1.543E+02, 2.038E+02, 7.168E+01, 1.641E+02, 2.079E+02, 7.073E+01,-6.097E+01, 1.609E-01, 2.755E-02, 2.001E+02
 7.300E+02, 1.436E+02, 1.489E+02, 1.546E+02, 2.048E+02, 7.148E+01, 1.636E+02, 2.124E+02, 7.079E+01,-6.373E+01, 1.604E-01, 2.783E-02, 1.999E+02
 7.400E+02, 1.423E+02, 1.503E+02, 1.530E+02, 2.027E+02, 7.120E+01, 1.657E+02, 2.132E+02, 7.187E+01,-6.198E+01, 1.599E-01, 2.811E-02, 1.999E+02
 7.500E+02, 1.427E+02, 1.493E+02, 1.542E+02, 2.023E+02, 7.150E+01, 1.630E+02, 2.139E+02, 7.114E+01,-6.319E+01, 1.592E-01, 2.849E-02, 1.993E+02
 7.600E+02, 1.430E+02, 1.496E+02, 1.533E+02, 2.025E+02, 7.324E+01, 1.659E+02, 2.117E+02, 7.126E+01,-6.364E+01, 1.590E-01, 2.862E-02, 2.006E+02
 7.700E+02, 1.450E+02, 1.485E+02, 1.560E+02, 2.059E+02, 7.322E+01, 1.639E+02, 2.093E+02, 7.240E+01,-6.659E+01, 1.583E-01, 2.905E-02, 1.997E+02
 7.800E+02, 1.452E+02, 1.502E+02, 1.566E+02, 2.064E+02, 7.262E+01, 1.679E+02, 2.093E+02, 7.329E+01,-6.579E+01, 1.579E-01, 2.923E-02, 2.001E+02
 7.900E+02, 1.447E+02, 1.509E+02, 1.569E+02, 2.046E+02, 7.271E+01, 1.674E+02, 2.126E+02, 7.258E+01,-6.294E+01, 1.576E-01, 2.940E-02, 2.004E+02
 8.000E+02, 1.465E+02, 1.487E+02, 1.596E+02, 2.066E+02, 7.318E+01, 1.672E+02, 2.075E+02, 7.156E+01,-6.012E+01, 1.571E-01, 2.971E-02, 1.993E+02
 8.100E+02, 1.469E+02, 1.512E+02, 1.591E+02, 2.081E+02, 7.353E+01, 1.681E+02, 2.119E+02, 7.342E+01,-6.846E+01, 1.564E-01, 3.009E-02, 2.000E+02
 8.200E+02, 1.461E+02, 1.522E+02, 1.569E+02, 2.077E+02, 7.353E+01, 1.720E+02, 2.117E+02, 7.276E+01,-6.023E+01, 1.562E-01, 3.022E-02, 2.011E+02
 8.300E+02, 1.451E+02, 1.512E+02, 1.567E+02, 2.054E+02, 7.311E+01, 1.633E+02, 2.160E+02, 7.434E+01,-6.402E+01, 1.559E-01, 3.037E-02, 2.001E+02
 8.400E+02, 1.461E+02, 1.507E+02, 1.565E+02, 2.085E+02, 7.332E+01, 1.662E+02, 2.127E+02, 7.325E+01,-6.154E+01, 1.555E-01, 3.060E-02, 1.994E+02
 8.500E+02, 1.471E+02, 1.520E+02, 1.593E+02, 2.079E+02, 7.421E+01, 1.696E+02, 2.122E+02, 7.408E+01,-6.351E+01, 1.551E-01, 3.084E-02, 2.007E+02
 8.600E+02, 1.484E+02, 1.515E+02, 1.611E+02, 2.092E+02, 7.501E+01, 1.695E+02, 2.114E+02, 7.374E+01,-6.671E+01, 1.547E-01, 3.103E-02, 1.995E+02
 8.700E+02, 1.480E+02, 1.518E+02, 1.614E+02, 2.090E+02, 7.366E+01, 1.674E+02, 2.140E+02, 7.400E+01,-6.286E+01, 1.544E-01, 3.123E-02, 2.007E+02
 8.800E+02, 1.485E+02, 1.519E+02, 1.597E+02, 2.113E+02, 7.451E+01, 1.687E+02, 2.138E+02, 7.326E+01,-6.546E+01, 1.540E-01, 3.141E-02, 1.996E+02
 8.900E+02, 1.487E+02, 1.544E+02, 1.596E+02, 2.117E+02, 7.498E+01, 1.747E+02, 2.137E+02, 7.480E+01,-6.719E+01, 1.536E-01, 3.165E-02, 2.001E+02
 9.000E+02, 1.467E+02, 1.536E+02, 1.582E+02, 2.069E+02, 7.500E+01, 1.715E+02, 2.151E+02, 7.423E+01,-6.076E+01, 1.534E-01, 3.176E-02, 2.005E+02
 9.100E+02, 1.485E+02, 1.545E+02, 1.601E+02, 2.100E+02, 7.543E+01, 1.695E+02, 2.181E+02, 7.594E+01,-6.177E+01, 1.527E-01, 3.214E-02, 2.000E+02
 9.200E+02, 1.493E+02, 1.542E+02, 1.604E+02, 2.112E+02, 7.632E+01, 1.746E+02, 2.146E+02, 7.353E+01,-6.790E+01, 1.530E-01, 3.198E-02, 1.998E+02
 9.300E+02, 1.500E+02, 1.530E+02, 1.628E+02, 2.113E+02, 7.602E+01, 1.683E+02, 2.158E+02, 7.476E+01,-5.995E+01, 1.523E-01, 3.237E-02, 2.002E+02
 9.400E+02, 1.494E+02, 1.524E+02, 1.605E+02, 2.128E+02, 7.507E+01, 1.680E+02, 2.139E+02, 7.533E+01,-6.610E+01, 1.520E-01, 3.252E-02, 2.003E+02
 9.500E+02, 1.504E+02, 1.553E+02, 1.612E+02, 2.140E+02, 7.607E+01, 1.722E+02, 2.189E+02, 7.467E+01,-6.366E+01, 1.520E-01, 3.255E-02, 1.997E+02
 9.600E+02, 1.509E+02, 1.539E+02, 1.625E+02, 2.137E+02, 7.666E+01, 1.687E+02, 2.170E+02, 7.591E+01,-6.134E+01, 1.515E-01, 3.284E-02, 2.000E+02
 9.700E+02, 1.498E+02, 1.556E+02, 1.620E+02, 2.095E+02, 7.781E+01, 1.712E+02, 2.197E+02, 7.608E+01,-6.387E+01, 1.512E-01, 3.301E-02, 1.999E+02
 9.800E+02, 1.499E+02, 1.558E+02, 1.614E+02, 2.104E+02, 7.787E+01, 1.724E+02, 2.193E+02, 7.563E+01,-6.081E+01, 1.508E-01, 3.319E-02, 2.002E+02
 9.900E+02, 1.501E+02, 1.547E+02, 1.626E+02, 2.103E+02, 7.742E+01, 1.716E+02, 2.155E+02, 7.711E+01,-6.496E+01, 1.505E-01, 3.339E-02, 2.003E+02
 1.000E+03, 1.521E+02, 1.553E+02, 1.633E+02, 2.147E+02, 7.845E+01, 1.694E+02, 2.201E+02, 7.631E+01,-6.564E+01, 1.503E-01, 3.347E-02, 1.997E+02
 1.010E+03, 1.533E+02, 1.555E+02, 1.649E+02, 2.164E+02, 7.862E+01, 1.715E+02, 2.190E+02, 7.601E+01,-6.330E+01, 1.502E-01, 3.355E-02, 2.004E+02
 1.020E+03, 1.517E+02, 1.569E+02, 1.636E+02, 2.140E+02, 7.735E+01, 1.725E+02, 2.211E+02, 7.709E+01,-6.610E+01, 1.500E-01, 3.367E-02, 1.997E+02
 1.030E+03, 1.501E+02, 1.572E+02, 1.620E+02, 2.106E+02, 7.781E+01, 1.738E+02, 2.212E+02, 7.645E+01,-6.338E+01, 1.500E-01, 3.367E-02, 2.002E+02
 1.040E+03, 1.513E+02, 1.575E+02, 1.629E+02, 2.122E+02, 7.864E+01, 1.741E+02, 2.219E+02, 7.656E+01,-6.091E+01, 1.499E-01, 3.369E-02, 1.999E+02
 1.050E+03, 1.516E+02, 1.571E+02, 1.628E+02, 2.124E+02, 7.970E+01, 1.749E+02, 2.184E+02, 7.790E+01,-6.011E+01, 1.495E-01, 3.394E-02, 2.003E+02
 1.060E+03, 1.536E+02, 1.560E+02, 1.656E+02, 2.135E+02, 8.176E+01, 1.708E+02, 2.209E+02, 7.639E+01,-6.347E+01, 1.494E-01, 3.398E-02, 1.996E+02
 1.070E+03, 1.546E+02, 1.561E+02, 1.671E+02, 2.171E+02, 7.978E+01, 1.700E+02, 2.202E+02, 7.809E+01,-6.427E+01, 1.491E-01, 3.415E-02, 2.000E+02
 1.080E+03, 1.540E+02, 1.576E+02, 1.659E+02, 2.167E+02, 7.952E+01, 1.746E+02, 2.203E+02, 7.803E+01,-6.363E+01, 1.489E-01, 3.425E-02, 2.002E+02
 1.090E+03, 1.546E+02, 1.586E+02, 1.666E+02, 2.178E+02, 7.937E+01, 1.786E+02, 2.187E+02, 7.851E+01,-6.388E+01, 1.488E-01, 3.434E-02, 2.001E+02
 1.100E+03, 1.538E+02, 1.608E+02, 1.646E+02, 2.168E+02, 7.992E+01, 1.779E+02, 2.254E+02, 7.916E+01,-5.798E+01, 1.485E-01, 3.448E-02, 1.998E+02
 1.110E+03, 1.545E+02, 1.598E+02, 1.653E+02, 2.168E+02, 8.130E+01, 1.765E+02, 2.235E+02, 7.930E+01,-6.087E+01, 1.485E-01, 3.452E-02, 2.003E+02
 1.120E+03, 1.547E+02, 1.602E+02, 1.666E+02, 2.160E+02, 8.144E+01, 1.745E+02, 2.262E+02, 8.000E+01,-6.618E+01, 1.484E-01, 3.458E-02, 1.994E+02
 1.130E+03, 1.553E+02, 1.596E+02, 1.675E+02, 2.175E+02, 8.103E+01, 1.752E+02, 2.252E+02, 7.840E+01,-6.393E+01, 1.482E-01, 3.469E-02, 1.998E+02
 1.140E+03, 1.564E+02, 1.594E+02, 1.688E+02, 2.194E+02, 8.090E+01, 1.760E+02, 2.215E+02, 8.052E+01,-6.429E+01, 1.478E-01, 3.488E-02, 2.003E+02
 1.150E+03, 1.553E+02, 1.598E+02, 1.675E+02, 2.176E+02, 8.068E+01, 1.746E+02, 2.251E+02, 7.968E+01,-6.185E+01, 1.479E-01, 3.483E-02, 1.999E+02
 1.160E+03, 1.562E+02, 1.603E+02, 1.684E+02, 2.190E+02, 8.107E+01, 1.766E+02, 2.245E+02, 7.974E+01,-6.600E+01, 1.477E-01, 3.495E-02, 1.996E+02
 1.170E+03, 1.554E+02, 1.611E+02, 1.670E+02, 2.182E+02, 8.103E+01, 1.778E+02, 2.264E+02, 7.905E+01,-5.888E+01, 1.475E-01, 3.503E-02, 2.006E+02
 1.180E+03, 1.560E+02, 1.616E+02, 1.674E+02, 2.191E+02, 8.146E+01, 1.782E+02, 2.270E+02, 7.970E+01,-6.000E+01, 1.474E-01, 3.509E-02, 1.997E+02
 1.190E+03, 1.547E+02, 1.628E+02, 1.659E+02, 2.162E+02, 8.205E+01, 1.786E+02, 2.295E+02, 8.046E+01,-6.200E+01, 1.473E-01, 3.515E-02, 1.997E+02
 1.200E+03, 1.562E+02, 1.622E+02, 1.677E+02, 2.181E+02, 8.282E+01, 1.777E+02, 2.282E+02, 8.068E+01,-6.367E+01, 1.472E-01, 3.524E-02, 1.998E+02
 1.210E+03, 1.563E+02, 1.602E+02, 1.688E+02, 2.182E+02, 8.202E+01, 1.755E+02, 2.250E+02, 8.026E+01,-6.520E+01, 1.471E-01, 3.530E-02, 2.004E+02
 1.220E+03, 1.571E+02, 1.595E+02, 1.685E+02, 2.202E+02, 8.273E+01, 1.765E+02, 2.230E+02, 7.902E+01,-6.294E+01, 1.472E-01, 3.524E-02, 2.004E+02
 1.230E+03, 1.574E+02, 1.620E+02, 1.666E+02, 2.214E+02, 8.420E+01, 1.803E+02, 2.244E+02, 8.147E+01,-6.252E+01, 1.470E-01, 3.531E-02, 1.999E+02
 1.240E+03, 1.560E+02, 1.623E+02, 1.657E+02, 2.194E+02, 8.277E+01, 1.813E+02, 2.240E+02, 8.166E+01,-6.521E+01, 1.469E-01, 3.542E-02, 2.000E+02
 1.250E+03, 1.567E+02, 1.631E+02, 1.679E+02, 2.195E+02, 8.262E+01, 1.789E+02, 2.306E+02, 7.981E+01,-6.270E+01, 1.470E-01, 3.536E-02, 1.996E+02
 1.260E+03, 1.575E+02, 1.624E+02, 1.675E+02, 2.210E+02, 8.398E+01, 1.780E+02, 2.281E+02, 8.102E+01,-6.323E+01, 1.469E-01, 3.541E-02, 2.004E+02
 1.270E+03, 1.578E+02, 1.630E+02, 1.690E+02, 2.207E+02, 8.379E+01, 1.790E+02, 2.293E+02, 8.057E+01,-6.138E+01, 1.468E-01, 3.543E-02, 2.000E+02
 1.280E+03, 1.579E+02, 1.621E+02, 1.699E+02, 2.205E+02, 8.348E+01, 1.781E+02, 2.267E+02, 8.152E+01,-5.910E+01, 1.467E-01, 3.551E-02, 2.002E+02
 1.290E+03, 1.573E+02, 1.630E+02, 1.682E+02, 2.200E+02, 8.362E+01, 1.797E+02, 2.287E+02, 8.055E+01,-6.180E+01, 1.468E-01, 3.544E-02, 1.997E+02
 1.300E+03, 1.585E+02, 1.635E+02, 1.693E+02, 2.217E+02, 8.463E+01, 1.818E+02, 2.272E+02, 8.171E+01,-6.096E+01, 1.467E-01, 3.552E-02, 2.002E+02
 1.310E+03, 1.576E+02, 1.648E+02, 1.684E+02, 2.205E+02, 8.386E+01, 1.830E+02, 2.284E+02, 8.297E+01,-6.060E+01, 1.464E-01, 3.569E-02, 2.000E+02
