s,C,C,C,C,C,C,C,C,Pa,mol/mol,mol/mol,kW
Time,"West_All_TCs","East_All_TCs","West_Bottom_TCs","West_Middle_TCs","West_Upper_TCs","East_Bottom_TCs","East_Middle_TCs","East_Upper_TCs","Pressure","O2","CO2","HRR"
-6.000E+01, 2.700E+01, 2.700E+01, 2.700E+01, 2.700E+01, 2.700E+01, 2.700E+01, 2.700E+01, 2.700E+01,-9.557E-06, 2.095E-01, 3.901E-04, 0.000E+00
-4.998E+01, 2.700E+01, 2.700E+01, 2.700E+01, 2.700E+01, 2.700E+01, 2.700E+01, 2.700E+01, 2.700E+01, 4.792E-05, 2.095E-01, 3.901E-04, 0.000E+00
-3.996E+01, 2.700E+01, 2.700E+01, 2.700E+01, 2.700E+01, 2.700E+01, 2.700E+01, 2.700E+01, 2.700E+01, 2.849E-05, 2.095E-01, 3.901E-04, 0.000E+00
-2.994E+01, 2.700E+01, 2.700E+01, 2.700E+01, 2.700E+01, 2.700E+01, 2.700E+01, 2.700E+01, 2.700E+01, 2.023E-05, 2.095E-01, 3.901E-04, 0.000E+00
-1.992E+01, 2.700E+01, 2.700E+01, 2.700E+01, 2.700E+01, 2.700E+01, 2.700E+01, 2.700E+01, 2.700E+01, 1.839E-05, 2.095E-01, 3.901E-04, 0.000E+00
-9.896E+00, 2.700E+01, 2.700E+01, 2.700E+01, 2.700E+01, 2.700E+01, 2.700E+01, 2.700E+01, 2.700E+01, 1.716E-05, 2.095E-01, 3.901E-04, 0.000E+00
 1.301E-02, 2.700E+01, 2.700E+01, 2.700E+01, 2.700E+01, 2.700E+01, 2.700E+01, 2.700E+01, 2.700E+01, 1.561E-05, 2.095E-01, 3.901E-04, 1.757E-04
 1.001E+01, 2.794E+01, 2.814E+01, 2.751E+01, 2.715E+01, 2.917E+01, 2.779E+01, 2.720E+01, 2.944E+01, 1.294E-02, 2.093E-01, 5.224E-04, 3.374E+01
 2.002E+01, 3.136E+01, 3.169E+01, 2.867E+01, 2.874E+01, 3.667E+01, 2.954E+01, 2.906E+01, 3.647E+01, 1.896E-01, 2.086E-01, 9.382E-04, 9.917E+01
 3.002E+01, 3.952E+01, 4.009E+01, 3.026E+01, 3.537E+01, 5.292E+01, 3.153E+01, 3.581E+01, 5.294E+01, 1.136E+00, 2.067E-01, 1.956E-03, 1.655E+02
 4.002E+01, 5.203E+01, 5.153E+01, 3.360E+01, 5.168E+01, 7.079E+01, 3.551E+01, 5.025E+01, 6.882E+01, 2.516E+00, 2.054E-01, 2.695E-03, 1.995E+02
 5.001E+01, 6.372E+01, 6.404E+01, 3.806E+01, 6.880E+01, 8.429E+01, 4.098E+01, 6.712E+01, 8.402E+01, 3.868E+00, 2.037E-01, 3.638E-03, 1.989E+02
 6.001E+01, 7.311E+01, 7.344E+01, 4.475E+01, 7.976E+01, 9.481E+01, 4.867E+01, 7.858E+01, 9.307E+01, 4.898E+00, 2.029E-01, 4.106E-03, 1.996E+02
 7.000E+01, 8.172E+01, 8.135E+01, 5.299E+01, 9.042E+01, 1.017E+02, 5.715E+01, 8.810E+01, 9.881E+01, 5.767E+00, 2.018E-01, 4.712E-03, 2.001E+02
 8.001E+01, 8.723E+01, 8.786E+01, 5.842E+01, 9.523E+01, 1.080E+02, 6.133E+01, 9.467E+01, 1.076E+02, 6.238E+00, 2.009E-01, 5.217E-03, 1.998E+02
 9.000E+01, 9.149E+01, 9.298E+01, 6.336E+01, 9.856E+01, 1.126E+02, 6.288E+01, 1.027E+02, 1.133E+02, 6.548E+00, 1.996E-01, 5.960E-03, 1.996E+02
 1.000E+02, 9.609E+01, 9.576E+01, 6.414E+01, 1.045E+02, 1.196E+02, 6.526E+01, 1.053E+02, 1.167E+02, 6.841E+00, 1.989E-01, 6.324E-03, 1.997E+02
 1.100E+02, 9.930E+01, 9.819E+01, 6.597E+01, 1.101E+02, 1.219E+02, 6.663E+01, 1.096E+02, 1.183E+02, 7.015E+00, 1.985E-01, 6.582E-03, 2.008E+02
 1.200E+02, 1.013E+02, 1.010E+02, 6.775E+01, 1.122E+02, 1.239E+02, 6.967E+01, 1.119E+02, 1.213E+02, 7.258E+00, 1.973E-01, 7.214E-03, 1.985E+02
 1.300E+02, 1.031E+02, 1.036E+02, 7.118E+01, 1.142E+02, 1.239E+02, 7.149E+01, 1.126E+02, 1.268E+02, 7.375E+00, 1.968E-01, 7.506E-03, 1.993E+02
 1.400E+02, 1.049E+02, 1.045E+02, 7.133E+01, 1.177E+02, 1.256E+02, 7.458E+01, 1.129E+02, 1.260E+02, 7.401E+00, 1.963E-01, 7.792E-03, 2.007E+02
 1.500E+02, 1.048E+02, 1.050E+02, 7.004E+01, 1.184E+02, 1.261E+02, 7.495E+01, 1.146E+02, 1.255E+02, 7.602E+00, 1.956E-01, 8.168E-03, 1.988E+02
 1.600E+02, 1.039E+02, 1.065E+02, 7.025E+01, 1.133E+02, 1.281E+02, 7.497E+01, 1.164E+02, 1.282E+02, 7.711E+00, 1.950E-01, 8.525E-03, 2.009E+02
 1.700E+02, 1.058E+02, 1.087E+02, 7.009E+01, 1.169E+02, 1.303E+02, 7.257E+01, 1.229E+02, 1.306E+02, 7.615E+00, 1.946E-01, 8.737E-03, 1.995E+02
 1.800E+02, 1.076E+02, 1.074E+02, 6.996E+01, 1.214E+02, 1.315E+02, 7.292E+01, 1.189E+02, 1.305E+02, 7.616E+00, 1.944E-01, 8.879E-03, 1.991E+02
 1.900E+02, 1.081E+02, 1.088E+02, 7.196E+01, 1.221E+02, 1.301E+02, 7.574E+01, 1.204E+02, 1.301E+02, 7.594E+00, 1.940E-01, 9.051E-03, 1.991E+02
 2.000E+02, 1.083E+02, 1.086E+02, 7.220E+01, 1.220E+02, 1.308E+02, 7.479E+01, 1.204E+02, 1.306E+02, 7.592E+00, 1.935E-01, 9.365E-03, 2.005E+02
 2.100E+02, 1.091E+02, 1.086E+02, 7.235E+01, 1.231E+02, 1.318E+02, 7.635E+01, 1.192E+02, 1.303E+02, 7.822E+00, 1.934E-01, 9.433E-03, 1.999E+02
 2.200E+02, 1.078E+02, 1.096E+02, 7.204E+01, 1.195E+02, 1.320E+02, 7.518E+01, 1.207E+02, 1.331E+02, 7.646E+00, 1.930E-01, 9.607E-03, 1.988E+02
 2.300E+02, 1.087E+02, 1.116E+02, 7.170E+01, 1.224E+02, 1.319E+02, 7.715E+01, 1.236E+02, 1.342E+02, 7.810E+00, 1.929E-01, 9.704E-03, 1.998E+02
 2.400E+02, 1.099E+02, 1.102E+02, 7.208E+01, 1.245E+02, 1.333E+02, 7.623E+01, 1.224E+02, 1.319E+02, 7.808E+00, 1.926E-01, 9.877E-03, 2.005E+02
 2.500E+02, 1.100E+02, 1.114E+02, 7.231E+01, 1.251E+02, 1.326E+02, 7.551E+01, 1.233E+02, 1.354E+02, 7.911E+00, 1.924E-01, 9.952E-03, 2.009E+02
 2.600E+02, 1.100E+02, 1.109E+02, 7.172E+01, 1.236E+02, 1.346E+02, 7.690E+01, 1.218E+02, 1.340E+02, 7.813E+00, 1.922E-01, 1.006E-02, 1.992E+02
 2.700E+02, 1.104E+02, 1.098E+02, 7.434E+01, 1.227E+02, 1.342E+02, 7.670E+01, 1.204E+02, 1.322E+02, 7.942E+00, 1.922E-01, 1.007E-02, 2.000E+02
 2.800E+02, 1.087E+02, 1.112E+02, 7.278E+01, 1.208E+02, 1.324E+02, 7.819E+01, 1.217E+02, 1.337E+02, 7.882E+00, 1.919E-01, 1.023E-02, 1.992E+02
 2.900E+02, 1.094E+02, 1.109E+02, 7.274E+01, 1.204E+02, 1.352E+02, 7.698E+01, 1.221E+02, 1.336E+02, 7.976E+00, 1.921E-01, 1.016E-02, 2.001E+02
 3.000E+02, 1.089E+02, 1.112E+02, 7.257E+01, 1.219E+02, 1.322E+02, 7.617E+01, 1.225E+02, 1.350E+02, 7.815E+00, 1.917E-01, 1.034E-02, 1.995E+02
 3.100E+02, 1.093E+02, 1.111E+02, 7.376E+01, 1.218E+02, 1.322E+02, 7.760E+01, 1.221E+02, 1.336E+02, 7.932E+00, 1.922E-01, 1.010E-02, 1.992E+02
 3.200E+02, 1.096E+02, 1.102E+02, 7.160E+01, 1.247E+02, 1.326E+02, 7.739E+01, 1.212E+02, 1.320E+02, 7.976E+00, 1.915E-01, 1.047E-02, 1.990E+02
 3.300E+02, 1.102E+02, 1.114E+02, 7.163E+01, 1.233E+02, 1.356E+02, 7.662E+01, 1.239E+02, 1.338E+02, 7.921E+00, 1.914E-01, 1.055E-02, 1.996E+02
 3.400E+02, 1.107E+02, 1.112E+02, 7.127E+01, 1.241E+02, 1.367E+02, 7.660E+01, 1.235E+02, 1.336E+02, 7.919E+00, 1.912E-01, 1.062E-02, 1.996E+02
 3.500E+02, 1.105E+02, 1.117E+02, 7.324E+01, 1.232E+02, 1.352E+02, 7.693E+01, 1.231E+02, 1.350E+02, 7.953E+00, 1.918E-01, 1.031E-02, 1.999E+02
 3.600E+02, 1.099E+02, 1.123E+02, 7.347E+01, 1.225E+02, 1.339E+02, 7.870E+01, 1.236E+02, 1.345E+02, 7.922E+00, 1.913E-01, 1.056E-02, 1.985E+02
 3.700E+02, 1.098E+02, 1.126E+02, 7.210E+01, 1.233E+02, 1.340E+02, 7.839E+01, 1.241E+02, 1.352E+02, 7.972E+00, 1.912E-01, 1.063E-02, 2.009E+02
 3.800E+02, 1.112E+02, 1.129E+02, 7.450E+01, 1.251E+02, 1.339E+02, 7.985E+01, 1.243E+02, 1.346E+02, 7.991E+00, 1.914E-01, 1.053E-02, 1.999E+02
 3.900E+02, 1.113E+02, 1.124E+02, 7.441E+01, 1.248E+02, 1.348E+02, 7.836E+01, 1.238E+02, 1.352E+02, 7.929E+00, 1.914E-01, 1.052E-02, 1.993E+02
 4.000E+02, 1.113E+02, 1.125E+02, 7.399E+01, 1.240E+02, 1.361E+02, 7.857E+01, 1.242E+02, 1.349E+02, 8.015E+00, 1.914E-01, 1.055E-02, 1.995E+02
 4.100E+02, 1.115E+02, 1.123E+02, 7.366E+01, 1.243E+02, 1.366E+02, 7.819E+01, 1.243E+02, 1.344E+02, 7.968E+00, 1.911E-01, 1.071E-02, 1.999E+02
 4.200E+02, 1.138E+02, 1.131E+02, 7.583E+01, 1.265E+02, 1.391E+02, 7.933E+01, 1.241E+02, 1.359E+02, 7.989E+00, 1.911E-01, 1.072E-02, 1.989E+02
 4.300E+02, 1.105E+02, 1.150E+02, 7.264E+01, 1.235E+02, 1.355E+02, 7.851E+01, 1.291E+02, 1.375E+02, 8.168E+00, 1.909E-01, 1.082E-02, 1.993E+02
 4.400E+02, 1.123E+02, 1.138E+02, 7.377E+01, 1.260E+02, 1.371E+02, 7.710E+01, 1.291E+02, 1.351E+02, 8.008E+00, 1.911E-01, 1.070E-02, 2.002E+02
 4.500E+02, 1.132E+02, 1.143E+02, 7.345E+01, 1.273E+02, 1.389E+02, 7.727E+01, 1.273E+02, 1.383E+02, 8.074E+00, 1.910E-01, 1.077E-02, 1.996E+02
 4.600E+02, 1.122E+02, 1.142E+02, 7.449E+01, 1.246E+02, 1.375E+02, 7.755E+01, 1.276E+02, 1.373E+02, 8.014E+00, 1.912E-01, 1.064E-02, 1.991E+02
 4.700E+02, 1.128E+02, 1.137E+02, 7.561E+01, 1.264E+02, 1.364E+02, 7.867E+01, 1.259E+02, 1.364E+02, 8.113E+00, 1.912E-01, 1.063E-02, 1.999E+02
 4.800E+02, 1.138E+02, 1.126E+02, 7.518E+01, 1.288E+02, 1.375E+02, 7.795E+01, 1.250E+02, 1.347E+02, 8.088E+00, 1.910E-01, 1.074E-02, 2.001E+02
 4.900E+02, 1.122E+02, 1.141E+02, 7.377E+01, 1.261E+02, 1.368E+02, 7.971E+01, 1.257E+02, 1.370E+02, 8.154E+00, 1.912E-01, 1.065E-02, 1.991E+02
 5.000E+02, 1.125E+02, 1.143E+02, 7.417E+01, 1.278E+02, 1.356E+02, 8.021E+01, 1.263E+02, 1.364E+02, 8.142E+00, 1.910E-01, 1.074E-02, 2.002E+02
 5.100E+02, 1.125E+02, 1.138E+02, 7.414E+01, 1.270E+02, 1.364E+02, 7.912E+01, 1.259E+02, 1.363E+02, 8.207E+00, 1.910E-01, 1.077E-02, 1.989E+02
 5.200E+02, 1.118E+02, 1.153E+02, 7.335E+01, 1.259E+02, 1.361E+02, 7.870E+01, 1.275E+02, 1.396E+02, 8.176E+00, 1.911E-01, 1.067E-02, 2.009E+02
 5.300E+02, 1.127E+02, 1.145E+02, 7.415E+01, 1.261E+02, 1.379E+02, 7.961E+01, 1.274E+02, 1.367E+02, 8.016E+00, 1.908E-01, 1.084E-02, 1.989E+02
 5.400E+02, 1.126E+02, 1.151E+02, 7.540E+01, 1.260E+02, 1.363E+02, 7.953E+01, 1.286E+02, 1.372E+02, 8.100E+00, 1.910E-01, 1.077E-02, 1.994E+02
 5.500E+02, 1.120E+02, 1.151E+02, 7.368E+01, 1.241E+02, 1.383E+02, 7.970E+01, 1.299E+02, 1.357E+02, 8.241E+00, 1.908E-01, 1.085E-02, 2.006E+02
 5.600E+02, 1.131E+02, 1.143E+02, 7.527E+01, 1.265E+02, 1.376E+02, 7.835E+01, 1.292E+02, 1.355E+02, 8.202E+00, 1.909E-01, 1.080E-02, 1.998E+02
 5.700E+02, 1.123E+02, 1.155E+02, 7.378E+01, 1.261E+02, 1.371E+02, 8.016E+01, 1.293E+02, 1.370E+02, 8.211E+00, 1.909E-01, 1.082E-02, 2.002E+02
 5.800E+02, 1.144E+02, 1.143E+02, 7.428E+01, 1.295E+02, 1.393E+02, 8.007E+01, 1.267E+02, 1.362E+02, 8.168E+00, 1.910E-01, 1.074E-02, 1.990E+02
 5.900E+02, 1.130E+02, 1.161E+02, 7.540E+01, 1.268E+02, 1.367E+02, 7.923E+01, 1.288E+02, 1.402E+02, 8.183E+00, 1.914E-01, 1.053E-02, 2.011E+02
 6.000E+02, 1.134E+02, 1.158E+02, 7.712E+01, 1.265E+02, 1.366E+02, 8.059E+01, 1.290E+02, 1.378E+02, 8.221E+00, 1.911E-01, 1.071E-02, 1.988E+02
 6.100E+02, 1.141E+02, 1.150E+02, 7.562E+01, 1.269E+02, 1.397E+02, 8.089E+01, 1.268E+02, 1.374E+02, 8.242E+00, 1.913E-01, 1.057E-02, 2.004E+02
 6.200E+02, 1.145E+02, 1.158E+02, 7.706E+01, 1.288E+02, 1.377E+02, 7.948E+01, 1.284E+02, 1.396E+02, 8.228E+00, 1.912E-01, 1.062E-02, 1.993E+02
 6.300E+02, 1.146E+02, 1.153E+02, 7.601E+01, 1.294E+02, 1.384E+02, 8.086E+01, 1.271E+02, 1.381E+02, 8.232E+00, 1.911E-01, 1.071E-02, 2.009E+02
 6.400E+02, 1.138E+02, 1.163E+02, 7.588E+01, 1.269E+02, 1.385E+02, 8.100E+01, 1.274E+02, 1.405E+02, 8.236E+00, 1.912E-01, 1.062E-02, 1.991E+02
 6.500E+02, 1.144E+02, 1.154E+02, 7.712E+01, 1.280E+02, 1.381E+02, 8.099E+01, 1.268E+02, 1.385E+02, 8.188E+00, 1.914E-01, 1.055E-02, 1.995E+02
 6.600E+02, 1.140E+02, 1.158E+02, 7.568E+01, 1.283E+02, 1.379E+02, 8.056E+01, 1.274E+02, 1.394E+02, 8.247E+00, 1.911E-01, 1.067E-02, 2.004E+02
 6.700E+02, 1.141E+02, 1.165E+02, 7.507E+01, 1.272E+02, 1.399E+02, 8.117E+01, 1.294E+02, 1.388E+02, 8.261E+00, 1.909E-01, 1.078E-02, 1.995E+02
 6.800E+02, 1.141E+02, 1.160E+02, 7.461E+01, 1.275E+02, 1.403E+02, 7.759E+01, 1.311E+02, 1.392E+02, 8.269E+00, 1.911E-01, 1.071E-02, 1.990E+02
 6.900E+02, 1.142E+02, 1.153E+02, 7.407E+01, 1.285E+02, 1.401E+02, 7.916E+01, 1.280E+02, 1.388E+02, 8.340E+00, 1.911E-01, 1.069E-02, 1.996E+02
 7.000E+02, 1.145E+02, 1.163E+02, 7.493E+01, 1.287E+02, 1.398E+02, 7.869E+01, 1.310E+02, 1.392E+02, 8.308E+00, 1.912E-01, 1.062E-02, 1.999E+02
 7.100E+02, 1.145E+02, 1.160E+02, 7.620E+01, 1.286E+02, 1.387E+02, 7.981E+01, 1.294E+02, 1.389E+02, 8.239E+00, 1.911E-01, 1.068E-02, 1.998E+02
 7.200E+02, 1.151E+02, 1.166E+02, 7.735E+01, 1.288E+02, 1.392E+02, 8.153E+01, 1.288E+02, 1.395E+02, 8.239E+00, 1.913E-01, 1.059E-02, 2.002E+02
 7.300E+02, 1.157E+02, 1.159E+02, 7.736E+01, 1.301E+02, 1.396E+02, 8.271E+01, 1.266E+02, 1.383E+02, 8.274E+00, 1.917E-01, 1.037E-02, 1.999E+02
 7.400E+02, 1.151E+02, 1.160E+02, 7.648E+01, 1.295E+02, 1.393E+02, 8.307E+01, 1.273E+02, 1.377E+02, 8.374E+00, 1.912E-01, 1.066E-02, 1.988E+02
 7.500E+02, 1.153E+02, 1.172E+02, 7.816E+01, 1.284E+02, 1.395E+02, 8.068E+01, 1.299E+02, 1.409E+02, 8.289E+00, 1.911E-01, 1.072E-02, 1.994E+02
 7.600E+02, 1.162E+02, 1.177E+02, 7.688E+01, 1.298E+02, 1.419E+02, 8.117E+01, 1.303E+02, 1.417E+02, 8.230E+00, 1.912E-01, 1.065E-02, 2.010E+02
 7.700E+02, 1.169E+02, 1.165E+02, 7.926E+01, 1.301E+02, 1.413E+02, 8.020E+01, 1.298E+02, 1.396E+02, 8.254E+00, 1.914E-01, 1.054E-02, 1.999E+02
 7.800E+02, 1.170E+02, 1.186E+02, 7.850E+01, 1.308E+02, 1.416E+02, 8.165E+01, 1.307E+02, 1.435E+02, 8.208E+00, 1.908E-01, 1.086E-02, 2.001E+02
 7.900E+02, 1.172E+02, 1.180E+02, 7.865E+01, 1.309E+02, 1.421E+02, 8.150E+01, 1.306E+02, 1.419E+02, 8.414E+00, 1.915E-01, 1.047E-02, 2.001E+02
 8.000E+02, 1.166E+02, 1.178E+02, 7.804E+01, 1.304E+02, 1.414E+02, 8.021E+01, 1.307E+02, 1.425E+02, 8.388E+00, 1.910E-01, 1.074E-02, 2.001E+02
 8.100E+02, 1.157E+02, 1.183E+02, 7.732E+01, 1.290E+02, 1.409E+02, 8.021E+01, 1.330E+02, 1.416E+02, 8.382E+00, 1.909E-01, 1.079E-02, 1.995E+02
 8.200E+02, 1.168E+02, 1.174E+02, 7.590E+01, 1.331E+02, 1.414E+02, 8.037E+01, 1.317E+02, 1.400E+02, 8.346E+00, 1.911E-01, 1.069E-02, 2.010E+02
 8.300E+02, 1.171E+02, 1.191E+02, 7.877E+01, 1.315E+02, 1.412E+02, 8.158E+01, 1.316E+02, 1.440E+02, 8.334E+00, 1.912E-01, 1.064E-02, 1.993E+02
 8.400E+02, 1.174E+02, 1.189E+02, 7.856E+01, 1.328E+02, 1.408E+02, 8.264E+01, 1.310E+02, 1.430E+02, 8.284E+00, 1.910E-01, 1.074E-02, 1.996E+02
 8.500E+02, 1.179E+02, 1.174E+02, 7.824E+01, 1.347E+02, 1.407E+02, 8.300E+01, 1.294E+02, 1.398E+02, 8.376E+00, 1.910E-01, 1.078E-02, 1.989E+02
 8.600E+02, 1.168E+02, 1.180E+02, 7.927E+01, 1.305E+02, 1.405E+02, 8.143E+01, 1.326E+02, 1.401E+02, 8.348E+00, 1.912E-01, 1.067E-02, 2.004E+02
 8.700E+02, 1.161E+02, 1.193E+02, 7.963E+01, 1.278E+02, 1.410E+02, 8.220E+01, 1.323E+02, 1.435E+02, 8.407E+00, 1.913E-01, 1.059E-02, 1.997E+02
 8.800E+02, 1.182E+02, 1.197E+02, 7.870E+01, 1.333E+02, 1.428E+02, 8.278E+01, 1.328E+02, 1.436E+02, 8.290E+00, 1.917E-01, 1.037E-02, 1.995E+02
 8.900E+02, 1.173E+02, 1.191E+02, 7.949E+01, 1.325E+02, 1.399E+02, 8.415E+01, 1.303E+02, 1.427E+02, 8.347E+00, 1.915E-01, 1.048E-02, 1.998E+02
 9.000E+02, 1.180E+02, 1.190E+02, 7.857E+01, 1.354E+02, 1.399E+02, 8.332E+01, 1.323E+02, 1.415E+02, 8.511E+00, 1.914E-01, 1.052E-02, 1.997E+02
 9.100E+02, 1.165E+02, 1.193E+02, 7.809E+01, 1.302E+02, 1.413E+02, 8.192E+01, 1.332E+02, 1.428E+02, 8.464E+00, 1.912E-01, 1.064E-02, 2.000E+02
 9.200E+02, 1.160E+02, 1.184E+02, 7.710E+01, 1.305E+02, 1.405E+02, 8.048E+01, 1.323E+02, 1.424E+02, 8.419E+00, 1.912E-01, 1.064E-02, 2.004E+02
 9.300E+02, 1.179E+02, 1.189E+02, 7.827E+01, 1.340E+02, 1.415E+02, 8.527E+01, 1.315E+02, 1.400E+02, 8.316E+00, 1.916E-01, 1.044E-02, 1.996E+02
 9.400E+02, 1.184E+02, 1.203E+02, 8.091E+01, 1.330E+02, 1.412E+02, 8.554E+01, 1.313E+02, 1.439E+02, 8.389E+00, 1.915E-01, 1.049E-02, 1.993E+02
 9.500E+02, 1.184E+02, 1.198E+02, 7.998E+01, 1.323E+02, 1.430E+02, 8.681E+01, 1.312E+02, 1.413E+02, 8.455E+00, 1.914E-01, 1.052E-02, 1.987E+02
 9.600E+02, 1.179E+02, 1.193E+02, 8.107E+01, 1.320E+02, 1.406E+02, 8.659E+01, 1.301E+02, 1.413E+02, 8.471E+00, 1.913E-01, 1.060E-02, 2.011E+02
 9.700E+02, 1.170E+02, 1.199E+02, 7.916E+01, 1.300E+02, 1.419E+02, 8.237E+01, 1.346E+02, 1.428E+02, 8.409E+00, 1.910E-01, 1.074E-02, 1.985E+02
 9.800E+02, 1.186E+02, 1.193E+02, 7.957E+01, 1.342E+02, 1.422E+02, 7.945E+01, 1.345E+02, 1.439E+02, 8.309E+00, 1.913E-01, 1.060E-02, 2.003E+02
 9.900E+02, 1.188E+02, 1.201E+02, 7.819E+01, 1.347E+02, 1.435E+02, 8.183E+01, 1.340E+02, 1.444E+02, 8.411E+00, 1.915E-01, 1.048E-02, 1.996E+02
 1.000E+03, 1.183E+02, 1.198E+02, 7.901E+01, 1.340E+02, 1.418E+02, 8.421E+01, 1.319E+02, 1.435E+02, 8.487E+00, 1.920E-01, 1.020E-02, 2.002E+02
 1.010E+03, 1.177E+02, 1.206E+02, 7.799E+01, 1.346E+02, 1.406E+02, 8.308E+01, 1.338E+02, 1.450E+02, 8.427E+00, 1.913E-01, 1.059E-02, 1.983E+02
 1.020E+03, 1.180E+02, 1.208E+02, 7.711E+01, 1.329E+02, 1.439E+02, 8.349E+01, 1.344E+02, 1.446E+02, 8.434E+00, 1.912E-01, 1.064E-02, 2.004E+02
 1.030E+03, 1.172E+02, 1.200E+02, 7.632E+01, 1.299E+02, 1.454E+02, 8.125E+01, 1.346E+02, 1.443E+02, 8.653E+00, 1.911E-01, 1.068E-02, 1.991E+02
 1.040E+03, 1.177E+02, 1.200E+02, 7.547E+01, 1.319E+02, 1.457E+02, 7.991E+01, 1.353E+02, 1.448E+02, 8.533E+00, 1.912E-01, 1.066E-02, 1.994E+02
 1.050E+03, 1.183E+02, 1.211E+02, 7.615E+01, 1.336E+02, 1.453E+02, 8.054E+01, 1.372E+02, 1.457E+02, 8.487E+00, 1.914E-01, 1.054E-02, 1.989E+02
 1.060E+03, 1.187E+02, 1.195E+02, 7.724E+01, 1.329E+02, 1.459E+02, 8.184E+01, 1.332E+02, 1.434E+02, 8.490E+00, 1.912E-01, 1.066E-02, 1.999E+02
 1.070E+03, 1.187E+02, 1.205E+02, 7.698E+01, 1.347E+02, 1.445E+02, 8.123E+01, 1.355E+02, 1.449E+02, 8.568E+00, 1.912E-01, 1.062E-02, 1.998E+02
 1.080E+03, 1.185E+02, 1.200E+02, 7.719E+01, 1.352E+02, 1.431E+02, 8.192E+01, 1.341E+02, 1.439E+02, 8.461E+00, 1.911E-01, 1.068E-02, 2.003E+02
 1.090E+03, 1.189E+02, 1.197E+02, 7.783E+01, 1.347E+02, 1.442E+02, 8.169E+01, 1.339E+02, 1.434E+02, 8.501E+00, 1.916E-01, 1.043E-02, 1.990E+02
 1.100E+03, 1.176E+02, 1.201E+02, 7.757E+01, 1.321E+02, 1.430E+02, 8.203E+01, 1.344E+02, 1.437E+02, 8.496E+00, 1.911E-01, 1.069E-02, 1.999E+02
 1.110E+03, 1.181E+02, 1.222E+02, 7.574E+01, 1.341E+02, 1.444E+02, 8.214E+01, 1.365E+02, 1.481E+02, 8.460E+00, 1.911E-01, 1.068E-02, 1.986E+02
 1.120E+03, 1.193E+02, 1.204E+02, 7.794E+01, 1.358E+02, 1.443E+02, 8.195E+01, 1.349E+02, 1.444E+02, 8.551E+00, 1.911E-01, 1.067E-02, 2.000E+02
 1.130E+03, 1.182E+02, 1.205E+02, 7.813E+01, 1.323E+02, 1.442E+02, 8.112E+01, 1.340E+02, 1.463E+02, 8.573E+00, 1.911E-01, 1.068E-02, 2.004E+02
 1.140E+03, 1.190E+02, 1.224E+02, 7.760E+01, 1.360E+02, 1.433E+02, 8.340E+01, 1.374E+02, 1.463E+02, 8.444E+00, 1.914E-01, 1.055E-02, 1.990E+02
 1.150E+03, 1.205E+02, 1.215E+02, 7.791E+01, 1.383E+02, 1.452E+02, 8.252E+01, 1.371E+02, 1.448E+02, 8.613E+00, 1.913E-01, 1.061E-02, 1.986E+02
 1.160E+03, 1.198E+02, 1.212E+02, 7.713E+01, 1.374E+02, 1.449E+02, 8.309E+01, 1.354E+02, 1.451E+02, 8.622E+00, 1.913E-01, 1.058E-02, 2.012E+02
 1.170E+03, 1.200E+02, 1.214E+02, 7.792E+01, 1.364E+02, 1.458E+02, 8.188E+01, 1.363E+02, 1.460E+02, 8.586E+00, 1.915E-01, 1.046E-02, 1.982E+02
 1.180E+03, 1.194E+02, 1.215E+02, 7.774E+01, 1.352E+02, 1.452E+02, 8.411E+01, 1.343E+02, 1.462E+02, 8.756E+00, 1.912E-01, 1.064E-02, 1.999E+02
 1.190E+03, 1.203E+02, 1.225E+02, 7.815E+01, 1.350E+02, 1.476E+02, 8.332E+01, 1.381E+02, 1.462E+02, 8.547E+00, 1.913E-01, 1.059E-02, 1.995E+02
 1.200E+03, 1.198E+02, 1.212E+02, 7.684E+01, 1.351E+02, 1.476E+02, 8.236E+01, 1.362E+02, 1.451E+02, 8.561E+00, 1.913E-01, 1.061E-02, 2.006E+02
 1.210E+03, 1.204E+02, 1.209E+02, 7.784E+01, 1.367E+02, 1.467E+02, 8.244E+01, 1.357E+02, 1.446E+02, 8.536E+00, 1.915E-01, 1.046E-02, 1.984E+02
 1.220E+03, 1.212E+02, 1.212E+02, 7.919E+01, 1.366E+02, 1.478E+02, 8.401E+01, 1.351E+02, 1.446E+02, 8.630E+00, 1.914E-01, 1.052E-02, 1.995E+02
 1.230E+03, 1.204E+02, 1.226E+02, 7.950E+01, 1.356E+02, 1.462E+02, 8.405E+01, 1.362E+02, 1.475E+02, 8.645E+00, 1.911E-01, 1.071E-02, 2.002E+02
 1.240E+03, 1.206E+02, 1.224E+02, 8.007E+01, 1.361E+02, 1.456E+02, 8.541E+01, 1.361E+02, 1.457E+02, 8.637E+00, 1.911E-01, 1.067E-02, 1.981E+02
 1.250E+03, 1.199E+02, 1.223E+02, 7.729E+01, 1.359E+02, 1.465E+02, 8.372E+01, 1.378E+02, 1.454E+02, 8.689E+00, 1.910E-01, 1.073E-02, 2.009E+02
 1.260E+03, 1.199E+02, 1.221E+02, 7.772E+01, 1.349E+02, 1.472E+02, 8.097E+01, 1.384E+02, 1.469E+02, 8.665E+00, 1.910E-01, 1.073E-02, 1.995E+02
 1.270E+03, 1.212E+02, 1.219E+02, 7.695E+01, 1.378E+02, 1.488E+02, 8.186E+01, 1.377E+02, 1.460E+02, 8.682E+00, 1.911E-01, 1.072E-02, 2.004E+02
 1.280E+03, 1.199E+02, 1.235E+02, 7.689E+01, 1.377E+02, 1.452E+02, 8.079E+01, 1.378E+02, 1.519E+02, 8.678E+00, 1.908E-01, 1.087E-02, 1.997E+02
 1.290E+03, 1.214E+02, 1.225E+02, 8.025E+01, 1.388E+02, 1.453E+02, 8.498E+01, 1.359E+02, 1.465E+02, 8.516E+00, 1.915E-01, 1.045E-02, 2.005E+02
 1.300E+03, 1.216E+02, 1.230E+02, 8.139E+01, 1.370E+02, 1.463E+02, 8.687E+01, 1.365E+02, 1.456E+02, 8.606E+00, 1.915E-01, 1.045E-02, 1.993E+02
 1.310E+03, 1.216E+02, 1.231E+02, 8.015E+01, 1.380E+02, 1.467E+02, 8.618E+01, 1.358E+02, 1.471E+02, 8.722E+00, 1.915E-01, 1.049E-02, 2.005E+02
