s,C,C,C,C,C,C,C,C,Pa,mol/mol,mol/mol,kW
Time,"West_All_TCs","East_All_TCs","West_Bottom_TCs","West_Middle_TCs","West_Upper_TCs","East_Bottom_TCs","East_Middle_TCs","East_Upper_TCs","Pressure","O2","CO2","HRR"
-6.000E+01, 2.800E+01, 2.800E+01, 2.800E+01, 2.800E+01, 2.800E+01, 2.800E+01, 2.800E+01, 2.800E+01,-9.522E-06, 2.095E-01, 3.901E-04, 0.000E+00
-4.998E+01, 2.797E+01, 2.797E+01, 2.797E+01, 2.796E+01, 2.797E+01, 2.797E+01, 2.796E+01, 2.797E+01,-6.285E+01, 2.095E-01, 3.901E-04, 0.000E+00
-3.996E+01, 2.795E+01, 2.797E+01, 2.795E+01, 2.795E+01, 2.794E+01, 2.798E+01, 2.796E+01, 2.796E+01,-6.305E+01, 2.095E-01, 3.901E-04, 0.000E+00
-2.999E+01, 2.795E+01, 2.797E+01, 2.795E+01, 2.794E+01, 2.794E+01, 2.800E+01, 2.796E+01, 2.795E+01,-6.312E+01, 2.095E-01, 3.901E-04, 0.000E+00
-1.993E+01, 2.794E+01, 2.797E+01, 2.795E+01, 2.794E+01, 2.794E+01, 2.800E+01, 2.796E+01, 2.795E+01,-6.315E+01, 2.095E-01, 3.901E-04, 0.000E+00
-9.920E+00, 2.794E+01, 2.797E+01, 2.795E+01, 2.794E+01, 2.794E+01, 2.800E+01, 2.796E+01, 2.795E+01,-6.317E+01, 2.095E-01, 3.901E-04, 0.000E+00
 7.293E-02, 2.794E+01, 2.797E+01, 2.795E+01, 2.794E+01, 2.794E+01, 2.800E+01, 2.796E+01, 2.795E+01,-6.319E+01, 2.095E-01, 3.901E-04, 9.503E-04
 1.001E+01, 2.889E+01, 2.938E+01, 2.844E+01, 3.026E+01, 2.798E+01, 2.885E+01, 3.131E+01, 2.798E+01,-2.710E+01, 2.095E-01, 3.901E-04, 3.248E+01
 2.002E+01, 3.333E+01, 3.407E+01, 3.062E+01, 4.089E+01, 2.848E+01, 3.109E+01, 4.315E+01, 2.796E+01, 5.790E+00, 2.095E-01, 3.901E-04, 9.907E+01
 3.001E+01, 4.132E+01, 4.217E+01, 3.341E+01, 6.158E+01, 2.898E+01, 3.560E+01, 6.305E+01, 2.787E+01, 4.266E+01, 2.095E-01, 3.901E-04, 1.643E+02
 4.000E+01, 5.315E+01, 5.393E+01, 4.077E+01, 8.821E+01, 3.045E+01, 4.297E+01, 9.041E+01, 2.843E+01, 6.111E+01, 2.095E-01, 4.411E-04, 2.018E+02
 5.002E+01, 6.482E+01, 6.657E+01, 5.165E+01, 1.106E+02, 3.221E+01, 5.299E+01, 1.154E+02, 3.131E+01, 3.397E+01, 2.089E-01, 7.519E-04, 2.005E+02
 6.000E+01, 7.529E+01, 7.635E+01, 6.320E+01, 1.284E+02, 3.427E+01, 6.438E+01, 1.309E+02, 3.376E+01, 1.625E+01, 2.086E-01, 8.928E-04, 1.996E+02
 7.002E+01, 8.399E+01, 8.621E+01, 7.395E+01, 1.417E+02, 3.633E+01, 7.625E+01, 1.463E+02, 3.608E+01, 8.442E+00, 2.082E-01, 1.145E-03, 2.003E+02
 8.000E+01, 9.199E+01, 9.328E+01, 8.405E+01, 1.530E+02, 3.889E+01, 8.733E+01, 1.546E+02, 3.793E+01,-8.650E-01, 2.077E-01, 1.424E-03, 2.008E+02
 9.001E+01, 9.736E+01, 9.851E+01, 9.270E+01, 1.589E+02, 4.046E+01, 9.477E+01, 1.601E+02, 4.067E+01,-8.002E+00, 2.072E-01, 1.721E-03, 2.004E+02
 1.000E+02, 1.014E+02, 1.056E+02, 1.004E+02, 1.613E+02, 4.256E+01, 1.023E+02, 1.724E+02, 4.202E+01,-1.246E+01, 2.070E-01, 1.817E-03, 1.999E+02
 1.100E+02, 1.058E+02, 1.085E+02, 1.072E+02, 1.669E+02, 4.333E+01, 1.095E+02, 1.717E+02, 4.430E+01,-2.019E+01, 2.064E-01, 2.154E-03, 2.010E+02
 1.200E+02, 1.090E+02, 1.118E+02, 1.114E+02, 1.710E+02, 4.458E+01, 1.139E+02, 1.761E+02, 4.537E+01,-2.505E+01, 2.060E-01, 2.389E-03, 1.993E+02
 1.300E+02, 1.110E+02, 1.149E+02, 1.155E+02, 1.710E+02, 4.665E+01, 1.171E+02, 1.804E+02, 4.723E+01,-2.946E+01, 2.054E-01, 2.698E-03, 1.999E+02
 1.400E+02, 1.137E+02, 1.156E+02, 1.178E+02, 1.748E+02, 4.856E+01, 1.188E+02, 1.796E+02, 4.842E+01,-3.121E+01, 2.047E-01, 3.106E-03, 1.992E+02
 1.500E+02, 1.156E+02, 1.168E+02, 1.208E+02, 1.763E+02, 4.966E+01, 1.234E+02, 1.764E+02, 5.055E+01,-3.967E+01, 2.040E-01, 3.462E-03, 2.017E+02
 1.600E+02, 1.169E+02, 1.184E+02, 1.218E+02, 1.790E+02, 5.002E+01, 1.243E+02, 1.803E+02, 5.070E+01,-4.002E+01, 2.038E-01, 3.611E-03, 2.001E+02
 1.700E+02, 1.188E+02, 1.199E+02, 1.237E+02, 1.799E+02, 5.278E+01, 1.256E+02, 1.822E+02, 5.193E+01,-4.384E+01, 2.029E-01, 4.086E-03, 1.986E+02
 1.800E+02, 1.203E+02, 1.215E+02, 1.240E+02, 1.832E+02, 5.356E+01, 1.269E+02, 1.847E+02, 5.285E+01,-4.621E+01, 2.022E-01, 4.495E-03, 2.000E+02
 1.900E+02, 1.203E+02, 1.216E+02, 1.258E+02, 1.811E+02, 5.394E+01, 1.259E+02, 1.848E+02, 5.421E+01,-4.704E+01, 2.016E-01, 4.807E-03, 1.994E+02
 2.000E+02, 1.215E+02, 1.226E+02, 1.255E+02, 1.843E+02, 5.471E+01, 1.274E+02, 1.863E+02, 5.398E+01,-5.079E+01, 2.012E-01, 5.067E-03, 2.003E+02
 2.100E+02, 1.220E+02, 1.226E+02, 1.262E+02, 1.848E+02, 5.502E+01, 1.276E+02, 1.849E+02, 5.513E+01,-4.851E+01, 2.002E-01, 5.611E-03, 2.009E+02
 2.200E+02, 1.232E+02, 1.253E+02, 1.295E+02, 1.844E+02, 5.557E+01, 1.300E+02, 1.905E+02, 5.555E+01,-4.357E+01, 1.998E-01, 5.844E-03, 1.990E+02
 2.300E+02, 1.244E+02, 1.269E+02, 1.302E+02, 1.863E+02, 5.672E+01, 1.322E+02, 1.921E+02, 5.630E+01,-4.898E+01, 1.988E-01, 6.381E-03, 1.990E+02
 2.400E+02, 1.238E+02, 1.263E+02, 1.300E+02, 1.851E+02, 5.627E+01, 1.323E+02, 1.905E+02, 5.615E+01,-5.068E+01, 1.983E-01, 6.650E-03, 1.997E+02
 2.500E+02, 1.247E+02, 1.265E+02, 1.308E+02, 1.859E+02, 5.740E+01, 1.316E+02, 1.922E+02, 5.578E+01,-5.205E+01, 1.974E-01, 7.157E-03, 1.998E+02
 2.600E+02, 1.248E+02, 1.283E+02, 1.307E+02, 1.864E+02, 5.727E+01, 1.335E+02, 1.938E+02, 5.782E+01,-4.937E+01, 1.962E-01, 7.855E-03, 1.998E+02
 2.700E+02, 1.258E+02, 1.298E+02, 1.325E+02, 1.871E+02, 5.768E+01, 1.363E+02, 1.955E+02, 5.765E+01,-5.037E+01, 1.958E-01, 8.090E-03, 2.011E+02
 2.800E+02, 1.264E+02, 1.283E+02, 1.327E+02, 1.881E+02, 5.822E+01, 1.356E+02, 1.916E+02, 5.770E+01,-5.383E+01, 1.948E-01, 8.629E-03, 1.991E+02
 2.900E+02, 1.275E+02, 1.281E+02, 1.343E+02, 1.908E+02, 5.753E+01, 1.345E+02, 1.918E+02, 5.814E+01,-5.124E+01, 1.939E-01, 9.151E-03, 1.998E+02
 3.000E+02, 1.279E+02, 1.291E+02, 1.338E+02, 1.910E+02, 5.893E+01, 1.329E+02, 1.956E+02, 5.877E+01,-4.593E+01, 1.933E-01, 9.445E-03, 2.009E+02
 3.100E+02, 1.286E+02, 1.315E+02, 1.346E+02, 1.922E+02, 5.901E+01, 1.382E+02, 1.960E+02, 6.024E+01,-5.464E+01, 1.919E-01, 1.024E-02, 1.997E+02
 3.200E+02, 1.279E+02, 1.323E+02, 1.348E+02, 1.903E+02, 5.860E+01, 1.389E+02, 1.993E+02, 5.861E+01,-4.773E+01, 1.915E-01, 1.049E-02, 2.000E+02
 3.300E+02, 1.297E+02, 1.312E+02, 1.369E+02, 1.932E+02, 5.911E+01, 1.397E+02, 1.963E+02, 5.760E+01,-5.381E+01, 1.907E-01, 1.090E-02, 1.997E+02
 3.400E+02, 1.290E+02, 1.331E+02, 1.362E+02, 1.918E+02, 5.897E+01, 1.391E+02, 2.010E+02, 5.932E+01,-4.967E+01, 1.894E-01, 1.165E-02, 1.996E+02
 3.500E+02, 1.296E+02, 1.316E+02, 1.359E+02, 1.935E+02, 5.947E+01, 1.380E+02, 1.979E+02, 5.903E+01,-5.863E+01, 1.888E-01, 1.196E-02, 1.974E+02
 3.600E+02, 1.302E+02, 1.327E+02, 1.361E+02, 1.949E+02, 5.951E+01, 1.392E+02, 2.007E+02, 5.816E+01,-5.262E+01, 1.883E-01, 1.224E-02, 2.023E+02
 3.700E+02, 1.308E+02, 1.337E+02, 1.365E+02, 1.957E+02, 6.020E+01, 1.435E+02, 1.994E+02, 5.822E+01,-5.422E+01, 1.871E-01, 1.295E-02, 1.988E+02
 3.800E+02, 1.303E+02, 1.338E+02, 1.378E+02, 1.942E+02, 5.904E+01, 1.420E+02, 1.999E+02, 5.948E+01,-5.442E+01, 1.862E-01, 1.345E-02, 2.002E+02
 3.900E+02, 1.309E+02, 1.338E+02, 1.372E+02, 1.962E+02, 5.940E+01, 1.417E+02, 2.008E+02, 5.882E+01,-5.280E+01, 1.857E-01, 1.373E-02, 1.994E+02
 4.000E+02, 1.316E+02, 1.344E+02, 1.388E+02, 1.968E+02, 5.928E+01, 1.413E+02, 2.032E+02, 5.859E+01,-5.666E+01, 1.848E-01, 1.424E-02, 1.986E+02
 4.100E+02, 1.307E+02, 1.337E+02, 1.368E+02, 1.970E+02, 5.823E+01, 1.403E+02, 2.019E+02, 5.872E+01,-5.505E+01, 1.837E-01, 1.483E-02, 1.993E+02
 4.200E+02, 1.320E+02, 1.350E+02, 1.378E+02, 1.990E+02, 5.938E+01, 1.418E+02, 2.039E+02, 5.934E+01,-5.634E+01, 1.829E-01, 1.528E-02, 1.987E+02
 4.300E+02, 1.325E+02, 1.347E+02, 1.388E+02, 1.995E+02, 5.916E+01, 1.424E+02, 2.021E+02, 5.961E+01,-5.016E+01, 1.820E-01, 1.576E-02, 2.023E+02
 4.400E+02, 1.319E+02, 1.349E+02, 1.383E+02, 1.978E+02, 5.958E+01, 1.419E+02, 2.025E+02, 6.033E+01,-6.392E+01, 1.814E-01, 1.614E-02, 1.968E+02
 4.500E+02, 1.324E+02, 1.363E+02, 1.403E+02, 1.981E+02, 5.892E+01, 1.441E+02, 2.048E+02, 6.005E+01,-4.897E+01, 1.806E-01, 1.655E-02, 2.026E+02
 4.600E+02, 1.329E+02, 1.366E+02, 1.402E+02, 1.997E+02, 5.876E+01, 1.456E+02, 2.051E+02, 5.901E+01,-5.317E+01, 1.799E-01, 1.693E-02, 1.991E+02
 4.700E+02, 1.330E+02, 1.368E+02, 1.406E+02, 1.996E+02, 5.877E+01, 1.451E+02, 2.048E+02, 6.046E+01,-5.222E+01, 1.787E-01, 1.762E-02, 2.028E+02
 4.800E+02, 1.342E+02, 1.385E+02, 1.422E+02, 2.014E+02, 5.906E+01, 1.435E+02, 2.123E+02, 5.985E+01,-5.587E+01, 1.782E-01, 1.790E-02, 1.955E+02
 4.900E+02, 1.343E+02, 1.394E+02, 1.433E+02, 1.998E+02, 5.956E+01, 1.475E+02, 2.106E+02, 6.010E+01,-5.262E+01, 1.775E-01, 1.830E-02, 1.999E+02
 5.000E+02, 1.353E+02, 1.379E+02, 1.433E+02, 2.022E+02, 6.042E+01, 1.460E+02, 2.073E+02, 6.033E+01,-5.925E+01, 1.770E-01, 1.860E-02, 1.933E+02
 5.100E+02, 1.364E+02, 1.386E+02, 1.443E+02, 2.045E+02, 6.041E+01, 1.462E+02, 2.095E+02, 6.019E+01,-5.673E+01, 1.759E-01, 1.917E-02, 2.040E+02
 5.200E+02, 1.352E+02, 1.402E+02, 1.437E+02, 2.023E+02, 5.952E+01, 1.462E+02, 2.138E+02, 6.066E+01,-5.801E+01, 1.752E-01, 1.959E-02, 2.012E+02
 5.300E+02, 1.361E+02, 1.394E+02, 1.445E+02, 2.033E+02, 6.054E+01, 1.461E+02, 2.114E+02, 6.069E+01,-4.966E+01, 1.745E-01, 1.996E-02, 2.019E+02
 5.400E+02, 1.369E+02, 1.396E+02, 1.452E+02, 2.053E+02, 6.004E+01, 1.473E+02, 2.103E+02, 6.129E+01,-5.731E+01, 1.736E-01, 2.046E-02, 1.988E+02
 5.500E+02, 1.361E+02, 1.387E+02, 1.453E+02, 2.032E+02, 5.987E+01, 1.476E+02, 2.090E+02, 5.944E+01,-5.954E+01, 1.734E-01, 2.057E-02, 1.943E+02
 5.600E+02, 1.377E+02, 1.396E+02, 1.464E+02, 2.057E+02, 6.089E+01, 1.477E+02, 2.105E+02, 6.067E+01,-5.835E+01, 1.726E-01, 2.102E-02, 1.998E+02
 5.700E+02, 1.390E+02, 1.399E+02, 1.474E+02, 2.069E+02, 6.278E+01, 1.508E+02, 2.067E+02, 6.217E+01,-5.106E+01, 1.720E-01, 2.134E-02, 2.028E+02
 5.800E+02, 1.395E+02, 1.405E+02, 1.472E+02, 2.088E+02, 6.264E+01, 1.494E+02, 2.105E+02, 6.169E+01,-5.461E+01, 1.715E-01, 2.166E-02, 2.002E+02
 5.900E+02, 1.373E+02, 1.433E+02, 1.469E+02, 2.033E+02, 6.155E+01, 1.517E+02, 2.155E+02, 6.279E+01,-5.317E+01, 1.704E-01, 2.227E-02, 1.994E+02
 6.000E+02, 1.372E+02, 1.431E+02, 1.459E+02, 2.027E+02, 6.305E+01, 1.492E+02, 2.185E+02, 6.145E+01,-5.085E+01, 1.699E-01, 2.255E-02, 1.999E+02
 6.100E+02, 1.384E+02, 1.425E+02, 1.473E+02, 2.048E+02, 6.318E+01, 1.543E+02, 2.116E+02, 6.162E+01,-5.453E+01, 1.693E-01, 2.290E-02, 1.995E+02
 6.200E+02, 1.399E+02, 1.419E+02, 1.492E+02, 2.077E+02, 6.269E+01, 1.488E+02, 2.129E+02, 6.387E+01,-5.231E+01, 1.681E-01, 2.355E-02, 1.996E+02
 6.300E+02, 1.396E+02, 1.410E+02, 1.501E+02, 2.049E+02, 6.361E+01, 1.505E+02, 2.093E+02, 6.302E+01,-6.256E+01, 1.677E-01, 2.380E-02, 1.970E+02
 6.400E+02, 1.417E+02, 1.432E+02, 1.491E+02, 2.115E+02, 6.453E+01, 1.519E+02, 2.133E+02, 6.427E+01,-5.955E+01, 1.665E-01, 2.446E-02, 2.016E+02
 6.500E+02, 1.407E+02, 1.428E+02, 1.488E+02, 2.080E+02, 6.541E+01, 1.477E+02, 2.170E+02, 6.381E+01,-5.817E+01, 1.657E-01, 2.487E-02, 1.986E+02
 6.600E+02, 1.399E+02, 1.445E+02, 1.493E+02, 2.053E+02, 6.495E+01, 1.523E+02, 2.165E+02, 6.470E+01,-5.087E+01, 1.651E-01, 2.520E-02, 1.993E+02
 6.700E+02, 1.403E+02, 1.462E+02, 1.482E+02, 2.074E+02, 6.551E+01, 1.540E+02, 2.190E+02, 6.562E+01,-5.479E+01, 1.643E-01, 2.569E-02, 1.979E+02
 6.800E+02, 1.402E+02, 1.443E+02, 1.482E+02, 2.079E+02, 6.445E+01, 1.526E+02, 2.162E+02, 6.414E+01,-5.967E+01, 1.641E-01, 2.580E-02, 1.967E+02
 6.900E+02, 1.406E+02, 1.430E+02, 1.482E+02, 2.079E+02, 6.557E+01, 1.510E+02, 2.150E+02, 6.309E+01,-5.360E+01, 1.631E-01, 2.636E-02, 2.032E+02
 7.000E+02, 1.426E+02, 1.433E+02, 1.514E+02, 2.107E+02, 6.574E+01, 1.529E+02, 2.126E+02, 6.437E+01,-5.321E+01, 1.622E-01, 2.687E-02, 1.996E+02
 7.100E+02, 1.427E+02, 1.450E+02, 1.520E+02, 2.100E+02, 6.604E+01, 1.529E+02, 2.163E+02, 6.595E+01,-5.400E+01, 1.616E-01, 2.719E-02, 2.015E+02
 7.200E+02, 1.439E+02, 1.452E+02, 1.519E+02, 2.137E+02, 6.615E+01, 1.587E+02, 2.112E+02, 6.582E+01,-6.002E+01, 1.607E-01, 2.767E-02, 1.990E+02
 7.300E+02, 1.422E+02, 1.477E+02, 1.520E+02, 2.100E+02, 6.452E+01, 1.589E+02, 2.184E+02, 6.586E+01,-5.506E+01, 1.602E-01, 2.797E-02, 1.995E+02
 7.400E+02, 1.415E+02, 1.464E+02, 1.506E+02, 2.079E+02, 6.588E+01, 1.570E+02, 2.179E+02, 6.436E+01,-6.843E+01, 1.596E-01, 2.832E-02, 1.838E+02
 7.500E+02, 1.404E+02, 1.484E+02, 1.487E+02, 2.056E+02, 6.687E+01, 1.568E+02, 2.211E+02, 6.742E+01,-4.923E+01, 1.588E-01, 2.876E-02, 2.068E+02
 7.600E+02, 1.432E+02, 1.468E+02, 1.510E+02, 2.124E+02, 6.615E+01, 1.575E+02, 2.167E+02, 6.623E+01,-6.054E+01, 1.584E-01, 2.897E-02, 1.986E+02
 7.700E+02, 1.457E+02, 1.466E+02, 1.538E+02, 2.161E+02, 6.718E+01, 1.562E+02, 2.174E+02, 6.621E+01,-5.107E+01, 1.576E-01, 2.940E-02, 2.037E+02
 7.800E+02, 1.450E+02, 1.466E+02, 1.539E+02, 2.143E+02, 6.688E+01, 1.568E+02, 2.165E+02, 6.654E+01,-6.121E+01, 1.574E-01, 2.951E-02, 1.961E+02
 7.900E+02, 1.444E+02, 1.465E+02, 1.550E+02, 2.114E+02, 6.673E+01, 1.561E+02, 2.170E+02, 6.635E+01,-5.301E+01, 1.569E-01, 2.981E-02, 1.979E+02
 8.000E+02, 1.464E+02, 1.489E+02, 1.554E+02, 2.171E+02, 6.687E+01, 1.572E+02, 2.221E+02, 6.735E+01,-5.173E+01, 1.560E-01, 3.030E-02, 2.014E+02
 8.100E+02, 1.447E+02, 1.508E+02, 1.539E+02, 2.128E+02, 6.744E+01, 1.592E+02, 2.256E+02, 6.749E+01,-5.569E+01, 1.554E-01, 3.062E-02, 2.023E+02
 8.200E+02, 1.452E+02, 1.495E+02, 1.552E+02, 2.131E+02, 6.739E+01, 1.575E+02, 2.268E+02, 6.416E+01,-5.801E+01, 1.553E-01, 3.069E-02, 1.956E+02
 8.300E+02, 1.460E+02, 1.489E+02, 1.551E+02, 2.137E+02, 6.924E+01, 1.605E+02, 2.181E+02, 6.804E+01,-7.420E+01, 1.545E-01, 3.116E-02, 1.877E+02
 8.400E+02, 1.460E+02, 1.498E+02, 1.553E+02, 2.148E+02, 6.788E+01, 1.588E+02, 2.210E+02, 6.970E+01,-4.775E+01, 1.537E-01, 3.158E-02, 2.096E+02
 8.500E+02, 1.467E+02, 1.524E+02, 1.554E+02, 2.160E+02, 6.860E+01, 1.580E+02, 2.308E+02, 6.822E+01,-6.700E+01, 1.535E-01, 3.170E-02, 1.949E+02
 8.600E+02, 1.475E+02, 1.503E+02, 1.556E+02, 2.187E+02, 6.833E+01, 1.570E+02, 2.262E+02, 6.779E+01,-5.738E+01, 1.527E-01, 3.213E-02, 1.951E+02
 8.700E+02, 1.479E+02, 1.506E+02, 1.551E+02, 2.202E+02, 6.840E+01, 1.592E+02, 2.234E+02, 6.929E+01,-5.967E+01, 1.523E-01, 3.240E-02, 1.989E+02
 8.800E+02, 1.451E+02, 1.524E+02, 1.530E+02, 2.134E+02, 6.899E+01, 1.607E+02, 2.277E+02, 6.889E+01,-5.124E+01, 1.520E-01, 3.255E-02, 2.033E+02
 8.900E+02, 1.468E+02, 1.521E+02, 1.548E+02, 2.163E+02, 6.941E+01, 1.606E+02, 2.263E+02, 6.950E+01,-5.091E+01, 1.514E-01, 3.285E-02, 1.997E+02
 9.000E+02, 1.486E+02, 1.528E+02, 1.570E+02, 2.189E+02, 6.989E+01, 1.625E+02, 2.263E+02, 6.964E+01,-6.871E+01, 1.509E-01, 3.313E-02, 1.920E+02
 9.100E+02, 1.488E+02, 1.502E+02, 1.584E+02, 2.176E+02, 7.045E+01, 1.625E+02, 2.199E+02, 6.825E+01,-5.551E+01, 1.506E-01, 3.331E-02, 1.985E+02
 9.200E+02, 1.491E+02, 1.524E+02, 1.567E+02, 2.196E+02, 7.092E+01, 1.626E+02, 2.257E+02, 6.892E+01,-4.515E+01, 1.502E-01, 3.356E-02, 2.086E+02
 9.300E+02, 1.481E+02, 1.544E+02, 1.559E+02, 2.167E+02, 7.180E+01, 1.603E+02, 2.325E+02, 7.033E+01,-7.059E+01, 1.496E-01, 3.390E-02, 1.889E+02
 9.400E+02, 1.472E+02, 1.559E+02, 1.552E+02, 2.151E+02, 7.125E+01, 1.633E+02, 2.342E+02, 7.008E+01,-5.781E+01, 1.495E-01, 3.394E-02, 1.943E+02
 9.500E+02, 1.485E+02, 1.527E+02, 1.569E+02, 2.167E+02, 7.190E+01, 1.615E+02, 2.263E+02, 7.049E+01,-5.650E+01, 1.490E-01, 3.421E-02, 2.062E+02
 9.600E+02, 1.498E+02, 1.526E+02, 1.592E+02, 2.188E+02, 7.132E+01, 1.616E+02, 2.243E+02, 7.176E+01,-5.549E+01, 1.484E-01, 3.458E-02, 2.011E+02
 9.700E+02, 1.508E+02, 1.520E+02, 1.590E+02, 2.216E+02, 7.197E+01, 1.622E+02, 2.224E+02, 7.135E+01,-6.707E+01, 1.482E-01, 3.465E-02, 1.921E+02
 9.800E+02, 1.496E+02, 1.546E+02, 1.578E+02, 2.184E+02, 7.263E+01, 1.674E+02, 2.250E+02, 7.143E+01,-5.134E+01, 1.478E-01, 3.488E-02, 2.065E+02
 9.900E+02, 1.499E+02, 1.555E+02, 1.582E+02, 2.197E+02, 7.180E+01, 1.611E+02, 2.339E+02, 7.159E+01,-6.218E+01, 1.473E-01, 3.516E-02, 1.951E+02
 1.000E+03, 1.507E+02, 1.552E+02, 1.580E+02, 2.222E+02, 7.199E+01, 1.619E+02, 2.329E+02, 7.088E+01,-5.044E+01, 1.471E-01, 3.526E-02, 2.044E+02
 1.010E+03, 1.504E+02, 1.550E+02, 1.579E+02, 2.206E+02, 7.271E+01, 1.623E+02, 2.300E+02, 7.282E+01,-7.120E+01, 1.465E-01, 3.562E-02, 1.898E+02
 1.020E+03, 1.510E+02, 1.541E+02, 1.581E+02, 2.230E+02, 7.178E+01, 1.626E+02, 2.278E+02, 7.180E+01,-5.410E+01, 1.466E-01, 3.557E-02, 2.006E+02
 1.030E+03, 1.499E+02, 1.562E+02, 1.576E+02, 2.182E+02, 7.391E+01, 1.625E+02, 2.342E+02, 7.204E+01,-5.415E+01, 1.464E-01, 3.568E-02, 2.002E+02
 1.040E+03, 1.512E+02, 1.567E+02, 1.594E+02, 2.204E+02, 7.381E+01, 1.650E+02, 2.317E+02, 7.326E+01,-6.455E+01, 1.460E-01, 3.590E-02, 1.985E+02
 1.050E+03, 1.510E+02, 1.539E+02, 1.599E+02, 2.193E+02, 7.373E+01, 1.652E+02, 2.244E+02, 7.201E+01,-5.177E+01, 1.457E-01, 3.606E-02, 2.036E+02
 1.060E+03, 1.536E+02, 1.538E+02, 1.626E+02, 2.239E+02, 7.420E+01, 1.665E+02, 2.229E+02, 7.208E+01,-5.292E+01, 1.453E-01, 3.626E-02, 1.984E+02
 1.070E+03, 1.534E+02, 1.570E+02, 1.624E+02, 2.231E+02, 7.478E+01, 1.639E+02, 2.343E+02, 7.276E+01,-5.580E+01, 1.453E-01, 3.629E-02, 2.010E+02
 1.080E+03, 1.527E+02, 1.568E+02, 1.604E+02, 2.231E+02, 7.464E+01, 1.671E+02, 2.295E+02, 7.369E+01,-6.693E+01, 1.450E-01, 3.647E-02, 1.941E+02
 1.090E+03, 1.533E+02, 1.571E+02, 1.602E+02, 2.239E+02, 7.589E+01, 1.658E+02, 2.322E+02, 7.324E+01,-6.733E+01, 1.448E-01, 3.658E-02, 1.932E+02
 1.100E+03, 1.527E+02, 1.589E+02, 1.609E+02, 2.210E+02, 7.623E+01, 1.665E+02, 2.363E+02, 7.401E+01,-5.140E+01, 1.445E-01, 3.675E-02, 1.983E+02
 1.110E+03, 1.519E+02, 1.560E+02, 1.604E+02, 2.201E+02, 7.532E+01, 1.648E+02, 2.284E+02, 7.489E+01,-6.401E+01, 1.442E-01, 3.690E-02, 2.035E+02
 1.120E+03, 1.544E+02, 1.571E+02, 1.626E+02, 2.248E+02, 7.585E+01, 1.639E+02, 2.326E+02, 7.477E+01,-5.248E+01, 1.441E-01, 3.694E-02, 2.044E+02
 1.130E+03, 1.539E+02, 1.578E+02, 1.626E+02, 2.239E+02, 7.531E+01, 1.722E+02, 2.286E+02, 7.263E+01,-6.323E+01, 1.439E-01, 3.710E-02, 1.978E+02
 1.140E+03, 1.540E+02, 1.564E+02, 1.637E+02, 2.230E+02, 7.534E+01, 1.692E+02, 2.263E+02, 7.381E+01,-5.352E+01, 1.436E-01, 3.725E-02, 2.000E+02
 1.150E+03, 1.548E+02, 1.591E+02, 1.633E+02, 2.254E+02, 7.573E+01, 1.723E+02, 2.308E+02, 7.422E+01,-6.321E+01, 1.433E-01, 3.742E-02, 1.970E+02
 1.160E+03, 1.546E+02, 1.581E+02, 1.618E+02, 2.265E+02, 7.556E+01, 1.699E+02, 2.307E+02, 7.370E+01,-5.513E+01, 1.432E-01, 3.746E-02, 2.027E+02
 1.170E+03, 1.550E+02, 1.587E+02, 1.625E+02, 2.273E+02, 7.535E+01, 1.654E+02, 2.355E+02, 7.513E+01,-6.764E+01, 1.429E-01, 3.761E-02, 1.961E+02
 1.180E+03, 1.548E+02, 1.585E+02, 1.633E+02, 2.261E+02, 7.494E+01, 1.652E+02, 2.361E+02, 7.416E+01,-6.364E+01, 1.429E-01, 3.763E-02, 1.938E+02
 1.190E+03, 1.560E+02, 1.574E+02, 1.630E+02, 2.285E+02, 7.656E+01, 1.656E+02, 2.321E+02, 7.458E+01,-6.018E+01, 1.425E-01, 3.783E-02, 1.978E+02
 1.200E+03, 1.548E+02, 1.589E+02, 1.617E+02, 2.261E+02, 7.660E+01, 1.659E+02, 2.349E+02, 7.600E+01,-4.888E+01, 1.425E-01, 3.786E-02, 2.051E+02
 1.210E+03, 1.551E+02, 1.610E+02, 1.624E+02, 2.256E+02, 7.737E+01, 1.677E+02, 2.392E+02, 7.611E+01,-5.303E+01, 1.423E-01, 3.798E-02, 2.055E+02
 1.220E+03, 1.561E+02, 1.600E+02, 1.652E+02, 2.252E+02, 7.783E+01, 1.719E+02, 2.313E+02, 7.669E+01,-6.183E+01, 1.420E-01, 3.813E-02, 1.922E+02
 1.230E+03, 1.576E+02, 1.587E+02, 1.665E+02, 2.269E+02, 7.938E+01, 1.672E+02, 2.324E+02, 7.646E+01,-5.675E+01, 1.419E-01, 3.821E-02, 2.026E+02
 1.240E+03, 1.576E+02, 1.586E+02, 1.655E+02, 2.282E+02, 7.898E+01, 1.683E+02, 2.304E+02, 7.705E+01,-5.544E+01, 1.416E-01, 3.833E-02, 1.998E+02
 1.250E+03, 1.576E+02, 1.598E+02, 1.660E+02, 2.281E+02, 7.866E+01, 1.657E+02, 2.370E+02, 7.681E+01,-5.479E+01, 1.416E-01, 3.836E-02, 2.030E+02
 1.260E+03, 1.561E+02, 1.606E+02, 1.651E+02, 2.249E+02, 7.835E+01, 1.672E+02, 2.378E+02, 7.684E+01,-5.297E+01, 1.416E-01, 3.834E-02, 2.004E+02
 1.270E+03, 1.569E+02, 1.616E+02, 1.657E+02, 2.247E+02, 8.022E+01, 1.710E+02, 2.357E+02, 7.825E+01,-6.219E+01, 1.413E-01, 3.851E-02, 1.918E+02
 1.280E+03, 1.562E+02, 1.616E+02, 1.645E+02, 2.249E+02, 7.903E+01, 1.699E+02, 2.374E+02, 7.745E+01,-5.005E+01, 1.412E-01, 3.858E-02, 2.069E+02
 1.290E+03, 1.579E+02, 1.604E+02, 1.661E+02, 2.284E+02, 7.924E+01, 1.714E+02, 2.321E+02, 7.785E+01,-7.118E+01, 1.409E-01, 3.874E-02, 1.911E+02
 1.300E+03, 1.593E+02, 1.618E+02, 1.658E+02, 2.313E+02, 8.070E+01, 1.719E+02, 2.354E+02, 7.821E+01,-5.408E+01, 1.408E-01, 3.878E-02, 1.992E+02
 1.310E+03, 1.583E+02, 1.638E+02, 1.656E+02, 2.288E+02, 8.035E+01, 1.728E+02, 2.406E+02, 7.803E+01,-4.950E+01, 1.407E-01, 3.886E-02, 2.064E+02
