s,C,C,C,C,C,C,C,C,Pa,mol/mol,mol/mol,kW
Time,"West_All_TCs","East_All_TCs","West_Bottom_TCs","West_Middle_TCs","West_Upper_TCs","East_Bottom_TCs","East_Middle_TCs","East_Upper_TCs","Pressure","O2","CO2","HRR"
-6.000E+01, 2.500E+01, 2.500E+01, 2.500E+01, 2.500E+01, 2.500E+01, 2.500E+01, 2.500E+01, 2.500E+01,-9.627E-06, 2.095E-01, 3.901E-04, 0.000E+00
-4.998E+01, 2.485E+01, 2.488E+01, 2.486E+01, 2.484E+01, 2.485E+01, 2.489E+01, 2.489E+01, 2.486E+01,-2.547E+02, 2.095E-01, 3.901E-04, 0.000E+00
-3.997E+01, 2.479E+01, 2.486E+01, 2.480E+01, 2.478E+01, 2.479E+01, 2.490E+01, 2.486E+01, 2.482E+01,-2.767E+02, 2.095E-01, 3.901E-04, 0.000E+00
-2.998E+01, 2.478E+01, 2.487E+01, 2.479E+01, 2.477E+01, 2.478E+01, 2.493E+01, 2.487E+01, 2.480E+01,-2.772E+02, 2.095E-01, 3.901E-04, 0.000E+00
-1.996E+01, 2.478E+01, 2.488E+01, 2.479E+01, 2.477E+01, 2.478E+01, 2.496E+01, 2.489E+01, 2.480E+01,-2.774E+02, 2.095E-01, 3.901E-04, 0.000E+00
-9.994E+00, 2.478E+01, 2.489E+01, 2.479E+01, 2.478E+01, 2.478E+01, 2.497E+01, 2.490E+01, 2.481E+01,-2.774E+02, 2.095E-01, 3.901E-04, 0.000E+00
 3.209E-02, 2.480E+01, 2.489E+01, 2.480E+01, 2.482E+01, 2.479E+01, 2.496E+01, 2.490E+01, 2.481E+01,-2.775E+02, 2.095E-01, 3.901E-04, 4.934E-05
 1.001E+01, 2.527E+01, 2.555E+01, 2.510E+01, 2.587E+01, 2.484E+01, 2.528E+01, 2.651E+01, 2.485E+01,-2.368E+02, 2.095E-01, 3.901E-04, 1.618E+01
 2.001E+01, 2.745E+01, 2.741E+01, 2.592E+01, 3.132E+01, 2.510E+01, 2.620E+01, 3.113E+01, 2.490E+01,-1.552E+02, 2.095E-01, 3.901E-04, 4.957E+01
 3.000E+01, 3.121E+01, 3.138E+01, 2.702E+01, 4.016E+01, 2.644E+01, 2.813E+01, 4.107E+01, 2.494E+01,-9.675E+01, 2.095E-01, 3.901E-04, 8.298E+01
 4.001E+01, 3.725E+01, 3.681E+01, 3.072E+01, 5.299E+01, 2.803E+01, 3.145E+01, 5.388E+01, 2.511E+01,-8.063E+01, 2.095E-01, 3.901E-04, 9.999E+01
 5.002E+01, 4.265E+01, 4.269E+01, 3.505E+01, 6.211E+01, 3.080E+01, 3.609E+01, 6.538E+01, 2.659E+01,-9.874E+01, 2.093E-01, 5.240E-04, 1.001E+02
 6.002E+01, 4.752E+01, 4.808E+01, 4.013E+01, 6.999E+01, 3.243E+01, 4.099E+01, 7.188E+01, 3.136E+01,-1.107E+02, 2.084E-01, 1.003E-03, 1.000E+02
 7.002E+01, 5.156E+01, 5.375E+01, 4.545E+01, 7.484E+01, 3.438E+01, 4.732E+01, 7.990E+01, 3.402E+01,-1.244E+02, 2.080E-01, 1.232E-03, 1.001E+02
 8.002E+01, 5.569E+01, 5.723E+01, 4.979E+01, 7.934E+01, 3.793E+01, 5.147E+01, 8.483E+01, 3.539E+01,-1.418E+02, 2.080E-01, 1.243E-03, 1.001E+02
 9.001E+01, 5.970E+01, 6.041E+01, 5.424E+01, 8.492E+01, 3.993E+01, 5.611E+01, 8.745E+01, 3.766E+01,-1.581E+02, 2.076E-01, 1.460E-03, 1.001E+02
 1.000E+02, 6.232E+01, 6.445E+01, 5.755E+01, 8.731E+01, 4.210E+01, 6.085E+01, 9.229E+01, 4.021E+01,-1.731E+02, 2.071E-01, 1.775E-03, 1.001E+02
 1.100E+02, 6.498E+01, 6.622E+01, 5.990E+01, 9.010E+01, 4.493E+01, 6.296E+01, 9.323E+01, 4.247E+01,-1.853E+02, 2.066E-01, 2.019E-03, 1.001E+02
 1.200E+02, 6.739E+01, 6.902E+01, 6.165E+01, 9.372E+01, 4.680E+01, 6.625E+01, 9.636E+01, 4.446E+01,-2.010E+02, 2.062E-01, 2.270E-03, 1.000E+02
 1.300E+02, 6.917E+01, 7.029E+01, 6.430E+01, 9.404E+01, 4.918E+01, 6.743E+01, 9.711E+01, 4.632E+01,-2.074E+02, 2.058E-01, 2.460E-03, 1.001E+02
 1.400E+02, 7.041E+01, 7.164E+01, 6.503E+01, 9.579E+01, 5.043E+01, 6.884E+01, 9.902E+01, 4.706E+01,-2.180E+02, 2.054E-01, 2.711E-03, 1.002E+02
 1.500E+02, 7.181E+01, 7.325E+01, 6.757E+01, 9.711E+01, 5.077E+01, 7.019E+01, 1.013E+02, 4.827E+01,-2.260E+02, 2.050E-01, 2.904E-03, 9.993E+01
 1.600E+02, 7.177E+01, 7.392E+01, 6.872E+01, 9.566E+01, 5.094E+01, 7.238E+01, 1.004E+02, 4.899E+01,-2.331E+02, 2.044E-01, 3.277E-03, 1.001E+02
 1.700E+02, 7.272E+01, 7.587E+01, 6.897E+01, 9.706E+01, 5.215E+01, 7.478E+01, 1.027E+02, 5.017E+01,-2.357E+02, 2.041E-01, 3.414E-03, 1.002E+02
 1.800E+02, 7.373E+01, 7.632E+01, 7.036E+01, 9.839E+01, 5.245E+01, 7.565E+01, 1.023E+02, 5.098E+01,-2.450E+02, 2.037E-01, 3.634E-03, 1.001E+02
 1.900E+02, 7.471E+01, 7.738E+01, 7.143E+01, 9.993E+01, 5.275E+01, 7.658E+01, 1.049E+02, 5.063E+01,-2.444E+02, 2.036E-01, 3.724E-03, 1.001E+02
 2.000E+02, 7.468E+01, 7.791E+01, 7.178E+01, 9.935E+01, 5.290E+01, 7.824E+01, 1.036E+02, 5.190E+01,-2.422E+02, 2.028E-01, 4.141E-03, 1.001E+02
 2.100E+02, 7.576E+01, 7.756E+01, 7.204E+01, 1.007E+02, 5.455E+01, 7.748E+01, 1.034E+02, 5.186E+01,-2.425E+02, 2.027E-01, 4.237E-03, 1.002E+02
 2.200E+02, 7.648E+01, 7.854E+01, 7.241E+01, 1.022E+02, 5.479E+01, 7.800E+01, 1.049E+02, 5.269E+01,-2.465E+02, 2.022E-01, 4.472E-03, 1.000E+02
 2.300E+02, 7.723E+01, 7.949E+01, 7.368E+01, 1.024E+02, 5.563E+01, 8.002E+01, 1.047E+02, 5.376E+01,-2.495E+02, 2.016E-01, 4.828E-03, 1.000E+02
 2.400E+02, 7.705E+01, 7.859E+01, 7.372E+01, 1.017E+02, 5.577E+01, 7.831E+01, 1.036E+02, 5.387E+01,-2.503E+02, 2.011E-01, 5.094E-03, 1.001E+02
 2.500E+02, 7.727E+01, 8.033E+01, 7.370E+01, 1.023E+02, 5.586E+01, 8.105E+01, 1.058E+02, 5.410E+01,-2.479E+02, 2.008E-01, 5.254E-03, 1.002E+02
 2.600E+02, 7.739E+01, 8.059E+01, 7.448E+01, 1.012E+02, 5.646E+01, 7.958E+01, 1.076E+02, 5.456E+01,-2.481E+02, 2.003E-01, 5.532E-03, 1.000E+02
 2.700E+02, 7.831E+01, 8.028E+01, 7.413E+01, 1.044E+02, 5.644E+01, 8.043E+01, 1.070E+02, 5.342E+01,-2.552E+02, 2.004E-01, 5.485E-03, 1.003E+02
 2.800E+02, 7.904E+01, 8.031E+01, 7.478E+01, 1.041E+02, 5.825E+01, 8.099E+01, 1.062E+02, 5.368E+01,-2.511E+02, 1.998E-01, 5.835E-03, 1.000E+02
 2.900E+02, 7.907E+01, 8.052E+01, 7.464E+01, 1.049E+02, 5.768E+01, 8.152E+01, 1.065E+02, 5.356E+01,-2.492E+02, 1.997E-01, 5.877E-03, 1.003E+02
 3.000E+02, 7.892E+01, 8.202E+01, 7.430E+01, 1.040E+02, 5.848E+01, 8.298E+01, 1.079E+02, 5.515E+01,-2.503E+02, 1.993E-01, 6.107E-03, 1.000E+02
 3.100E+02, 7.938E+01, 8.136E+01, 7.616E+01, 1.045E+02, 5.749E+01, 8.142E+01, 1.075E+02, 5.517E+01,-2.514E+02, 1.991E-01, 6.232E-03, 1.001E+02
 3.200E+02, 8.039E+01, 8.212E+01, 7.629E+01, 1.062E+02, 5.868E+01, 8.184E+01, 1.100E+02, 5.451E+01,-2.517E+02, 1.988E-01, 6.375E-03, 1.002E+02
 3.300E+02, 8.018E+01, 8.277E+01, 7.579E+01, 1.069E+02, 5.783E+01, 8.225E+01, 1.104E+02, 5.565E+01,-2.510E+02, 1.983E-01, 6.697E-03, 1.001E+02
 3.400E+02, 7.945E+01, 8.292E+01, 7.522E+01, 1.045E+02, 5.865E+01, 8.268E+01, 1.102E+02, 5.594E+01,-2.502E+02, 1.981E-01, 6.758E-03, 1.001E+02
 3.500E+02, 8.034E+01, 8.298E+01, 7.615E+01, 1.054E+02, 5.944E+01, 8.252E+01, 1.111E+02, 5.529E+01,-2.527E+02, 1.981E-01, 6.801E-03, 9.991E+01
 3.600E+02, 7.921E+01, 8.332E+01, 7.591E+01, 1.043E+02, 5.741E+01, 8.249E+01, 1.121E+02, 5.542E+01,-2.518E+02, 1.979E-01, 6.889E-03, 1.000E+02
 3.700E+02, 7.997E+01, 8.210E+01, 7.646E+01, 1.052E+02, 5.825E+01, 8.209E+01, 1.080E+02, 5.615E+01,-2.446E+02, 1.977E-01, 7.017E-03, 1.002E+02
 3.800E+02, 8.127E+01, 8.359E+01, 7.830E+01, 1.067E+02, 5.885E+01, 8.424E+01, 1.104E+02, 5.613E+01,-2.445E+02, 1.974E-01, 7.165E-03, 1.002E+02
 3.900E+02, 8.195E+01, 8.277E+01, 7.777E+01, 1.090E+02, 5.913E+01, 8.415E+01, 1.081E+02, 5.609E+01,-2.509E+02, 1.972E-01, 7.301E-03, 1.001E+02
 4.000E+02, 8.113E+01, 8.407E+01, 7.764E+01, 1.058E+02, 5.996E+01, 8.454E+01, 1.110E+02, 5.663E+01,-2.494E+02, 1.970E-01, 7.417E-03, 1.002E+02
 4.100E+02, 8.128E+01, 8.384E+01, 7.766E+01, 1.078E+02, 5.836E+01, 8.463E+01, 1.097E+02, 5.724E+01,-2.507E+02, 1.968E-01, 7.516E-03, 1.000E+02
 4.200E+02, 8.053E+01, 8.476E+01, 7.718E+01, 1.053E+02, 5.916E+01, 8.459E+01, 1.143E+02, 5.536E+01,-2.495E+02, 1.969E-01, 7.482E-03, 1.004E+02
 4.300E+02, 8.206E+01, 8.407E+01, 7.754E+01, 1.080E+02, 6.061E+01, 8.373E+01, 1.120E+02, 5.654E+01,-2.446E+02, 1.965E-01, 7.651E-03, 1.003E+02
 4.400E+02, 8.234E+01, 8.412E+01, 7.869E+01, 1.084E+02, 5.994E+01, 8.451E+01, 1.110E+02, 5.687E+01,-2.474E+02, 1.965E-01, 7.690E-03, 1.000E+02
 4.500E+02, 8.221E+01, 8.497E+01, 7.850E+01, 1.091E+02, 5.905E+01, 8.485E+01, 1.120E+02, 5.802E+01,-2.445E+02, 1.962E-01, 7.850E-03, 1.004E+02
 4.600E+02, 8.245E+01, 8.584E+01, 7.772E+01, 1.090E+02, 6.064E+01, 8.542E+01, 1.143E+02, 5.780E+01,-2.471E+02, 1.962E-01, 7.840E-03, 9.998E+01
 4.700E+02, 8.183E+01, 8.505E+01, 7.778E+01, 1.078E+02, 5.986E+01, 8.471E+01, 1.123E+02, 5.813E+01,-2.453E+02, 1.960E-01, 7.981E-03, 1.001E+02
 4.800E+02, 8.291E+01, 8.446E+01, 7.763E+01, 1.105E+02, 6.066E+01, 8.478E+01, 1.101E+02, 5.851E+01,-2.441E+02, 1.958E-01, 8.067E-03, 1.001E+02
 4.900E+02, 8.310E+01, 8.499E+01, 7.890E+01, 1.099E+02, 6.046E+01, 8.564E+01, 1.115E+02, 5.784E+01,-2.436E+02, 1.958E-01, 8.046E-03, 1.001E+02
 5.000E+02, 8.316E+01, 8.604E+01, 7.886E+01, 1.095E+02, 6.114E+01, 8.618E+01, 1.141E+02, 5.786E+01,-2.437E+02, 1.956E-01, 8.205E-03, 1.003E+02
 5.100E+02, 8.389E+01, 8.533E+01, 8.009E+01, 1.101E+02, 6.148E+01, 8.526E+01, 1.131E+02, 5.761E+01,-2.443E+02, 1.956E-01, 8.162E-03, 9.996E+01
 5.200E+02, 8.336E+01, 8.535E+01, 7.871E+01, 1.096E+02, 6.179E+01, 8.562E+01, 1.128E+02, 5.763E+01,-2.476E+02, 1.955E-01, 8.260E-03, 1.003E+02
 5.300E+02, 8.374E+01, 8.546E+01, 7.978E+01, 1.103E+02, 6.114E+01, 8.516E+01, 1.123E+02, 5.889E+01,-2.427E+02, 1.954E-01, 8.297E-03, 1.001E+02
 5.400E+02, 8.430E+01, 8.606E+01, 7.986E+01, 1.111E+02, 6.192E+01, 8.649E+01, 1.121E+02, 5.961E+01,-2.415E+02, 1.952E-01, 8.389E-03, 1.001E+02
 5.500E+02, 8.363E+01, 8.585E+01, 8.074E+01, 1.104E+02, 5.976E+01, 8.650E+01, 1.121E+02, 5.898E+01,-2.417E+02, 1.952E-01, 8.380E-03, 1.004E+02
 5.600E+02, 8.449E+01, 8.566E+01, 8.061E+01, 1.118E+02, 6.112E+01, 8.604E+01, 1.115E+02, 5.940E+01,-2.441E+02, 1.951E-01, 8.437E-03, 1.001E+02
 5.700E+02, 8.438E+01, 8.690E+01, 8.125E+01, 1.106E+02, 6.131E+01, 8.622E+01, 1.144E+02, 6.007E+01,-2.430E+02, 1.951E-01, 8.461E-03, 1.005E+02
 5.800E+02, 8.423E+01, 8.672E+01, 8.009E+01, 1.109E+02, 6.171E+01, 8.642E+01, 1.135E+02, 6.023E+01,-2.439E+02, 1.951E-01, 8.480E-03, 1.001E+02
 5.900E+02, 8.490E+01, 8.733E+01, 8.057E+01, 1.113E+02, 6.284E+01, 8.629E+01, 1.158E+02, 5.986E+01,-2.413E+02, 1.951E-01, 8.484E-03, 1.001E+02
 6.000E+02, 8.509E+01, 8.753E+01, 8.132E+01, 1.119E+02, 6.204E+01, 8.703E+01, 1.158E+02, 5.978E+01,-2.428E+02, 1.951E-01, 8.473E-03, 1.001E+02
 6.100E+02, 8.528E+01, 8.631E+01, 8.097E+01, 1.119E+02, 6.300E+01, 8.658E+01, 1.135E+02, 5.886E+01,-2.392E+02, 1.951E-01, 8.451E-03, 1.002E+02
 6.200E+02, 8.479E+01, 8.788E+01, 8.093E+01, 1.115E+02, 6.196E+01, 8.710E+01, 1.163E+02, 6.021E+01,-2.450E+02, 1.949E-01, 8.598E-03, 1.004E+02
 6.300E+02, 8.500E+01, 8.796E+01, 8.132E+01, 1.119E+02, 6.181E+01, 8.733E+01, 1.172E+02, 5.937E+01,-2.418E+02, 1.950E-01, 8.535E-03, 1.003E+02
 6.400E+02, 8.512E+01, 8.745E+01, 8.247E+01, 1.103E+02, 6.254E+01, 8.652E+01, 1.164E+02, 5.940E+01,-2.381E+02, 1.950E-01, 8.517E-03, 1.002E+02
 6.500E+02, 8.554E+01, 8.695E+01, 8.139E+01, 1.124E+02, 6.289E+01, 8.695E+01, 1.147E+02, 5.922E+01,-2.423E+02, 1.948E-01, 8.602E-03, 1.003E+02
 6.600E+02, 8.608E+01, 8.828E+01, 8.180E+01, 1.139E+02, 6.251E+01, 8.887E+01, 1.167E+02, 5.923E+01,-2.446E+02, 1.949E-01, 8.593E-03, 1.002E+02
 6.700E+02, 8.561E+01, 8.790E+01, 8.226E+01, 1.127E+02, 6.190E+01, 8.887E+01, 1.156E+02, 5.927E+01,-2.449E+02, 1.948E-01, 8.614E-03, 1.001E+02
 6.800E+02, 8.573E+01, 8.843E+01, 8.251E+01, 1.121E+02, 6.260E+01, 8.809E+01, 1.177E+02, 5.950E+01,-2.415E+02, 1.949E-01, 8.588E-03, 1.000E+02
 6.900E+02, 8.631E+01, 8.827E+01, 8.197E+01, 1.133E+02, 6.365E+01, 8.790E+01, 1.164E+02, 6.049E+01,-2.373E+02, 1.947E-01, 8.708E-03, 1.001E+02
 7.000E+02, 8.628E+01, 8.920E+01, 8.225E+01, 1.135E+02, 6.312E+01, 8.874E+01, 1.175E+02, 6.135E+01,-2.393E+02, 1.946E-01, 8.747E-03, 1.002E+02
 7.100E+02, 8.658E+01, 8.873E+01, 8.249E+01, 1.134E+02, 6.381E+01, 8.864E+01, 1.174E+02, 6.011E+01,-2.440E+02, 1.946E-01, 8.733E-03, 1.001E+02
 7.200E+02, 8.678E+01, 8.957E+01, 8.271E+01, 1.142E+02, 6.349E+01, 8.893E+01, 1.197E+02, 6.006E+01,-2.425E+02, 1.946E-01, 8.727E-03, 1.003E+02
 7.300E+02, 8.626E+01, 8.938E+01, 8.233E+01, 1.136E+02, 6.286E+01, 8.832E+01, 1.185E+02, 6.134E+01,-2.396E+02, 1.946E-01, 8.766E-03, 9.992E+01
 7.400E+02, 8.651E+01, 8.951E+01, 8.268E+01, 1.133E+02, 6.357E+01, 8.820E+01, 1.184E+02, 6.197E+01,-2.367E+02, 1.945E-01, 8.781E-03, 1.001E+02
 7.500E+02, 8.729E+01, 8.937E+01, 8.319E+01, 1.142E+02, 6.451E+01, 9.003E+01, 1.174E+02, 6.069E+01,-2.401E+02, 1.945E-01, 8.777E-03, 1.001E+02
 7.600E+02, 8.706E+01, 8.876E+01, 8.322E+01, 1.144E+02, 6.355E+01, 8.954E+01, 1.175E+02, 5.929E+01,-2.438E+02, 1.946E-01, 8.762E-03, 1.001E+02
 7.700E+02, 8.678E+01, 8.956E+01, 8.375E+01, 1.128E+02, 6.373E+01, 8.981E+01, 1.183E+02, 6.054E+01,-2.357E+02, 1.945E-01, 8.796E-03, 1.002E+02
 7.800E+02, 8.712E+01, 8.984E+01, 8.397E+01, 1.133E+02, 6.413E+01, 8.932E+01, 1.180E+02, 6.215E+01,-2.326E+02, 1.945E-01, 8.819E-03, 1.005E+02
 7.900E+02, 8.688E+01, 8.955E+01, 8.321E+01, 1.129E+02, 6.457E+01, 9.046E+01, 1.170E+02, 6.122E+01,-2.396E+02, 1.945E-01, 8.812E-03, 1.001E+02
 8.000E+02, 8.871E+01, 8.969E+01, 8.278E+01, 1.178E+02, 6.549E+01, 9.067E+01, 1.178E+02, 6.064E+01,-2.416E+02, 1.945E-01, 8.788E-03, 1.004E+02
 8.100E+02, 8.793E+01, 8.983E+01, 8.414E+01, 1.152E+02, 6.441E+01, 9.052E+01, 1.165E+02, 6.246E+01,-2.394E+02, 1.943E-01, 8.892E-03, 1.000E+02
 8.200E+02, 8.801E+01, 9.117E+01, 8.336E+01, 1.157E+02, 6.498E+01, 9.139E+01, 1.200E+02, 6.214E+01,-2.375E+02, 1.943E-01, 8.882E-03, 1.002E+02
 8.300E+02, 8.891E+01, 9.074E+01, 8.543E+01, 1.163E+02, 6.504E+01, 9.043E+01, 1.201E+02, 6.169E+01,-2.387E+02, 1.944E-01, 8.857E-03, 1.002E+02
 8.400E+02, 8.884E+01, 9.111E+01, 8.423E+01, 1.167E+02, 6.562E+01, 9.091E+01, 1.212E+02, 6.123E+01,-2.424E+02, 1.944E-01, 8.853E-03, 1.002E+02
 8.500E+02, 8.760E+01, 9.038E+01, 8.374E+01, 1.139E+02, 6.511E+01, 9.036E+01, 1.195E+02, 6.126E+01,-2.431E+02, 1.944E-01, 8.834E-03, 1.004E+02
 8.600E+02, 8.843E+01, 9.101E+01, 8.370E+01, 1.157E+02, 6.585E+01, 9.137E+01, 1.195E+02, 6.212E+01,-2.394E+02, 1.943E-01, 8.907E-03, 1.000E+02
 8.700E+02, 8.869E+01, 9.085E+01, 8.412E+01, 1.162E+02, 6.575E+01, 9.093E+01, 1.188E+02, 6.282E+01,-2.361E+02, 1.943E-01, 8.934E-03, 1.003E+02
 8.800E+02, 8.886E+01, 9.102E+01, 8.513E+01, 1.166E+02, 6.488E+01, 9.090E+01, 1.185E+02, 6.363E+01,-2.368E+02, 1.943E-01, 8.926E-03, 1.000E+02
 8.900E+02, 8.892E+01, 9.142E+01, 8.410E+01, 1.159E+02, 6.680E+01, 9.106E+01, 1.197E+02, 6.347E+01,-2.368E+02, 1.942E-01, 8.968E-03, 1.004E+02
 9.000E+02, 8.896E+01, 9.141E+01, 8.478E+01, 1.159E+02, 6.617E+01, 9.207E+01, 1.191E+02, 6.305E+01,-2.408E+02, 1.942E-01, 8.944E-03, 9.999E+01
 9.100E+02, 8.861E+01, 9.076E+01, 8.521E+01, 1.155E+02, 6.513E+01, 9.141E+01, 1.189E+02, 6.199E+01,-2.390E+02, 1.943E-01, 8.913E-03, 1.002E+02
 9.200E+02, 8.952E+01, 9.039E+01, 8.551E+01, 1.161E+02, 6.695E+01, 9.070E+01, 1.182E+02, 6.226E+01,-2.318E+02, 1.943E-01, 8.897E-03, 1.006E+02
 9.300E+02, 8.975E+01, 9.166E+01, 8.508E+01, 1.183E+02, 6.591E+01, 9.191E+01, 1.191E+02, 6.397E+01,-2.409E+02, 1.942E-01, 8.953E-03, 1.000E+02
 9.400E+02, 8.907E+01, 9.077E+01, 8.494E+01, 1.174E+02, 6.484E+01, 9.185E+01, 1.173E+02, 6.313E+01,-2.365E+02, 1.942E-01, 8.951E-03, 1.002E+02
 9.500E+02, 8.934E+01, 9.152E+01, 8.436E+01, 1.175E+02, 6.618E+01, 9.222E+01, 1.189E+02, 6.349E+01,-2.390E+02, 1.942E-01, 8.960E-03, 1.000E+02
 9.600E+02, 8.882E+01, 9.149E+01, 8.426E+01, 1.164E+02, 6.576E+01, 9.091E+01, 1.197E+02, 6.385E+01,-2.363E+02, 1.941E-01, 9.000E-03, 1.001E+02
 9.700E+02, 8.951E+01, 9.228E+01, 8.494E+01, 1.174E+02, 6.615E+01, 9.046E+01, 1.212E+02, 6.523E+01,-2.371E+02, 1.941E-01, 9.031E-03, 1.000E+02
 9.800E+02, 8.933E+01, 9.300E+01, 8.371E+01, 1.184E+02, 6.586E+01, 9.158E+01, 1.230E+02, 6.441E+01,-2.400E+02, 1.941E-01, 9.019E-03, 1.001E+02
 9.900E+02, 8.977E+01, 9.143E+01, 8.440E+01, 1.169E+02, 6.798E+01, 9.193E+01, 1.196E+02, 6.282E+01,-2.354E+02, 1.941E-01, 9.023E-03, 1.002E+02
 1.000E+03, 8.990E+01, 9.153E+01, 8.429E+01, 1.187E+02, 6.674E+01, 9.135E+01, 1.195E+02, 6.379E+01,-2.370E+02, 1.940E-01, 9.084E-03, 1.002E+02
 1.010E+03, 9.054E+01, 9.221E+01, 8.557E+01, 1.190E+02, 6.708E+01, 9.265E+01, 1.193E+02, 6.466E+01,-2.337E+02, 1.939E-01, 9.125E-03, 1.002E+02
 1.020E+03, 8.980E+01, 9.216E+01, 8.544E+01, 1.172E+02, 6.670E+01, 9.189E+01, 1.204E+02, 6.420E+01,-2.355E+02, 1.939E-01, 9.108E-03, 1.001E+02
 1.030E+03, 9.009E+01, 9.222E+01, 8.519E+01, 1.165E+02, 6.855E+01, 9.140E+01, 1.211E+02, 6.416E+01,-2.337E+02, 1.940E-01, 9.103E-03, 1.001E+02
 1.040E+03, 9.028E+01, 9.284E+01, 8.531E+01, 1.177E+02, 6.782E+01, 9.226E+01, 1.221E+02, 6.415E+01,-2.352E+02, 1.939E-01, 9.109E-03, 1.001E+02
 1.050E+03, 9.048E+01, 9.255E+01, 8.579E+01, 1.182E+02, 6.743E+01, 9.179E+01, 1.212E+02, 6.471E+01,-2.372E+02, 1.940E-01, 9.091E-03, 1.000E+02
 1.060E+03, 8.993E+01, 9.318E+01, 8.664E+01, 1.164E+02, 6.677E+01, 9.185E+01, 1.232E+02, 6.450E+01,-2.351E+02, 1.940E-01, 9.075E-03, 1.004E+02
 1.070E+03, 9.048E+01, 9.298E+01, 8.620E+01, 1.172E+02, 6.804E+01, 9.271E+01, 1.228E+02, 6.341E+01,-2.344E+02, 1.941E-01, 9.033E-03, 1.001E+02
 1.080E+03, 9.027E+01, 9.246E+01, 8.597E+01, 1.173E+02, 6.751E+01, 9.192E+01, 1.218E+02, 6.366E+01,-2.338E+02, 1.940E-01, 9.054E-03, 1.001E+02
 1.090E+03, 9.087E+01, 9.267E+01, 8.589E+01, 1.182E+02, 6.849E+01, 9.295E+01, 1.202E+02, 6.482E+01,-2.340E+02, 1.940E-01, 9.079E-03, 1.001E+02
 1.100E+03, 9.147E+01, 9.278E+01, 8.583E+01, 1.193E+02, 6.924E+01, 9.250E+01, 1.213E+02, 6.456E+01,-2.333E+02, 1.940E-01, 9.102E-03, 1.002E+02
 1.110E+03, 9.166E+01, 9.325E+01, 8.639E+01, 1.201E+02, 6.852E+01, 9.269E+01, 1.226E+02, 6.444E+01,-2.383E+02, 1.940E-01, 9.052E-03, 1.002E+02
 1.120E+03, 9.119E+01, 9.409E+01, 8.720E+01, 1.183E+02, 6.805E+01, 9.258E+01, 1.239E+02, 6.581E+01,-2.320E+02, 1.940E-01, 9.078E-03, 9.999E+01
 1.130E+03, 9.166E+01, 9.468E+01, 8.772E+01, 1.191E+02, 6.815E+01, 9.415E+01, 1.239E+02, 6.602E+01,-2.348E+02, 1.940E-01, 9.050E-03, 1.000E+02
 1.140E+03, 9.097E+01, 9.443E+01, 8.625E+01, 1.189E+02, 6.776E+01, 9.340E+01, 1.241E+02, 6.583E+01,-2.329E+02, 1.939E-01, 9.106E-03, 1.002E+02
 1.150E+03, 9.151E+01, 9.426E+01, 8.763E+01, 1.186E+02, 6.833E+01, 9.394E+01, 1.233E+02, 6.554E+01,-2.335E+02, 1.940E-01, 9.100E-03, 1.002E+02
 1.160E+03, 9.197E+01, 9.397E+01, 8.752E+01, 1.195E+02, 6.890E+01, 9.503E+01, 1.222E+02, 6.468E+01,-2.310E+02, 1.940E-01, 9.054E-03, 1.003E+02
 1.170E+03, 9.200E+01, 9.392E+01, 8.805E+01, 1.204E+02, 6.753E+01, 9.446E+01, 1.214E+02, 6.589E+01,-2.354E+02, 1.940E-01, 9.096E-03, 1.002E+02
 1.180E+03, 9.160E+01, 9.459E+01, 8.609E+01, 1.197E+02, 6.900E+01, 9.441E+01, 1.239E+02, 6.549E+01,-2.394E+02, 1.940E-01, 9.104E-03, 1.002E+02
 1.190E+03, 9.251E+01, 9.454E+01, 8.753E+01, 1.206E+02, 6.942E+01, 9.420E+01, 1.235E+02, 6.589E+01,-2.328E+02, 1.939E-01, 9.116E-03, 1.002E+02
 1.200E+03, 9.122E+01, 9.538E+01, 8.775E+01, 1.181E+02, 6.777E+01, 9.424E+01, 1.248E+02, 6.712E+01,-2.351E+02, 1.940E-01, 9.095E-03, 1.000E+02
 1.210E+03, 9.194E+01, 9.430E+01, 8.702E+01, 1.200E+02, 6.878E+01, 9.396E+01, 1.232E+02, 6.576E+01,-2.377E+02, 1.941E-01, 9.034E-03, 1.001E+02
 1.220E+03, 9.256E+01, 9.471E+01, 8.733E+01, 1.204E+02, 6.996E+01, 9.456E+01, 1.229E+02, 6.669E+01,-2.335E+02, 1.940E-01, 9.086E-03, 1.002E+02
 1.230E+03, 9.256E+01, 9.542E+01, 8.773E+01, 1.206E+02, 6.934E+01, 9.410E+01, 1.248E+02, 6.737E+01,-2.299E+02, 1.939E-01, 9.113E-03, 1.003E+02
 1.240E+03, 9.282E+01, 9.467E+01, 8.787E+01, 1.211E+02, 6.945E+01, 9.401E+01, 1.232E+02, 6.677E+01,-2.317E+02, 1.940E-01, 9.092E-03, 1.001E+02
 1.250E+03, 9.315E+01, 9.490E+01, 8.836E+01, 1.203E+02, 7.083E+01, 9.424E+01, 1.241E+02, 6.639E+01,-2.359E+02, 1.940E-01, 9.087E-03, 1.001E+02
 1.260E+03, 9.291E+01, 9.511E+01, 8.769E+01, 1.213E+02, 6.975E+01, 9.470E+01, 1.240E+02, 6.663E+01,-2.338E+02, 1.939E-01, 9.134E-03, 1.004E+02
 1.270E+03, 9.350E+01, 9.514E+01, 8.836E+01, 1.220E+02, 7.013E+01, 9.428E+01, 1.246E+02, 6.656E+01,-2.344E+02, 1.939E-01, 9.112E-03, 1.001E+02
 1.280E+03, 9.309E+01, 9.529E+01, 8.843E+01, 1.213E+02, 6.959E+01, 9.572E+01, 1.226E+02, 6.751E+01,-2.312E+02, 1.938E-01, 9.164E-03, 1.003E+02
 1.290E+03, 9.316E+01, 9.489E+01, 8.815E+01, 1.220E+02, 6.931E+01, 9.498E+01, 1.220E+02, 6.767E+01,-2.378E+02, 1.939E-01, 9.152E-03, 1.001E+02
 1.300E+03, 9.408E+01, 9.517E+01, 8.900E+01, 1.227E+02, 7.051E+01, 9.394E+01, 1.248E+02, 6.673E+01,-2.331E+02, 1.939E-01, 9.114E-03, 1.002E+02
 1.310E+03, 9.369E+01, 9.503E+01, 8.809E+01, 1.212E+02, 7.181E+01, 9.450E+01, 1.232E+02, 6.741E+01,-2.355E+02, 1.939E-01, 9.152E-03, 1.004E+02
