s,C,C,C,C,C,C,C,C,Pa,mol/mol,mol/mol,kW
Time,"West_All_TCs","East_All_TCs","West_Bottom_TCs","West_Middle_TCs","West_Upper_TCs","East_Bottom_TCs","East_Middle_TCs","East_Upper_TCs","Pressure","O2","CO2","HRR"
-6.000E+01, 2.000E+01, 2.000E+01, 2.000E+01, 2.000E+01, 2.000E+01, 2.000E+01, 2.000E+01, 2.000E+01,-9.803E-06, 2.095E-01, 3.901E-04, 0.000E+00
-4.998E+01, 1.999E+01, 1.999E+01, 1.999E+01, 1.999E+01, 1.999E+01, 1.999E+01, 1.999E+01, 1.999E+01,-2.453E+01, 2.095E-01, 3.901E-04, 0.000E+00
-3.996E+01, 1.998E+01, 1.998E+01, 1.998E+01, 1.998E+01, 1.998E+01, 1.999E+01, 1.998E+01, 1.998E+01,-2.377E+01, 2.095E-01, 3.901E-04, 0.000E+00
-2.994E+01, 1.998E+01, 1.999E+01, 1.998E+01, 1.998E+01, 1.997E+01, 2.000E+01, 1.998E+01, 1.998E+01,-2.378E+01, 2.095E-01, 3.901E-04, 0.000E+00
-1.992E+01, 1.997E+01, 1.999E+01, 1.998E+01, 1.998E+01, 1.997E+01, 2.001E+01, 1.998E+01, 1.998E+01,-2.379E+01, 2.095E-01, 3.901E-04, 0.000E+00
-9.896E+00, 1.997E+01, 1.999E+01, 1.998E+01, 1.998E+01, 1.997E+01, 2.001E+01, 1.998E+01, 1.998E+01,-2.378E+01, 2.095E-01, 3.901E-04, 0.000E+00
 1.301E-02, 1.997E+01, 1.999E+01, 1.998E+01, 1.997E+01, 1.997E+01, 2.002E+01, 1.998E+01, 1.998E+01,-2.379E+01, 2.095E-01, 3.901E-04, 1.322E-04
 1.001E+01, 2.070E+01, 2.087E+01, 2.035E+01, 2.176E+01, 1.998E+01, 2.057E+01, 2.205E+01, 1.999E+01,-7.291E+00, 2.095E-01, 3.901E-04, 2.455E+01
 2.001E+01, 2.325E+01, 2.397E+01, 2.154E+01, 2.811E+01, 2.010E+01, 2.217E+01, 2.974E+01, 2.000E+01, 8.814E+00, 2.095E-01, 3.901E-04, 7.449E+01
 3.002E+01, 2.953E+01, 3.071E+01, 2.424E+01, 4.389E+01, 2.045E+01, 2.500E+01, 4.716E+01, 1.999E+01, 4.209E+01, 2.095E-01, 3.901E-04, 1.245E+02
 4.001E+01, 3.791E+01, 3.877E+01, 2.885E+01, 6.381E+01, 2.106E+01, 3.053E+01, 6.560E+01, 2.018E+01, 5.666E+01, 2.095E-01, 4.110E-04, 1.500E+02
 5.002E+01, 4.667E+01, 4.697E+01, 3.631E+01, 8.156E+01, 2.213E+01, 3.813E+01, 8.119E+01, 2.159E+01, 4.043E+01, 2.091E-01, 6.216E-04, 1.502E+02
 6.001E+01, 5.359E+01, 5.494E+01, 4.570E+01, 9.243E+01, 2.265E+01, 4.711E+01, 9.483E+01, 2.289E+01, 2.805E+01, 2.090E-01, 6.974E-04, 1.502E+02
 7.000E+01, 6.044E+01, 6.220E+01, 5.451E+01, 1.034E+02, 2.336E+01, 5.615E+01, 1.065E+02, 2.397E+01, 1.883E+01, 2.088E-01, 8.052E-04, 1.499E+02
 8.001E+01, 6.695E+01, 6.820E+01, 6.359E+01, 1.126E+02, 2.470E+01, 6.519E+01, 1.143E+02, 2.513E+01, 1.333E+01, 2.086E-01, 8.990E-04, 1.502E+02
 9.000E+01, 7.216E+01, 7.304E+01, 7.139E+01, 1.190E+02, 2.603E+01, 7.273E+01, 1.203E+02, 2.614E+01, 9.446E+00, 2.084E-01, 1.040E-03, 1.501E+02
 1.000E+02, 7.732E+01, 7.874E+01, 7.924E+01, 1.261E+02, 2.665E+01, 7.962E+01, 1.287E+02, 2.785E+01, 6.567E+00, 2.079E-01, 1.286E-03, 1.500E+02
 1.100E+02, 8.199E+01, 8.279E+01, 8.668E+01, 1.310E+02, 2.827E+01, 8.699E+01, 1.324E+02, 2.894E+01,-4.592E-01, 2.078E-01, 1.393E-03, 1.501E+02
 1.200E+02, 8.641E+01, 8.527E+01, 9.261E+01, 1.376E+02, 2.905E+01, 9.200E+01, 1.342E+02, 2.963E+01,-1.985E+00, 2.076E-01, 1.469E-03, 1.502E+02
 1.300E+02, 8.862E+01, 8.802E+01, 9.701E+01, 1.394E+02, 2.947E+01, 9.815E+01, 1.360E+02, 2.989E+01,-3.670E+00, 2.074E-01, 1.597E-03, 1.501E+02
 1.400E+02, 9.099E+01, 9.067E+01, 1.004E+02, 1.417E+02, 3.091E+01, 1.022E+02, 1.386E+02, 3.113E+01,-5.973E+00, 2.070E-01, 1.802E-03, 1.502E+02
 1.500E+02, 9.276E+01, 9.214E+01, 1.043E+02, 1.424E+02, 3.152E+01, 1.045E+02, 1.397E+02, 3.219E+01,-8.081E+00, 2.067E-01, 1.962E-03, 1.501E+02
 1.600E+02, 9.394E+01, 9.463E+01, 1.071E+02, 1.425E+02, 3.219E+01, 1.083E+02, 1.429E+02, 3.262E+01,-9.418E+00, 2.064E-01, 2.126E-03, 1.502E+02
 1.700E+02, 9.570E+01, 9.491E+01, 1.102E+02, 1.443E+02, 3.265E+01, 1.104E+02, 1.408E+02, 3.349E+01,-1.135E+01, 2.061E-01, 2.294E-03, 1.500E+02
 1.800E+02, 9.577E+01, 9.720E+01, 1.110E+02, 1.435E+02, 3.287E+01, 1.134E+02, 1.445E+02, 3.378E+01,-1.289E+01, 2.059E-01, 2.440E-03, 1.503E+02
 1.900E+02, 9.748E+01, 1.000E+02, 1.120E+02, 1.467E+02, 3.367E+01, 1.159E+02, 1.492E+02, 3.498E+01,-1.445E+01, 2.054E-01, 2.682E-03, 1.503E+02
 2.000E+02, 9.752E+01, 1.008E+02, 1.116E+02, 1.460E+02, 3.496E+01, 1.159E+02, 1.509E+02, 3.552E+01,-1.625E+01, 2.051E-01, 2.870E-03, 1.503E+02
 2.100E+02, 9.755E+01, 1.002E+02, 1.119E+02, 1.463E+02, 3.452E+01, 1.165E+02, 1.491E+02, 3.502E+01,-1.629E+01, 2.049E-01, 2.994E-03, 1.504E+02
 2.200E+02, 9.843E+01, 1.013E+02, 1.122E+02, 1.484E+02, 3.465E+01, 1.164E+02, 1.524E+02, 3.518E+01,-1.688E+01, 2.047E-01, 3.111E-03, 1.506E+02
 2.300E+02, 9.867E+01, 1.011E+02, 1.127E+02, 1.485E+02, 3.486E+01, 1.160E+02, 1.511E+02, 3.625E+01,-1.791E+01, 2.042E-01, 3.395E-03, 1.502E+02
 2.400E+02, 9.990E+01, 1.015E+02, 1.142E+02, 1.492E+02, 3.626E+01, 1.157E+02, 1.524E+02, 3.652E+01,-1.705E+01, 2.040E-01, 3.498E-03, 1.499E+02
 2.500E+02, 1.002E+02, 1.017E+02, 1.140E+02, 1.501E+02, 3.647E+01, 1.158E+02, 1.529E+02, 3.648E+01,-1.894E+01, 2.035E-01, 3.773E-03, 1.501E+02
 2.600E+02, 1.004E+02, 1.027E+02, 1.144E+02, 1.506E+02, 3.628E+01, 1.169E+02, 1.542E+02, 3.709E+01,-1.728E+01, 2.030E-01, 4.054E-03, 1.501E+02
 2.700E+02, 1.019E+02, 1.038E+02, 1.162E+02, 1.523E+02, 3.704E+01, 1.173E+02, 1.572E+02, 3.693E+01,-1.717E+01, 2.028E-01, 4.185E-03, 1.501E+02
 2.800E+02, 1.016E+02, 1.038E+02, 1.160E+02, 1.513E+02, 3.765E+01, 1.181E+02, 1.555E+02, 3.769E+01,-1.865E+01, 2.023E-01, 4.428E-03, 1.501E+02
 2.900E+02, 1.018E+02, 1.043E+02, 1.158E+02, 1.526E+02, 3.689E+01, 1.201E+02, 1.549E+02, 3.795E+01,-1.926E+01, 2.018E-01, 4.693E-03, 1.500E+02
 3.000E+02, 1.022E+02, 1.030E+02, 1.163E+02, 1.531E+02, 3.719E+01, 1.154E+02, 1.559E+02, 3.779E+01,-1.801E+01, 2.013E-01, 4.981E-03, 1.504E+02
 3.100E+02, 1.029E+02, 1.054E+02, 1.170E+02, 1.540E+02, 3.751E+01, 1.185E+02, 1.592E+02, 3.850E+01,-1.944E+01, 2.009E-01, 5.216E-03, 1.499E+02
 3.200E+02, 1.029E+02, 1.056E+02, 1.168E+02, 1.543E+02, 3.757E+01, 1.192E+02, 1.590E+02, 3.852E+01,-1.688E+01, 2.006E-01, 5.393E-03, 1.502E+02
 3.300E+02, 1.040E+02, 1.059E+02, 1.178E+02, 1.562E+02, 3.791E+01, 1.205E+02, 1.586E+02, 3.853E+01,-1.801E+01, 1.999E-01, 5.773E-03, 1.503E+02
 3.400E+02, 1.047E+02, 1.057E+02, 1.191E+02, 1.570E+02, 3.794E+01, 1.197E+02, 1.588E+02, 3.860E+01,-1.818E+01, 1.995E-01, 6.013E-03, 1.501E+02
 3.500E+02, 1.041E+02, 1.065E+02, 1.182E+02, 1.556E+02, 3.848E+01, 1.208E+02, 1.597E+02, 3.897E+01,-1.813E+01, 1.993E-01, 6.125E-03, 1.502E+02
 3.600E+02, 1.042E+02, 1.062E+02, 1.186E+02, 1.557E+02, 3.839E+01, 1.219E+02, 1.576E+02, 3.926E+01,-1.788E+01, 1.986E-01, 6.515E-03, 1.507E+02
 3.700E+02, 1.050E+02, 1.080E+02, 1.203E+02, 1.560E+02, 3.872E+01, 1.226E+02, 1.623E+02, 3.921E+01,-1.877E+01, 1.981E-01, 6.767E-03, 1.504E+02
 3.800E+02, 1.057E+02, 1.066E+02, 1.192E+02, 1.588E+02, 3.901E+01, 1.213E+02, 1.589E+02, 3.951E+01,-1.970E+01, 1.975E-01, 7.107E-03, 1.500E+02
 3.900E+02, 1.051E+02, 1.076E+02, 1.196E+02, 1.568E+02, 3.893E+01, 1.208E+02, 1.624E+02, 3.954E+01,-1.886E+01, 1.970E-01, 7.397E-03, 1.501E+02
 4.000E+02, 1.059E+02, 1.077E+02, 1.208E+02, 1.583E+02, 3.878E+01, 1.220E+02, 1.619E+02, 3.931E+01,-1.863E+01, 1.967E-01, 7.577E-03, 1.503E+02
 4.100E+02, 1.054E+02, 1.075E+02, 1.199E+02, 1.574E+02, 3.896E+01, 1.225E+02, 1.603E+02, 3.973E+01,-2.021E+01, 1.959E-01, 8.020E-03, 1.498E+02
 4.200E+02, 1.062E+02, 1.085E+02, 1.212E+02, 1.584E+02, 3.907E+01, 1.234E+02, 1.622E+02, 4.000E+01,-1.905E+01, 1.954E-01, 8.320E-03, 1.503E+02
 4.300E+02, 1.064E+02, 1.089E+02, 1.212E+02, 1.588E+02, 3.913E+01, 1.242E+02, 1.626E+02, 3.986E+01,-1.999E+01, 1.949E-01, 8.591E-03, 1.502E+02
 4.400E+02, 1.061E+02, 1.088E+02, 1.206E+02, 1.586E+02, 3.899E+01, 1.249E+02, 1.620E+02, 3.959E+01,-1.889E+01, 1.946E-01, 8.747E-03, 1.500E+02
 4.500E+02, 1.059E+02, 1.096E+02, 1.208E+02, 1.582E+02, 3.874E+01, 1.241E+02, 1.652E+02, 3.964E+01,-1.701E+01, 1.940E-01, 9.053E-03, 1.503E+02
 4.600E+02, 1.075E+02, 1.095E+02, 1.234E+02, 1.598E+02, 3.952E+01, 1.248E+02, 1.640E+02, 3.972E+01,-1.862E+01, 1.938E-01, 9.182E-03, 1.501E+02
 4.700E+02, 1.076E+02, 1.103E+02, 1.231E+02, 1.603E+02, 3.943E+01, 1.265E+02, 1.639E+02, 4.051E+01,-1.982E+01, 1.932E-01, 9.511E-03, 1.502E+02
 4.800E+02, 1.080E+02, 1.103E+02, 1.244E+02, 1.600E+02, 3.947E+01, 1.266E+02, 1.640E+02, 4.041E+01,-1.906E+01, 1.928E-01, 9.725E-03, 1.500E+02
 4.900E+02, 1.081E+02, 1.105E+02, 1.239E+02, 1.609E+02, 3.952E+01, 1.270E+02, 1.645E+02, 4.011E+01,-1.945E+01, 1.923E-01, 1.003E-02, 1.504E+02
 5.000E+02, 1.083E+02, 1.104E+02, 1.245E+02, 1.609E+02, 3.942E+01, 1.272E+02, 1.639E+02, 4.011E+01,-1.816E+01, 1.915E-01, 1.045E-02, 1.501E+02
 5.100E+02, 1.083E+02, 1.107E+02, 1.226E+02, 1.622E+02, 3.995E+01, 1.273E+02, 1.644E+02, 4.037E+01,-1.909E+01, 1.918E-01, 1.030E-02, 1.503E+02
 5.200E+02, 1.083E+02, 1.111E+02, 1.237E+02, 1.615E+02, 3.969E+01, 1.276E+02, 1.654E+02, 4.042E+01,-1.570E+01, 1.911E-01, 1.067E-02, 1.504E+02
 5.300E+02, 1.087E+02, 1.119E+02, 1.243E+02, 1.619E+02, 3.978E+01, 1.271E+02, 1.680E+02, 4.052E+01,-1.766E+01, 1.903E-01, 1.112E-02, 1.501E+02
 5.400E+02, 1.095E+02, 1.111E+02, 1.240E+02, 1.641E+02, 4.034E+01, 1.270E+02, 1.657E+02, 4.067E+01,-2.034E+01, 1.898E-01, 1.140E-02, 1.501E+02
 5.500E+02, 1.095E+02, 1.126E+02, 1.237E+02, 1.645E+02, 4.024E+01, 1.286E+02, 1.686E+02, 4.056E+01,-1.905E+01, 1.893E-01, 1.170E-02, 1.501E+02
 5.600E+02, 1.108E+02, 1.121E+02, 1.265E+02, 1.648E+02, 4.095E+01, 1.265E+02, 1.689E+02, 4.094E+01,-1.753E+01, 1.883E-01, 1.226E-02, 1.496E+02
 5.700E+02, 1.110E+02, 1.130E+02, 1.263E+02, 1.659E+02, 4.100E+01, 1.284E+02, 1.691E+02, 4.166E+01,-1.862E+01, 1.875E-01, 1.270E-02, 1.503E+02
 5.800E+02, 1.109E+02, 1.123E+02, 1.262E+02, 1.659E+02, 4.051E+01, 1.289E+02, 1.665E+02, 4.163E+01,-1.818E+01, 1.876E-01, 1.266E-02, 1.501E+02
 5.900E+02, 1.110E+02, 1.122E+02, 1.264E+02, 1.655E+02, 4.098E+01, 1.284E+02, 1.672E+02, 4.108E+01,-1.798E+01, 1.871E-01, 1.292E-02, 1.501E+02
 6.000E+02, 1.121E+02, 1.144E+02, 1.283E+02, 1.669E+02, 4.101E+01, 1.310E+02, 1.703E+02, 4.188E+01,-1.648E+01, 1.865E-01, 1.327E-02, 1.502E+02
 6.100E+02, 1.126E+02, 1.139E+02, 1.276E+02, 1.682E+02, 4.195E+01, 1.300E+02, 1.697E+02, 4.213E+01,-1.892E+01, 1.862E-01, 1.346E-02, 1.502E+02
 6.200E+02, 1.118E+02, 1.142E+02, 1.272E+02, 1.666E+02, 4.163E+01, 1.329E+02, 1.678E+02, 4.204E+01,-1.830E+01, 1.854E-01, 1.388E-02, 1.503E+02
 6.300E+02, 1.122E+02, 1.146E+02, 1.268E+02, 1.679E+02, 4.176E+01, 1.321E+02, 1.702E+02, 4.140E+01,-2.049E+01, 1.849E-01, 1.416E-02, 1.500E+02
 6.400E+02, 1.116E+02, 1.134E+02, 1.269E+02, 1.657E+02, 4.215E+01, 1.312E+02, 1.670E+02, 4.191E+01,-1.909E+01, 1.842E-01, 1.456E-02, 1.497E+02
 6.500E+02, 1.119E+02, 1.142E+02, 1.265E+02, 1.668E+02, 4.244E+01, 1.305E+02, 1.703E+02, 4.181E+01,-1.877E+01, 1.839E-01, 1.471E-02, 1.496E+02
 6.600E+02, 1.122E+02, 1.144E+02, 1.279E+02, 1.665E+02, 4.228E+01, 1.298E+02, 1.718E+02, 4.173E+01,-1.824E+01, 1.833E-01, 1.505E-02, 1.487E+02
 6.700E+02, 1.123E+02, 1.153E+02, 1.279E+02, 1.663E+02, 4.283E+01, 1.323E+02, 1.710E+02, 4.258E+01,-2.292E+01, 1.824E-01, 1.556E-02, 1.461E+02
 6.800E+02, 1.112E+02, 1.134E+02, 1.267E+02, 1.646E+02, 4.214E+01, 1.297E+02, 1.674E+02, 4.313E+01,-4.145E+01, 1.817E-01, 1.594E-02, 1.182E+02
 6.900E+02, 1.127E+02, 1.116E+02, 1.259E+02, 1.698E+02, 4.229E+01, 1.305E+02, 1.619E+02, 4.220E+01,-2.235E+01, 1.813E-01, 1.619E-02, 1.380E+02
 7.000E+02, 1.106E+02, 1.153E+02, 1.227E+02, 1.667E+02, 4.248E+01, 1.312E+02, 1.720E+02, 4.273E+01,-2.218E+00, 1.804E-01, 1.668E-02, 1.310E+02
 7.100E+02, 1.120E+02, 1.135E+02, 1.242E+02, 1.690E+02, 4.279E+01, 1.312E+02, 1.666E+02, 4.274E+01,-1.882E+01, 1.800E-01, 1.691E-02, 1.404E+02
 7.200E+02, 1.107E+02, 1.134E+02, 1.249E+02, 1.641E+02, 4.321E+01, 1.330E+02, 1.646E+02, 4.268E+01,-4.916E+01, 1.801E-01, 1.682E-02, 1.134E+02
 7.300E+02, 1.107E+02, 1.136E+02, 1.238E+02, 1.643E+02, 4.399E+01, 1.307E+02, 1.670E+02, 4.300E+01,-3.154E+01, 1.796E-01, 1.712E-02, 1.179E+02
 7.400E+02, 1.100E+02, 1.157E+02, 1.244E+02, 1.625E+02, 4.314E+01, 1.321E+02, 1.709E+02, 4.417E+01,-1.627E+00, 1.786E-01, 1.769E-02, 1.492E+02
 7.500E+02, 1.112E+02, 1.387E+02, 1.261E+02, 1.641E+02, 4.358E+01, 1.831E+02, 1.897E+02, 4.323E+01,-5.982E+01, 1.786E-01, 1.769E-02, 5.376E+01
 7.600E+02, 1.090E+02, 1.321E+02, 1.220E+02, 1.609E+02, 4.400E+01, 1.612E+02, 1.911E+02, 4.394E+01, 1.653E+01, 1.785E-01, 1.772E-02, 1.239E+02
 7.700E+02, 1.094E+02, 1.231E+02, 1.226E+02, 1.604E+02, 4.520E+01, 1.496E+02, 1.749E+02, 4.479E+01,-5.961E+01, 1.770E-01, 1.859E-02, 3.107E+01
 7.800E+02, 1.068E+02, 1.316E+02, 1.215E+02, 1.541E+02, 4.479E+01, 1.553E+02, 1.939E+02, 4.560E+01,-3.113E+01, 1.769E-01, 1.862E-02, 7.886E+01
 7.900E+02, 1.088E+02, 1.153E+02, 1.234E+02, 1.573E+02, 4.582E+01, 1.376E+02, 1.637E+02, 4.468E+01,-7.956E+01, 1.765E-01, 1.886E-02, 1.837E+01
 8.000E+02, 1.043E+02, 1.100E+02, 1.171E+02, 1.500E+02, 4.572E+01, 1.292E+02, 1.544E+02, 4.654E+01,-2.320E+01, 1.758E-01, 1.924E-02, 8.307E+01
 8.100E+02, 1.091E+02, 1.259E+02, 1.225E+02, 1.580E+02, 4.670E+01, 1.428E+02, 1.879E+02, 4.684E+01,-3.597E-01, 1.749E-01, 1.976E-02, 7.047E+01
 8.200E+02, 1.084E+02, 1.183E+02, 1.246E+02, 1.540E+02, 4.669E+01, 1.363E+02, 1.721E+02, 4.646E+01,-5.912E+01, 1.748E-01, 1.979E-02, 4.516E+00
 8.300E+02, 1.093E+02, 1.182E+02, 1.228E+02, 1.577E+02, 4.728E+01, 1.266E+02, 1.812E+02, 4.673E+01,-1.497E+00, 1.749E-01, 1.977E-02, 6.023E+00
 8.400E+02, 1.102E+02, 1.157E+02, 1.205E+02, 1.636E+02, 4.657E+01, 1.271E+02, 1.734E+02, 4.666E+01,-6.031E+01, 1.742E-01, 2.011E-02, 5.502E+00
 8.500E+02, 1.092E+02, 1.360E+02, 1.215E+02, 1.597E+02, 4.647E+01, 1.578E+02, 2.044E+02, 4.575E+01, 1.554E+01, 1.741E-01, 2.018E-02, 2.626E+00
 8.600E+02, 1.104E+02, 1.091E+02, 1.193E+02, 1.657E+02, 4.624E+01, 1.274E+02, 1.542E+02, 4.559E+01,-7.812E+01, 1.736E-01, 2.046E-02, 2.588E+00
 8.700E+02, 1.180E+02, 1.211E+02, 1.225E+02, 1.856E+02, 4.599E+01, 1.330E+02, 1.850E+02, 4.535E+01, 2.381E+02, 1.732E-01, 2.071E-02, 1.472E+02
 8.800E+02, 1.160E+02, 1.386E+02, 1.286E+02, 1.732E+02, 4.615E+01, 1.736E+02, 1.952E+02, 4.689E+01,-4.310E+01, 1.726E-01, 2.103E-02, 9.203E+00
 8.900E+02, 1.164E+02, 1.259E+02, 1.291E+02, 1.739E+02, 4.634E+01, 1.403E+02, 1.908E+02, 4.671E+01,-5.290E+01, 1.725E-01, 2.108E-02, 6.844E+01
 9.000E+02, 1.133E+02, 1.280E+02, 1.284E+02, 1.648E+02, 4.682E+01, 1.547E+02, 1.834E+02, 4.593E+01,-4.596E+01, 1.722E-01, 2.125E-02, 9.333E+00
 9.100E+02, 1.277E+02, 1.356E+02, 1.399E+02, 1.961E+02, 4.707E+01, 1.477E+02, 2.112E+02, 4.799E+01, 2.825E+02, 1.713E-01, 2.175E-02, 1.131E+02
 9.200E+02, 1.325E+02, 1.350E+02, 1.496E+02, 2.007E+02, 4.729E+01, 1.621E+02, 1.952E+02, 4.766E+01, 1.015E+02, 1.712E-01, 2.182E-02, 1.911E+02
 9.300E+02, 1.261E+02, 1.336E+02, 1.468E+02, 1.837E+02, 4.789E+01, 1.595E+02, 1.946E+02, 4.678E+01,-2.294E+01, 1.712E-01, 2.182E-02, 1.671E+02
 9.400E+02, 1.248E+02, 1.267E+02, 1.452E+02, 1.807E+02, 4.846E+01, 1.472E+02, 1.851E+02, 4.783E+01,-7.757E+01, 1.702E-01, 2.238E-02, 1.194E+02
 9.500E+02, 1.220E+02, 1.288E+02, 1.378E+02, 1.797E+02, 4.861E+01, 1.503E+02, 1.882E+02, 4.789E+01,-2.906E+01, 1.704E-01, 2.228E-02, 1.530E+02
 9.600E+02, 1.200E+02, 1.267E+02, 1.369E+02, 1.747E+02, 4.834E+01, 1.465E+02, 1.855E+02, 4.814E+01,-2.878E+01, 1.700E-01, 2.247E-02, 1.433E+02
 9.700E+02, 1.211E+02, 1.257E+02, 1.399E+02, 1.754E+02, 4.798E+01, 1.441E+02, 1.846E+02, 4.830E+01,-5.772E+01, 1.698E-01, 2.262E-02, 1.023E+02
 9.800E+02, 1.208E+02, 1.267E+02, 1.359E+02, 1.782E+02, 4.831E+01, 1.505E+02, 1.818E+02, 4.786E+01,-1.463E+01, 1.700E-01, 2.248E-02, 1.564E+02
 9.900E+02, 1.194E+02, 1.220E+02, 1.364E+02, 1.730E+02, 4.867E+01, 1.403E+02, 1.779E+02, 4.799E+01,-5.801E+01, 1.695E-01, 2.274E-02, 1.024E+02
 1.000E+03, 1.159E+02, 1.293E+02, 1.297E+02, 1.683E+02, 4.969E+01, 1.577E+02, 1.816E+02, 4.867E+01,-4.208E+01, 1.688E-01, 2.317E-02, 7.908E+01
 1.010E+03, 1.152E+02, 1.497E+02, 1.313E+02, 1.653E+02, 4.898E+01, 1.722E+02, 2.271E+02, 4.980E+01,-2.139E+01, 1.680E-01, 2.361E-02, 5.859E+01
 1.020E+03, 1.187E+02, 1.233E+02, 1.363E+02, 1.696E+02, 5.015E+01, 1.426E+02, 1.787E+02, 4.841E+01,-5.064E+01, 1.682E-01, 2.350E-02, 4.013E+01
 1.030E+03, 1.137E+02, 1.308E+02, 1.305E+02, 1.610E+02, 4.953E+01, 1.579E+02, 1.848E+02, 4.956E+01,-4.060E+01, 1.681E-01, 2.354E-02, 3.894E+01
 1.040E+03, 1.137E+02, 1.228E+02, 1.325E+02, 1.590E+02, 4.975E+01, 1.408E+02, 1.782E+02, 4.946E+01,-4.268E+01, 1.674E-01, 2.392E-02, 1.904E+01
 1.050E+03, 1.104E+02, 1.231E+02, 1.247E+02, 1.561E+02, 5.038E+01, 1.465E+02, 1.734E+02, 4.959E+01,-2.351E+01, 1.670E-01, 2.416E-02, 9.626E+00
 1.060E+03, 1.166E+02, 1.197E+02, 1.359E+02, 1.641E+02, 4.981E+01, 1.392E+02, 1.704E+02, 4.952E+01,-3.224E+01, 1.669E-01, 2.421E-02, 8.490E+00
 1.070E+03, 1.128E+02, 1.191E+02, 1.260E+02, 1.626E+02, 4.988E+01, 1.385E+02, 1.682E+02, 5.048E+01,-5.700E+01, 1.667E-01, 2.433E-02, 2.738E+00
 1.080E+03, 1.161E+02, 1.269E+02, 1.300E+02, 1.675E+02, 5.076E+01, 1.483E+02, 1.833E+02, 4.898E+01, 3.578E+01, 1.665E-01, 2.443E-02, 7.613E+00
 1.090E+03, 1.225E+02, 1.490E+02, 1.336E+02, 1.833E+02, 5.065E+01, 1.827E+02, 2.144E+02, 5.002E+01, 2.289E+01, 1.660E-01, 2.472E-02, 3.996E+00
 1.100E+03, 1.142E+02, 1.245E+02, 1.234E+02, 1.680E+02, 5.125E+01, 1.531E+02, 1.694E+02, 5.097E+01,-6.718E+01, 1.655E-01, 2.499E-02, 5.080E+00
 1.110E+03, 1.228E+02, 1.274E+02, 1.325E+02, 1.844E+02, 5.141E+01, 1.381E+02, 1.939E+02, 5.012E+01, 9.477E+01, 1.652E-01, 2.517E-02, 9.936E+00
 1.120E+03, 1.209E+02, 1.275E+02, 1.295E+02, 1.818E+02, 5.137E+01, 1.450E+02, 1.879E+02, 4.966E+01,-9.643E+01, 1.647E-01, 2.547E-02, 1.650E+01
 1.130E+03, 1.222E+02, 1.307E+02, 1.353E+02, 1.800E+02, 5.120E+01, 1.510E+02, 1.893E+02, 5.175E+01,-6.088E+00, 1.645E-01, 2.553E-02, 3.567E+00
 1.140E+03, 1.259E+02, 1.379E+02, 1.423E+02, 1.845E+02, 5.075E+01, 1.629E+02, 1.998E+02, 5.110E+01, 3.211E+01, 1.645E-01, 2.557E-02, 5.747E+01
 1.150E+03, 1.286E+02, 1.495E+02, 1.474E+02, 1.864E+02, 5.188E+01, 1.878E+02, 2.110E+02, 4.986E+01, 1.870E+01, 1.646E-01, 2.553E-02, 1.419E+02
 1.160E+03, 1.269E+02, 1.389E+02, 1.453E+02, 1.832E+02, 5.225E+01, 1.620E+02, 2.035E+02, 5.128E+01,-2.758E+01, 1.638E-01, 2.598E-02, 1.278E+02
 1.170E+03, 1.280E+02, 1.362E+02, 1.475E+02, 1.832E+02, 5.319E+01, 1.631E+02, 1.926E+02, 5.277E+01,-9.668E+01, 1.635E-01, 2.609E-02, 9.560E+01
 1.180E+03, 1.259E+02, 1.346E+02, 1.416E+02, 1.840E+02, 5.216E+01, 1.571E+02, 1.944E+02, 5.238E+01, 3.761E+01, 1.634E-01, 2.616E-02, 1.843E+02
 1.190E+03, 1.257E+02, 1.349E+02, 1.443E+02, 1.793E+02, 5.348E+01, 1.526E+02, 1.995E+02, 5.266E+01,-5.972E+01, 1.630E-01, 2.642E-02, 1.055E+02
 1.200E+03, 1.270E+02, 1.386E+02, 1.456E+02, 1.816E+02, 5.392E+01, 1.586E+02, 2.062E+02, 5.101E+01,-4.181E+01, 1.631E-01, 2.635E-02, 1.014E+02
 1.210E+03, 1.239E+02, 1.429E+02, 1.426E+02, 1.760E+02, 5.311E+01, 1.636E+02, 2.123E+02, 5.282E+01,-4.176E+00, 1.621E-01, 2.693E-02, 1.408E+02
 1.220E+03, 1.271E+02, 1.304E+02, 1.462E+02, 1.821E+02, 5.313E+01, 1.490E+02, 1.897E+02, 5.258E+01,-4.943E+01, 1.619E-01, 2.701E-02, 1.187E+02
 1.230E+03, 1.254E+02, 1.279E+02, 1.448E+02, 1.775E+02, 5.382E+01, 1.510E+02, 1.796E+02, 5.302E+01,-5.989E+01, 1.617E-01, 2.710E-02, 7.051E+01
 1.240E+03, 1.230E+02, 1.312E+02, 1.388E+02, 1.769E+02, 5.316E+01, 1.531E+02, 1.872E+02, 5.321E+01,-3.545E-01, 1.615E-01, 2.726E-02, 1.437E+02
 1.250E+03, 1.246E+02, 1.235E+02, 1.451E+02, 1.760E+02, 5.274E+01, 1.421E+02, 1.754E+02, 5.292E+01,-1.180E+02, 1.607E-01, 2.767E-02, 6.834E+01
 1.260E+03, 1.206E+02, 1.267E+02, 1.358E+02, 1.724E+02, 5.344E+01, 1.475E+02, 1.806E+02, 5.208E+01, 5.201E+00, 1.605E-01, 2.782E-02, 1.446E+02
 1.270E+03, 1.211E+02, 1.576E+02, 1.390E+02, 1.711E+02, 5.341E+01, 2.151E+02, 2.058E+02, 5.210E+01,-4.873E+01, 1.605E-01, 2.781E-02, 1.685E+01
 1.280E+03, 1.209E+02, 1.746E+02, 1.377E+02, 1.715E+02, 5.339E+01, 2.254E+02, 2.462E+02, 5.219E+01,-2.916E+01, 1.602E-01, 2.796E-02, 3.425E+01
 1.290E+03, 1.201E+02, 1.311E+02, 1.380E+02, 1.690E+02, 5.327E+01, 1.520E+02, 1.882E+02, 5.301E+01,-5.570E+01, 1.597E-01, 2.825E-02, 3.743E+01
 1.300E+03, 1.256E+02, 1.343E+02, 1.422E+02, 1.800E+02, 5.462E+01, 1.521E+02, 1.974E+02, 5.339E+01, 5.853E+01, 1.597E-01, 2.822E-02, 1.531E+02
 1.310E+03, 1.232E+02, 1.393E+02, 1.379E+02, 1.768E+02, 5.472E+01, 1.526E+02, 2.117E+02, 5.376E+01, 4.464E+00, 1.591E-01, 2.856E-02, 1.410E+02
