s,C,C,C,C,C,C,C,C,Pa,mol/mol,mol/mol,kW
Time,"West_All_TCs","East_All_TCs","West_Bottom_TCs","West_Middle_TCs","West_Upper_TCs","East_Bottom_TCs","East_Middle_TCs","East_Upper_TCs","Pressure","O2","CO2","HRR"
-6.000E+01, 2.300E+01, 2.300E+01, 2.300E+01, 2.300E+01, 2.300E+01, 2.300E+01, 2.300E+01, 2.300E+01, 0.000E+00, 2.095E-01, 3.901E-04, 0.000E+00
-4.998E+01, 2.300E+01, 2.300E+01, 2.300E+01, 2.300E+01, 2.300E+01, 2.300E+01, 2.300E+01, 2.300E+01,-1.136E-03, 2.095E-01, 3.901E-04, 0.000E+00
-3.996E+01, 2.300E+01, 2.300E+01, 2.300E+01, 2.300E+01, 2.300E+01, 2.300E+01, 2.300E+01, 2.300E+01,-3.191E-03, 2.095E-01, 3.901E-04, 0.000E+00
-2.994E+01, 2.300E+01, 2.300E+01, 2.300E+01, 2.300E+01, 2.300E+01, 2.300E+01, 2.300E+01, 2.300E+01, 5.837E-02, 2.095E-01, 3.901E-04, 0.000E+00
-1.992E+01, 2.300E+01, 2.300E+01, 2.300E+01, 2.300E+01, 2.300E+01, 2.300E+01, 2.300E+01, 2.300E+01,-4.269E-02, 2.095E-01, 3.901E-04, 0.000E+00
-9.896E+00, 2.300E+01, 2.300E+01, 2.300E+01, 2.300E+01, 2.300E+01, 2.300E+01, 2.300E+01, 2.300E+01, 5.383E-02, 2.095E-01, 3.901E-04, 0.000E+00
 1.301E-02, 2.300E+01, 2.300E+01, 2.300E+01, 2.300E+01, 2.300E+01, 2.300E+01, 2.300E+01, 2.300E+01, 1.207E-02, 2.095E-01, 3.901E-04, 1.768E-04
 1.000E+01, 2.388E+01, 2.429E+01, 2.350E+01, 2.317E+01, 2.497E+01, 2.382E+01, 2.321E+01, 2.584E+01, 1.534E+01, 2.093E-01, 5.232E-04, 3.373E+01
 2.002E+01, 2.724E+01, 2.842E+01, 2.470E+01, 2.491E+01, 3.210E+01, 2.585E+01, 2.509E+01, 3.432E+01, 8.423E+01, 2.085E-01, 9.688E-04, 9.924E+01
 3.001E+01, 3.537E+01, 3.671E+01, 2.619E+01, 3.187E+01, 4.806E+01, 2.854E+01, 3.189E+01, 4.970E+01, 1.998E+02, 2.071E-01, 1.771E-03, 1.661E+02
 4.000E+01, 4.755E+01, 4.881E+01, 2.925E+01, 4.614E+01, 6.727E+01, 3.169E+01, 4.551E+01, 6.923E+01, 2.644E+02, 2.050E-01, 2.941E-03, 1.994E+02
 5.001E+01, 5.904E+01, 6.097E+01, 3.424E+01, 6.218E+01, 8.069E+01, 3.632E+01, 6.278E+01, 8.382E+01, 2.216E+02, 2.032E-01, 3.948E-03, 1.998E+02
 6.001E+01, 7.071E+01, 7.166E+01, 4.060E+01, 7.973E+01, 9.181E+01, 4.461E+01, 7.545E+01, 9.494E+01, 1.785E+02, 2.018E-01, 4.722E-03, 1.997E+02
 7.001E+01, 8.212E+01, 8.129E+01, 5.196E+01, 9.147E+01, 1.029E+02, 5.498E+01, 8.535E+01, 1.035E+02, 1.398E+02, 2.006E-01, 5.380E-03, 2.002E+02
 8.000E+01, 9.027E+01, 9.153E+01, 6.294E+01, 9.737E+01, 1.105E+02, 6.476E+01, 9.623E+01, 1.136E+02, 1.082E+02, 1.990E-01, 6.263E-03, 2.001E+02
 9.000E+01, 9.745E+01, 1.000E+02, 7.310E+01, 1.043E+02, 1.149E+02, 7.486E+01, 1.051E+02, 1.202E+02, 8.253E+01, 1.981E-01, 6.788E-03, 1.997E+02
 1.000E+02, 1.043E+02, 1.069E+02, 8.066E+01, 1.098E+02, 1.224E+02, 8.370E+01, 1.106E+02, 1.265E+02, 6.067E+01, 1.967E-01, 7.550E-03, 1.996E+02
 1.100E+02, 1.116E+02, 1.124E+02, 9.078E+01, 1.172E+02, 1.268E+02, 9.012E+01, 1.161E+02, 1.308E+02, 4.747E+01, 1.952E-01, 8.415E-03, 1.997E+02
 1.200E+02, 1.166E+02, 1.170E+02, 9.595E+01, 1.217E+02, 1.321E+02, 9.675E+01, 1.201E+02, 1.340E+02, 3.580E+01, 1.943E-01, 8.890E-03, 1.997E+02
 1.300E+02, 1.188E+02, 1.212E+02, 9.851E+01, 1.230E+02, 1.348E+02, 1.026E+02, 1.236E+02, 1.373E+02, 2.860E+01, 1.929E-01, 9.670E-03, 2.004E+02
 1.400E+02, 1.236E+02, 1.241E+02, 1.042E+02, 1.279E+02, 1.387E+02, 1.046E+02, 1.257E+02, 1.422E+02, 2.318E+01, 1.914E-01, 1.054E-02, 1.993E+02
 1.500E+02, 1.259E+02, 1.275E+02, 1.076E+02, 1.295E+02, 1.406E+02, 1.078E+02, 1.292E+02, 1.456E+02, 1.875E+01, 1.900E-01, 1.130E-02, 2.001E+02
 1.600E+02, 1.278E+02, 1.305E+02, 1.074E+02, 1.321E+02, 1.437E+02, 1.108E+02, 1.335E+02, 1.473E+02, 1.786E+01, 1.886E-01, 1.211E-02, 1.999E+02
 1.700E+02, 1.322E+02, 1.311E+02, 1.105E+02, 1.374E+02, 1.486E+02, 1.113E+02, 1.336E+02, 1.484E+02, 1.599E+01, 1.875E-01, 1.272E-02, 2.003E+02
 1.800E+02, 1.313E+02, 1.331E+02, 1.135E+02, 1.346E+02, 1.458E+02, 1.128E+02, 1.369E+02, 1.496E+02, 1.563E+01, 1.855E-01, 1.384E-02, 1.997E+02
 1.900E+02, 1.330E+02, 1.342E+02, 1.126E+02, 1.380E+02, 1.483E+02, 1.150E+02, 1.384E+02, 1.492E+02, 1.487E+01, 1.848E-01, 1.419E-02, 1.996E+02
 2.000E+02, 1.343E+02, 1.348E+02, 1.138E+02, 1.372E+02, 1.519E+02, 1.157E+02, 1.390E+02, 1.496E+02, 1.494E+01, 1.832E-01, 1.513E-02, 1.997E+02
 2.100E+02, 1.359E+02, 1.356E+02, 1.167E+02, 1.374E+02, 1.536E+02, 1.169E+02, 1.402E+02, 1.497E+02, 1.566E+01, 1.814E-01, 1.613E-02, 2.004E+02
 2.200E+02, 1.361E+02, 1.360E+02, 1.160E+02, 1.390E+02, 1.534E+02, 1.176E+02, 1.376E+02, 1.529E+02, 1.437E+01, 1.798E-01, 1.701E-02, 1.996E+02
 2.300E+02, 1.364E+02, 1.365E+02, 1.186E+02, 1.400E+02, 1.507E+02, 1.169E+02, 1.395E+02, 1.530E+02, 1.404E+01, 1.783E-01, 1.782E-02, 1.996E+02
 2.400E+02, 1.391E+02, 1.362E+02, 1.180E+02, 1.426E+02, 1.568E+02, 1.191E+02, 1.382E+02, 1.514E+02, 1.587E+01, 1.770E-01, 1.860E-02, 2.004E+02
 2.500E+02, 1.395E+02, 1.376E+02, 1.187E+02, 1.444E+02, 1.554E+02, 1.189E+02, 1.402E+02, 1.537E+02, 1.350E+01, 1.755E-01, 1.939E-02, 2.000E+02
 2.600E+02, 1.397E+02, 1.379E+02, 1.197E+02, 1.448E+02, 1.545E+02, 1.182E+02, 1.424E+02, 1.530E+02, 1.410E+01, 1.741E-01, 2.017E-02, 2.000E+02
 2.700E+02, 1.390E+02, 1.388E+02, 1.184E+02, 1.435E+02, 1.550E+02, 1.207E+02, 1.413E+02, 1.545E+02, 1.372E+01, 1.723E-01, 2.119E-02, 1.999E+02
 2.800E+02, 1.395E+02, 1.412E+02, 1.213E+02, 1.441E+02, 1.532E+02, 1.190E+02, 1.459E+02, 1.586E+02, 1.345E+01, 1.703E-01, 2.232E-02, 1.993E+02
 2.900E+02, 1.409E+02, 1.397E+02, 1.187E+02, 1.464E+02, 1.575E+02, 1.204E+02, 1.404E+02, 1.583E+02, 1.501E+01, 1.691E-01, 2.298E-02, 1.997E+02
 3.000E+02, 1.406E+02, 1.411E+02, 1.221E+02, 1.453E+02, 1.545E+02, 1.212E+02, 1.443E+02, 1.579E+02, 1.426E+01, 1.676E-01, 2.383E-02, 2.001E+02
 3.100E+02, 1.413E+02, 1.399E+02, 1.195E+02, 1.470E+02, 1.576E+02, 1.204E+02, 1.422E+02, 1.572E+02, 1.495E+01, 1.663E-01, 2.457E-02, 2.001E+02
 3.200E+02, 1.417E+02, 1.417E+02, 1.231E+02, 1.485E+02, 1.534E+02, 1.217E+02, 1.450E+02, 1.582E+02, 1.320E+01, 1.648E-01, 2.539E-02, 1.987E+02
 3.300E+02, 1.429E+02, 1.403E+02, 1.206E+02, 1.495E+02, 1.586E+02, 1.212E+02, 1.425E+02, 1.571E+02, 1.477E+01, 1.632E-01, 2.626E-02, 2.002E+02
 3.400E+02, 1.421E+02, 1.428E+02, 1.226E+02, 1.477E+02, 1.560E+02, 1.224E+02, 1.460E+02, 1.599E+02, 1.364E+01, 1.612E-01, 2.742E-02, 2.000E+02
 3.500E+02, 1.429E+02, 1.426E+02, 1.215E+02, 1.504E+02, 1.569E+02, 1.230E+02, 1.442E+02, 1.606E+02, 1.502E+01, 1.598E-01, 2.820E-02, 2.000E+02
 3.600E+02, 1.430E+02, 1.437E+02, 1.254E+02, 1.487E+02, 1.549E+02, 1.235E+02, 1.465E+02, 1.612E+02, 1.379E+01, 1.580E-01, 2.917E-02, 1.991E+02
 3.700E+02, 1.429E+02, 1.413E+02, 1.239E+02, 1.487E+02, 1.561E+02, 1.226E+02, 1.438E+02, 1.575E+02, 1.420E+01, 1.571E-01, 2.972E-02, 1.995E+02
 3.800E+02, 1.428E+02, 1.423E+02, 1.239E+02, 1.449E+02, 1.595E+02, 1.236E+02, 1.454E+02, 1.579E+02, 1.385E+01, 1.553E-01, 3.072E-02, 2.013E+02
 3.900E+02, 1.449E+02, 1.425E+02, 1.247E+02, 1.489E+02, 1.611E+02, 1.237E+02, 1.464E+02, 1.574E+02, 1.397E+01, 1.541E-01, 3.137E-02, 1.991E+02
 4.000E+02, 1.447E+02, 1.429E+02, 1.227E+02, 1.515E+02, 1.598E+02, 1.249E+02, 1.464E+02, 1.575E+02, 1.555E+01, 1.527E-01, 3.212E-02, 2.007E+02
 4.100E+02, 1.441E+02, 1.431E+02, 1.254E+02, 1.506E+02, 1.564E+02, 1.236E+02, 1.460E+02, 1.598E+02, 1.478E+01, 1.510E-01, 3.313E-02, 1.994E+02
 4.200E+02, 1.456E+02, 1.427E+02, 1.230E+02, 1.524E+02, 1.614E+02, 1.242E+02, 1.454E+02, 1.586E+02, 1.544E+01, 1.494E-01, 3.397E-02, 2.001E+02
 4.300E+02, 1.463E+02, 1.441E+02, 1.260E+02, 1.520E+02, 1.608E+02, 1.248E+02, 1.484E+02, 1.591E+02, 1.389E+01, 1.481E-01, 3.473E-02, 1.992E+02
 4.400E+02, 1.461E+02, 1.452E+02, 1.245E+02, 1.516E+02, 1.622E+02, 1.272E+02, 1.481E+02, 1.602E+02, 1.448E+01, 1.462E-01, 3.577E-02, 1.999E+02
 4.500E+02, 1.447E+02, 1.454E+02, 1.265E+02, 1.497E+02, 1.579E+02, 1.253E+02, 1.496E+02, 1.611E+02, 1.506E+01, 1.451E-01, 3.641E-02, 2.003E+02
 4.600E+02, 1.458E+02, 1.448E+02, 1.244E+02, 1.519E+02, 1.612E+02, 1.256E+02, 1.469E+02, 1.619E+02, 1.420E+01, 1.433E-01, 3.741E-02, 1.971E+02
 4.700E+02, 1.466E+02, 1.457E+02, 1.277E+02, 1.523E+02, 1.598E+02, 1.259E+02, 1.493E+02, 1.617E+02, 1.516E+01, 1.419E-01, 3.820E-02, 2.016E+02
 4.800E+02, 1.459E+02, 1.447E+02, 1.252E+02, 1.525E+02, 1.600E+02, 1.251E+02, 1.475E+02, 1.616E+02, 1.311E+01, 1.398E-01, 3.939E-02, 1.972E+02
 4.900E+02, 1.456E+02, 1.456E+02, 1.267E+02, 1.499E+02, 1.601E+02, 1.271E+02, 1.469E+02, 1.628E+02, 1.638E+01, 1.383E-01, 4.018E-02, 2.031E+02
 5.000E+02, 1.466E+02, 1.449E+02, 1.273E+02, 1.508E+02, 1.615E+02, 1.248E+02, 1.457E+02, 1.641E+02, 1.431E+01, 1.369E-01, 4.097E-02, 1.920E+02
 5.100E+02, 1.468E+02, 1.465E+02, 1.250E+02, 1.509E+02, 1.644E+02, 1.284E+02, 1.498E+02, 1.614E+02, 1.945E+01, 1.354E-01, 4.183E-02, 2.030E+02
 5.200E+02, 1.446E+02, 1.445E+02, 1.255E+02, 1.460E+02, 1.623E+02, 1.282E+02, 1.467E+02, 1.587E+02, 9.953E+00, 1.344E-01, 4.235E-02, 1.843E+02
 5.300E+02, 1.456E+02, 1.453E+02, 1.263E+02, 1.485E+02, 1.620E+02, 1.310E+02, 1.478E+02, 1.571E+02, 1.455E+01, 1.338E-01, 4.273E-02, 1.903E+02
 5.400E+02, 1.423E+02, 1.419E+02, 1.228E+02, 1.476E+02, 1.565E+02, 1.283E+02, 1.441E+02, 1.532E+02,-2.556E+01, 1.329E-01, 4.314E-02, 1.299E+02
 5.500E+02, 1.397E+02, 1.425E+02, 1.221E+02, 1.426E+02, 1.542E+02, 1.270E+02, 1.425E+02, 1.578E+02, 3.775E+01, 1.315E-01, 4.397E-02, 2.072E+02
 5.600E+02, 1.392E+02, 1.433E+02, 1.243E+02, 1.433E+02, 1.502E+02, 1.243E+02, 1.450E+02, 1.605E+02,-6.762E+00, 1.300E-01, 4.474E-02, 1.465E+02
 5.700E+02, 1.380E+02, 1.379E+02, 1.238E+02, 1.422E+02, 1.481E+02, 1.245E+02, 1.406E+02, 1.487E+02,-1.297E+01, 1.304E-01, 4.450E-02, 1.246E+02
 5.800E+02, 1.333E+02, 1.331E+02, 1.187E+02, 1.368E+02, 1.444E+02, 1.213E+02, 1.369E+02, 1.410E+02,-1.664E+01, 1.307E-01, 4.429E-02, 9.498E+01
 5.900E+02, 1.279E+02, 1.290E+02, 1.150E+02, 1.296E+02, 1.391E+02, 1.178E+02, 1.305E+02, 1.388E+02,-8.132E+00, 1.302E-01, 4.454E-02, 9.770E+01
 6.000E+02, 1.271E+02, 1.296E+02, 1.162E+02, 1.289E+02, 1.361E+02, 1.200E+02, 1.283E+02, 1.406E+02, 2.228E+01, 1.305E-01, 4.425E-02, 1.144E+02
 6.100E+02, 1.234E+02, 1.514E+02, 1.147E+02, 1.251E+02, 1.303E+02, 1.723E+02, 1.456E+02, 1.364E+02,-2.827E+01, 1.312E-01, 4.399E-02, 4.250E+00
 6.200E+02, 1.203E+02, 1.251E+02, 1.126E+02, 1.209E+02, 1.274E+02, 1.197E+02, 1.245E+02, 1.312E+02,-2.121E+00, 1.315E-01, 4.368E-02, 4.084E+01
 6.300E+02, 1.164E+02, 1.198E+02, 1.081E+02, 1.188E+02, 1.223E+02, 1.137E+02, 1.195E+02, 1.262E+02, 1.985E-01, 1.325E-01, 4.312E-02, 2.548E+00
 6.400E+02, 1.150E+02, 1.153E+02, 1.088E+02, 1.176E+02, 1.185E+02, 1.040E+02, 1.151E+02, 1.269E+02, 2.875E+00, 1.328E-01, 4.282E-02, 1.006E+00
 6.500E+02, 1.118E+02, 1.200E+02, 1.022E+02, 1.146E+02, 1.185E+02, 1.203E+02, 1.189E+02, 1.209E+02,-7.913E+00, 1.324E-01, 4.308E-02, 8.770E-01
 6.600E+02, 1.088E+02, 1.164E+02, 1.021E+02, 1.109E+02, 1.134E+02, 1.129E+02, 1.169E+02, 1.193E+02,-4.033E+00, 1.329E-01, 4.262E-02, 3.402E-01
 6.700E+02, 1.077E+02, 1.067E+02, 1.034E+02, 1.085E+02, 1.112E+02, 9.770E+01, 1.075E+02, 1.150E+02, 3.477E+00, 1.328E-01, 4.275E-02, 0.000E+00
 6.800E+02, 1.036E+02, 1.032E+02, 9.504E+01, 1.070E+02, 1.086E+02, 9.494E+01, 1.037E+02, 1.109E+02, 7.196E-01, 1.330E-01, 4.258E-02, 0.000E+00
 6.900E+02, 1.026E+02, 1.007E+02, 9.801E+01, 1.037E+02, 1.060E+02, 9.253E+01, 1.013E+02, 1.083E+02, 1.910E+00, 1.332E-01, 4.248E-02, 0.000E+00
 7.000E+02, 9.939E+01, 9.871E+01, 9.203E+01, 1.020E+02, 1.041E+02, 8.831E+01, 1.003E+02, 1.075E+02, 3.221E+00, 1.330E-01, 4.255E-02, 0.000E+00
 7.100E+02, 9.845E+01, 9.702E+01, 9.288E+01, 9.977E+01, 1.027E+02, 8.825E+01, 9.787E+01, 1.049E+02, 3.621E+00, 1.326E-01, 4.262E-02, 0.000E+00
 7.200E+02, 9.685E+01, 9.444E+01, 9.124E+01, 9.867E+01, 1.006E+02, 8.654E+01, 9.487E+01, 1.019E+02, 3.596E+00, 1.329E-01, 4.243E-02, 0.000E+00
 7.300E+02, 9.408E+01, 9.257E+01, 8.695E+01, 9.684E+01, 9.847E+01, 8.450E+01, 9.283E+01, 1.004E+02, 3.107E+00, 1.327E-01, 4.239E-02, 0.000E+00
 7.400E+02, 9.220E+01, 9.104E+01, 8.598E+01, 9.410E+01, 9.651E+01, 8.370E+01, 9.092E+01, 9.848E+01, 3.445E+00, 1.329E-01, 4.237E-02, 0.000E+00
 7.500E+02, 9.124E+01, 8.994E+01, 8.496E+01, 9.270E+01, 9.606E+01, 8.287E+01, 8.964E+01, 9.731E+01, 4.273E+00, 1.327E-01, 4.234E-02, 0.000E+00
 7.600E+02, 8.981E+01, 8.848E+01, 8.517E+01, 9.101E+01, 9.324E+01, 8.127E+01, 8.843E+01, 9.576E+01, 4.327E+00, 1.326E-01, 4.220E-02, 0.000E+00
 7.700E+02, 8.748E+01, 8.598E+01, 8.132E+01, 8.994E+01, 9.117E+01, 7.903E+01, 8.601E+01, 9.291E+01, 4.538E+00, 1.325E-01, 4.212E-02, 0.000E+00
 7.800E+02, 8.569E+01, 8.552E+01, 7.976E+01, 8.778E+01, 8.952E+01, 7.910E+01, 8.546E+01, 9.200E+01, 5.407E+00, 1.327E-01, 4.207E-02, 0.000E+00
 7.900E+02, 8.541E+01, 8.402E+01, 8.004E+01, 8.711E+01, 8.908E+01, 7.740E+01, 8.415E+01, 9.050E+01, 4.105E+00, 1.326E-01, 4.213E-02, 0.000E+00
 8.000E+02, 8.455E+01, 8.253E+01, 7.977E+01, 8.624E+01, 8.764E+01, 7.599E+01, 8.274E+01, 8.886E+01, 3.605E+00, 1.324E-01, 4.206E-02, 0.000E+00
