s,C,C,C,C,C,C,C,C,Pa,mol/mol,mol/mol,kW
Time,"West_All_TCs","East_All_TCs","West_Bottom_TCs","West_Middle_TCs","West_Upper_TCs","East_Bottom_TCs","East_Middle_TCs","East_Upper_TCs","Pressure","O2","CO2","HRR"
-6.000E+01, 3.100E+01, 3.100E+01, 3.100E+01, 3.100E+01, 3.100E+01, 3.100E+01, 3.100E+01, 3.100E+01,-9.418E-06, 2.095E-01, 3.901E-04, 0.000E+00
-4.999E+01, 3.100E+01, 3.100E+01, 3.100E+01, 3.100E+01, 3.100E+01, 3.100E+01, 3.100E+01, 3.100E+01,-6.786E-04, 2.095E-01, 3.901E-04, 0.000E+00
-3.999E+01, 3.100E+01, 3.100E+01, 3.100E+01, 3.100E+01, 3.100E+01, 3.100E+01, 3.100E+01, 3.100E+01,-3.316E-05, 2.095E-01, 3.901E-04, 0.000E+00
-2.998E+01, 3.100E+01, 3.100E+01, 3.100E+01, 3.100E+01, 3.100E+01, 3.100E+01, 3.100E+01, 3.100E+01,-2.909E-05, 2.095E-01, 3.901E-04, 0.000E+00
-1.997E+01, 3.100E+01, 3.100E+01, 3.100E+01, 3.100E+01, 3.100E+01, 3.100E+01, 3.100E+01, 3.100E+01,-3.007E-05, 2.095E-01, 3.901E-04, 0.000E+00
-9.967E+00, 3.100E+01, 3.100E+01, 3.100E+01, 3.100E+01, 3.100E+01, 3.100E+01, 3.100E+01, 3.100E+01,-3.161E-05, 2.095E-01, 3.901E-04, 0.000E+00
 3.957E-02, 3.100E+01, 3.100E+01, 3.100E+01, 3.100E+01, 3.100E+01, 3.100E+01, 3.100E+01, 3.100E+01,-2.696E-05, 2.095E-01, 3.901E-04, 7.030E-04
 1.001E+01, 3.170E+01, 3.177E+01, 3.158E+01, 3.122E+01, 3.230E+01, 3.174E+01, 3.125E+01, 3.231E+01, 1.560E+01, 2.093E-01, 5.347E-04, 3.330E+01
 2.002E+01, 3.430E+01, 3.490E+01, 3.298E+01, 3.267E+01, 3.727E+01, 3.376E+01, 3.322E+01, 3.772E+01, 8.829E+01, 2.084E-01, 1.007E-03, 9.935E+01
 3.001E+01, 4.284E+01, 4.326E+01, 3.492E+01, 3.966E+01, 5.395E+01, 3.638E+01, 3.961E+01, 5.380E+01, 2.104E+02, 2.067E-01, 1.971E-03, 1.660E+02
 4.001E+01, 5.428E+01, 5.552E+01, 3.822E+01, 5.334E+01, 7.128E+01, 3.990E+01, 5.471E+01, 7.196E+01, 2.773E+02, 2.050E-01, 2.914E-03, 2.004E+02
 5.001E+01, 6.748E+01, 6.803E+01, 4.535E+01, 7.050E+01, 8.660E+01, 4.630E+01, 7.178E+01, 8.602E+01, 2.304E+02, 2.034E-01, 3.831E-03, 2.006E+02
 6.001E+01, 7.959E+01, 8.001E+01, 5.415E+01, 8.499E+01, 9.962E+01, 5.665E+01, 8.699E+01, 9.639E+01, 1.816E+02, 2.022E-01, 4.518E-03, 2.009E+02
 7.001E+01, 8.938E+01, 9.059E+01, 6.525E+01, 9.518E+01, 1.077E+02, 6.686E+01, 9.695E+01, 1.080E+02, 1.401E+02, 2.006E-01, 5.407E-03, 2.009E+02
 8.000E+01, 1.009E+02, 1.004E+02, 7.676E+01, 1.084E+02, 1.175E+02, 7.813E+01, 1.068E+02, 1.161E+02, 1.072E+02, 1.996E-01, 5.970E-03, 2.005E+02
 9.002E+01, 1.086E+02, 1.098E+02, 8.482E+01, 1.157E+02, 1.253E+02, 8.769E+01, 1.165E+02, 1.252E+02, 7.935E+01, 1.975E-01, 7.147E-03, 2.010E+02
 1.000E+02, 1.157E+02, 1.163E+02, 9.243E+01, 1.226E+02, 1.320E+02, 9.327E+01, 1.229E+02, 1.329E+02, 5.836E+01, 1.959E-01, 8.028E-03, 2.008E+02
 1.100E+02, 1.208E+02, 1.220E+02, 9.916E+01, 1.281E+02, 1.350E+02, 1.005E+02, 1.272E+02, 1.384E+02, 4.460E+01, 1.946E-01, 8.742E-03, 2.009E+02
 1.200E+02, 1.261E+02, 1.272E+02, 1.059E+02, 1.323E+02, 1.401E+02, 1.046E+02, 1.338E+02, 1.432E+02, 3.465E+01, 1.931E-01, 9.577E-03, 2.006E+02
 1.300E+02, 1.287E+02, 1.315E+02, 1.086E+02, 1.356E+02, 1.418E+02, 1.121E+02, 1.384E+02, 1.439E+02, 2.650E+01, 1.924E-01, 9.985E-03, 2.005E+02
 1.400E+02, 1.345E+02, 1.345E+02, 1.135E+02, 1.407E+02, 1.494E+02, 1.144E+02, 1.387E+02, 1.505E+02, 2.206E+01, 1.903E-01, 1.115E-02, 2.010E+02
 1.500E+02, 1.364E+02, 1.378E+02, 1.178E+02, 1.414E+02, 1.500E+02, 1.176E+02, 1.436E+02, 1.523E+02, 1.910E+01, 1.889E-01, 1.195E-02, 2.009E+02
 1.600E+02, 1.386E+02, 1.388E+02, 1.189E+02, 1.454E+02, 1.514E+02, 1.188E+02, 1.418E+02, 1.556E+02, 1.652E+01, 1.872E-01, 1.290E-02, 2.007E+02
 1.700E+02, 1.410E+02, 1.396E+02, 1.219E+02, 1.455E+02, 1.557E+02, 1.214E+02, 1.439E+02, 1.535E+02, 1.488E+01, 1.862E-01, 1.343E-02, 2.005E+02
 1.800E+02, 1.459E+02, 1.417E+02, 1.242E+02, 1.525E+02, 1.610E+02, 1.226E+02, 1.434E+02, 1.593E+02, 1.502E+01, 1.843E-01, 1.451E-02, 2.011E+02
 1.900E+02, 1.455E+02, 1.436E+02, 1.258E+02, 1.532E+02, 1.574E+02, 1.231E+02, 1.459E+02, 1.619E+02, 1.341E+01, 1.829E-01, 1.530E-02, 1.998E+02
 2.000E+02, 1.480E+02, 1.446E+02, 1.306E+02, 1.552E+02, 1.582E+02, 1.248E+02, 1.468E+02, 1.621E+02, 1.415E+01, 1.813E-01, 1.616E-02, 2.004E+02
 2.100E+02, 1.475E+02, 1.456E+02, 1.307E+02, 1.533E+02, 1.584E+02, 1.255E+02, 1.493E+02, 1.619E+02, 1.368E+01, 1.800E-01, 1.689E-02, 2.012E+02
 2.200E+02, 1.505E+02, 1.460E+02, 1.340E+02, 1.563E+02, 1.612E+02, 1.285E+02, 1.486E+02, 1.608E+02, 1.273E+01, 1.784E-01, 1.777E-02, 1.998E+02
 2.300E+02, 1.491E+02, 1.459E+02, 1.303E+02, 1.535E+02, 1.636E+02, 1.288E+02, 1.480E+02, 1.608E+02, 1.328E+01, 1.764E-01, 1.888E-02, 2.002E+02
 2.400E+02, 1.480E+02, 1.471E+02, 1.299E+02, 1.525E+02, 1.614E+02, 1.297E+02, 1.509E+02, 1.607E+02, 1.243E+01, 1.752E-01, 1.959E-02, 1.994E+02
 2.500E+02, 1.478E+02, 1.478E+02, 1.295E+02, 1.508E+02, 1.632E+02, 1.301E+02, 1.511E+02, 1.621E+02, 1.327E+01, 1.729E-01, 2.084E-02, 2.008E+02
 2.600E+02, 1.498E+02, 1.491E+02, 1.302E+02, 1.555E+02, 1.639E+02, 1.303E+02, 1.538E+02, 1.631E+02, 1.287E+01, 1.718E-01, 2.145E-02, 2.004E+02
 2.700E+02, 1.520E+02, 1.507E+02, 1.324E+02, 1.586E+02, 1.649E+02, 1.302E+02, 1.576E+02, 1.643E+02, 1.215E+01, 1.698E-01, 2.259E-02, 1.998E+02
 2.800E+02, 1.503E+02, 1.514E+02, 1.309E+02, 1.549E+02, 1.650E+02, 1.323E+02, 1.555E+02, 1.664E+02, 1.226E+01, 1.685E-01, 2.331E-02, 1.999E+02
 2.900E+02, 1.521E+02, 1.516E+02, 1.298E+02, 1.577E+02, 1.689E+02, 1.312E+02, 1.562E+02, 1.675E+02, 1.233E+01, 1.669E-01, 2.421E-02, 2.005E+02
 3.000E+02, 1.516E+02, 1.535E+02, 1.305E+02, 1.577E+02, 1.665E+02, 1.312E+02, 1.597E+02, 1.697E+02, 1.246E+01, 1.648E-01, 2.538E-02, 2.005E+02
 3.100E+02, 1.512E+02, 1.542E+02, 1.301E+02, 1.569E+02, 1.667E+02, 1.324E+02, 1.612E+02, 1.691E+02, 1.239E+01, 1.633E-01, 2.623E-02, 2.006E+02
 3.200E+02, 1.501E+02, 1.547E+02, 1.306E+02, 1.536E+02, 1.662E+02, 1.330E+02, 1.622E+02, 1.689E+02, 1.295E+01, 1.613E-01, 2.737E-02, 2.001E+02
 3.300E+02, 1.503E+02, 1.542E+02, 1.301E+02, 1.538E+02, 1.670E+02, 1.349E+02, 1.624E+02, 1.654E+02, 1.294E+01, 1.603E-01, 2.790E-02, 2.014E+02
 3.400E+02, 1.511E+02, 1.549E+02, 1.307E+02, 1.531E+02, 1.693E+02, 1.344E+02, 1.634E+02, 1.670E+02, 1.301E+01, 1.584E-01, 2.895E-02, 2.001E+02
 3.500E+02, 1.513E+02, 1.538E+02, 1.318E+02, 1.537E+02, 1.685E+02, 1.341E+02, 1.610E+02, 1.663E+02, 1.256E+01, 1.570E-01, 2.976E-02, 2.002E+02
 3.600E+02, 1.524E+02, 1.557E+02, 1.323E+02, 1.537E+02, 1.711E+02, 1.377E+02, 1.626E+02, 1.668E+02, 1.292E+01, 1.556E-01, 3.052E-02, 1.994E+02
 3.700E+02, 1.501E+02, 1.538E+02, 1.317E+02, 1.531E+02, 1.654E+02, 1.375E+02, 1.583E+02, 1.656E+02, 1.315E+01, 1.539E-01, 3.147E-02, 1.995E+02
 3.800E+02, 1.496E+02, 1.550E+02, 1.324E+02, 1.530E+02, 1.633E+02, 1.351E+02, 1.580E+02, 1.718E+02, 1.307E+01, 1.516E-01, 3.278E-02, 1.993E+02
 3.900E+02, 1.514E+02, 1.681E+02, 1.354E+02, 1.550E+02, 1.639E+02, 1.408E+02, 1.762E+02, 1.874E+02, 1.284E+01, 1.494E-01, 3.399E-02, 2.000E+02
 4.000E+02, 1.554E+02, 1.590E+02, 1.395E+02, 1.611E+02, 1.655E+02, 1.408E+02, 1.640E+02, 1.722E+02, 1.270E+01, 1.486E-01, 3.444E-02, 2.009E+02
 4.100E+02, 1.538E+02, 1.568E+02, 1.361E+02, 1.586E+02, 1.666E+02, 1.375E+02, 1.633E+02, 1.696E+02, 1.249E+01, 1.469E-01, 3.539E-02, 2.003E+02
 4.200E+02, 1.570E+02, 1.575E+02, 1.375E+02, 1.634E+02, 1.701E+02, 1.353E+02, 1.626E+02, 1.744E+02, 1.261E+01, 1.446E-01, 3.667E-02, 2.000E+02
 4.300E+02, 1.574E+02, 1.552E+02, 1.362E+02, 1.643E+02, 1.717E+02, 1.353E+02, 1.603E+02, 1.698E+02, 1.306E+01, 1.438E-01, 3.712E-02, 2.006E+02
 4.400E+02, 1.566E+02, 1.537E+02, 1.360E+02, 1.636E+02, 1.701E+02, 1.336E+02, 1.571E+02, 1.704E+02, 1.275E+01, 1.420E-01, 3.812E-02, 2.005E+02
 4.500E+02, 1.569E+02, 1.566E+02, 1.363E+02, 1.637E+02, 1.707E+02, 1.338E+02, 1.609E+02, 1.749E+02, 1.323E+01, 1.400E-01, 3.926E-02, 1.999E+02
 4.600E+02, 1.570E+02, 1.558E+02, 1.365E+02, 1.647E+02, 1.699E+02, 1.350E+02, 1.587E+02, 1.737E+02, 1.306E+01, 1.381E-01, 4.030E-02, 2.009E+02
 4.700E+02, 1.575E+02, 1.550E+02, 1.357E+02, 1.653E+02, 1.716E+02, 1.346E+02, 1.586E+02, 1.719E+02, 1.343E+01, 1.372E-01, 4.081E-02, 1.998E+02
 4.800E+02, 1.576E+02, 1.538E+02, 1.362E+02, 1.633E+02, 1.733E+02, 1.338E+02, 1.566E+02, 1.711E+02, 1.349E+01, 1.358E-01, 4.158E-02, 1.998E+02
 4.900E+02, 1.586E+02, 1.534E+02, 1.417E+02, 1.606E+02, 1.734E+02, 1.345E+02, 1.569E+02, 1.687E+02, 1.314E+01, 1.344E-01, 4.235E-02, 1.974E+02
 5.000E+02, 1.581E+02, 1.535E+02, 1.398E+02, 1.641E+02, 1.703E+02, 1.342E+02, 1.585E+02, 1.678E+02, 1.076E+01, 1.329E-01, 4.320E-02, 1.870E+02
 5.100E+02, 1.558E+02, 1.541E+02, 1.380E+02, 1.601E+02, 1.693E+02, 1.344E+02, 1.608E+02, 1.673E+02, 1.007E+01, 1.309E-01, 4.431E-02, 1.809E+02
 5.200E+02, 1.543E+02, 1.513E+02, 1.374E+02, 1.605E+02, 1.649E+02, 1.302E+02, 1.566E+02, 1.670E+02,-8.129E+00, 1.293E-01, 4.516E-02, 1.461E+02
 5.300E+02, 1.484E+02, 1.505E+02, 1.325E+02, 1.535E+02, 1.593E+02, 1.319E+02, 1.554E+02, 1.641E+02, 7.261E+00, 1.289E-01, 4.540E-02, 1.752E+02
 5.400E+02, 1.468E+02, 1.464E+02, 1.312E+02, 1.513E+02, 1.579E+02, 1.283E+02, 1.508E+02, 1.601E+02,-3.132E+00, 1.284E-01, 4.562E-02, 1.432E+02
 5.500E+02, 1.443E+02, 1.447E+02, 1.272E+02, 1.493E+02, 1.563E+02, 1.289E+02, 1.501E+02, 1.551E+02, 3.696E+00, 1.280E-01, 4.583E-02, 1.428E+02
 5.600E+02, 1.428E+02, 1.423E+02, 1.275E+02, 1.468E+02, 1.540E+02, 1.255E+02, 1.468E+02, 1.544E+02,-1.794E+01, 1.276E-01, 4.607E-02, 1.150E+02
 5.700E+02, 1.417E+02, 1.431E+02, 1.263E+02, 1.458E+02, 1.529E+02, 1.296E+02, 1.476E+02, 1.522E+02, 2.437E+01, 1.269E-01, 4.641E-02, 1.713E+02
 5.800E+02, 1.418E+02, 1.427E+02, 1.254E+02, 1.441E+02, 1.560E+02, 1.300E+02, 1.446E+02, 1.536E+02, 2.217E+00, 1.264E-01, 4.664E-02, 1.406E+02
 5.900E+02, 1.383E+02, 1.424E+02, 1.220E+02, 1.421E+02, 1.509E+02, 1.246E+02, 1.482E+02, 1.543E+02,-2.251E+01, 1.262E-01, 4.675E-02, 9.069E+01
 6.000E+02, 1.351E+02, 1.369E+02, 1.196E+02, 1.395E+02, 1.462E+02, 1.207E+02, 1.409E+02, 1.489E+02, 1.049E+00, 1.265E-01, 4.648E-02, 1.078E+02
 6.100E+02, 1.302E+02, 1.334E+02, 1.173E+02, 1.328E+02, 1.406E+02, 1.207E+02, 1.353E+02, 1.440E+02,-8.952E+00, 1.274E-01, 4.592E-02, 6.192E+01
 6.200E+02, 1.277E+02, 1.306E+02, 1.169E+02, 1.309E+02, 1.352E+02, 1.211E+02, 1.314E+02, 1.393E+02,-2.055E+01, 1.296E-01, 4.464E-02, 4.936E+00
 6.300E+02, 1.234E+02, 1.238E+02, 1.142E+02, 1.257E+02, 1.302E+02, 1.122E+02, 1.256E+02, 1.335E+02,-4.326E-01, 1.299E-01, 4.435E-02, 0.000E+00
 6.400E+02, 1.246E+02, 1.204E+02, 1.183E+02, 1.261E+02, 1.294E+02, 1.116E+02, 1.211E+02, 1.286E+02,-4.679E+00, 1.289E-01, 4.491E-02, 0.000E+00
 6.500E+02, 1.191E+02, 1.196E+02, 1.112E+02, 1.220E+02, 1.241E+02, 1.157E+02, 1.190E+02, 1.240E+02,-7.232E+00, 1.300E-01, 4.434E-02, 6.477E-01
 6.600E+02, 1.138E+02, 1.165E+02, 1.070E+02, 1.164E+02, 1.180E+02, 1.132E+02, 1.164E+02, 1.199E+02,-1.380E+00, 1.313E-01, 4.360E-02, 0.000E+00
 6.700E+02, 1.127E+02, 1.251E+02, 1.084E+02, 1.139E+02, 1.158E+02, 1.302E+02, 1.241E+02, 1.211E+02, 4.480E-01, 1.303E-01, 4.395E-02, 0.000E+00
 6.800E+02, 1.083E+02, 1.083E+02, 1.032E+02, 1.096E+02, 1.119E+02, 1.029E+02, 1.085E+02, 1.135E+02, 5.428E-02, 1.305E-01, 4.371E-02, 0.000E+00
 6.900E+02, 1.064E+02, 1.040E+02, 1.022E+02, 1.078E+02, 1.092E+02, 9.757E+01, 1.042E+02, 1.102E+02, 4.804E-01, 1.310E-01, 4.350E-02, 0.000E+00
 7.001E+02, 1.048E+02, 1.015E+02, 1.014E+02, 1.056E+02, 1.073E+02, 9.506E+01, 1.018E+02, 1.078E+02, 8.300E-01, 1.313E-01, 4.328E-02, 0.000E+00
 7.100E+02, 1.015E+02, 1.037E+02, 9.674E+01, 1.028E+02, 1.049E+02, 1.012E+02, 1.029E+02, 1.070E+02, 2.030E+00, 1.310E-01, 4.341E-02, 0.000E+00
 7.200E+02, 9.857E+01, 9.733E+01, 9.289E+01, 1.006E+02, 1.022E+02, 9.050E+01, 9.852E+01, 1.030E+02, 3.709E+00, 1.312E-01, 4.328E-02, 0.000E+00
 7.300E+02, 9.797E+01, 9.712E+01, 9.354E+01, 9.893E+01, 1.014E+02, 9.198E+01, 9.822E+01, 1.012E+02, 3.395E+00, 1.310E-01, 4.320E-02, 0.000E+00
 7.400E+02, 9.582E+01, 9.443E+01, 9.078E+01, 9.779E+01, 9.887E+01, 8.900E+01, 9.565E+01, 9.863E+01, 3.330E+00, 1.311E-01, 4.318E-02, 0.000E+00
 7.500E+02, 9.426E+01, 9.303E+01, 9.006E+01, 9.563E+01, 9.708E+01, 8.784E+01, 9.382E+01, 9.742E+01, 4.802E+00, 1.313E-01, 4.311E-02, 0.000E+00
 7.600E+02, 9.234E+01, 9.135E+01, 8.754E+01, 9.383E+01, 9.564E+01, 8.584E+01, 9.250E+01, 9.569E+01, 4.208E+00, 1.312E-01, 4.300E-02, 0.000E+00
 7.700E+02, 9.114E+01, 8.922E+01, 8.660E+01, 9.268E+01, 9.415E+01, 8.487E+01, 8.851E+01, 9.427E+01, 4.999E+00, 1.313E-01, 4.293E-02, 0.000E+00
 7.800E+02, 8.997E+01, 8.797E+01, 8.634E+01, 9.128E+01, 9.228E+01, 8.365E+01, 8.766E+01, 9.260E+01, 4.349E+00, 1.309E-01, 4.279E-02, 0.000E+00
 7.900E+02, 8.839E+01, 8.646E+01, 8.486E+01, 8.937E+01, 9.093E+01, 8.158E+01, 8.638E+01, 9.143E+01, 4.965E+00, 1.312E-01, 4.274E-02, 0.000E+00
 8.000E+02, 8.793E+01, 8.662E+01, 8.556E+01, 8.836E+01, 8.985E+01, 8.183E+01, 8.681E+01, 9.124E+01, 4.349E+00, 1.311E-01, 4.268E-02, 0.000E+00
 8.100E+02, 8.593E+01, 8.458E+01, 8.289E+01, 8.675E+01, 8.816E+01, 8.059E+01, 8.395E+01, 8.919E+01, 3.823E+00, 1.310E-01, 4.271E-02, 0.000E+00
 8.200E+02, 8.463E+01, 8.394E+01, 8.153E+01, 8.583E+01, 8.653E+01, 8.057E+01, 8.368E+01, 8.757E+01, 3.843E+00, 1.308E-01, 4.263E-02, 0.000E+00
 8.300E+02, 8.416E+01, 8.239E+01, 8.149E+01, 8.496E+01, 8.604E+01, 7.808E+01, 8.262E+01, 8.647E+01, 3.072E+00, 1.309E-01, 4.248E-02, 0.000E+00
 8.401E+02, 8.308E+01, 8.171E+01, 8.055E+01, 8.379E+01, 8.488E+01, 7.761E+01, 8.220E+01, 8.533E+01, 3.566E+00, 1.310E-01, 4.242E-02, 0.000E+00
 8.500E+02, 8.207E+01, 8.058E+01, 8.013E+01, 8.238E+01, 8.372E+01, 7.690E+01, 8.003E+01, 8.481E+01, 3.594E+00, 1.311E-01, 4.239E-02, 0.000E+00
 8.600E+02, 8.074E+01, 7.941E+01, 7.832E+01, 8.129E+01, 8.260E+01, 7.584E+01, 7.938E+01, 8.302E+01, 4.281E+00, 1.309E-01, 4.234E-02, 0.000E+00
 8.700E+02, 7.995E+01, 7.831E+01, 7.741E+01, 8.061E+01, 8.182E+01, 7.415E+01, 7.925E+01, 8.152E+01, 4.429E+00, 1.305E-01, 4.218E-02, 0.000E+00
 8.800E+02, 7.874E+01, 7.786E+01, 7.519E+01, 8.000E+01, 8.103E+01, 7.376E+01, 7.859E+01, 8.124E+01, 4.503E+00, 1.308E-01, 4.222E-02, 0.000E+00
 8.900E+02, 7.787E+01, 7.708E+01, 7.444E+01, 7.933E+01, 7.984E+01, 7.437E+01, 7.638E+01, 8.049E+01, 4.308E+00, 1.308E-01, 4.210E-02, 0.000E+00
 9.000E+02, 7.724E+01, 7.656E+01, 7.431E+01, 7.826E+01, 7.916E+01, 7.364E+01, 7.657E+01, 7.948E+01, 2.937E+00, 1.308E-01, 4.194E-02, 0.000E+00
 9.100E+02, 7.637E+01, 7.537E+01, 7.381E+01, 7.708E+01, 7.823E+01, 7.268E+01, 7.496E+01, 7.846E+01, 4.262E+00, 1.307E-01, 4.187E-02, 0.000E+00
 9.200E+02, 7.559E+01, 7.406E+01, 7.375E+01, 7.599E+01, 7.705E+01, 7.061E+01, 7.438E+01, 7.718E+01, 4.483E+00, 1.301E-01, 4.165E-02, 0.000E+00
 9.300E+02, 7.526E+01, 7.361E+01, 7.365E+01, 7.564E+01, 7.649E+01, 6.993E+01, 7.435E+01, 7.654E+01, 3.947E+00, 1.304E-01, 4.184E-02, 0.000E+00
 9.400E+02, 7.407E+01, 7.332E+01, 7.182E+01, 7.480E+01, 7.559E+01, 7.054E+01, 7.344E+01, 7.597E+01, 4.267E+00, 1.309E-01, 4.177E-02, 0.000E+00
 9.501E+02, 7.309E+01, 7.182E+01, 7.064E+01, 7.387E+01, 7.477E+01, 6.987E+01, 7.133E+01, 7.427E+01, 4.330E+00, 1.309E-01, 4.166E-02, 0.000E+00
 9.600E+02, 7.251E+01, 7.151E+01, 7.073E+01, 7.292E+01, 7.387E+01, 6.882E+01, 7.142E+01, 7.428E+01, 4.842E+00, 1.302E-01, 4.145E-02, 0.000E+00
 9.700E+02, 7.167E+01, 7.114E+01, 6.977E+01, 7.239E+01, 7.285E+01, 6.825E+01, 7.129E+01, 7.388E+01, 4.081E+00, 1.305E-01, 4.158E-02, 0.000E+00
 9.800E+02, 7.138E+01, 7.073E+01, 6.945E+01, 7.211E+01, 7.256E+01, 6.827E+01, 7.083E+01, 7.308E+01, 4.109E+00, 1.306E-01, 4.158E-02, 0.000E+00
 9.900E+02, 7.036E+01, 6.998E+01, 6.774E+01, 7.153E+01, 7.181E+01, 6.835E+01, 6.917E+01, 7.243E+01, 4.312E+00, 1.305E-01, 4.137E-02, 0.000E+00
 1.000E+03, 6.980E+01, 6.898E+01, 6.748E+01, 7.080E+01, 7.112E+01, 6.730E+01, 6.825E+01, 7.140E+01, 4.545E+00, 1.302E-01, 4.129E-02, 0.000E+00
