s,C,C,C,C,C,C,C,C,Pa,mol/mol,mol/mol,kW
Time,"West_All_TCs","East_All_TCs","West_Bottom_TCs","West_Middle_TCs","West_Upper_TCs","East_Bottom_TCs","East_Middle_TCs","East_Upper_TCs","Pressure","O2","CO2","HRR"
-6.000E+01, 3.400E+01, 3.400E+01, 3.400E+01, 3.400E+01, 3.400E+01, 3.400E+01, 3.400E+01, 3.400E+01,-9.314E-06, 2.095E-01, 3.901E-04, 0.000E+00
-4.998E+01, 3.400E+01, 3.400E+01, 3.400E+01, 3.400E+01, 3.400E+01, 3.400E+01, 3.400E+01, 3.400E+01,-5.472E-03, 2.095E-01, 3.901E-04, 0.000E+00
-3.996E+01, 3.400E+01, 3.400E+01, 3.400E+01, 3.400E+01, 3.400E+01, 3.400E+01, 3.400E+01, 3.400E+01,-5.502E-03, 2.095E-01, 3.901E-04, 0.000E+00
-2.994E+01, 3.400E+01, 3.400E+01, 3.400E+01, 3.400E+01, 3.400E+01, 3.400E+01, 3.400E+01, 3.400E+01,-5.226E-03, 2.095E-01, 3.901E-04, 0.000E+00
-1.992E+01, 3.400E+01, 3.400E+01, 3.400E+01, 3.400E+01, 3.400E+01, 3.400E+01, 3.400E+01, 3.400E+01,-5.554E-03, 2.095E-01, 3.901E-04, 0.000E+00
-9.896E+00, 3.400E+01, 3.400E+01, 3.400E+01, 3.400E+01, 3.400E+01, 3.400E+01, 3.400E+01, 3.400E+01,-5.218E-03, 2.095E-01, 3.901E-04, 0.000E+00
 1.301E-02, 3.400E+01, 3.400E+01, 3.400E+01, 3.400E+01, 3.400E+01, 3.400E+01, 3.400E+01, 3.400E+01,-5.617E-03, 2.095E-01, 3.901E-04, 1.760E-04
 1.001E+01, 3.500E+01, 3.529E+01, 3.415E+01, 3.683E+01, 3.401E+01, 3.417E+01, 3.768E+01, 3.401E+01, 1.361E+01, 2.095E-01, 3.901E-04, 3.147E+01
 2.002E+01, 4.102E+01, 4.272E+01, 3.471E+01, 5.423E+01, 3.411E+01, 3.492E+01, 5.920E+01, 3.405E+01, 7.992E+01, 2.095E-01, 3.901E-04, 9.949E+01
 3.002E+01, 4.964E+01, 5.032E+01, 3.581E+01, 7.856E+01, 3.454E+01, 3.586E+01, 8.105E+01, 3.406E+01, 1.513E+02, 2.095E-01, 3.901E-04, 1.654E+02
 4.000E+01, 6.144E+01, 6.301E+01, 3.721E+01, 1.121E+02, 3.502E+01, 3.724E+01, 1.177E+02, 3.406E+01, 1.527E+02, 2.095E-01, 3.923E-04, 1.985E+02
 5.002E+01, 7.022E+01, 7.338E+01, 3.874E+01, 1.364E+02, 3.554E+01, 3.913E+01, 1.464E+02, 3.463E+01, 8.749E+01, 2.094E-01, 4.904E-04, 1.985E+02
 6.001E+01, 7.808E+01, 7.924E+01, 4.097E+01, 1.571E+02, 3.616E+01, 4.132E+01, 1.609E+02, 3.552E+01, 5.557E+01, 2.091E-01, 6.273E-04, 1.991E+02
 7.001E+01, 8.360E+01, 8.488E+01, 4.332E+01, 1.711E+02, 3.636E+01, 4.375E+01, 1.745E+02, 3.637E+01, 4.057E+01, 2.088E-01, 8.257E-04, 1.998E+02
 8.001E+01, 8.767E+01, 8.824E+01, 4.590E+01, 1.801E+02, 3.703E+01, 4.651E+01, 1.813E+02, 3.693E+01, 3.473E+01, 2.084E-01, 1.008E-03, 2.010E+02
 9.001E+01, 9.157E+01, 9.106E+01, 4.913E+01, 1.880E+02, 3.757E+01, 4.893E+01, 1.872E+02, 3.701E+01, 3.039E+01, 2.081E-01, 1.197E-03, 1.989E+02
 1.000E+02, 9.513E+01, 9.481E+01, 5.176E+01, 1.954E+02, 3.824E+01, 5.211E+01, 1.951E+02, 3.723E+01, 2.661E+01, 2.078E-01, 1.353E-03, 1.981E+02
 1.100E+02, 9.631E+01, 9.524E+01, 5.473E+01, 1.956E+02, 3.856E+01, 5.518E+01, 1.928E+02, 3.769E+01, 2.275E+01, 2.075E-01, 1.547E-03, 1.969E+02
 1.200E+02, 9.833E+01, 9.800E+01, 5.752E+01, 1.993E+02, 3.813E+01, 5.794E+01, 1.984E+02, 3.770E+01, 2.430E+01, 2.073E-01, 1.626E-03, 2.013E+02
 1.300E+02, 1.001E+02, 1.001E+02, 6.048E+01, 2.013E+02, 3.863E+01, 6.067E+01, 2.021E+02, 3.756E+01, 2.089E+01, 2.071E-01, 1.771E-03, 1.989E+02
 1.400E+02, 1.024E+02, 1.025E+02, 6.297E+01, 2.052E+02, 3.905E+01, 6.337E+01, 2.063E+02, 3.784E+01, 1.880E+01, 2.070E-01, 1.838E-03, 1.962E+02
 1.500E+02, 1.034E+02, 1.062E+02, 6.542E+01, 2.060E+02, 3.883E+01, 6.591E+01, 2.143E+02, 3.827E+01, 1.946E+01, 2.060E-01, 2.359E-03, 2.018E+02
 1.600E+02, 1.036E+02, 1.081E+02, 6.804E+01, 2.041E+02, 3.874E+01, 6.885E+01, 2.173E+02, 3.802E+01, 1.824E+01, 2.060E-01, 2.354E-03, 1.989E+02
 1.700E+02, 1.048E+02, 1.082E+02, 7.022E+01, 2.054E+02, 3.873E+01, 7.084E+01, 2.159E+02, 3.793E+01, 1.851E+01, 2.059E-01, 2.439E-03, 1.991E+02
 1.800E+02, 1.073E+02, 1.099E+02, 7.255E+01, 2.106E+02, 3.883E+01, 7.338E+01, 2.182E+02, 3.807E+01, 1.666E+01, 2.055E-01, 2.670E-03, 1.985E+02
 1.900E+02, 1.078E+02, 1.090E+02, 7.472E+01, 2.095E+02, 3.907E+01, 7.549E+01, 2.137E+02, 3.795E+01, 1.745E+01, 2.053E-01, 2.786E-03, 1.953E+02
 2.000E+02, 1.098E+02, 1.099E+02, 7.676E+01, 2.137E+02, 3.893E+01, 7.762E+01, 2.139E+02, 3.808E+01, 1.175E+01, 2.049E-01, 2.982E-03, 1.796E+02
 2.100E+02, 1.090E+02, 1.079E+02, 7.860E+01, 2.093E+02, 3.925E+01, 7.895E+01, 2.069E+02, 3.801E+01, 1.006E+01, 2.040E-01, 3.500E-03, 1.600E+02
 2.200E+02, 1.062E+02, 1.056E+02, 8.079E+01, 1.981E+02, 3.975E+01, 8.056E+01, 1.979E+02, 3.832E+01, 3.007E+00, 2.033E-01, 3.869E-03, 1.251E+02
 2.300E+02, 1.053E+02, 1.066E+02, 8.169E+01, 1.947E+02, 3.967E+01, 8.153E+01, 1.995E+02, 3.878E+01, 1.379E+01, 2.024E-01, 4.375E-03, 1.302E+02
 2.400E+02, 1.047E+02, 1.050E+02, 8.266E+01, 1.909E+02, 4.045E+01, 8.290E+01, 1.935E+02, 3.871E+01, 1.232E+00, 2.021E-01, 4.565E-03, 8.818E+01
 2.500E+02, 1.072E+02, 1.077E+02, 8.545E+01, 1.958E+02, 4.044E+01, 8.487E+01, 1.992E+02, 3.904E+01, 3.591E+01, 2.021E-01, 4.525E-03, 1.245E+02
 2.600E+02, 1.060E+02, 1.062E+02, 8.858E+01, 1.882E+02, 4.121E+01, 8.820E+01, 1.907E+02, 3.973E+01, 1.274E+01, 2.012E-01, 5.065E-03, 5.133E+01
 2.700E+02, 1.036E+02, 1.038E+02, 9.299E+01, 1.762E+02, 4.169E+01, 9.337E+01, 1.777E+02, 4.028E+01, 8.784E+00, 2.006E-01, 5.361E-03, 5.242E+00
 2.800E+02, 1.052E+02, 1.049E+02, 9.993E+01, 1.742E+02, 4.137E+01, 9.760E+01, 1.770E+02, 4.018E+01, 4.114E+01, 2.002E-01, 5.600E-03, 2.929E+00
 2.900E+02, 1.099E+02, 1.088E+02, 1.055E+02, 1.833E+02, 4.089E+01, 1.116E+02, 1.746E+02, 4.015E+01, 9.474E+01, 2.004E-01, 5.526E-03, 2.885E+01
 3.000E+02, 1.307E+02, 1.382E+02, 1.251E+02, 2.246E+02, 4.237E+01, 1.335E+02, 2.406E+02, 4.047E+01, 4.804E+02, 1.999E-01, 5.757E-03, 1.171E+02
 3.100E+02, 1.456E+02, 1.537E+02, 1.363E+02, 2.586E+02, 4.201E+01, 1.425E+02, 2.781E+02, 4.038E+01, 1.613E+02, 1.997E-01, 5.875E-03, 2.468E+02
 3.200E+02, 1.334E+02, 1.403E+02, 1.323E+02, 2.264E+02, 4.154E+01, 1.334E+02, 2.466E+02, 4.098E+01,-8.005E+01, 1.992E-01, 6.196E-03, 9.998E+01
 3.300E+02, 1.308E+02, 1.348E+02, 1.301E+02, 2.203E+02, 4.206E+01, 1.312E+02, 2.328E+02, 4.032E+01,-7.599E+00, 1.997E-01, 5.901E-03, 1.405E+02
 3.400E+02, 1.253E+02, 1.283E+02, 1.260E+02, 2.085E+02, 4.146E+01, 1.277E+02, 2.165E+02, 4.065E+01, 1.121E+01, 1.996E-01, 5.948E-03, 9.283E+01
 3.500E+02, 1.261E+02, 1.269E+02, 1.259E+02, 2.098E+02, 4.241E+01, 1.263E+02, 2.131E+02, 4.132E+01, 1.882E+01, 1.987E-01, 6.437E-03, 1.324E+02
 3.600E+02, 1.228E+02, 1.337E+02, 1.234E+02, 2.029E+02, 4.222E+01, 1.261E+02, 2.339E+02, 4.103E+01, 4.047E+01, 1.986E-01, 6.534E-03, 9.110E+01
 3.700E+02, 1.213E+02, 1.262E+02, 1.247E+02, 1.959E+02, 4.319E+01, 1.268E+02, 2.102E+02, 4.154E+01, 9.511E+00, 1.984E-01, 6.628E-03, 6.007E+01
 3.800E+02, 1.198E+02, 1.202E+02, 1.261E+02, 1.895E+02, 4.384E+01, 1.273E+02, 1.916E+02, 4.184E+01,-1.707E+00, 1.983E-01, 6.690E-03, 5.598E+00
 3.900E+02, 1.175E+02, 1.168E+02, 1.285E+02, 1.809E+02, 4.313E+01, 1.284E+02, 1.795E+02, 4.237E+01, 1.277E+00, 1.979E-01, 6.887E-03, 1.738E+00
 4.000E+02, 1.161E+02, 1.152E+02, 1.311E+02, 1.738E+02, 4.340E+01, 1.322E+02, 1.713E+02, 4.200E+01, 1.069E+01, 1.981E-01, 6.775E-03, 2.158E+00
 4.100E+02, 1.156E+02, 1.210E+02, 1.330E+02, 1.696E+02, 4.425E+01, 1.352E+02, 1.859E+02, 4.202E+01, 4.510E+01, 1.980E-01, 6.827E-03, 9.780E-01
 4.200E+02, 1.301E+02, 1.195E+02, 1.389E+02, 2.066E+02, 4.470E+01, 1.331E+02, 1.827E+02, 4.279E+01, 3.957E+01, 1.979E-01, 6.900E-03, 6.968E-01
 4.300E+02, 1.360E+02, 1.269E+02, 1.415E+02, 2.205E+02, 4.584E+01, 1.404E+02, 1.964E+02, 4.380E+01, 1.028E+02, 1.974E-01, 7.163E-03, 5.925E+00
 4.400E+02, 1.482E+02, 1.433E+02, 1.493E+02, 2.496E+02, 4.560E+01, 1.490E+02, 2.367E+02, 4.434E+01, 9.632E+01, 1.979E-01, 6.917E-03, 1.322E+02
 4.500E+02, 1.386E+02, 1.362E+02, 1.559E+02, 2.129E+02, 4.696E+01, 1.539E+02, 2.092E+02, 4.557E+01,-2.169E+01, 1.978E-01, 6.958E-03, 5.528E+00
 4.600E+02, 1.317E+02, 1.286E+02, 1.496E+02, 1.976E+02, 4.782E+01, 1.505E+02, 1.893E+02, 4.584E+01,-1.487E+01, 1.977E-01, 7.032E-03, 2.019E+00
 4.701E+02, 1.249E+02, 1.267E+02, 1.397E+02, 1.874E+02, 4.753E+01, 1.497E+02, 1.847E+02, 4.580E+01,-1.551E+01, 1.977E-01, 7.007E-03, 3.870E-01
 4.801E+02, 1.465E+02, 1.260E+02, 1.357E+02, 2.561E+02, 4.765E+01, 1.334E+02, 1.985E+02, 4.620E+01, 8.622E+01, 1.977E-01, 7.020E-03, 5.397E+01
 4.900E+02, 1.523E+02, 1.301E+02, 1.311E+02, 2.778E+02, 4.788E+01, 1.280E+02, 2.156E+02, 4.683E+01, 7.069E+00, 1.978E-01, 6.958E-03, 9.940E+01
 5.000E+02, 1.500E+02, 1.308E+02, 1.267E+02, 2.765E+02, 4.677E+01, 1.244E+02, 2.209E+02, 4.694E+01, 1.036E+01, 1.979E-01, 6.896E-03, 1.100E+02
 5.100E+02, 1.365E+02, 1.287E+02, 1.229E+02, 2.374E+02, 4.896E+01, 1.227E+02, 2.173E+02, 4.617E+01,-4.338E+00, 1.982E-01, 6.708E-03, 9.142E+01
 5.200E+02, 1.293E+02, 1.249E+02, 1.196E+02, 2.200E+02, 4.813E+01, 1.205E+02, 2.074E+02, 4.676E+01,-1.060E+01, 1.977E-01, 6.997E-03, 5.930E+01
 5.300E+02, 1.215E+02, 1.180E+02, 1.172E+02, 1.990E+02, 4.829E+01, 1.174E+02, 1.896E+02, 4.694E+01,-1.512E+01, 1.974E-01, 7.165E-03, 5.256E-01
 5.400E+02, 1.173E+02, 1.128E+02, 1.132E+02, 1.894E+02, 4.914E+01, 1.142E+02, 1.773E+02, 4.702E+01,-6.588E+00, 1.973E-01, 7.242E-03, 1.927E-03
 5.500E+02, 1.121E+02, 1.101E+02, 1.117E+02, 1.760E+02, 4.871E+01, 1.110E+02, 1.718E+02, 4.744E+01,-7.107E+00, 1.969E-01, 7.436E-03, 5.874E-08
 5.600E+02, 1.123E+02, 1.072E+02, 1.087E+02, 1.794E+02, 4.888E+01, 1.075E+02, 1.669E+02, 4.715E+01,-1.288E+00, 1.971E-01, 7.323E-03, 3.953E-10
 5.700E+02, 1.215E+02, 1.047E+02, 1.049E+02, 2.103E+02, 4.923E+01, 1.033E+02, 1.631E+02, 4.769E+01, 9.692E+00, 1.968E-01, 7.529E-03, 3.547E-02
 5.800E+02, 1.409E+02, 1.088E+02, 1.048E+02, 2.677E+02, 5.021E+01, 1.007E+02, 1.775E+02, 4.832E+01, 6.823E+01, 1.966E-01, 7.618E-03, 3.030E+01
 5.900E+02, 1.411E+02, 1.166E+02, 1.037E+02, 2.687E+02, 5.103E+01, 1.020E+02, 1.985E+02, 4.913E+01, 2.875E+01, 1.967E-01, 7.582E-03, 7.350E+01
 6.000E+02, 1.311E+02, 1.159E+02, 1.040E+02, 2.371E+02, 5.208E+01, 1.021E+02, 1.960E+02, 4.970E+01,-1.001E-01, 1.980E-01, 6.844E-03, 4.247E+01
 6.100E+02, 1.167E+02, 1.127E+02, 1.030E+02, 1.951E+02, 5.208E+01, 1.013E+02, 1.860E+02, 5.062E+01,-1.004E+01, 1.972E-01, 7.260E-03, 2.454E-07
 6.201E+02, 1.109E+02, 1.090E+02, 1.013E+02, 1.804E+02, 5.117E+01, 1.016E+02, 1.748E+02, 5.062E+01,-5.412E+00, 1.967E-01, 7.585E-03, 0.000E+00
 6.300E+02, 1.078E+02, 1.061E+02, 1.015E+02, 1.713E+02, 5.071E+01, 9.897E+01, 1.692E+02, 5.020E+01,-4.360E+00, 1.965E-01, 7.653E-03, 2.032E-02
 6.400E+02, 1.048E+02, 1.021E+02, 9.859E+01, 1.643E+02, 5.149E+01, 9.782E+01, 1.589E+02, 4.963E+01, 4.350E-01, 1.964E-01, 7.717E-03, 4.488E-08
 6.500E+02, 1.046E+02, 1.009E+02, 9.695E+01, 1.660E+02, 5.079E+01, 9.605E+01, 1.571E+02, 4.972E+01, 2.454E+00, 1.965E-01, 7.674E-03, 2.779E-08
 6.600E+02, 1.024E+02, 9.914E+01, 9.560E+01, 1.601E+02, 5.136E+01, 9.391E+01, 1.536E+02, 4.986E+01, 5.284E+00, 1.964E-01, 7.762E-03, 1.681E-07
 6.700E+02, 1.090E+02, 9.791E+01, 9.434E+01, 1.775E+02, 5.509E+01, 9.231E+01, 1.499E+02, 5.153E+01, 3.080E+01, 1.966E-01, 7.610E-03, 2.795E-05
 6.800E+02, 1.352E+02, 1.085E+02, 9.554E+01, 2.545E+02, 5.570E+01, 9.194E+01, 1.784E+02, 5.530E+01, 1.165E+02, 1.970E-01, 7.387E-03, 3.908E+01
 6.900E+02, 1.160E+02, 1.096E+02, 9.434E+01, 1.952E+02, 5.849E+01, 9.274E+01, 1.804E+02, 5.566E+01,-2.128E+00, 1.975E-01, 7.136E-03, 1.726E+00
 7.000E+02, 1.122E+02, 1.077E+02, 9.474E+01, 1.832E+02, 5.870E+01, 9.199E+01, 1.752E+02, 5.579E+01, 4.263E+00, 1.967E-01, 7.567E-03, 2.000E-06
 7.100E+02, 1.113E+02, 1.049E+02, 9.451E+01, 1.807E+02, 5.879E+01, 9.117E+01, 1.666E+02, 5.699E+01, 7.237E+00, 1.962E-01, 7.825E-03, 2.612E-06
 7.200E+02, 1.135E+02, 1.047E+02, 9.320E+01, 1.875E+02, 5.994E+01, 9.111E+01, 1.651E+02, 5.782E+01, 1.144E+01, 1.964E-01, 7.754E-03, 5.761E-06
 7.300E+02, 1.085E+02, 1.045E+02, 9.335E+01, 1.703E+02, 6.184E+01, 8.969E+01, 1.635E+02, 6.017E+01, 5.120E+00, 1.964E-01, 7.739E-03, 4.138E-05
 7.400E+02, 1.069E+02, 1.027E+02, 9.192E+01, 1.649E+02, 6.392E+01, 8.901E+01, 1.579E+02, 6.128E+01, 5.824E+00, 1.965E-01, 7.695E-03, 1.735E-05
 7.500E+02, 1.050E+02, 1.018E+02, 9.155E+01, 1.584E+02, 6.498E+01, 8.789E+01, 1.548E+02, 6.255E+01, 6.445E+00, 1.960E-01, 7.961E-03, 1.650E-05
 7.600E+02, 1.050E+02, 1.015E+02, 9.004E+01, 1.600E+02, 6.505E+01, 8.749E+01, 1.534E+02, 6.372E+01, 6.866E+00, 1.957E-01, 8.113E-03, 1.157E-06
 7.700E+02, 1.055E+02, 9.995E+01, 8.909E+01, 1.566E+02, 7.076E+01, 8.652E+01, 1.485E+02, 6.488E+01, 8.569E+00, 1.959E-01, 8.031E-03, 1.721E-04
 7.800E+02, 1.040E+02, 9.993E+01, 8.863E+01, 1.536E+02, 6.976E+01, 8.524E+01, 1.459E+02, 6.863E+01, 9.276E+00, 1.952E-01, 8.380E-03, 1.012E-05
 7.900E+02, 1.049E+02, 9.849E+01, 8.781E+01, 1.515E+02, 7.525E+01, 8.458E+01, 1.418E+02, 6.904E+01, 1.174E+01, 1.954E-01, 8.301E-03, 8.476E-05
 8.000E+02, 1.041E+02, 9.979E+01, 8.667E+01, 1.483E+02, 7.741E+01, 8.428E+01, 1.388E+02, 7.632E+01, 1.265E+01, 1.940E-01, 9.091E-03, 7.317E-04
 8.100E+02, 1.055E+02, 9.922E+01, 8.600E+01, 1.477E+02, 8.294E+01, 8.363E+01, 1.366E+02, 7.747E+01, 1.334E+01, 1.940E-01, 9.050E-03, 2.497E-04
 8.200E+02, 1.056E+02, 9.999E+01, 8.518E+01, 1.461E+02, 8.568E+01, 8.312E+01, 1.357E+02, 8.118E+01, 1.470E+01, 1.931E-01, 9.578E-03, 3.980E-04
 8.300E+02, 1.082E+02, 1.007E+02, 8.443E+01, 1.428E+02, 9.745E+01, 8.244E+01, 1.323E+02, 8.719E+01, 3.050E+01, 1.914E-01, 1.054E-02, 5.036E-03
 8.400E+02, 1.099E+02, 1.024E+02, 8.325E+01, 1.420E+02, 1.045E+02, 8.154E+01, 1.305E+02, 9.508E+01, 3.135E+01, 1.898E-01, 1.141E-02, 2.644E-03
 8.500E+02, 1.133E+02, 1.048E+02, 8.272E+01, 1.391E+02, 1.182E+02, 8.056E+01, 1.288E+02, 1.050E+02, 4.304E+01, 1.878E-01, 1.255E-02, 1.430E-02
 8.600E+02, 1.155E+02, 1.079E+02, 8.167E+01, 1.378E+02, 1.271E+02, 8.006E+01, 1.268E+02, 1.168E+02, 4.697E+01, 1.851E-01, 1.403E-02, 1.499E-02
 8.700E+02, 1.223E+02, 1.106E+02, 8.132E+01, 1.400E+02, 1.456E+02, 7.913E+01, 1.255E+02, 1.272E+02, 6.427E+01, 1.830E-01, 1.521E-02, 1.364E-01
 8.800E+02, 1.223E+02, 1.128E+02, 8.108E+01, 1.386E+02, 1.474E+02, 7.865E+01, 1.302E+02, 1.296E+02, 4.031E+01, 1.815E-01, 1.605E-02, 1.240E-02
 8.900E+02, 1.252E+02, 1.223E+02, 8.027E+01, 1.391E+02, 1.563E+02, 7.838E+01, 1.302E+02, 1.582E+02, 9.387E+01, 1.780E-01, 1.800E-02, 1.536E-02
 9.000E+02, 1.319E+02, 1.218E+02, 8.042E+01, 1.387E+02, 1.765E+02, 7.717E+01, 1.298E+02, 1.585E+02, 5.071E+01, 1.771E-01, 1.854E-02, 2.260E-02
 9.100E+02, 1.355E+02, 1.247E+02, 7.996E+01, 1.395E+02, 1.871E+02, 7.684E+01, 1.295E+02, 1.678E+02, 5.652E+01, 1.750E-01, 1.970E-02, 3.761E-02
 9.200E+02, 1.392E+02, 1.307E+02, 7.927E+01, 1.362E+02, 2.021E+02, 7.657E+01, 1.293E+02, 1.861E+02, 6.164E+01, 1.738E-01, 2.035E-02, 9.394E-02
 9.300E+02, 1.442E+02, 1.382E+02, 7.855E+01, 1.338E+02, 2.204E+02, 7.608E+01, 1.265E+02, 2.120E+02, 7.508E+01, 1.702E-01, 2.235E-02, 7.424E-02
 9.400E+02, 1.499E+02, 1.440E+02, 7.834E+01, 1.347E+02, 2.366E+02, 7.580E+01, 1.443E+02, 2.119E+02, 6.184E+01, 1.687E-01, 2.322E-02, 2.726E-01
 9.500E+02, 1.504E+02, 1.447E+02, 7.791E+01, 1.383E+02, 2.350E+02, 7.641E+01, 1.420E+02, 2.157E+02, 6.576E+01, 1.671E-01, 2.409E-02, 3.284E-01
 9.600E+02, 1.528E+02, 1.444E+02, 7.838E+01, 1.404E+02, 2.396E+02, 7.531E+01, 1.422E+02, 2.157E+02, 3.536E+01, 1.639E-01, 2.588E-02, 3.356E-01
 9.700E+02, 1.516E+02, 1.441E+02, 7.793E+01, 1.384E+02, 2.384E+02, 7.527E+01, 1.396E+02, 2.174E+02, 5.944E+01, 1.596E-01, 2.830E-02, 4.075E-01
 9.800E+02, 1.552E+02, 1.503E+02, 7.736E+01, 1.402E+02, 2.481E+02, 7.603E+01, 1.369E+02, 2.378E+02, 4.420E+01, 1.570E-01, 2.975E-02, 1.440E-01
 9.900E+02, 1.598E+02, 1.521E+02, 7.801E+01, 1.395E+02, 2.618E+02, 7.554E+01, 1.448E+02, 2.361E+02, 7.528E+01, 1.565E-01, 3.002E-02, 5.695E-01
 1.000E+03, 1.597E+02, 1.541E+02, 7.762E+01, 1.440E+02, 2.575E+02, 7.588E+01, 1.551E+02, 2.312E+02, 3.280E+01, 1.519E-01, 3.261E-02, 4.417E-01
