s,C,C,C,C,C,C,C,C,Pa,mol/mol,mol/mol,kW
Time,"West_All_TCs","East_All_TCs","West_Bottom_TCs","West_Middle_TCs","West_Upper_TCs","East_Bottom_TCs","East_Middle_TCs","East_Upper_TCs","Pressure","O2","CO2","HRR"
-6.000E+01, 4.200E+01, 4.200E+01, 4.200E+01, 4.200E+01, 4.200E+01, 4.200E+01, 4.200E+01, 4.200E+01,-9.037E-06, 2.095E-01, 3.901E-04, 0.000E+00
-4.998E+01, 4.196E+01, 4.196E+01, 4.196E+01, 4.196E+01, 4.196E+01, 4.196E+01, 4.196E+01, 4.196E+01,-6.967E+01, 2.095E-01, 3.901E-04, 0.000E+00
-3.994E+01, 4.194E+01, 4.195E+01, 4.195E+01, 4.194E+01, 4.194E+01, 4.196E+01, 4.195E+01, 4.195E+01,-7.017E+01, 2.095E-01, 3.901E-04, 0.000E+00
-2.992E+01, 4.194E+01, 4.196E+01, 4.194E+01, 4.194E+01, 4.194E+01, 4.197E+01, 4.195E+01, 4.195E+01,-7.025E+01, 2.095E-01, 3.901E-04, 0.000E+00
-1.997E+01, 4.194E+01, 4.196E+01, 4.194E+01, 4.194E+01, 4.194E+01, 4.198E+01, 4.195E+01, 4.195E+01,-7.026E+01, 2.095E-01, 3.901E-04, 0.000E+00
-9.950E+00, 4.194E+01, 4.197E+01, 4.194E+01, 4.194E+01, 4.194E+01, 4.199E+01, 4.196E+01, 4.195E+01,-7.028E+01, 2.095E-01, 3.901E-04, 0.000E+00
 2.394E-02, 4.194E+01, 4.197E+01, 4.194E+01, 4.194E+01, 4.194E+01, 4.200E+01, 4.196E+01, 4.195E+01,-7.030E+01, 2.095E-01, 3.901E-04, 2.357E-04
 1.002E+01, 4.315E+01, 4.331E+01, 4.232E+01, 4.516E+01, 4.197E+01, 4.270E+01, 4.527E+01, 4.198E+01,-3.189E+01, 2.095E-01, 3.901E-04, 3.264E+01
 2.000E+01, 4.802E+01, 4.845E+01, 4.390E+01, 5.774E+01, 4.241E+01, 4.456E+01, 5.883E+01, 4.198E+01, 2.369E+00, 2.095E-01, 3.901E-04, 9.928E+01
 3.001E+01, 5.737E+01, 5.722E+01, 4.575E+01, 8.341E+01, 4.294E+01, 4.720E+01, 8.256E+01, 4.191E+01, 3.060E+01, 2.095E-01, 3.901E-04, 1.658E+02
 4.002E+01, 7.016E+01, 6.880E+01, 5.050E+01, 1.147E+02, 4.532E+01, 5.131E+01, 1.121E+02, 4.301E+01, 3.423E+01, 2.093E-01, 5.257E-04, 1.999E+02
 5.000E+01, 8.158E+01, 8.180E+01, 5.631E+01, 1.404E+02, 4.797E+01, 5.787E+01, 1.404E+02, 4.710E+01, 1.189E+01, 2.084E-01, 1.039E-03, 2.003E+02
 6.002E+01, 9.079E+01, 9.149E+01, 6.410E+01, 1.585E+02, 4.977E+01, 6.556E+01, 1.592E+02, 4.972E+01, 1.714E+00, 2.079E-01, 1.296E-03, 2.000E+02
 7.001E+01, 9.874E+01, 9.998E+01, 7.193E+01, 1.716E+02, 5.263E+01, 7.372E+01, 1.736E+02, 5.261E+01,-2.316E+00, 2.073E-01, 1.617E-03, 1.999E+02
 8.002E+01, 1.034E+02, 1.047E+02, 7.713E+01, 1.785E+02, 5.466E+01, 8.132E+01, 1.766E+02, 5.634E+01,-1.089E+01, 2.065E-01, 2.096E-03, 2.000E+02
 9.001E+01, 1.084E+02, 1.099E+02, 8.293E+01, 1.853E+02, 5.689E+01, 8.686E+01, 1.846E+02, 5.837E+01,-2.077E+01, 2.058E-01, 2.487E-03, 2.001E+02
 1.000E+02, 1.103E+02, 1.157E+02, 8.725E+01, 1.852E+02, 5.840E+01, 9.408E+01, 1.927E+02, 6.043E+01,-2.428E+01, 2.049E-01, 2.966E-03, 2.000E+02
 1.100E+02, 1.125E+02, 1.166E+02, 9.060E+01, 1.863E+02, 6.072E+01, 9.568E+01, 1.926E+02, 6.153E+01,-2.897E+01, 2.045E-01, 3.189E-03, 2.000E+02
 1.200E+02, 1.144E+02, 1.184E+02, 9.339E+01, 1.889E+02, 6.099E+01, 9.897E+01, 1.930E+02, 6.332E+01,-3.117E+01, 2.037E-01, 3.668E-03, 2.000E+02
 1.300E+02, 1.174E+02, 1.222E+02, 9.658E+01, 1.922E+02, 6.329E+01, 1.038E+02, 1.982E+02, 6.454E+01,-3.536E+01, 2.028E-01, 4.172E-03, 2.002E+02
 1.400E+02, 1.187E+02, 1.231E+02, 9.900E+01, 1.920E+02, 6.500E+01, 1.000E+02, 2.030E+02, 6.619E+01,-3.705E+01, 2.018E-01, 4.711E-03, 2.004E+02
 1.500E+02, 1.207E+02, 1.263E+02, 1.019E+02, 1.938E+02, 6.616E+01, 1.067E+02, 2.053E+02, 6.701E+01,-4.291E+01, 2.009E-01, 5.211E-03, 1.996E+02
 1.600E+02, 1.233E+02, 1.246E+02, 1.029E+02, 1.992E+02, 6.787E+01, 1.067E+02, 2.008E+02, 6.640E+01,-4.666E+01, 2.002E-01, 5.588E-03, 2.003E+02
 1.700E+02, 1.249E+02, 1.251E+02, 1.043E+02, 2.024E+02, 6.788E+01, 1.086E+02, 1.988E+02, 6.801E+01,-4.784E+01, 1.991E-01, 6.243E-03, 1.996E+02
 1.800E+02, 1.240E+02, 1.274E+02, 1.056E+02, 1.990E+02, 6.749E+01, 1.139E+02, 2.000E+02, 6.833E+01,-4.831E+01, 1.986E-01, 6.525E-03, 2.003E+02
 1.900E+02, 1.248E+02, 1.291E+02, 1.067E+02, 1.995E+02, 6.831E+01, 1.149E+02, 2.043E+02, 6.818E+01,-4.931E+01, 1.977E-01, 6.996E-03, 1.997E+02
 2.000E+02, 1.272E+02, 1.300E+02, 1.082E+02, 2.040E+02, 6.927E+01, 1.178E+02, 2.033E+02, 6.899E+01,-4.770E+01, 1.966E-01, 7.608E-03, 2.002E+02
 2.100E+02, 1.275E+02, 1.301E+02, 1.085E+02, 2.044E+02, 6.949E+01, 1.152E+02, 2.042E+02, 7.077E+01,-5.139E+01, 1.953E-01, 8.342E-03, 1.997E+02
 2.200E+02, 1.279E+02, 1.319E+02, 1.094E+02, 2.026E+02, 7.182E+01, 1.181E+02, 2.074E+02, 7.029E+01,-4.735E+01, 1.951E-01, 8.451E-03, 1.999E+02
 2.300E+02, 1.286E+02, 1.333E+02, 1.104E+02, 2.054E+02, 6.991E+01, 1.177E+02, 2.105E+02, 7.167E+01,-5.512E+01, 1.935E-01, 9.338E-03, 1.999E+02
 2.400E+02, 1.296E+02, 1.347E+02, 1.123E+02, 2.055E+02, 7.085E+01, 1.174E+02, 2.150E+02, 7.160E+01,-4.944E+01, 1.928E-01, 9.763E-03, 2.002E+02
 2.500E+02, 1.307E+02, 1.334E+02, 1.117E+02, 2.091E+02, 7.124E+01, 1.179E+02, 2.104E+02, 7.188E+01,-5.370E+01, 1.919E-01, 1.022E-02, 2.000E+02
 2.600E+02, 1.317E+02, 1.328E+02, 1.139E+02, 2.099E+02, 7.128E+01, 1.175E+02, 2.090E+02, 7.174E+01,-5.548E+01, 1.912E-01, 1.065E-02, 2.001E+02
 2.700E+02, 1.318E+02, 1.337E+02, 1.130E+02, 2.111E+02, 7.132E+01, 1.207E+02, 2.088E+02, 7.156E+01,-4.951E+01, 1.900E-01, 1.131E-02, 2.000E+02
 2.800E+02, 1.316E+02, 1.349E+02, 1.161E+02, 2.072E+02, 7.161E+01, 1.207E+02, 2.121E+02, 7.190E+01,-5.048E+01, 1.890E-01, 1.188E-02, 2.003E+02
 2.900E+02, 1.322E+02, 1.377E+02, 1.157E+02, 2.090E+02, 7.189E+01, 1.220E+02, 2.185E+02, 7.258E+01,-5.342E+01, 1.879E-01, 1.250E-02, 1.996E+02
 3.000E+02, 1.337E+02, 1.360E+02, 1.164E+02, 2.124E+02, 7.227E+01, 1.200E+02, 2.153E+02, 7.259E+01,-5.637E+01, 1.871E-01, 1.294E-02, 2.001E+02
 3.100E+02, 1.340E+02, 1.348E+02, 1.168E+02, 2.138E+02, 7.121E+01, 1.202E+02, 2.118E+02, 7.229E+01,-5.808E+01, 1.863E-01, 1.338E-02, 1.998E+02
 3.200E+02, 1.335E+02, 1.353E+02, 1.166E+02, 2.112E+02, 7.271E+01, 1.221E+02, 2.121E+02, 7.167E+01,-5.022E+01, 1.856E-01, 1.376E-02, 2.002E+02
 3.300E+02, 1.334E+02, 1.387E+02, 1.177E+02, 2.093E+02, 7.312E+01, 1.258E+02, 2.171E+02, 7.312E+01,-4.943E+01, 1.845E-01, 1.436E-02, 2.002E+02
 3.400E+02, 1.351E+02, 1.384E+02, 1.190E+02, 2.123E+02, 7.413E+01, 1.222E+02, 2.199E+02, 7.319E+01,-5.024E+01, 1.833E-01, 1.504E-02, 2.002E+02
 3.500E+02, 1.361E+02, 1.391E+02, 1.193E+02, 2.152E+02, 7.390E+01, 1.235E+02, 2.192E+02, 7.472E+01,-5.464E+01, 1.821E-01, 1.575E-02, 1.998E+02
 3.600E+02, 1.364E+02, 1.375E+02, 1.200E+02, 2.161E+02, 7.304E+01, 1.234E+02, 2.155E+02, 7.376E+01,-5.407E+01, 1.817E-01, 1.597E-02, 2.001E+02
 3.700E+02, 1.366E+02, 1.393E+02, 1.208E+02, 2.148E+02, 7.409E+01, 1.243E+02, 2.193E+02, 7.419E+01,-5.527E+01, 1.805E-01, 1.662E-02, 2.000E+02
 3.800E+02, 1.363E+02, 1.395E+02, 1.215E+02, 2.128E+02, 7.465E+01, 1.246E+02, 2.194E+02, 7.445E+01,-5.310E+01, 1.796E-01, 1.714E-02, 1.998E+02
 3.900E+02, 1.386E+02, 1.402E+02, 1.215E+02, 2.192E+02, 7.510E+01, 1.275E+02, 2.183E+02, 7.471E+01,-5.331E+01, 1.784E-01, 1.778E-02, 1.999E+02
 4.000E+02, 1.387E+02, 1.390E+02, 1.223E+02, 2.181E+02, 7.556E+01, 1.261E+02, 2.168E+02, 7.404E+01,-5.560E+01, 1.778E-01, 1.811E-02, 1.998E+02
 4.100E+02, 1.379E+02, 1.423E+02, 1.229E+02, 2.162E+02, 7.448E+01, 1.296E+02, 2.231E+02, 7.431E+01,-4.961E+01, 1.770E-01, 1.859E-02, 2.003E+02
 4.200E+02, 1.383E+02, 1.428E+02, 1.240E+02, 2.160E+02, 7.496E+01, 1.272E+02, 2.252E+02, 7.590E+01,-4.991E+01, 1.755E-01, 1.940E-02, 1.995E+02
 4.300E+02, 1.396E+02, 1.422E+02, 1.245E+02, 2.181E+02, 7.623E+01, 1.269E+02, 2.248E+02, 7.492E+01,-5.246E+01, 1.748E-01, 1.979E-02, 1.996E+02
 4.400E+02, 1.412E+02, 1.405E+02, 1.243E+02, 2.238E+02, 7.545E+01, 1.287E+02, 2.188E+02, 7.397E+01,-5.886E+01, 1.742E-01, 2.015E-02, 2.008E+02
 4.500E+02, 1.401E+02, 1.422E+02, 1.255E+02, 2.192E+02, 7.550E+01, 1.298E+02, 2.213E+02, 7.557E+01,-5.126E+01, 1.734E-01, 2.060E-02, 1.999E+02
 4.600E+02, 1.407E+02, 1.448E+02, 1.260E+02, 2.189E+02, 7.709E+01, 1.313E+02, 2.274E+02, 7.563E+01,-5.079E+01, 1.726E-01, 2.103E-02, 1.996E+02
 4.700E+02, 1.419E+02, 1.436E+02, 1.260E+02, 2.234E+02, 7.633E+01, 1.297E+02, 2.245E+02, 7.665E+01,-5.524E+01, 1.712E-01, 2.179E-02, 2.002E+02
 4.800E+02, 1.418E+02, 1.445E+02, 1.260E+02, 2.225E+02, 7.681E+01, 1.302E+02, 2.274E+02, 7.597E+01,-5.360E+01, 1.706E-01, 2.214E-02, 1.996E+02
 4.900E+02, 1.428E+02, 1.426E+02, 1.257E+02, 2.263E+02, 7.650E+01, 1.287E+02, 2.241E+02, 7.508E+01,-5.308E+01, 1.701E-01, 2.245E-02, 2.002E+02
 5.000E+02, 1.416E+02, 1.449E+02, 1.267E+02, 2.212E+02, 7.697E+01, 1.299E+02, 2.275E+02, 7.728E+01,-4.877E+01, 1.692E-01, 2.295E-02, 2.001E+02
 5.100E+02, 1.437E+02, 1.468E+02, 1.278E+02, 2.256E+02, 7.763E+01, 1.308E+02, 2.313E+02, 7.844E+01,-5.489E+01, 1.680E-01, 2.363E-02, 1.995E+02
 5.200E+02, 1.430E+02, 1.466E+02, 1.282E+02, 2.228E+02, 7.795E+01, 1.293E+02, 2.327E+02, 7.786E+01,-5.235E+01, 1.674E-01, 2.393E-02, 2.002E+02
 5.300E+02, 1.442E+02, 1.447E+02, 1.280E+02, 2.277E+02, 7.695E+01, 1.300E+02, 2.276E+02, 7.656E+01,-5.338E+01, 1.667E-01, 2.430E-02, 2.001E+02
 5.400E+02, 1.444E+02, 1.451E+02, 1.292E+02, 2.255E+02, 7.851E+01, 1.322E+02, 2.246E+02, 7.852E+01,-5.362E+01, 1.657E-01, 2.488E-02, 2.000E+02
 5.500E+02, 1.436E+02, 1.466E+02, 1.281E+02, 2.238E+02, 7.882E+01, 1.336E+02, 2.286E+02, 7.741E+01,-5.505E+01, 1.651E-01, 2.525E-02, 1.999E+02
 5.600E+02, 1.442E+02, 1.475E+02, 1.303E+02, 2.244E+02, 7.792E+01, 1.331E+02, 2.309E+02, 7.851E+01,-5.479E+01, 1.642E-01, 2.571E-02, 2.002E+02
 5.700E+02, 1.456E+02, 1.474E+02, 1.295E+02, 2.284E+02, 7.894E+01, 1.325E+02, 2.317E+02, 7.812E+01,-5.262E+01, 1.638E-01, 2.594E-02, 2.004E+02
 5.800E+02, 1.455E+02, 1.457E+02, 1.295E+02, 2.287E+02, 7.833E+01, 1.330E+02, 2.256E+02, 7.848E+01,-5.258E+01, 1.628E-01, 2.652E-02, 2.003E+02
 5.900E+02, 1.439E+02, 1.469E+02, 1.301E+02, 2.236E+02, 7.807E+01, 1.353E+02, 2.275E+02, 7.792E+01,-4.863E+01, 1.624E-01, 2.673E-02, 1.994E+02
 6.000E+02, 1.462E+02, 1.492E+02, 1.308E+02, 2.280E+02, 7.998E+01, 1.340E+02, 2.332E+02, 8.037E+01,-5.215E+01, 1.613E-01, 2.735E-02, 2.000E+02
 6.100E+02, 1.471E+02, 1.495E+02, 1.305E+02, 2.308E+02, 7.985E+01, 1.352E+02, 2.336E+02, 7.953E+01,-5.774E+01, 1.607E-01, 2.766E-02, 2.000E+02
 6.200E+02, 1.469E+02, 1.485E+02, 1.308E+02, 2.312E+02, 7.870E+01, 1.340E+02, 2.324E+02, 7.901E+01,-5.452E+01, 1.604E-01, 2.786E-02, 1.997E+02
 6.300E+02, 1.467E+02, 1.476E+02, 1.317E+02, 2.289E+02, 7.966E+01, 1.338E+02, 2.306E+02, 7.854E+01,-4.632E+01, 1.599E-01, 2.812E-02, 2.004E+02
 6.400E+02, 1.471E+02, 1.505E+02, 1.321E+02, 2.280E+02, 8.120E+01, 1.367E+02, 2.342E+02, 8.076E+01,-4.545E+01, 1.588E-01, 2.872E-02, 2.000E+02
 6.500E+02, 1.482E+02, 1.499E+02, 1.328E+02, 2.293E+02, 8.236E+01, 1.376E+02, 2.312E+02, 8.085E+01,-5.003E+01, 1.581E-01, 2.912E-02, 1.999E+02
 6.600E+02, 1.489E+02, 1.504E+02, 1.333E+02, 2.305E+02, 8.292E+01, 1.376E+02, 2.326E+02, 8.095E+01,-5.587E+01, 1.576E-01, 2.943E-02, 1.999E+02
 6.700E+02, 1.482E+02, 1.513E+02, 1.332E+02, 2.300E+02, 8.145E+01, 1.374E+02, 2.353E+02, 8.119E+01,-5.154E+01, 1.570E-01, 2.974E-02, 2.000E+02
 6.800E+02, 1.490E+02, 1.510E+02, 1.335E+02, 2.316E+02, 8.202E+01, 1.360E+02, 2.354E+02, 8.172E+01,-5.211E+01, 1.567E-01, 2.994E-02, 1.999E+02
 6.900E+02, 1.503E+02, 1.511E+02, 1.331E+02, 2.347E+02, 8.292E+01, 1.363E+02, 2.357E+02, 8.139E+01,-5.226E+01, 1.558E-01, 3.040E-02, 2.000E+02
 7.000E+02, 1.503E+02, 1.505E+02, 1.332E+02, 2.346E+02, 8.318E+01, 1.379E+02, 2.311E+02, 8.246E+01,-5.654E+01, 1.552E-01, 3.077E-02, 2.002E+02
 7.100E+02, 1.487E+02, 1.523E+02, 1.341E+02, 2.297E+02, 8.240E+01, 1.403E+02, 2.352E+02, 8.136E+01,-4.932E+01, 1.549E-01, 3.093E-02, 1.999E+02
 7.200E+02, 1.529E+02, 1.540E+02, 1.338E+02, 2.414E+02, 8.349E+01, 1.415E+02, 2.379E+02, 8.251E+01,-5.509E+01, 1.541E-01, 3.140E-02, 2.000E+02
 7.300E+02, 1.507E+02, 1.517E+02, 1.350E+02, 2.353E+02, 8.175E+01, 1.376E+02, 2.349E+02, 8.275E+01,-5.611E+01, 1.536E-01, 3.166E-02, 1.996E+02
 7.400E+02, 1.500E+02, 1.523E+02, 1.345E+02, 2.333E+02, 8.224E+01, 1.374E+02, 2.382E+02, 8.151E+01,-5.421E+01, 1.534E-01, 3.176E-02, 2.002E+02
 7.500E+02, 1.517E+02, 1.516E+02, 1.356E+02, 2.362E+02, 8.324E+01, 1.378E+02, 2.344E+02, 8.254E+01,-5.120E+01, 1.530E-01, 3.199E-02, 1.995E+02
 7.600E+02, 1.520E+02, 1.522E+02, 1.367E+02, 2.362E+02, 8.314E+01, 1.384E+02, 2.357E+02, 8.262E+01,-5.499E+01, 1.523E-01, 3.235E-02, 2.004E+02
 7.700E+02, 1.515E+02, 1.526E+02, 1.370E+02, 2.345E+02, 8.303E+01, 1.409E+02, 2.347E+02, 8.214E+01,-4.958E+01, 1.520E-01, 3.254E-02, 1.999E+02
 7.800E+02, 1.521E+02, 1.541E+02, 1.371E+02, 2.346E+02, 8.444E+01, 1.439E+02, 2.355E+02, 8.279E+01,-4.673E+01, 1.515E-01, 3.282E-02, 1.999E+02
 7.900E+02, 1.522E+02, 1.554E+02, 1.372E+02, 2.347E+02, 8.450E+01, 1.404E+02, 2.419E+02, 8.409E+01,-5.291E+01, 1.507E-01, 3.329E-02, 1.997E+02
 8.000E+02, 1.532E+02, 1.539E+02, 1.360E+02, 2.388E+02, 8.466E+01, 1.407E+02, 2.382E+02, 8.285E+01,-4.906E+01, 1.507E-01, 3.329E-02, 2.000E+02
 8.100E+02, 1.530E+02, 1.532E+02, 1.365E+02, 2.383E+02, 8.418E+01, 1.415E+02, 2.324E+02, 8.565E+01,-5.722E+01, 1.501E-01, 3.362E-02, 1.999E+02
 8.200E+02, 1.522E+02, 1.557E+02, 1.371E+02, 2.348E+02, 8.481E+01, 1.444E+02, 2.384E+02, 8.424E+01,-4.718E+01, 1.500E-01, 3.366E-02, 2.001E+02
 8.300E+02, 1.534E+02, 1.575E+02, 1.382E+02, 2.359E+02, 8.606E+01, 1.425E+02, 2.440E+02, 8.608E+01,-5.354E+01, 1.491E-01, 3.417E-02, 2.000E+02
 8.400E+02, 1.534E+02, 1.565E+02, 1.383E+02, 2.365E+02, 8.539E+01, 1.404E+02, 2.446E+02, 8.449E+01,-5.241E+01, 1.490E-01, 3.421E-02, 2.002E+02
 8.500E+02, 1.568E+02, 1.554E+02, 1.382E+02, 2.448E+02, 8.749E+01, 1.412E+02, 2.390E+02, 8.579E+01,-5.572E+01, 1.483E-01, 3.460E-02, 1.994E+02
 8.600E+02, 1.545E+02, 1.548E+02, 1.378E+02, 2.397E+02, 8.586E+01, 1.420E+02, 2.369E+02, 8.558E+01,-5.286E+01, 1.481E-01, 3.474E-02, 2.005E+02
 8.700E+02, 1.545E+02, 1.575E+02, 1.379E+02, 2.387E+02, 8.700E+01, 1.445E+02, 2.428E+02, 8.536E+01,-4.890E+01, 1.477E-01, 3.492E-02, 2.000E+02
 8.800E+02, 1.554E+02, 1.565E+02, 1.392E+02, 2.385E+02, 8.851E+01, 1.436E+02, 2.392E+02, 8.669E+01,-5.069E+01, 1.473E-01, 3.515E-02, 2.001E+02
 8.900E+02, 1.568E+02, 1.595E+02, 1.402E+02, 2.422E+02, 8.795E+01, 1.451E+02, 2.463E+02, 8.712E+01,-4.904E+01, 1.468E-01, 3.545E-02, 1.996E+02
 9.000E+02, 1.563E+02, 1.571E+02, 1.406E+02, 2.401E+02, 8.831E+01, 1.429E+02, 2.417E+02, 8.671E+01,-5.228E+01, 1.467E-01, 3.551E-02, 2.002E+02
 9.100E+02, 1.562E+02, 1.590E+02, 1.408E+02, 2.398E+02, 8.812E+01, 1.449E+02, 2.455E+02, 8.662E+01,-5.230E+01, 1.464E-01, 3.568E-02, 2.000E+02
 9.200E+02, 1.575E+02, 1.574E+02, 1.409E+02, 2.427E+02, 8.887E+01, 1.440E+02, 2.413E+02, 8.686E+01,-5.180E+01, 1.459E-01, 3.593E-02, 2.002E+02
 9.300E+02, 1.570E+02, 1.575E+02, 1.414E+02, 2.411E+02, 8.844E+01, 1.444E+02, 2.413E+02, 8.685E+01,-5.111E+01, 1.458E-01, 3.602E-02, 1.995E+02
 9.400E+02, 1.578E+02, 1.591E+02, 1.425E+02, 2.409E+02, 9.011E+01, 1.454E+02, 2.452E+02, 8.678E+01,-4.981E+01, 1.456E-01, 3.613E-02, 2.001E+02
 9.500E+02, 1.593E+02, 1.597E+02, 1.416E+02, 2.458E+02, 9.069E+01, 1.465E+02, 2.448E+02, 8.774E+01,-5.022E+01, 1.451E-01, 3.638E-02, 2.000E+02
 9.600E+02, 1.585E+02, 1.588E+02, 1.414E+02, 2.451E+02, 8.894E+01, 1.456E+02, 2.423E+02, 8.850E+01,-5.552E+01, 1.448E-01, 3.659E-02, 2.003E+02
 9.700E+02, 1.578E+02, 1.597E+02, 1.424E+02, 2.416E+02, 8.941E+01, 1.457E+02, 2.443E+02, 8.917E+01,-5.236E+01, 1.444E-01, 3.677E-02, 1.997E+02
 9.800E+02, 1.588E+02, 1.608E+02, 1.423E+02, 2.446E+02, 8.962E+01, 1.462E+02, 2.475E+02, 8.860E+01,-5.194E+01, 1.443E-01, 3.686E-02, 2.001E+02
 9.900E+02, 1.601E+02, 1.598E+02, 1.415E+02, 2.484E+02, 9.036E+01, 1.454E+02, 2.452E+02, 8.886E+01,-5.239E+01, 1.442E-01, 3.689E-02, 1.998E+02
 1.000E+03, 1.578E+02, 1.602E+02, 1.414E+02, 2.419E+02, 9.019E+01, 1.466E+02, 2.458E+02, 8.816E+01,-5.097E+01, 1.439E-01, 3.706E-02, 2.003E+02
 1.010E+03, 1.574E+02, 1.617E+02, 1.418E+02, 2.421E+02, 8.843E+01, 1.477E+02, 2.483E+02, 8.907E+01,-5.139E+01, 1.436E-01, 3.722E-02, 1.999E+02
 1.020E+03, 1.597E+02, 1.597E+02, 1.430E+02, 2.458E+02, 9.039E+01, 1.458E+02, 2.445E+02, 8.893E+01,-5.165E+01, 1.434E-01, 3.732E-02, 1.997E+02
 1.030E+03, 1.599E+02, 1.602E+02, 1.438E+02, 2.449E+02, 9.078E+01, 1.480E+02, 2.436E+02, 8.914E+01,-5.072E+01, 1.433E-01, 3.743E-02, 2.001E+02
 1.040E+03, 1.596E+02, 1.629E+02, 1.440E+02, 2.443E+02, 9.045E+01, 1.487E+02, 2.511E+02, 8.895E+01,-5.160E+01, 1.431E-01, 3.750E-02, 2.003E+02
 1.050E+03, 1.599E+02, 1.630E+02, 1.435E+02, 2.440E+02, 9.236E+01, 1.494E+02, 2.495E+02, 9.011E+01,-5.323E+01, 1.428E-01, 3.768E-02, 1.997E+02
 1.060E+03, 1.607E+02, 1.634E+02, 1.439E+02, 2.466E+02, 9.155E+01, 1.491E+02, 2.513E+02, 8.982E+01,-4.802E+01, 1.427E-01, 3.776E-02, 2.003E+02
 1.070E+03, 1.621E+02, 1.614E+02, 1.439E+02, 2.499E+02, 9.242E+01, 1.482E+02, 2.462E+02, 8.995E+01,-5.310E+01, 1.425E-01, 3.784E-02, 1.998E+02
 1.080E+03, 1.602E+02, 1.623E+02, 1.450E+02, 2.443E+02, 9.133E+01, 1.486E+02, 2.481E+02, 9.015E+01,-5.048E+01, 1.423E-01, 3.797E-02, 2.002E+02
 1.090E+03, 1.614E+02, 1.623E+02, 1.455E+02, 2.471E+02, 9.167E+01, 1.483E+02, 2.485E+02, 9.012E+01,-5.105E+01, 1.422E-01, 3.802E-02, 2.000E+02
 1.100E+03, 1.611E+02, 1.630E+02, 1.453E+02, 2.452E+02, 9.289E+01, 1.480E+02, 2.498E+02, 9.118E+01,-5.042E+01, 1.422E-01, 3.804E-02, 1.999E+02
 1.110E+03, 1.628E+02, 1.627E+02, 1.454E+02, 2.492E+02, 9.368E+01, 1.474E+02, 2.497E+02, 9.090E+01,-4.746E+01, 1.422E-01, 3.803E-02, 1.996E+02
 1.120E+03, 1.623E+02, 1.637E+02, 1.465E+02, 2.469E+02, 9.350E+01, 1.490E+02, 2.500E+02, 9.204E+01,-5.233E+01, 1.418E-01, 3.824E-02, 1.998E+02
 1.130E+03, 1.623E+02, 1.649E+02, 1.479E+02, 2.447E+02, 9.424E+01, 1.487E+02, 2.554E+02, 9.078E+01,-4.706E+01, 1.416E-01, 3.837E-02, 2.002E+02
 1.140E+03, 1.636E+02, 1.646E+02, 1.469E+02, 2.494E+02, 9.457E+01, 1.494E+02, 2.516E+02, 9.293E+01,-5.349E+01, 1.411E-01, 3.862E-02, 2.001E+02
 1.150E+03, 1.636E+02, 1.637E+02, 1.473E+02, 2.496E+02, 9.409E+01, 1.499E+02, 2.508E+02, 9.056E+01,-5.075E+01, 1.415E-01, 3.839E-02, 1.997E+02
 1.160E+03, 1.640E+02, 1.645E+02, 1.468E+02, 2.498E+02, 9.537E+01, 1.497E+02, 2.509E+02, 9.303E+01,-5.249E+01, 1.411E-01, 3.861E-02, 1.999E+02
 1.170E+03, 1.641E+02, 1.653E+02, 1.469E+02, 2.498E+02, 9.555E+01, 1.503E+02, 2.532E+02, 9.244E+01,-5.015E+01, 1.410E-01, 3.869E-02, 2.000E+02
 1.180E+03, 1.644E+02, 1.643E+02, 1.471E+02, 2.494E+02, 9.657E+01, 1.488E+02, 2.511E+02, 9.292E+01,-5.141E+01, 1.408E-01, 3.883E-02, 1.997E+02
 1.190E+03, 1.642E+02, 1.639E+02, 1.480E+02, 2.479E+02, 9.667E+01, 1.497E+02, 2.497E+02, 9.235E+01,-5.207E+01, 1.408E-01, 3.879E-02, 2.001E+02
 1.200E+03, 1.633E+02, 1.654E+02, 1.470E+02, 2.470E+02, 9.597E+01, 1.529E+02, 2.502E+02, 9.288E+01,-5.163E+01, 1.406E-01, 3.893E-02, 2.003E+02
 1.210E+03, 1.646E+02, 1.650E+02, 1.480E+02, 2.484E+02, 9.747E+01, 1.515E+02, 2.509E+02, 9.260E+01,-4.932E+01, 1.405E-01, 3.898E-02, 2.000E+02
 1.220E+03, 1.647E+02, 1.654E+02, 1.479E+02, 2.499E+02, 9.617E+01, 1.499E+02, 2.511E+02, 9.527E+01,-5.192E+01, 1.403E-01, 3.906E-02, 1.997E+02
 1.230E+03, 1.650E+02, 1.654E+02, 1.482E+02, 2.496E+02, 9.715E+01, 1.523E+02, 2.503E+02, 9.366E+01,-5.201E+01, 1.402E-01, 3.911E-02, 2.000E+02
 1.240E+03, 1.657E+02, 1.670E+02, 1.494E+02, 2.492E+02, 9.856E+01, 1.548E+02, 2.525E+02, 9.374E+01,-4.841E+01, 1.400E-01, 3.926E-02, 2.001E+02
 1.250E+03, 1.667E+02, 1.668E+02, 1.493E+02, 2.523E+02, 9.841E+01, 1.541E+02, 2.525E+02, 9.378E+01,-5.214E+01, 1.399E-01, 3.929E-02, 1.999E+02
 1.260E+03, 1.666E+02, 1.674E+02, 1.490E+02, 2.529E+02, 9.800E+01, 1.547E+02, 2.530E+02, 9.453E+01,-5.271E+01, 1.399E-01, 3.929E-02, 1.996E+02
 1.270E+03, 1.664E+02, 1.669E+02, 1.490E+02, 2.533E+02, 9.689E+01, 1.524E+02, 2.523E+02, 9.593E+01,-5.534E+01, 1.399E-01, 3.929E-02, 2.000E+02
 1.280E+03, 1.658E+02, 1.666E+02, 1.489E+02, 2.529E+02, 9.544E+01, 1.520E+02, 2.530E+02, 9.474E+01,-5.165E+01, 1.399E-01, 3.929E-02, 2.002E+02
 1.290E+03, 1.669E+02, 1.670E+02, 1.496E+02, 2.533E+02, 9.791E+01, 1.522E+02, 2.549E+02, 9.403E+01,-5.001E+01, 1.398E-01, 3.936E-02, 1.998E+02
 1.300E+03, 1.669E+02, 1.658E+02, 1.507E+02, 2.521E+02, 9.772E+01, 1.523E+02, 2.505E+02, 9.472E+01,-4.949E+01, 1.397E-01, 3.942E-02, 1.999E+02
 1.310E+03, 1.672E+02, 1.684E+02, 1.519E+02, 2.513E+02, 9.858E+01, 1.539E+02, 2.572E+02, 9.422E+01,-4.811E+01, 1.396E-01, 3.948E-02, 2.001E+02
