s,C,C,C,C,C,C,C,C,Pa,mol/mol,mol/mol,kW
Time,"West_All_TCs","East_All_TCs","West_Bottom_TCs","West_Middle_TCs","West_Upper_TCs","East_Bottom_TCs","East_Middle_TCs","East_Upper_TCs","Pressure","O2","CO2","HRR"
-6.000E+01, 2.100E+01, 2.100E+01, 2.100E+01, 2.100E+01, 2.100E+01, 2.100E+01, 2.100E+01, 2.100E+01,-9.768E-06, 2.095E-01, 3.901E-04, 0.000E+00
-4.999E+01, 2.100E+01, 2.100E+01, 2.100E+01, 2.100E+01, 2.100E+01, 2.100E+01, 2.100E+01, 2.100E+01,-7.085E-04, 2.095E-01, 3.901E-04, 0.000E+00
-3.999E+01, 2.100E+01, 2.100E+01, 2.100E+01, 2.100E+01, 2.100E+01, 2.100E+01, 2.100E+01, 2.100E+01,-3.350E-05, 2.095E-01, 3.901E-04, 0.000E+00
-2.998E+01, 2.100E+01, 2.100E+01, 2.100E+01, 2.100E+01, 2.100E+01, 2.100E+01, 2.100E+01, 2.100E+01,-3.015E-05, 2.095E-01, 3.901E-04, 0.000E+00
-1.997E+01, 2.100E+01, 2.100E+01, 2.100E+01, 2.100E+01, 2.100E+01, 2.100E+01, 2.100E+01, 2.100E+01,-3.187E-05, 2.095E-01, 3.901E-04, 0.000E+00
-9.967E+00, 2.100E+01, 2.100E+01, 2.100E+01, 2.100E+01, 2.100E+01, 2.100E+01, 2.100E+01, 2.100E+01,-3.396E-05, 2.095E-01, 3.901E-04, 0.000E+00
 3.957E-02, 2.100E+01, 2.100E+01, 2.100E+01, 2.100E+01, 2.100E+01, 2.100E+01, 2.100E+01, 2.100E+01,-2.695E-05, 2.095E-01, 3.901E-04, 1.048E-03
 1.001E+01, 2.231E+01, 2.283E+01, 2.175E+01, 2.128E+01, 2.389E+01, 2.226E+01, 2.138E+01, 2.485E+01, 3.170E+01, 2.092E-01, 5.976E-04, 4.961E+01
 2.001E+01, 2.767E+01, 2.994E+01, 2.359E+01, 2.489E+01, 3.453E+01, 2.521E+01, 2.505E+01, 3.957E+01, 1.863E+02, 2.078E-01, 1.349E-03, 1.491E+02
 3.001E+01, 4.102E+01, 4.347E+01, 2.625E+01, 3.884E+01, 5.796E+01, 2.925E+01, 3.988E+01, 6.129E+01, 4.447E+02, 2.054E-01, 2.705E-03, 2.490E+02
 4.002E+01, 5.999E+01, 6.162E+01, 3.577E+01, 6.164E+01, 8.257E+01, 3.781E+01, 6.352E+01, 8.353E+01, 5.871E+02, 2.031E-01, 4.003E-03, 3.010E+02
 5.000E+01, 7.933E+01, 8.209E+01, 4.975E+01, 8.718E+01, 1.011E+02, 5.327E+01, 8.598E+01, 1.070E+02, 4.815E+02, 2.006E-01, 5.378E-03, 3.006E+02
 6.000E+01, 9.728E+01, 1.014E+02, 6.644E+01, 1.041E+02, 1.213E+02, 7.081E+01, 1.060E+02, 1.273E+02, 3.547E+02, 1.981E-01, 6.762E-03, 3.018E+02
 7.001E+01, 1.160E+02, 1.157E+02, 8.505E+01, 1.247E+02, 1.382E+02, 8.687E+01, 1.180E+02, 1.421E+02, 2.512E+02, 1.959E-01, 8.039E-03, 3.001E+02
 8.001E+01, 1.287E+02, 1.310E+02, 1.001E+02, 1.364E+02, 1.494E+02, 9.964E+01, 1.340E+02, 1.594E+02, 1.724E+02, 1.940E-01, 9.098E-03, 3.002E+02
 9.001E+01, 1.406E+02, 1.412E+02, 1.119E+02, 1.479E+02, 1.618E+02, 1.127E+02, 1.487E+02, 1.620E+02, 1.158E+02, 1.919E-01, 1.024E-02, 3.005E+02
 1.000E+02, 1.495E+02, 1.522E+02, 1.228E+02, 1.557E+02, 1.702E+02, 1.236E+02, 1.576E+02, 1.755E+02, 7.880E+01, 1.898E-01, 1.145E-02, 3.002E+02
 1.100E+02, 1.568E+02, 1.581E+02, 1.302E+02, 1.630E+02, 1.772E+02, 1.287E+02, 1.623E+02, 1.834E+02, 5.249E+01, 1.865E-01, 1.327E-02, 3.010E+02
 1.200E+02, 1.605E+02, 1.630E+02, 1.368E+02, 1.662E+02, 1.785E+02, 1.347E+02, 1.671E+02, 1.871E+02, 3.681E+01, 1.846E-01, 1.434E-02, 2.998E+02
 1.300E+02, 1.661E+02, 1.642E+02, 1.421E+02, 1.713E+02, 1.848E+02, 1.370E+02, 1.695E+02, 1.861E+02, 3.188E+01, 1.830E-01, 1.520E-02, 3.009E+02
 1.400E+02, 1.687E+02, 1.669E+02, 1.441E+02, 1.754E+02, 1.866E+02, 1.394E+02, 1.709E+02, 1.904E+02, 2.439E+01, 1.803E-01, 1.674E-02, 2.989E+02
 1.500E+02, 1.719E+02, 1.688E+02, 1.488E+02, 1.772E+02, 1.897E+02, 1.403E+02, 1.723E+02, 1.939E+02, 2.126E+01, 1.774E-01, 1.833E-02, 2.998E+02
 1.600E+02, 1.732E+02, 1.715E+02, 1.489E+02, 1.786E+02, 1.920E+02, 1.445E+02, 1.749E+02, 1.952E+02, 1.882E+01, 1.749E-01, 1.972E-02, 2.991E+02
 1.700E+02, 1.743E+02, 1.727E+02, 1.485E+02, 1.771E+02, 1.972E+02, 1.463E+02, 1.763E+02, 1.956E+02, 1.925E+01, 1.725E-01, 2.107E-02, 2.992E+02
 1.800E+02, 1.760E+02, 1.748E+02, 1.492E+02, 1.808E+02, 1.980E+02, 1.482E+02, 1.784E+02, 1.976E+02, 1.912E+01, 1.692E-01, 2.296E-02, 3.002E+02
 1.900E+02, 1.774E+02, 1.753E+02, 1.533E+02, 1.842E+02, 1.946E+02, 1.488E+02, 1.796E+02, 1.974E+02, 1.889E+01, 1.676E-01, 2.384E-02, 2.983E+02
 2.000E+02, 1.774E+02, 1.776E+02, 1.531E+02, 1.822E+02, 1.970E+02, 1.503E+02, 1.801E+02, 2.024E+02, 1.683E+01, 1.642E-01, 2.571E-02, 2.987E+02
 2.100E+02, 1.763E+02, 1.771E+02, 1.565E+02, 1.792E+02, 1.933E+02, 1.482E+02, 1.800E+02, 2.030E+02, 1.744E+01, 1.624E-01, 2.676E-02, 2.988E+02
 2.200E+02, 1.765E+02, 1.774E+02, 1.536E+02, 1.795E+02, 1.964E+02, 1.486E+02, 1.827E+02, 2.010E+02, 1.801E+01, 1.603E-01, 2.793E-02, 2.996E+02
 2.300E+02, 1.786E+02, 1.761E+02, 1.555E+02, 1.804E+02, 2.000E+02, 1.484E+02, 1.817E+02, 1.982E+02, 1.719E+01, 1.580E-01, 2.921E-02, 2.984E+02
 2.400E+02, 1.781E+02, 1.785E+02, 1.508E+02, 1.805E+02, 2.029E+02, 1.557E+02, 1.823E+02, 1.977E+02, 1.773E+01, 1.551E-01, 3.083E-02, 2.983E+02
 2.500E+02, 1.777E+02, 1.797E+02, 1.531E+02, 1.801E+02, 1.997E+02, 1.566E+02, 1.831E+02, 1.995E+02, 1.770E+01, 1.518E-01, 3.263E-02, 3.009E+02
 2.600E+02, 1.806E+02, 1.798E+02, 1.539E+02, 1.845E+02, 2.034E+02, 1.558E+02, 1.864E+02, 1.973E+02, 1.806E+01, 1.494E-01, 3.402E-02, 2.983E+02
 2.700E+02, 1.801E+02, 1.813E+02, 1.535E+02, 1.848E+02, 2.019E+02, 1.590E+02, 1.835E+02, 2.013E+02, 1.869E+01, 1.467E-01, 3.548E-02, 2.995E+02
 2.800E+02, 1.790E+02, 1.823E+02, 1.514E+02, 1.827E+02, 2.028E+02, 1.630E+02, 1.851E+02, 1.987E+02, 1.900E+01, 1.444E-01, 3.678E-02, 2.992E+02
 2.900E+02, 1.806E+02, 1.818E+02, 1.507E+02, 1.855E+02, 2.058E+02, 1.617E+02, 1.846E+02, 1.991E+02, 1.796E+01, 1.414E-01, 3.844E-02, 2.984E+02
 3.000E+02, 1.830E+02, 1.812E+02, 1.505E+02, 1.857E+02, 2.129E+02, 1.640E+02, 1.839E+02, 1.957E+02, 1.775E+01, 1.398E-01, 3.934E-02, 2.997E+02
 3.100E+02, 1.805E+02, 1.833E+02, 1.479E+02, 1.841E+02, 2.096E+02, 1.672E+02, 1.865E+02, 1.961E+02, 1.759E+01, 1.370E-01, 4.092E-02, 2.980E+02
 3.200E+02, 1.812E+02, 1.819E+02, 1.523E+02, 1.854E+02, 2.060E+02, 1.609E+02, 1.842E+02, 2.006E+02, 1.823E+01, 1.337E-01, 4.276E-02, 2.990E+02
 3.300E+02, 1.786E+02, 1.842E+02, 1.529E+02, 1.857E+02, 1.973E+02, 1.588E+02, 1.858E+02, 2.079E+02, 1.901E+01, 1.300E-01, 4.484E-02, 2.930E+02
 3.400E+02, 1.770E+02, 1.957E+02, 1.592E+02, 1.804E+02, 1.914E+02, 1.707E+02, 1.989E+02, 2.175E+02, 6.297E+00, 1.278E-01, 4.606E-02, 2.658E+02
 3.500E+02, 1.792E+02, 1.866E+02, 1.623E+02, 1.857E+02, 1.896E+02, 1.573E+02, 1.919E+02, 2.108E+02,-1.587E+01, 1.275E-01, 4.620E-02, 2.416E+02
 3.600E+02, 1.783E+02, 1.790E+02, 1.616E+02, 1.837E+02, 1.897E+02, 1.551E+02, 1.797E+02, 2.021E+02, 2.981E+01, 1.258E-01, 4.711E-02, 2.896E+02
 3.700E+02, 1.752E+02, 1.759E+02, 1.565E+02, 1.809E+02, 1.883E+02, 1.501E+02, 1.758E+02, 2.017E+02,-1.336E+01, 1.244E-01, 4.787E-02, 2.206E+02
 3.800E+02, 1.754E+02, 1.742E+02, 1.539E+02, 1.826E+02, 1.898E+02, 1.469E+02, 1.790E+02, 1.967E+02, 1.250E+01, 1.233E-01, 4.843E-02, 2.501E+02
 3.900E+02, 1.679E+02, 1.731E+02, 1.463E+02, 1.741E+02, 1.831E+02, 1.488E+02, 1.741E+02, 1.965E+02, 4.475E+01, 1.221E-01, 4.909E-02, 2.278E+02
 4.000E+02, 1.664E+02, 1.959E+02, 1.476E+02, 1.724E+02, 1.793E+02, 1.688E+02, 2.142E+02, 2.045E+02,-5.797E+00, 1.222E-01, 4.900E-02, 1.812E+02
 4.100E+02, 1.629E+02, 1.687E+02, 1.491E+02, 1.684E+02, 1.712E+02, 1.486E+02, 1.723E+02, 1.853E+02,-1.444E+01, 1.236E-01, 4.809E-02, 1.989E+02
 4.200E+02, 1.617E+02, 1.649E+02, 1.535E+02, 1.635E+02, 1.680E+02, 1.430E+02, 1.649E+02, 1.868E+02,-7.401E+01, 1.216E-01, 4.924E-02, 1.310E+02
 4.300E+02, 1.556E+02, 1.634E+02, 1.442E+02, 1.562E+02, 1.663E+02, 1.495E+02, 1.630E+02, 1.778E+02, 7.428E+01, 1.230E-01, 4.824E-02, 1.821E+02
 4.400E+02, 1.508E+02, 1.515E+02, 1.433E+02, 1.529E+02, 1.563E+02, 1.392E+02, 1.525E+02, 1.626E+02,-7.345E+01, 1.243E-01, 4.759E-02, 1.930E+01
 4.500E+02, 1.429E+02, 1.448E+02, 1.321E+02, 1.465E+02, 1.501E+02, 1.364E+02, 1.449E+02, 1.532E+02,-3.316E+01, 1.253E-01, 4.688E-02, 3.022E+01
 4.600E+02, 1.353E+02, 1.419E+02, 1.267E+02, 1.381E+02, 1.411E+02, 1.312E+02, 1.439E+02, 1.507E+02,-9.599E+00, 1.265E-01, 4.632E-02, 3.583E+00
 4.700E+02, 1.353E+02, 1.338E+02, 1.296E+02, 1.365E+02, 1.398E+02, 1.263E+02, 1.318E+02, 1.432E+02,-9.005E+00, 1.273E-01, 4.574E-02, 1.017E+00
 4.800E+02, 1.285E+02, 1.256E+02, 1.212E+02, 1.312E+02, 1.331E+02, 1.151E+02, 1.263E+02, 1.355E+02,-1.632E+01, 1.270E-01, 4.582E-02, 0.000E+00
 4.900E+02, 1.245E+02, 1.232E+02, 1.190E+02, 1.255E+02, 1.289E+02, 1.113E+02, 1.243E+02, 1.339E+02,-1.476E-01, 1.272E-01, 4.553E-02, 0.000E+00
 5.000E+02, 1.221E+02, 1.203E+02, 1.158E+02, 1.243E+02, 1.263E+02, 1.095E+02, 1.230E+02, 1.285E+02,-1.957E+00, 1.266E-01, 4.576E-02, 0.000E+00
 5.100E+02, 1.176E+02, 1.169E+02, 1.107E+02, 1.200E+02, 1.220E+02, 1.053E+02, 1.196E+02, 1.257E+02,-5.008E-01, 1.276E-01, 4.527E-02, 0.000E+00
 5.200E+02, 1.151E+02, 1.131E+02, 1.075E+02, 1.179E+02, 1.198E+02, 1.033E+02, 1.149E+02, 1.212E+02,-2.830E-01, 1.266E-01, 4.561E-02, 0.000E+00
 5.300E+02, 1.110E+02, 1.103E+02, 1.037E+02, 1.139E+02, 1.155E+02, 1.007E+02, 1.113E+02, 1.188E+02,-3.210E+00, 1.273E-01, 4.530E-02, 3.351E-02
 5.400E+02, 1.074E+02, 1.067E+02, 9.832E+01, 1.105E+02, 1.135E+02, 9.826E+01, 1.074E+02, 1.144E+02,-3.660E+00, 1.277E-01, 4.497E-02, 0.000E+00
 5.500E+02, 1.054E+02, 1.043E+02, 9.779E+01, 1.081E+02, 1.103E+02, 9.629E+01, 1.044E+02, 1.120E+02, 3.190E+00, 1.271E-01, 4.508E-02, 0.000E+00
 5.600E+02, 1.030E+02, 1.014E+02, 9.616E+01, 1.053E+02, 1.075E+02, 9.191E+01, 1.020E+02, 1.101E+02, 2.178E+00, 1.272E-01, 4.488E-02, 0.000E+00
 5.700E+02, 1.019E+02, 9.954E+01, 9.602E+01, 1.037E+02, 1.060E+02, 9.172E+01, 9.861E+01, 1.083E+02, 3.989E+00, 1.271E-01, 4.494E-02, 0.000E+00
 5.800E+02, 9.826E+01, 9.818E+01, 9.014E+01, 1.013E+02, 1.033E+02, 9.099E+01, 9.866E+01, 1.049E+02, 3.012E+00, 1.271E-01, 4.469E-02, 0.000E+00
 5.900E+02, 9.728E+01, 9.534E+01, 9.275E+01, 9.822E+01, 1.009E+02, 8.741E+01, 9.493E+01, 1.037E+02, 4.467E+00, 1.274E-01, 4.463E-02, 0.000E+00
 6.000E+02, 9.529E+01, 9.482E+01, 8.947E+01, 9.772E+01, 9.866E+01, 8.700E+01, 9.626E+01, 1.012E+02, 3.862E+00, 1.268E-01, 4.446E-02, 0.000E+00
