s,C,C,C,C,C,C,C,C,Pa,mol/mol,mol/mol,kW
Time,"West_All_TCs","East_All_TCs","West_Bottom_TCs","West_Middle_TCs","West_Upper_TCs","East_Bottom_TCs","East_Middle_TCs","East_Upper_TCs","Pressure","O2","CO2","HRR"
-6.000E+01, 2.500E+01, 2.500E+01, 2.500E+01, 2.500E+01, 2.500E+01, 2.500E+01, 2.500E+01, 2.500E+01,-9.627E-06, 2.095E-01, 3.901E-04, 0.000E+00
-4.995E+01, 2.442E+01, 2.413E+01, 2.493E+01, 2.246E+01, 2.588E+01, 2.443E+01, 2.031E+01, 2.763E+01,-7.822E+01, 2.095E-01, 3.901E-04, 0.000E+00
-3.995E+01, 2.440E+01, 2.498E+01, 2.362E+01, 2.255E+01, 2.702E+01, 2.238E+01, 2.197E+01, 3.058E+01,-8.275E+01, 2.095E-01, 3.901E-04, 0.000E+00
-2.993E+01, 2.404E+01, 2.522E+01, 2.156E+01, 2.149E+01, 2.909E+01, 2.178E+01, 2.153E+01, 3.234E+01,-8.217E+01, 2.095E-01, 3.901E-04, 0.000E+00
-1.996E+01, 2.402E+01, 2.581E+01, 2.119E+01, 2.074E+01, 3.014E+01, 2.141E+01, 2.270E+01, 3.333E+01,-8.157E+01, 2.095E-01, 3.901E-04, 0.000E+00
-9.977E+00, 2.362E+01, 2.572E+01, 2.095E+01, 2.101E+01, 2.891E+01, 2.139E+01, 2.330E+01, 3.247E+01,-8.140E+01, 2.095E-01, 3.901E-04, 0.000E+00
 3.699E-02, 2.341E+01, 2.537E+01, 2.112E+01, 2.139E+01, 2.773E+01, 2.141E+01, 2.334E+01, 3.136E+01,-8.133E+01, 2.095E-01, 3.901E-04, 4.223E-04
 1.000E+01, 2.455E+01, 2.648E+01, 2.174E+01, 2.297E+01, 2.892E+01, 2.233E+01, 2.595E+01, 3.117E+01,-3.907E+01, 2.095E-01, 3.901E-04, 3.252E+01
 2.002E+01, 2.868E+01, 3.008E+01, 2.390E+01, 3.188E+01, 3.026E+01, 2.442E+01, 3.414E+01, 3.168E+01, 2.604E+00, 2.095E-01, 3.901E-04, 9.932E+01
 3.001E+01, 3.782E+01, 3.889E+01, 2.818E+01, 5.400E+01, 3.127E+01, 2.991E+01, 5.570E+01, 3.107E+01, 3.808E+01, 2.095E-01, 3.901E-04, 1.660E+02
 4.001E+01, 4.955E+01, 5.027E+01, 3.591E+01, 8.046E+01, 3.229E+01, 3.721E+01, 8.319E+01, 3.041E+01, 5.362E+01, 2.095E-01, 3.901E-04, 2.003E+02
 5.002E+01, 6.191E+01, 6.300E+01, 4.936E+01, 1.008E+02, 3.555E+01, 5.025E+01, 1.066E+02, 3.217E+01, 2.963E+01, 2.091E-01, 6.399E-04, 2.001E+02
 6.002E+01, 7.197E+01, 7.335E+01, 6.095E+01, 1.197E+02, 3.530E+01, 6.263E+01, 1.217E+02, 3.568E+01, 1.528E+01, 2.084E-01, 1.043E-03, 2.003E+02
 7.001E+01, 8.217E+01, 8.320E+01, 7.343E+01, 1.340E+02, 3.914E+01, 7.694E+01, 1.345E+02, 3.817E+01, 7.877E+00, 2.080E-01, 1.251E-03, 2.000E+02
 8.000E+01, 9.012E+01, 9.047E+01, 8.676E+01, 1.421E+02, 4.152E+01, 8.766E+01, 1.437E+02, 4.005E+01, 1.100E+00, 2.075E-01, 1.554E-03, 1.997E+02
 9.002E+01, 9.664E+01, 9.986E+01, 9.716E+01, 1.494E+02, 4.342E+01, 1.003E+02, 1.560E+02, 4.324E+01,-4.860E+00, 2.068E-01, 1.928E-03, 2.004E+02
 1.000E+02, 1.021E+02, 1.055E+02, 1.062E+02, 1.545E+02, 4.558E+01, 1.088E+02, 1.623E+02, 4.547E+01,-1.360E+01, 2.063E-01, 2.231E-03, 1.999E+02
 1.100E+02, 1.071E+02, 1.100E+02, 1.145E+02, 1.591E+02, 4.748E+01, 1.171E+02, 1.658E+02, 4.724E+01,-2.098E+01, 2.057E-01, 2.540E-03, 2.005E+02
 1.200E+02, 1.095E+02, 1.138E+02, 1.171E+02, 1.621E+02, 4.926E+01, 1.208E+02, 1.714E+02, 4.902E+01,-3.131E+01, 2.052E-01, 2.795E-03, 1.997E+02
 1.300E+02, 1.127E+02, 1.157E+02, 1.203E+02, 1.669E+02, 5.093E+01, 1.258E+02, 1.706E+02, 5.055E+01,-4.061E+01, 2.046E-01, 3.152E-03, 2.002E+02
 1.400E+02, 1.155E+02, 1.177E+02, 1.235E+02, 1.708E+02, 5.214E+01, 1.267E+02, 1.745E+02, 5.194E+01,-4.351E+01, 2.039E-01, 3.532E-03, 1.998E+02
 1.500E+02, 1.176E+02, 1.189E+02, 1.271E+02, 1.724E+02, 5.337E+01, 1.305E+02, 1.732E+02, 5.306E+01,-4.936E+01, 2.030E-01, 4.024E-03, 2.004E+02
 1.600E+02, 1.197E+02, 1.207E+02, 1.288E+02, 1.750E+02, 5.540E+01, 1.299E+02, 1.767E+02, 5.544E+01,-5.412E+01, 2.022E-01, 4.516E-03, 1.999E+02
 1.700E+02, 1.188E+02, 1.225E+02, 1.282E+02, 1.725E+02, 5.576E+01, 1.323E+02, 1.788E+02, 5.638E+01,-5.937E+01, 2.014E-01, 4.928E-03, 2.002E+02
 1.800E+02, 1.210E+02, 1.227E+02, 1.300E+02, 1.753E+02, 5.783E+01, 1.322E+02, 1.789E+02, 5.709E+01,-5.796E+01, 2.003E-01, 5.541E-03, 1.998E+02
 1.900E+02, 1.217E+02, 1.236E+02, 1.315E+02, 1.756E+02, 5.813E+01, 1.344E+02, 1.783E+02, 5.798E+01,-6.080E+01, 1.994E-01, 6.057E-03, 2.001E+02
 2.000E+02, 1.230E+02, 1.257E+02, 1.315E+02, 1.787E+02, 5.869E+01, 1.379E+02, 1.809E+02, 5.825E+01,-6.444E+01, 1.986E-01, 6.508E-03, 2.004E+02
 2.100E+02, 1.225E+02, 1.262E+02, 1.312E+02, 1.784E+02, 5.787E+01, 1.406E+02, 1.796E+02, 5.844E+01,-6.528E+01, 1.978E-01, 6.931E-03, 2.003E+02
 2.200E+02, 1.216E+02, 1.262E+02, 1.317E+02, 1.750E+02, 5.814E+01, 1.385E+02, 1.822E+02, 5.796E+01,-6.285E+01, 1.972E-01, 7.279E-03, 1.999E+02
 2.300E+02, 1.228E+02, 1.273E+02, 1.331E+02, 1.768E+02, 5.850E+01, 1.383E+02, 1.842E+02, 5.931E+01,-6.691E+01, 1.960E-01, 7.965E-03, 1.998E+02
 2.400E+02, 1.231E+02, 1.265E+02, 1.315E+02, 1.790E+02, 5.876E+01, 1.399E+02, 1.809E+02, 5.857E+01,-6.507E+01, 1.955E-01, 8.211E-03, 2.001E+02
 2.500E+02, 1.246E+02, 1.269E+02, 1.342E+02, 1.798E+02, 5.977E+01, 1.367E+02, 1.857E+02, 5.835E+01,-6.190E+01, 1.944E-01, 8.880E-03, 2.004E+02
 2.600E+02, 1.264E+02, 1.295E+02, 1.347E+02, 1.837E+02, 6.097E+01, 1.389E+02, 1.895E+02, 6.015E+01,-6.857E+01, 1.927E-01, 9.797E-03, 1.999E+02
 2.700E+02, 1.253E+02, 1.294E+02, 1.340E+02, 1.815E+02, 6.034E+01, 1.389E+02, 1.889E+02, 6.048E+01,-6.342E+01, 1.921E-01, 1.014E-02, 2.004E+02
 2.800E+02, 1.251E+02, 1.283E+02, 1.352E+02, 1.792E+02, 6.082E+01, 1.396E+02, 1.851E+02, 6.016E+01,-6.166E+01, 1.914E-01, 1.053E-02, 2.002E+02
 2.900E+02, 1.265E+02, 1.309E+02, 1.363E+02, 1.822E+02, 6.096E+01, 1.413E+02, 1.914E+02, 5.999E+01,-6.501E+01, 1.905E-01, 1.105E-02, 1.997E+02
 3.000E+02, 1.276E+02, 1.302E+02, 1.380E+02, 1.833E+02, 6.131E+01, 1.407E+02, 1.890E+02, 6.087E+01,-6.556E+01, 1.894E-01, 1.164E-02, 1.999E+02
 3.100E+02, 1.279E+02, 1.293E+02, 1.387E+02, 1.834E+02, 6.153E+01, 1.429E+02, 1.840E+02, 6.113E+01,-6.496E+01, 1.885E-01, 1.215E-02, 2.002E+02
 3.200E+02, 1.281E+02, 1.328E+02, 1.377E+02, 1.845E+02, 6.191E+01, 1.460E+02, 1.910E+02, 6.151E+01,-6.841E+01, 1.877E-01, 1.260E-02, 2.002E+02
 3.300E+02, 1.284E+02, 1.301E+02, 1.388E+02, 1.852E+02, 6.113E+01, 1.444E+02, 1.845E+02, 6.140E+01,-6.733E+01, 1.867E-01, 1.314E-02, 2.000E+02
 3.400E+02, 1.274E+02, 1.316E+02, 1.372E+02, 1.837E+02, 6.136E+01, 1.463E+02, 1.873E+02, 6.122E+01,-6.548E+01, 1.861E-01, 1.349E-02, 2.000E+02
 3.500E+02, 1.274E+02, 1.307E+02, 1.382E+02, 1.821E+02, 6.186E+01, 1.439E+02, 1.878E+02, 6.036E+01,-6.247E+01, 1.850E-01, 1.408E-02, 2.005E+02
 3.600E+02, 1.277E+02, 1.318E+02, 1.379E+02, 1.840E+02, 6.134E+01, 1.430E+02, 1.903E+02, 6.209E+01,-6.094E+01, 1.840E-01, 1.464E-02, 1.997E+02
 3.700E+02, 1.277E+02, 1.331E+02, 1.378E+02, 1.827E+02, 6.264E+01, 1.430E+02, 1.927E+02, 6.360E+01,-6.160E+01, 1.829E-01, 1.531E-02, 2.000E+02
 3.800E+02, 1.285E+02, 1.325E+02, 1.389E+02, 1.829E+02, 6.361E+01, 1.456E+02, 1.896E+02, 6.223E+01,-6.237E+01, 1.823E-01, 1.563E-02, 2.004E+02
 3.900E+02, 1.301E+02, 1.324E+02, 1.393E+02, 1.865E+02, 6.464E+01, 1.465E+02, 1.874E+02, 6.340E+01,-6.034E+01, 1.812E-01, 1.623E-02, 2.000E+02
 4.000E+02, 1.324E+02, 1.335E+02, 1.435E+02, 1.891E+02, 6.442E+01, 1.459E+02, 1.906E+02, 6.387E+01,-6.008E+01, 1.800E-01, 1.688E-02, 1.996E+02
 4.100E+02, 1.310E+02, 1.340E+02, 1.408E+02, 1.883E+02, 6.403E+01, 1.465E+02, 1.901E+02, 6.541E+01,-6.415E+01, 1.789E-01, 1.753E-02, 2.003E+02
 4.200E+02, 1.319E+02, 1.337E+02, 1.402E+02, 1.902E+02, 6.525E+01, 1.471E+02, 1.894E+02, 6.443E+01,-6.165E+01, 1.785E-01, 1.776E-02, 2.004E+02
 4.300E+02, 1.307E+02, 1.335E+02, 1.401E+02, 1.865E+02, 6.536E+01, 1.448E+02, 1.905E+02, 6.518E+01,-6.114E+01, 1.775E-01, 1.830E-02, 1.995E+02
 4.400E+02, 1.322E+02, 1.338E+02, 1.439E+02, 1.866E+02, 6.620E+01, 1.441E+02, 1.920E+02, 6.529E+01,-6.085E+01, 1.764E-01, 1.890E-02, 2.000E+02
 4.500E+02, 1.327E+02, 1.367E+02, 1.421E+02, 1.900E+02, 6.614E+01, 1.497E+02, 1.946E+02, 6.566E+01,-6.590E+01, 1.755E-01, 1.939E-02, 1.999E+02
 4.600E+02, 1.330E+02, 1.374E+02, 1.418E+02, 1.904E+02, 6.685E+01, 1.505E+02, 1.959E+02, 6.578E+01,-6.829E+01, 1.745E-01, 1.997E-02, 2.004E+02
 4.700E+02, 1.327E+02, 1.356E+02, 1.433E+02, 1.875E+02, 6.731E+01, 1.482E+02, 1.941E+02, 6.443E+01,-6.190E+01, 1.740E-01, 2.025E-02, 1.997E+02
 4.800E+02, 1.343E+02, 1.372E+02, 1.443E+02, 1.910E+02, 6.761E+01, 1.467E+02, 1.983E+02, 6.645E+01,-6.168E+01, 1.730E-01, 2.080E-02, 2.000E+02
 4.900E+02, 1.352E+02, 1.368E+02, 1.450E+02, 1.918E+02, 6.878E+01, 1.482E+02, 1.960E+02, 6.620E+01,-5.990E+01, 1.724E-01, 2.112E-02, 1.999E+02
 5.000E+02, 1.345E+02, 1.374E+02, 1.438E+02, 1.916E+02, 6.804E+01, 1.499E+02, 1.954E+02, 6.691E+01,-6.329E+01, 1.710E-01, 2.190E-02, 2.003E+02
 5.100E+02, 1.346E+02, 1.380E+02, 1.451E+02, 1.924E+02, 6.641E+01, 1.498E+02, 1.982E+02, 6.612E+01,-6.009E+01, 1.704E-01, 2.228E-02, 2.001E+02
 5.200E+02, 1.357E+02, 1.383E+02, 1.449E+02, 1.940E+02, 6.832E+01, 1.504E+02, 1.969E+02, 6.744E+01,-6.936E+01, 1.697E-01, 2.266E-02, 2.002E+02
 5.300E+02, 1.343E+02, 1.392E+02, 1.445E+02, 1.909E+02, 6.771E+01, 1.510E+02, 2.012E+02, 6.532E+01,-5.994E+01, 1.694E-01, 2.281E-02, 1.997E+02
 5.400E+02, 1.352E+02, 1.385E+02, 1.475E+02, 1.899E+02, 6.838E+01, 1.495E+02, 1.988E+02, 6.707E+01,-6.249E+01, 1.684E-01, 2.337E-02, 1.999E+02
 5.500E+02, 1.355E+02, 1.383E+02, 1.474E+02, 1.910E+02, 6.820E+01, 1.532E+02, 1.947E+02, 6.701E+01,-6.239E+01, 1.678E-01, 2.369E-02, 2.000E+02
 5.600E+02, 1.372E+02, 1.396E+02, 1.471E+02, 1.954E+02, 6.903E+01, 1.501E+02, 2.012E+02, 6.750E+01,-6.266E+01, 1.673E-01, 2.402E-02, 1.998E+02
 5.700E+02, 1.375E+02, 1.382E+02, 1.483E+02, 1.956E+02, 6.849E+01, 1.526E+02, 1.953E+02, 6.685E+01,-6.287E+01, 1.667E-01, 2.433E-02, 2.007E+02
 5.800E+02, 1.376E+02, 1.405E+02, 1.458E+02, 1.969E+02, 6.996E+01, 1.555E+02, 1.992E+02, 6.687E+01,-6.810E+01, 1.661E-01, 2.466E-02, 1.991E+02
 5.900E+02, 1.363E+02, 1.402E+02, 1.458E+02, 1.949E+02, 6.828E+01, 1.552E+02, 1.986E+02, 6.683E+01,-6.181E+01, 1.657E-01, 2.490E-02, 2.006E+02
 6.000E+02, 1.360E+02, 1.407E+02, 1.477E+02, 1.914E+02, 6.889E+01, 1.530E+02, 2.019E+02, 6.701E+01,-5.906E+01, 1.652E-01, 2.516E-02, 2.003E+02
 6.100E+02, 1.375E+02, 1.406E+02, 1.488E+02, 1.946E+02, 6.900E+01, 1.544E+02, 1.992E+02, 6.807E+01,-6.368E+01, 1.646E-01, 2.553E-02, 1.999E+02
 6.200E+02, 1.377E+02, 1.403E+02, 1.473E+02, 1.955E+02, 7.013E+01, 1.540E+02, 1.986E+02, 6.824E+01,-6.233E+01, 1.639E-01, 2.587E-02, 2.001E+02
 6.300E+02, 1.397E+02, 1.404E+02, 1.499E+02, 1.978E+02, 7.120E+01, 1.538E+02, 1.990E+02, 6.823E+01,-5.938E+01, 1.633E-01, 2.621E-02, 1.998E+02
 6.400E+02, 1.394E+02, 1.413E+02, 1.500E+02, 1.975E+02, 7.059E+01, 1.536E+02, 2.017E+02, 6.876E+01,-6.148E+01, 1.629E-01, 2.648E-02, 2.000E+02
 6.500E+02, 1.394E+02, 1.419E+02, 1.493E+02, 1.976E+02, 7.122E+01, 1.558E+02, 2.010E+02, 6.898E+01,-6.398E+01, 1.622E-01, 2.684E-02, 1.999E+02
 6.600E+02, 1.384E+02, 1.441E+02, 1.488E+02, 1.960E+02, 7.032E+01, 1.581E+02, 2.057E+02, 6.865E+01,-6.345E+01, 1.619E-01, 2.701E-02, 2.003E+02
 6.700E+02, 1.396E+02, 1.447E+02, 1.503E+02, 1.974E+02, 7.110E+01, 1.564E+02, 2.090E+02, 6.871E+01,-6.182E+01, 1.615E-01, 2.722E-02, 2.001E+02
 6.800E+02, 1.399E+02, 1.416E+02, 1.502E+02, 1.987E+02, 7.063E+01, 1.558E+02, 2.002E+02, 6.878E+01,-6.301E+01, 1.611E-01, 2.744E-02, 2.000E+02
 6.900E+02, 1.410E+02, 1.426E+02, 1.515E+02, 1.994E+02, 7.213E+01, 1.567E+02, 2.008E+02, 7.023E+01,-6.358E+01, 1.605E-01, 2.779E-02, 2.000E+02
 7.000E+02, 1.406E+02, 1.431E+02, 1.493E+02, 2.015E+02, 7.112E+01, 1.583E+02, 2.017E+02, 6.937E+01,-6.665E+01, 1.603E-01, 2.792E-02, 1.999E+02
 7.100E+02, 1.393E+02, 1.451E+02, 1.488E+02, 1.982E+02, 7.101E+01, 1.602E+02, 2.051E+02, 7.003E+01,-6.201E+01, 1.598E-01, 2.818E-02, 2.005E+02
 7.200E+02, 1.398E+02, 1.446E+02, 1.504E+02, 1.990E+02, 7.007E+01, 1.585E+02, 2.054E+02, 6.981E+01,-6.130E+01, 1.595E-01, 2.835E-02, 1.996E+02
 7.300E+02, 1.427E+02, 1.443E+02, 1.516E+02, 2.047E+02, 7.160E+01, 1.591E+02, 2.035E+02, 7.024E+01,-6.430E+01, 1.593E-01, 2.849E-02, 1.999E+02
 7.400E+02, 1.411E+02, 1.449E+02, 1.502E+02, 2.011E+02, 7.188E+01, 1.598E+02, 2.047E+02, 7.012E+01,-6.028E+01, 1.588E-01, 2.876E-02, 1.999E+02
 7.500E+02, 1.416E+02, 1.441E+02, 1.521E+02, 2.007E+02, 7.215E+01, 1.533E+02, 2.094E+02, 6.975E+01,-5.956E+01, 1.584E-01, 2.899E-02, 2.002E+02
 7.600E+02, 1.428E+02, 1.444E+02, 1.558E+02, 2.007E+02, 7.202E+01, 1.540E+02, 2.083E+02, 7.105E+01,-6.063E+01, 1.578E-01, 2.931E-02, 1.996E+02
 7.700E+02, 1.439E+02, 1.445E+02, 1.527E+02, 2.058E+02, 7.334E+01, 1.586E+02, 2.044E+02, 7.055E+01,-6.010E+01, 1.575E-01, 2.947E-02, 1.995E+02
 7.800E+02, 1.424E+02, 1.461E+02, 1.528E+02, 2.007E+02, 7.359E+01, 1.599E+02, 2.070E+02, 7.135E+01,-5.969E+01, 1.569E-01, 2.978E-02, 2.004E+02
 7.900E+02, 1.432E+02, 1.462E+02, 1.530E+02, 2.024E+02, 7.408E+01, 1.599E+02, 2.067E+02, 7.193E+01,-5.996E+01, 1.566E-01, 2.997E-02, 1.998E+02
 8.000E+02, 1.428E+02, 1.470E+02, 1.523E+02, 2.021E+02, 7.400E+01, 1.625E+02, 2.055E+02, 7.284E+01,-6.397E+01, 1.561E-01, 3.026E-02, 2.000E+02
 8.100E+02, 1.436E+02, 1.462E+02, 1.546E+02, 2.020E+02, 7.429E+01, 1.597E+02, 2.079E+02, 7.106E+01,-6.134E+01, 1.560E-01, 3.033E-02, 2.001E+02
 8.200E+02, 1.443E+02, 1.463E+02, 1.547E+02, 2.038E+02, 7.424E+01, 1.588E+02, 2.065E+02, 7.345E+01,-6.443E+01, 1.554E-01, 3.063E-02, 2.005E+02
 8.300E+02, 1.444E+02, 1.479E+02, 1.539E+02, 2.040E+02, 7.529E+01, 1.628E+02, 2.081E+02, 7.282E+01,-6.429E+01, 1.552E-01, 3.075E-02, 1.994E+02
 8.400E+02, 1.428E+02, 1.495E+02, 1.529E+02, 2.021E+02, 7.339E+01, 1.641E+02, 2.109E+02, 7.344E+01,-6.197E+01, 1.549E-01, 3.091E-02, 1.999E+02
 8.500E+02, 1.441E+02, 1.489E+02, 1.553E+02, 2.029E+02, 7.414E+01, 1.618E+02, 2.131E+02, 7.164E+01,-6.014E+01, 1.549E-01, 3.091E-02, 2.003E+02
 8.600E+02, 1.444E+02, 1.473E+02, 1.540E+02, 2.043E+02, 7.483E+01, 1.641E+02, 2.052E+02, 7.255E+01,-6.348E+01, 1.545E-01, 3.113E-02, 2.001E+02
 8.700E+02, 1.451E+02, 1.491E+02, 1.562E+02, 2.037E+02, 7.532E+01, 1.632E+02, 2.117E+02, 7.234E+01,-6.308E+01, 1.543E-01, 3.124E-02, 1.998E+02
 8.800E+02, 1.470E+02, 1.484E+02, 1.576E+02, 2.080E+02, 7.529E+01, 1.620E+02, 2.106E+02, 7.257E+01,-6.448E+01, 1.540E-01, 3.140E-02, 2.003E+02
 8.900E+02, 1.459E+02, 1.489E+02, 1.576E+02, 2.054E+02, 7.464E+01, 1.642E+02, 2.096E+02, 7.285E+01,-6.389E+01, 1.539E-01, 3.148E-02, 2.002E+02
 9.000E+02, 1.436E+02, 1.481E+02, 1.538E+02, 2.025E+02, 7.454E+01, 1.661E+02, 2.061E+02, 7.211E+01,-5.944E+01, 1.538E-01, 3.154E-02, 1.997E+02
 9.100E+02, 1.449E+02, 1.499E+02, 1.563E+02, 2.033E+02, 7.510E+01, 1.648E+02, 2.117E+02, 7.324E+01,-5.817E+01, 1.536E-01, 3.167E-02, 1.994E+02
 9.200E+02, 1.457E+02, 1.508E+02, 1.561E+02, 2.049E+02, 7.611E+01, 1.656E+02, 2.130E+02, 7.384E+01,-6.344E+01, 1.533E-01, 3.182E-02, 2.000E+02
 9.300E+02, 1.469E+02, 1.502E+02, 1.572E+02, 2.066E+02, 7.700E+01, 1.652E+02, 2.109E+02, 7.456E+01,-5.678E+01, 1.529E-01, 3.201E-02, 1.999E+02
 9.400E+02, 1.470E+02, 1.496E+02, 1.594E+02, 2.049E+02, 7.673E+01, 1.643E+02, 2.101E+02, 7.444E+01,-5.841E+01, 1.527E-01, 3.217E-02, 1.998E+02
 9.500E+02, 1.492E+02, 1.507E+02, 1.596E+02, 2.106E+02, 7.743E+01, 1.678E+02, 2.099E+02, 7.440E+01,-6.053E+01, 1.524E-01, 3.230E-02, 2.001E+02
 9.600E+02, 1.464E+02, 1.527E+02, 1.561E+02, 2.058E+02, 7.741E+01, 1.692E+02, 2.137E+02, 7.524E+01,-6.282E+01, 1.521E-01, 3.248E-02, 1.997E+02
 9.700E+02, 1.470E+02, 1.514E+02, 1.582E+02, 2.056E+02, 7.725E+01, 1.659E+02, 2.131E+02, 7.519E+01,-6.129E+01, 1.520E-01, 3.253E-02, 1.998E+02
 9.800E+02, 1.481E+02, 1.507E+02, 1.589E+02, 2.080E+02, 7.758E+01, 1.664E+02, 2.093E+02, 7.639E+01,-6.458E+01, 1.518E-01, 3.266E-02, 2.005E+02
 9.900E+02, 1.481E+02, 1.512E+02, 1.578E+02, 2.084E+02, 7.803E+01, 1.632E+02, 2.148E+02, 7.572E+01,-5.728E+01, 1.515E-01, 3.280E-02, 2.003E+02
 1.000E+03, 1.497E+02, 1.511E+02, 1.614E+02, 2.078E+02, 7.974E+01, 1.635E+02, 2.139E+02, 7.598E+01,-5.716E+01, 1.511E-01, 3.303E-02, 2.000E+02
 1.010E+03, 1.485E+02, 1.527E+02, 1.589E+02, 2.088E+02, 7.766E+01, 1.654E+02, 2.160E+02, 7.662E+01,-6.396E+01, 1.509E-01, 3.316E-02, 1.998E+02
 1.020E+03, 1.493E+02, 1.525E+02, 1.591E+02, 2.103E+02, 7.865E+01, 1.670E+02, 2.135E+02, 7.686E+01,-6.143E+01, 1.508E-01, 3.320E-02, 2.008E+02
 1.030E+03, 1.495E+02, 1.532E+02, 1.595E+02, 2.099E+02, 7.901E+01, 1.689E+02, 2.135E+02, 7.716E+01,-6.371E+01, 1.505E-01, 3.341E-02, 1.998E+02
 1.040E+03, 1.487E+02, 1.545E+02, 1.589E+02, 2.082E+02, 7.890E+01, 1.700E+02, 2.165E+02, 7.682E+01,-6.067E+01, 1.505E-01, 3.340E-02, 2.000E+02
 1.050E+03, 1.490E+02, 1.537E+02, 1.599E+02, 2.080E+02, 7.890E+01, 1.676E+02, 2.164E+02, 7.712E+01,-6.164E+01, 1.504E-01, 3.342E-02, 2.003E+02
 1.060E+03, 1.497E+02, 1.525E+02, 1.603E+02, 2.095E+02, 7.939E+01, 1.686E+02, 2.115E+02, 7.745E+01,-6.116E+01, 1.502E-01, 3.353E-02, 2.000E+02
 1.070E+03, 1.497E+02, 1.529E+02, 1.610E+02, 2.100E+02, 7.822E+01, 1.667E+02, 2.148E+02, 7.711E+01,-5.858E+01, 1.502E-01, 3.356E-02, 2.001E+02
 1.080E+03, 1.524E+02, 1.536E+02, 1.631E+02, 2.147E+02, 7.940E+01, 1.671E+02, 2.158E+02, 7.803E+01,-6.485E+01, 1.498E-01, 3.379E-02, 1.997E+02
 1.090E+03, 1.525E+02, 1.544E+02, 1.627E+02, 2.140E+02, 8.061E+01, 1.685E+02, 2.164E+02, 7.833E+01,-6.533E+01, 1.497E-01, 3.382E-02, 2.002E+02
 1.100E+03, 1.501E+02, 1.548E+02, 1.603E+02, 2.110E+02, 7.921E+01, 1.704E+02, 2.164E+02, 7.749E+01,-6.100E+01, 1.496E-01, 3.390E-02, 1.999E+02
 1.110E+03, 1.488E+02, 1.544E+02, 1.594E+02, 2.078E+02, 7.915E+01, 1.678E+02, 2.195E+02, 7.595E+01,-5.594E+01, 1.497E-01, 3.383E-02, 2.001E+02
 1.120E+03, 1.513E+02, 1.565E+02, 1.609E+02, 2.113E+02, 8.164E+01, 1.698E+02, 2.213E+02, 7.829E+01,-6.024E+01, 1.496E-01, 3.389E-02, 1.999E+02
 1.130E+03, 1.510E+02, 1.546E+02, 1.606E+02, 2.117E+02, 8.083E+01, 1.697E+02, 2.147E+02, 7.926E+01,-6.197E+01, 1.495E-01, 3.395E-02, 2.003E+02
 1.140E+03, 1.511E+02, 1.522E+02, 1.628E+02, 2.092E+02, 8.130E+01, 1.644E+02, 2.141E+02, 7.803E+01,-5.750E+01, 1.492E-01, 3.412E-02, 1.996E+02
 1.150E+03, 1.523E+02, 1.547E+02, 1.637E+02, 2.115E+02, 8.168E+01, 1.670E+02, 2.182E+02, 7.872E+01,-5.926E+01, 1.489E-01, 3.425E-02, 1.999E+02
 1.160E+03, 1.528E+02, 1.546E+02, 1.625E+02, 2.143E+02, 8.154E+01, 1.701E+02, 2.141E+02, 7.964E+01,-6.657E+01, 1.488E-01, 3.434E-02, 2.002E+02
 1.170E+03, 1.507E+02, 1.560E+02, 1.604E+02, 2.108E+02, 8.078E+01, 1.715E+02, 2.188E+02, 7.774E+01,-5.858E+01, 1.488E-01, 3.436E-02, 1.998E+02
 1.180E+03, 1.530E+02, 1.557E+02, 1.650E+02, 2.126E+02, 8.135E+01, 1.687E+02, 2.197E+02, 7.880E+01,-6.146E+01, 1.486E-01, 3.444E-02, 2.006E+02
 1.190E+03, 1.531E+02, 1.556E+02, 1.625E+02, 2.147E+02, 8.210E+01, 1.712E+02, 2.170E+02, 7.862E+01,-6.311E+01, 1.487E-01, 3.440E-02, 1.994E+02
 1.200E+03, 1.533E+02, 1.556E+02, 1.648E+02, 2.133E+02, 8.194E+01, 1.704E+02, 2.168E+02, 7.964E+01,-6.079E+01, 1.483E-01, 3.461E-02, 1.995E+02
 1.210E+03, 1.539E+02, 1.561E+02, 1.652E+02, 2.143E+02, 8.227E+01, 1.706E+02, 2.170E+02, 8.066E+01,-6.140E+01, 1.481E-01, 3.471E-02, 2.008E+02
 1.220E+03, 1.534E+02, 1.569E+02, 1.630E+02, 2.150E+02, 8.203E+01, 1.739E+02, 2.167E+02, 8.003E+01,-5.913E+01, 1.482E-01, 3.466E-02, 1.998E+02
 1.230E+03, 1.541E+02, 1.589E+02, 1.631E+02, 2.166E+02, 8.281E+01, 1.744E+02, 2.223E+02, 7.991E+01,-6.445E+01, 1.481E-01, 3.474E-02, 2.000E+02
 1.240E+03, 1.539E+02, 1.583E+02, 1.637E+02, 2.154E+02, 8.265E+01, 1.728E+02, 2.209E+02, 8.109E+01,-5.875E+01, 1.480E-01, 3.478E-02, 1.998E+02
 1.250E+03, 1.538E+02, 1.581E+02, 1.647E+02, 2.130E+02, 8.366E+01, 1.719E+02, 2.216E+02, 8.060E+01,-6.248E+01, 1.481E-01, 3.475E-02, 2.006E+02
 1.260E+03, 1.544E+02, 1.570E+02, 1.666E+02, 2.123E+02, 8.428E+01, 1.713E+02, 2.197E+02, 8.017E+01,-6.276E+01, 1.481E-01, 3.475E-02, 2.000E+02
 1.270E+03, 1.545E+02, 1.571E+02, 1.655E+02, 2.138E+02, 8.429E+01, 1.721E+02, 2.187E+02, 8.063E+01,-5.971E+01, 1.481E-01, 3.473E-02, 1.999E+02
 1.280E+03, 1.551E+02, 1.588E+02, 1.636E+02, 2.179E+02, 8.378E+01, 1.768E+02, 2.194E+02, 8.012E+01,-6.523E+01, 1.480E-01, 3.476E-02, 1.997E+02
 1.290E+03, 1.540E+02, 1.576E+02, 1.624E+02, 2.154E+02, 8.426E+01, 1.739E+02, 2.183E+02, 8.044E+01,-6.134E+01, 1.480E-01, 3.480E-02, 2.002E+02
 1.300E+03, 1.549E+02, 1.575E+02, 1.662E+02, 2.150E+02, 8.338E+01, 1.733E+02, 2.186E+02, 8.068E+01,-6.049E+01, 1.479E-01, 3.481E-02, 1.997E+02
 1.310E+03, 1.558E+02, 1.580E+02, 1.643E+02, 2.183E+02, 8.492E+01, 1.758E+02, 2.174E+02, 8.075E+01,-6.389E+01, 1.479E-01, 3.481E-02, 2.003E+02
