s,C,C,C,C,C,C,C,C,Pa,mol/mol,mol/mol,kW
Time,"West_All_TCs","East_All_TCs","West_Bottom_TCs","West_Middle_TCs","West_Upper_TCs","East_Bottom_TCs","East_Middle_TCs","East_Upper_TCs","Pressure","O2","CO2","HRR"
-6.000E+01, 4.100E+01, 4.100E+01, 4.100E+01, 4.100E+01, 4.100E+01, 4.100E+01, 4.100E+01, 4.100E+01,-9.072E-06, 2.095E-01, 3.901E-04, 0.000E+00
-4.998E+01, 4.100E+01, 4.100E+01, 4.100E+01, 4.100E+01, 4.100E+01, 4.100E+01, 4.100E+01, 4.100E+01, 3.487E-06, 2.095E-01, 3.901E-04, 0.000E+00
-3.996E+01, 4.100E+01, 4.100E+01, 4.100E+01, 4.100E+01, 4.100E+01, 4.100E+01, 4.100E+01, 4.100E+01,-1.609E-07, 2.095E-01, 3.901E-04, 0.000E+00
-2.994E+01, 4.100E+01, 4.100E+01, 4.100E+01, 4.100E+01, 4.100E+01, 4.100E+01, 4.100E+01, 4.100E+01, 1.576E-06, 2.095E-01, 3.901E-04, 0.000E+00
-1.992E+01, 4.100E+01, 4.100E+01, 4.100E+01, 4.100E+01, 4.100E+01, 4.100E+01, 4.100E+01, 4.100E+01, 3.936E-06, 2.095E-01, 3.901E-04, 0.000E+00
-9.896E+00, 4.100E+01, 4.100E+01, 4.100E+01, 4.100E+01, 4.100E+01, 4.100E+01, 4.100E+01, 4.100E+01, 3.019E-06, 2.095E-01, 3.901E-04, 0.000E+00
 1.301E-02, 4.100E+01, 4.100E+01, 4.100E+01, 4.100E+01, 4.100E+01, 4.100E+01, 4.100E+01, 4.100E+01, 2.776E-06, 2.095E-01, 3.901E-04, 8.818E-05
 1.002E+01, 4.146E+01, 4.163E+01, 4.122E+01, 4.218E+01, 4.100E+01, 4.134E+01, 4.254E+01, 4.100E+01, 2.790E-03, 2.095E-01, 3.901E-04, 1.638E+01
 2.002E+01, 4.303E+01, 4.356E+01, 4.179E+01, 4.629E+01, 4.100E+01, 4.224E+01, 4.743E+01, 4.100E+01, 1.811E-04, 2.095E-01, 3.901E-04, 4.964E+01
 3.002E+01, 4.726E+01, 4.813E+01, 4.380E+01, 5.656E+01, 4.142E+01, 4.479E+01, 5.860E+01, 4.100E+01, 1.427E-02, 2.095E-01, 3.901E-04, 8.304E+01
 4.001E+01, 5.327E+01, 5.384E+01, 4.661E+01, 6.978E+01, 4.343E+01, 4.843E+01, 7.208E+01, 4.100E+01, 1.247E-01, 2.095E-01, 3.906E-04, 9.997E+01
 5.002E+01, 5.740E+01, 5.844E+01, 5.003E+01, 7.890E+01, 4.325E+01, 5.211E+01, 8.189E+01, 4.132E+01, 2.129E-01, 2.095E-01, 4.361E-04, 1.000E+02
 6.002E+01, 6.241E+01, 6.265E+01, 5.392E+01, 8.774E+01, 4.556E+01, 5.519E+01, 8.872E+01, 4.404E+01, 2.864E-01, 2.089E-01, 7.658E-04, 1.000E+02
 7.001E+01, 6.515E+01, 6.701E+01, 5.698E+01, 9.239E+01, 4.607E+01, 5.855E+01, 9.608E+01, 4.639E+01, 2.289E-01, 2.085E-01, 9.579E-04, 9.997E+01
 8.002E+01, 6.774E+01, 6.876E+01, 5.916E+01, 9.670E+01, 4.737E+01, 6.071E+01, 9.804E+01, 4.754E+01, 2.277E-01, 2.084E-01, 1.044E-03, 1.002E+02
 9.000E+01, 6.915E+01, 7.042E+01, 5.968E+01, 9.825E+01, 4.953E+01, 6.159E+01, 1.007E+02, 4.897E+01, 2.514E-01, 2.081E-01, 1.176E-03, 9.991E+01
 1.000E+02, 7.072E+01, 7.207E+01, 6.177E+01, 1.003E+02, 5.007E+01, 6.333E+01, 1.025E+02, 5.038E+01, 3.891E-02, 2.079E-01, 1.319E-03, 9.991E+01
 1.100E+02, 7.189E+01, 7.388E+01, 6.308E+01, 1.016E+02, 5.101E+01, 6.602E+01, 1.040E+02, 5.159E+01,-7.080E-02, 2.077E-01, 1.403E-03, 1.001E+02
 1.200E+02, 7.302E+01, 7.467E+01, 6.306E+01, 1.041E+02, 5.189E+01, 6.666E+01, 1.056E+02, 5.180E+01, 1.033E-01, 2.076E-01, 1.453E-03, 1.000E+02
 1.300E+02, 7.297E+01, 7.582E+01, 6.376E+01, 1.030E+02, 5.214E+01, 6.811E+01, 1.072E+02, 5.215E+01, 2.421E-01, 2.075E-01, 1.514E-03, 1.002E+02
 1.400E+02, 7.373E+01, 7.590E+01, 6.410E+01, 1.041E+02, 5.300E+01, 6.860E+01, 1.061E+02, 5.299E+01, 1.683E-01, 2.073E-01, 1.672E-03, 1.001E+02
 1.500E+02, 7.445E+01, 7.600E+01, 6.413E+01, 1.053E+02, 5.396E+01, 6.854E+01, 1.062E+02, 5.331E+01, 2.716E-01, 2.070E-01, 1.822E-03, 1.001E+02
 1.600E+02, 7.435E+01, 7.689E+01, 6.402E+01, 1.047E+02, 5.430E+01, 6.885E+01, 1.069E+02, 5.492E+01, 2.427E-01, 2.066E-01, 2.008E-03, 1.001E+02
 1.700E+02, 7.499E+01, 7.712E+01, 6.435E+01, 1.052E+02, 5.538E+01, 6.657E+01, 1.089E+02, 5.590E+01, 2.156E-01, 2.063E-01, 2.188E-03, 1.000E+02
 1.800E+02, 7.567E+01, 7.758E+01, 6.518E+01, 1.056E+02, 5.627E+01, 7.013E+01, 1.063E+02, 5.631E+01, 5.933E-02, 2.061E-01, 2.301E-03, 1.001E+02
 1.900E+02, 7.566E+01, 7.826E+01, 6.602E+01, 1.045E+02, 5.651E+01, 6.929E+01, 1.098E+02, 5.567E+01, 2.998E-01, 2.061E-01, 2.332E-03, 1.002E+02
 2.000E+02, 7.594E+01, 7.825E+01, 6.608E+01, 1.054E+02, 5.633E+01, 7.022E+01, 1.084E+02, 5.611E+01, 4.009E-01, 2.059E-01, 2.454E-03, 9.998E+01
 2.100E+02, 7.620E+01, 7.982E+01, 6.482E+01, 1.066E+02, 5.718E+01, 7.158E+01, 1.105E+02, 5.743E+01, 2.211E-01, 2.054E-01, 2.714E-03, 9.995E+01
 2.200E+02, 7.638E+01, 7.889E+01, 6.564E+01, 1.058E+02, 5.770E+01, 6.910E+01, 1.102E+02, 5.741E+01, 4.450E-01, 2.053E-01, 2.753E-03, 1.000E+02
 2.300E+02, 7.639E+01, 7.944E+01, 6.464E+01, 1.063E+02, 5.827E+01, 7.019E+01, 1.103E+02, 5.779E+01, 2.897E-01, 2.051E-01, 2.850E-03, 1.000E+02
 2.400E+02, 7.648E+01, 7.977E+01, 6.541E+01, 1.058E+02, 5.826E+01, 7.130E+01, 1.103E+02, 5.766E+01, 4.229E-01, 2.049E-01, 2.961E-03, 1.000E+02
 2.500E+02, 7.702E+01, 8.037E+01, 6.572E+01, 1.065E+02, 5.883E+01, 7.236E+01, 1.096E+02, 5.915E+01, 1.435E-01, 2.046E-01, 3.175E-03, 9.992E+01
 2.600E+02, 7.783E+01, 8.054E+01, 6.646E+01, 1.086E+02, 5.838E+01, 7.237E+01, 1.101E+02, 5.913E+01,-7.533E-02, 2.044E-01, 3.287E-03, 1.001E+02
 2.700E+02, 7.780E+01, 8.058E+01, 6.630E+01, 1.089E+02, 5.824E+01, 7.234E+01, 1.111E+02, 5.830E+01, 3.544E-01, 2.043E-01, 3.296E-03, 1.004E+02
 2.800E+02, 7.802E+01, 8.051E+01, 6.630E+01, 1.094E+02, 5.834E+01, 7.121E+01, 1.115E+02, 5.884E+01, 2.777E-01, 2.041E-01, 3.434E-03, 1.001E+02
 2.900E+02, 7.792E+01, 8.058E+01, 6.540E+01, 1.093E+02, 5.905E+01, 7.012E+01, 1.126E+02, 5.900E+01, 4.318E-01, 2.039E-01, 3.530E-03, 1.002E+02
 3.000E+02, 7.808E+01, 8.073E+01, 6.653E+01, 1.077E+02, 6.000E+01, 7.129E+01, 1.120E+02, 5.890E+01, 3.907E-01, 2.038E-01, 3.590E-03, 1.002E+02
 3.100E+02, 7.810E+01, 8.094E+01, 6.676E+01, 1.077E+02, 5.983E+01, 7.227E+01, 1.112E+02, 5.940E+01, 1.743E-01, 2.035E-01, 3.763E-03, 9.989E+01
 3.200E+02, 7.821E+01, 8.182E+01, 6.568E+01, 1.096E+02, 5.941E+01, 7.324E+01, 1.127E+02, 5.948E+01, 1.767E-01, 2.033E-01, 3.868E-03, 1.003E+02
 3.300E+02, 7.762E+01, 8.164E+01, 6.549E+01, 1.083E+02, 5.907E+01, 7.196E+01, 1.135E+02, 5.947E+01, 3.893E-01, 2.033E-01, 3.895E-03, 1.001E+02
 3.400E+02, 7.872E+01, 8.112E+01, 6.665E+01, 1.099E+02, 5.962E+01, 7.114E+01, 1.130E+02, 5.924E+01, 1.347E-01, 2.031E-01, 3.970E-03, 1.002E+02
 3.500E+02, 7.849E+01, 8.105E+01, 6.610E+01, 1.093E+02, 6.002E+01, 7.174E+01, 1.121E+02, 5.932E+01, 4.144E-01, 2.030E-01, 4.026E-03, 1.000E+02
 3.600E+02, 7.799E+01, 8.124E+01, 6.543E+01, 1.084E+02, 6.019E+01, 7.136E+01, 1.123E+02, 6.005E+01, 4.997E-01, 2.029E-01, 4.090E-03, 9.997E+01
 3.700E+02, 7.904E+01, 8.114E+01, 6.537E+01, 1.115E+02, 6.024E+01, 7.083E+01, 1.123E+02, 6.030E+01, 7.271E-02, 2.027E-01, 4.220E-03, 1.002E+02
 3.800E+02, 7.899E+01, 8.125E+01, 6.458E+01, 1.112E+02, 6.117E+01, 7.130E+01, 1.126E+02, 5.981E+01, 2.709E-01, 2.026E-01, 4.274E-03, 1.000E+02
 3.900E+02, 7.809E+01, 8.119E+01, 6.597E+01, 1.085E+02, 5.981E+01, 7.136E+01, 1.114E+02, 6.076E+01, 1.165E-01, 2.024E-01, 4.362E-03, 1.001E+02
 4.000E+02, 7.873E+01, 8.199E+01, 6.623E+01, 1.093E+02, 6.064E+01, 7.312E+01, 1.128E+02, 6.006E+01, 3.143E-01, 2.025E-01, 4.350E-03, 9.984E+01
 4.100E+02, 7.873E+01, 8.207E+01, 6.659E+01, 1.090E+02, 6.062E+01, 7.427E+01, 1.122E+02, 5.973E+01, 4.518E-01, 2.023E-01, 4.414E-03, 1.003E+02
 4.200E+02, 7.872E+01, 8.216E+01, 6.701E+01, 1.089E+02, 6.024E+01, 7.315E+01, 1.127E+02, 6.059E+01, 2.243E-01, 2.022E-01, 4.481E-03, 1.000E+02
 4.300E+02, 7.935E+01, 8.158E+01, 6.677E+01, 1.101E+02, 6.117E+01, 7.108E+01, 1.132E+02, 6.044E+01, 5.388E-01, 2.021E-01, 4.537E-03, 1.001E+02
 4.400E+02, 7.883E+01, 8.227E+01, 6.647E+01, 1.090E+02, 6.103E+01, 7.205E+01, 1.143E+02, 6.042E+01, 5.817E-01, 2.020E-01, 4.609E-03, 9.998E+01
 4.500E+02, 7.988E+01, 8.193E+01, 6.678E+01, 1.103E+02, 6.253E+01, 7.176E+01, 1.132E+02, 6.089E+01, 3.287E-01, 2.019E-01, 4.669E-03, 1.002E+02
 4.600E+02, 7.957E+01, 8.207E+01, 6.679E+01, 1.097E+02, 6.223E+01, 7.160E+01, 1.129E+02, 6.170E+01, 3.637E-01, 2.018E-01, 4.724E-03, 1.001E+02
 4.700E+02, 7.954E+01, 8.264E+01, 6.645E+01, 1.106E+02, 6.155E+01, 7.299E+01, 1.130E+02, 6.193E+01, 4.262E-01, 2.017E-01, 4.756E-03, 1.002E+02
 4.800E+02, 7.975E+01, 8.228E+01, 6.687E+01, 1.103E+02, 6.205E+01, 7.274E+01, 1.125E+02, 6.158E+01, 3.900E-01, 2.017E-01, 4.793E-03, 1.003E+02
 4.900E+02, 8.018E+01, 8.274E+01, 6.659E+01, 1.101E+02, 6.384E+01, 7.184E+01, 1.146E+02, 6.181E+01, 5.165E-01, 2.015E-01, 4.859E-03, 1.000E+02
 5.000E+02, 7.952E+01, 8.258E+01, 6.638E+01, 1.095E+02, 6.265E+01, 7.194E+01, 1.137E+02, 6.212E+01, 4.152E-01, 2.015E-01, 4.894E-03, 1.002E+02
 5.100E+02, 8.005E+01, 8.327E+01, 6.680E+01, 1.105E+02, 6.280E+01, 7.373E+01, 1.143E+02, 6.179E+01, 2.752E-01, 2.014E-01, 4.938E-03, 1.001E+02
 5.200E+02, 8.019E+01, 8.328E+01, 6.707E+01, 1.112E+02, 6.224E+01, 7.342E+01, 1.141E+02, 6.228E+01, 2.536E-01, 2.013E-01, 4.988E-03, 1.001E+02
 5.300E+02, 8.023E+01, 8.441E+01, 6.722E+01, 1.115E+02, 6.192E+01, 7.526E+01, 1.153E+02, 6.270E+01, 4.256E-01, 2.013E-01, 5.003E-03, 9.995E+01
 5.400E+02, 8.010E+01, 8.384E+01, 6.728E+01, 1.111E+02, 6.197E+01, 7.356E+01, 1.157E+02, 6.226E+01,-5.434E-02, 2.012E-01, 5.037E-03, 1.001E+02
 5.500E+02, 7.931E+01, 8.376E+01, 6.543E+01, 1.108E+02, 6.167E+01, 7.358E+01, 1.162E+02, 6.147E+01, 5.578E-01, 2.012E-01, 5.046E-03, 1.001E+02
 5.600E+02, 8.114E+01, 8.293E+01, 6.792E+01, 1.131E+02, 6.239E+01, 7.325E+01, 1.149E+02, 6.062E+01, 9.011E-02, 2.012E-01, 5.076E-03, 1.003E+02
 5.700E+02, 8.040E+01, 8.381E+01, 6.773E+01, 1.106E+02, 6.284E+01, 7.306E+01, 1.172E+02, 6.119E+01, 2.630E-01, 2.011E-01, 5.104E-03, 9.995E+01
 5.800E+02, 8.074E+01, 8.382E+01, 6.797E+01, 1.122E+02, 6.208E+01, 7.555E+01, 1.143E+02, 6.161E+01, 1.235E-01, 2.010E-01, 5.146E-03, 1.000E+02
 5.900E+02, 8.035E+01, 8.367E+01, 6.788E+01, 1.122E+02, 6.095E+01, 7.494E+01, 1.144E+02, 6.166E+01, 4.612E-01, 2.010E-01, 5.153E-03, 9.989E+01
 6.000E+02, 8.026E+01, 8.295E+01, 6.741E+01, 1.116E+02, 6.178E+01, 7.316E+01, 1.142E+02, 6.146E+01, 5.189E-01, 2.010E-01, 5.175E-03, 9.993E+01
 6.100E+02, 8.087E+01, 8.356E+01, 6.858E+01, 1.101E+02, 6.397E+01, 7.321E+01, 1.153E+02, 6.215E+01, 6.088E-01, 2.009E-01, 5.209E-03, 1.001E+02
 6.200E+02, 8.059E+01, 8.345E+01, 6.782E+01, 1.095E+02, 6.448E+01, 7.274E+01, 1.151E+02, 6.251E+01, 4.766E-01, 2.009E-01, 5.217E-03, 1.001E+02
 6.300E+02, 8.040E+01, 8.365E+01, 6.758E+01, 1.103E+02, 6.333E+01, 7.296E+01, 1.153E+02, 6.265E+01, 5.419E-01, 2.009E-01, 5.240E-03, 1.002E+02
 6.400E+02, 8.008E+01, 8.456E+01, 6.700E+01, 1.101E+02, 6.312E+01, 7.416E+01, 1.157E+02, 6.379E+01, 6.184E-01, 2.008E-01, 5.271E-03, 1.001E+02
 6.500E+02, 8.144E+01, 8.434E+01, 6.807E+01, 1.116E+02, 6.467E+01, 7.377E+01, 1.152E+02, 6.400E+01, 3.690E-01, 2.008E-01, 5.285E-03, 1.000E+02
 6.600E+02, 8.160E+01, 8.495E+01, 6.777E+01, 1.126E+02, 6.439E+01, 7.639E+01, 1.146E+02, 6.380E+01, 4.083E-01, 2.007E-01, 5.305E-03, 1.000E+02
 6.700E+02, 8.121E+01, 8.463E+01, 6.782E+01, 1.112E+02, 6.461E+01, 7.619E+01, 1.152E+02, 6.251E+01, 3.304E-01, 2.007E-01, 5.312E-03, 1.001E+02
 6.800E+02, 8.136E+01, 8.495E+01, 6.799E+01, 1.112E+02, 6.489E+01, 7.523E+01, 1.160E+02, 6.360E+01, 5.859E-01, 2.007E-01, 5.355E-03, 1.002E+02
 6.900E+02, 8.181E+01, 8.380E+01, 6.898E+01, 1.120E+02, 6.441E+01, 7.304E+01, 1.139E+02, 6.444E+01, 3.615E-01, 2.006E-01, 5.364E-03, 1.004E+02
 7.000E+02, 8.136E+01, 8.429E+01, 6.786E+01, 1.120E+02, 6.419E+01, 7.430E+01, 1.147E+02, 6.389E+01, 5.078E-01, 2.006E-01, 5.368E-03, 1.001E+02
 7.100E+02, 8.181E+01, 8.476E+01, 6.780E+01, 1.130E+02, 6.467E+01, 7.411E+01, 1.159E+02, 6.421E+01, 3.757E-01, 2.006E-01, 5.386E-03, 1.001E+02
 7.200E+02, 8.178E+01, 8.433E+01, 6.773E+01, 1.129E+02, 6.466E+01, 7.298E+01, 1.159E+02, 6.408E+01, 1.382E-01, 2.006E-01, 5.396E-03, 1.003E+02
 7.300E+02, 8.127E+01, 8.408E+01, 6.674E+01, 1.125E+02, 6.460E+01, 7.404E+01, 1.147E+02, 6.346E+01, 3.351E-01, 2.006E-01, 5.412E-03, 1.000E+02
 7.400E+02, 8.129E+01, 8.486E+01, 6.663E+01, 1.137E+02, 6.357E+01, 7.456E+01, 1.161E+02, 6.395E+01, 1.653E-01, 2.005E-01, 5.424E-03, 1.002E+02
 7.500E+02, 8.194E+01, 8.497E+01, 6.786E+01, 1.145E+02, 6.345E+01, 7.371E+01, 1.178E+02, 6.338E+01, 1.326E-01, 2.005E-01, 5.433E-03, 1.001E+02
 7.600E+02, 8.276E+01, 8.520E+01, 6.846E+01, 1.158E+02, 6.398E+01, 7.540E+01, 1.169E+02, 6.329E+01, 2.992E-01, 2.005E-01, 5.442E-03, 1.000E+02
 7.700E+02, 8.157E+01, 8.553E+01, 6.884E+01, 1.130E+02, 6.289E+01, 7.562E+01, 1.180E+02, 6.302E+01, 5.330E-01, 2.005E-01, 5.456E-03, 9.991E+01
 7.800E+02, 8.223E+01, 8.501E+01, 6.826E+01, 1.149E+02, 6.353E+01, 7.416E+01, 1.177E+02, 6.320E+01, 4.366E-01, 2.005E-01, 5.468E-03, 1.003E+02
 7.900E+02, 8.180E+01, 8.494E+01, 6.730E+01, 1.138E+02, 6.431E+01, 7.447E+01, 1.161E+02, 6.425E+01, 4.415E-01, 2.004E-01, 5.490E-03, 1.002E+02
 8.000E+02, 8.173E+01, 8.521E+01, 6.693E+01, 1.131E+02, 6.519E+01, 7.453E+01, 1.171E+02, 6.400E+01, 3.486E-01, 2.004E-01, 5.494E-03, 1.000E+02
 8.100E+02, 8.249E+01, 8.536E+01, 6.868E+01, 1.139E+02, 6.493E+01, 7.687E+01, 1.161E+02, 6.315E+01, 4.521E-01, 2.004E-01, 5.496E-03, 1.001E+02
 8.200E+02, 8.168E+01, 8.528E+01, 6.722E+01, 1.131E+02, 6.474E+01, 7.571E+01, 1.166E+02, 6.351E+01, 6.072E-01, 2.004E-01, 5.500E-03, 1.000E+02
 8.300E+02, 8.232E+01, 8.638E+01, 6.737E+01, 1.148E+02, 6.481E+01, 7.631E+01, 1.171E+02, 6.569E+01, 5.974E-01, 2.004E-01, 5.519E-03, 1.003E+02
 8.400E+02, 8.190E+01, 8.555E+01, 6.691E+01, 1.129E+02, 6.593E+01, 7.366E+01, 1.176E+02, 6.539E+01, 6.059E-01, 2.003E-01, 5.538E-03, 9.995E+01
 8.500E+02, 8.292E+01, 8.533E+01, 6.850E+01, 1.139E+02, 6.632E+01, 7.404E+01, 1.165E+02, 6.540E+01, 4.817E-01, 2.003E-01, 5.543E-03, 1.000E+02
 8.600E+02, 8.354E+01, 8.484E+01, 6.919E+01, 1.144E+02, 6.705E+01, 7.356E+01, 1.159E+02, 6.509E+01, 4.336E-01, 2.003E-01, 5.530E-03, 1.000E+02
 8.700E+02, 8.281E+01, 8.564E+01, 6.936E+01, 1.123E+02, 6.681E+01, 7.392E+01, 1.177E+02, 6.532E+01, 5.593E-01, 2.004E-01, 5.522E-03, 1.000E+02
 8.800E+02, 8.252E+01, 8.599E+01, 6.873E+01, 1.126E+02, 6.619E+01, 7.449E+01, 1.172E+02, 6.626E+01, 3.653E-01, 2.003E-01, 5.543E-03, 1.003E+02
 8.900E+02, 8.347E+01, 8.529E+01, 6.825E+01, 1.158E+02, 6.640E+01, 7.371E+01, 1.160E+02, 6.611E+01, 4.424E-01, 2.003E-01, 5.548E-03, 1.001E+02
 9.000E+02, 8.245E+01, 8.591E+01, 6.745E+01, 1.128E+02, 6.707E+01, 7.475E+01, 1.169E+02, 6.607E+01, 6.265E-01, 2.003E-01, 5.555E-03, 1.000E+02
 9.100E+02, 8.306E+01, 8.509E+01, 6.697E+01, 1.149E+02, 6.729E+01, 7.384E+01, 1.154E+02, 6.603E+01, 7.167E-01, 2.003E-01, 5.563E-03, 1.000E+02
 9.200E+02, 8.263E+01, 8.535E+01, 6.747E+01, 1.127E+02, 6.771E+01, 7.484E+01, 1.155E+02, 6.576E+01, 6.601E-01, 2.003E-01, 5.561E-03, 9.997E+01
 9.300E+02, 8.243E+01, 8.501E+01, 6.792E+01, 1.120E+02, 6.742E+01, 7.359E+01, 1.154E+02, 6.608E+01, 5.757E-01, 2.003E-01, 5.570E-03, 1.004E+02
 9.400E+02, 8.360E+01, 8.560E+01, 6.872E+01, 1.138E+02, 6.831E+01, 7.345E+01, 1.162E+02, 6.719E+01, 4.264E-01, 2.003E-01, 5.576E-03, 1.000E+02
 9.500E+02, 8.338E+01, 8.583E+01, 6.822E+01, 1.147E+02, 6.717E+01, 7.411E+01, 1.163E+02, 6.713E+01, 5.013E-01, 2.003E-01, 5.563E-03, 1.001E+02
 9.600E+02, 8.335E+01, 8.599E+01, 6.921E+01, 1.142E+02, 6.661E+01, 7.527E+01, 1.157E+02, 6.699E+01, 1.210E-01, 2.003E-01, 5.550E-03, 1.002E+02
 9.700E+02, 8.295E+01, 8.648E+01, 6.851E+01, 1.132E+02, 6.711E+01, 7.578E+01, 1.175E+02, 6.613E+01, 5.930E-01, 2.003E-01, 5.563E-03, 1.001E+02
 9.800E+02, 8.403E+01, 8.599E+01, 6.931E+01, 1.143E+02, 6.845E+01, 7.452E+01, 1.175E+02, 6.597E+01, 6.345E-01, 2.003E-01, 5.562E-03, 1.001E+02
 9.900E+02, 8.297E+01, 8.585E+01, 6.828E+01, 1.134E+02, 6.722E+01, 7.407E+01, 1.169E+02, 6.654E+01, 6.124E-01, 2.003E-01, 5.558E-03, 1.001E+02
 1.000E+03, 8.329E+01, 8.660E+01, 6.868E+01, 1.134E+02, 6.777E+01, 7.625E+01, 1.167E+02, 6.684E+01, 5.477E-01, 2.003E-01, 5.563E-03, 9.998E+01
 1.010E+03, 8.347E+01, 8.609E+01, 6.793E+01, 1.143E+02, 6.815E+01, 7.439E+01, 1.169E+02, 6.699E+01, 5.715E-01, 2.003E-01, 5.556E-03, 1.001E+02
 1.020E+03, 8.336E+01, 8.655E+01, 6.853E+01, 1.137E+02, 6.788E+01, 7.353E+01, 1.173E+02, 6.881E+01, 2.887E-01, 2.003E-01, 5.565E-03, 1.002E+02
 1.030E+03, 8.374E+01, 8.672E+01, 6.780E+01, 1.157E+02, 6.770E+01, 7.463E+01, 1.180E+02, 6.752E+01, 2.400E-01, 2.003E-01, 5.571E-03, 9.991E+01
 1.040E+03, 8.347E+01, 8.647E+01, 6.773E+01, 1.148E+02, 6.792E+01, 7.499E+01, 1.183E+02, 6.614E+01, 5.314E-01, 2.003E-01, 5.575E-03, 1.004E+02
 1.050E+03, 8.292E+01, 8.703E+01, 6.834E+01, 1.130E+02, 6.741E+01, 7.472E+01, 1.199E+02, 6.648E+01, 6.766E-01, 2.002E-01, 5.593E-03, 1.000E+02
 1.060E+03, 8.393E+01, 8.723E+01, 6.915E+01, 1.148E+02, 6.779E+01, 7.402E+01, 1.199E+02, 6.778E+01, 5.262E-01, 2.002E-01, 5.598E-03, 1.000E+02
 1.070E+03, 8.431E+01, 8.708E+01, 6.871E+01, 1.161E+02, 6.815E+01, 7.506E+01, 1.180E+02, 6.819E+01, 3.854E-01, 2.002E-01, 5.593E-03, 1.001E+02
 1.080E+03, 8.421E+01, 8.668E+01, 6.938E+01, 1.149E+02, 6.832E+01, 7.499E+01, 1.179E+02, 6.715E+01, 3.486E-01, 2.002E-01, 5.593E-03, 1.005E+02
 1.090E+03, 8.335E+01, 8.689E+01, 6.740E+01, 1.140E+02, 6.867E+01, 7.529E+01, 1.188E+02, 6.655E+01, 6.536E-01, 2.002E-01, 5.605E-03, 9.998E+01
 1.100E+03, 8.382E+01, 8.696E+01, 6.881E+01, 1.151E+02, 6.761E+01, 7.593E+01, 1.179E+02, 6.702E+01, 5.946E-01, 2.002E-01, 5.605E-03, 1.002E+02
 1.110E+03, 8.387E+01, 8.768E+01, 6.830E+01, 1.152E+02, 6.815E+01, 7.634E+01, 1.187E+02, 6.800E+01, 5.302E-01, 2.002E-01, 5.590E-03, 1.001E+02
 1.120E+03, 8.412E+01, 8.709E+01, 6.766E+01, 1.155E+02, 6.919E+01, 7.350E+01, 1.188E+02, 6.902E+01, 4.728E-01, 2.002E-01, 5.624E-03, 1.001E+02
 1.130E+03, 8.372E+01, 8.706E+01, 6.814E+01, 1.140E+02, 6.904E+01, 7.461E+01, 1.182E+02, 6.836E+01, 5.271E-01, 2.002E-01, 5.632E-03, 1.002E+02
 1.140E+03, 8.498E+01, 8.662E+01, 6.821E+01, 1.173E+02, 6.947E+01, 7.469E+01, 1.178E+02, 6.739E+01, 4.123E-01, 2.002E-01, 5.626E-03, 1.001E+02
 1.150E+03, 8.498E+01, 8.724E+01, 6.899E+01, 1.157E+02, 7.024E+01, 7.512E+01, 1.188E+02, 6.780E+01, 7.578E-01, 2.002E-01, 5.631E-03, 1.002E+02
 1.160E+03, 8.421E+01, 8.791E+01, 6.842E+01, 1.157E+02, 6.850E+01, 7.569E+01, 1.194E+02, 6.859E+01, 2.773E-01, 2.002E-01, 5.631E-03, 1.000E+02
 1.170E+03, 8.452E+01, 8.727E+01, 6.793E+01, 1.164E+02, 6.929E+01, 7.512E+01, 1.192E+02, 6.750E+01, 3.193E-01, 2.002E-01, 5.631E-03, 9.999E+01
 1.180E+03, 8.496E+01, 8.785E+01, 6.922E+01, 1.165E+02, 6.915E+01, 7.602E+01, 1.194E+02, 6.815E+01, 3.578E-01, 2.002E-01, 5.637E-03, 1.001E+02
 1.190E+03, 8.622E+01, 8.705E+01, 6.997E+01, 1.170E+02, 7.168E+01, 7.560E+01, 1.180E+02, 6.752E+01, 4.421E-01, 2.002E-01, 5.636E-03, 9.999E+01
 1.200E+03, 8.442E+01, 8.767E+01, 6.928E+01, 1.147E+02, 6.930E+01, 7.603E+01, 1.197E+02, 6.726E+01, 6.236E-01, 2.002E-01, 5.639E-03, 1.001E+02
 1.210E+03, 8.599E+01, 8.719E+01, 7.197E+01, 1.160E+02, 7.003E+01, 7.564E+01, 1.180E+02, 6.790E+01, 5.478E-01, 2.002E-01, 5.633E-03, 1.003E+02
 1.220E+03, 8.504E+01, 8.712E+01, 6.915E+01, 1.176E+02, 6.838E+01, 7.489E+01, 1.185E+02, 6.801E+01, 3.147E-01, 2.002E-01, 5.616E-03, 9.990E+01
 1.230E+03, 8.516E+01, 8.771E+01, 6.933E+01, 1.177E+02, 6.847E+01, 7.588E+01, 1.188E+02, 6.846E+01, 3.423E-01, 2.002E-01, 5.622E-03, 1.001E+02
 1.240E+03, 8.398E+01, 8.798E+01, 6.809E+01, 1.150E+02, 6.889E+01, 7.645E+01, 1.193E+02, 6.822E+01, 5.138E-01, 2.002E-01, 5.625E-03, 9.980E+01
 1.250E+03, 8.590E+01, 8.726E+01, 7.115E+01, 1.176E+02, 6.892E+01, 7.640E+01, 1.183E+02, 6.711E+01, 2.613E-01, 2.002E-01, 5.618E-03, 1.004E+02
 1.260E+03, 8.439E+01, 8.737E+01, 6.891E+01, 1.157E+02, 6.853E+01, 7.621E+01, 1.186E+02, 6.732E+01, 3.825E-01, 2.002E-01, 5.603E-03, 1.003E+02
 1.270E+03, 8.443E+01, 8.761E+01, 7.003E+01, 1.158E+02, 6.747E+01, 7.647E+01, 1.187E+02, 6.766E+01, 5.158E-01, 2.002E-01, 5.620E-03, 1.002E+02
 1.280E+03, 8.439E+01, 8.821E+01, 6.912E+01, 1.165E+02, 6.756E+01, 7.792E+01, 1.178E+02, 6.885E+01, 5.984E-01, 2.002E-01, 5.624E-03, 1.001E+02
 1.290E+03, 8.478E+01, 8.823E+01, 6.853E+01, 1.174E+02, 6.838E+01, 7.609E+01, 1.201E+02, 6.847E+01, 3.896E-01, 2.002E-01, 5.611E-03, 1.001E+02
 1.300E+03, 8.505E+01, 8.823E+01, 6.853E+01, 1.168E+02, 6.980E+01, 7.588E+01, 1.203E+02, 6.845E+01, 5.696E-01, 2.002E-01, 5.623E-03, 1.001E+02
 1.310E+03, 8.529E+01, 8.879E+01, 6.821E+01, 1.184E+02, 6.924E+01, 7.664E+01, 1.220E+02, 6.778E+01, 5.763E-01, 2.002E-01, 5.624E-03, 1.002E+02
