s,C,C,C,C,C,C,C,C,Pa,mol/mol,mol/mol,kW
Time,"West_All_TCs","East_All_TCs","West_Bottom_TCs","West_Middle_TCs","West_Upper_TCs","East_Bottom_TCs","East_Middle_TCs","East_Upper_TCs","Pressure","O2","CO2","HRR"
-6.000E+01, 3.800E+01, 3.800E+01, 3.800E+01, 3.800E+01, 3.800E+01, 3.800E+01, 3.800E+01, 3.800E+01,-9.175E-06, 2.095E-01, 3.901E-04, 0.000E+00
-4.998E+01, 3.800E+01, 3.800E+01, 3.800E+01, 3.800E+01, 3.800E+01, 3.800E+01, 3.800E+01, 3.800E+01,-3.902E-06, 2.095E-01, 3.901E-04, 0.000E+00
-3.996E+01, 3.800E+01, 3.800E+01, 3.800E+01, 3.800E+01, 3.800E+01, 3.800E+01, 3.800E+01, 3.800E+01, 2.008E-06, 2.095E-01, 3.901E-04, 0.000E+00
-2.998E+01, 3.800E+01, 3.800E+01, 3.800E+01, 3.800E+01, 3.800E+01, 3.800E+01, 3.800E+01, 3.800E+01, 1.089E-06, 2.095E-01, 3.901E-04, 0.000E+00
-1.996E+01, 3.800E+01, 3.800E+01, 3.800E+01, 3.800E+01, 3.800E+01, 3.800E+01, 3.800E+01, 3.800E+01, 5.026E-06, 2.095E-01, 3.901E-04, 0.000E+00
-9.985E+00, 3.800E+01, 3.800E+01, 3.800E+01, 3.800E+01, 3.800E+01, 3.800E+01, 3.800E+01, 3.800E+01, 3.370E-06, 2.095E-01, 3.901E-04, 0.000E+00
 3.528E-02, 3.800E+01, 3.800E+01, 3.800E+01, 3.800E+01, 3.800E+01, 3.800E+01, 3.800E+01, 3.800E+01, 3.470E-06, 2.095E-01, 3.901E-04, 1.312E-04
 1.003E+01, 3.903E+01, 3.937E+01, 3.838E+01, 4.070E+01, 3.800E+01, 3.857E+01, 4.153E+01, 3.800E+01, 2.979E-02, 2.095E-01, 3.901E-04, 3.185E+01
 2.000E+01, 4.412E+01, 4.471E+01, 4.028E+01, 5.405E+01, 3.803E+01, 4.068E+01, 5.546E+01, 3.800E+01, 8.353E-02, 2.095E-01, 3.901E-04, 9.774E+01
 3.001E+01, 5.328E+01, 5.431E+01, 4.208E+01, 7.856E+01, 3.920E+01, 4.371E+01, 8.122E+01, 3.800E+01, 1.320E-01, 2.095E-01, 3.901E-04, 1.653E+02
 4.001E+01, 6.537E+01, 6.599E+01, 4.550E+01, 1.090E+02, 4.157E+01, 4.758E+01, 1.118E+02, 3.861E+01, 2.588E-01, 2.094E-01, 4.979E-04, 2.009E+02
 5.002E+01, 7.549E+01, 7.574E+01, 4.925E+01, 1.317E+02, 4.548E+01, 5.081E+01, 1.326E+02, 4.386E+01, 5.664E-01, 2.084E-01, 1.005E-03, 2.001E+02
 6.000E+01, 8.280E+01, 8.180E+01, 5.261E+01, 1.460E+02, 4.983E+01, 5.347E+01, 1.433E+02, 4.864E+01, 6.735E-01, 2.077E-01, 1.436E-03, 2.003E+02
 7.002E+01, 8.701E+01, 8.791E+01, 5.413E+01, 1.520E+02, 5.488E+01, 5.471E+01, 1.556E+02, 5.336E+01, 6.906E-01, 2.070E-01, 1.825E-03, 1.989E+02
 8.001E+01, 9.072E+01, 9.264E+01, 5.479E+01, 1.583E+02, 5.912E+01, 5.554E+01, 1.634E+02, 5.901E+01, 7.887E-01, 2.060E-01, 2.379E-03, 1.981E+02
 9.001E+01, 9.381E+01, 9.490E+01, 5.608E+01, 1.622E+02, 6.317E+01, 5.569E+01, 1.657E+02, 6.330E+01, 5.832E-01, 2.052E-01, 2.791E-03, 2.016E+02
 1.000E+02, 9.531E+01, 9.643E+01, 5.598E+01, 1.636E+02, 6.632E+01, 5.573E+01, 1.676E+02, 6.598E+01, 8.534E-01, 2.043E-01, 3.340E-03, 1.990E+02
 1.100E+02, 9.627E+01, 9.798E+01, 5.627E+01, 1.634E+02, 6.913E+01, 5.639E+01, 1.689E+02, 6.861E+01, 6.947E-01, 2.035E-01, 3.742E-03, 2.003E+02
 1.200E+02, 9.697E+01, 9.968E+01, 5.684E+01, 1.633E+02, 7.080E+01, 5.738E+01, 1.723E+02, 6.934E+01, 8.119E-01, 2.029E-01, 4.110E-03, 2.001E+02
 1.300E+02, 9.859E+01, 9.987E+01, 5.644E+01, 1.657E+02, 7.367E+01, 5.765E+01, 1.698E+02, 7.215E+01, 8.778E-01, 2.017E-01, 4.785E-03, 2.012E+02
 1.400E+02, 9.830E+01, 1.015E+02, 5.631E+01, 1.645E+02, 7.405E+01, 5.751E+01, 1.737E+02, 7.321E+01, 7.006E-01, 2.009E-01, 5.214E-03, 1.975E+02
 1.500E+02, 9.984E+01, 1.018E+02, 5.662E+01, 1.671E+02, 7.575E+01, 5.848E+01, 1.724E+02, 7.439E+01, 7.956E-01, 2.001E-01, 5.668E-03, 2.010E+02
 1.600E+02, 9.940E+01, 1.022E+02, 5.613E+01, 1.653E+02, 7.680E+01, 5.844E+01, 1.745E+02, 7.380E+01, 7.502E-01, 1.994E-01, 6.051E-03, 1.995E+02
 1.700E+02, 1.001E+02, 1.030E+02, 5.662E+01, 1.677E+02, 7.590E+01, 5.822E+01, 1.754E+02, 7.547E+01, 9.592E-01, 1.984E-01, 6.590E-03, 1.992E+02
 1.800E+02, 1.012E+02, 1.026E+02, 5.622E+01, 1.704E+02, 7.692E+01, 5.899E+01, 1.730E+02, 7.588E+01, 6.840E-01, 1.980E-01, 6.829E-03, 1.980E+02
 1.900E+02, 1.022E+02, 1.029E+02, 5.753E+01, 1.699E+02, 7.911E+01, 5.883E+01, 1.737E+02, 7.631E+01, 9.537E-01, 1.974E-01, 7.170E-03, 2.009E+02
 2.000E+02, 1.024E+02, 1.044E+02, 5.697E+01, 1.704E+02, 7.988E+01, 5.945E+01, 1.755E+02, 7.831E+01, 9.728E-01, 1.963E-01, 7.777E-03, 2.012E+02
 2.100E+02, 1.029E+02, 1.044E+02, 5.661E+01, 1.715E+02, 8.073E+01, 5.963E+01, 1.751E+02, 7.831E+01, 1.057E+00, 1.959E-01, 8.017E-03, 2.007E+02
 2.200E+02, 1.036E+02, 1.045E+02, 5.740E+01, 1.723E+02, 8.100E+01, 5.928E+01, 1.759E+02, 7.820E+01, 1.033E+00, 1.953E-01, 8.331E-03, 1.995E+02
 2.300E+02, 1.047E+02, 1.055E+02, 5.813E+01, 1.736E+02, 8.240E+01, 5.974E+01, 1.766E+02, 8.020E+01, 9.223E-01, 1.943E-01, 8.892E-03, 1.975E+02
 2.400E+02, 1.038E+02, 1.057E+02, 5.815E+01, 1.716E+02, 8.152E+01, 5.969E+01, 1.781E+02, 7.941E+01, 9.990E-01, 1.937E-01, 9.224E-03, 2.015E+02
 2.500E+02, 1.046E+02, 1.059E+02, 5.758E+01, 1.747E+02, 8.157E+01, 6.022E+01, 1.775E+02, 7.989E+01, 1.042E+00, 1.935E-01, 9.377E-03, 2.000E+02
 2.600E+02, 1.049E+02, 1.061E+02, 5.743E+01, 1.748E+02, 8.250E+01, 6.013E+01, 1.777E+02, 8.045E+01, 9.939E-01, 1.931E-01, 9.593E-03, 1.999E+02
 2.700E+02, 1.055E+02, 1.068E+02, 5.732E+01, 1.757E+02, 8.358E+01, 6.019E+01, 1.789E+02, 8.142E+01, 9.828E-01, 1.924E-01, 9.970E-03, 1.990E+02
 2.800E+02, 1.054E+02, 1.071E+02, 5.757E+01, 1.754E+02, 8.315E+01, 5.973E+01, 1.808E+02, 8.091E+01, 9.974E-01, 1.920E-01, 1.018E-02, 2.002E+02
 2.900E+02, 1.054E+02, 1.065E+02, 5.831E+01, 1.758E+02, 8.220E+01, 6.049E+01, 1.793E+02, 7.964E+01, 8.922E-01, 1.917E-01, 1.038E-02, 1.994E+02
 3.000E+02, 1.052E+02, 1.077E+02, 5.880E+01, 1.755E+02, 8.143E+01, 6.100E+01, 1.807E+02, 8.142E+01, 1.054E+00, 1.914E-01, 1.055E-02, 2.011E+02
 3.100E+02, 1.061E+02, 1.075E+02, 5.894E+01, 1.779E+02, 8.147E+01, 6.130E+01, 1.791E+02, 8.211E+01, 8.300E-01, 1.910E-01, 1.074E-02, 1.970E+02
 3.200E+02, 1.058E+02, 1.086E+02, 5.824E+01, 1.767E+02, 8.244E+01, 6.122E+01, 1.825E+02, 8.193E+01, 1.096E+00, 1.906E-01, 1.099E-02, 2.008E+02
 3.300E+02, 1.061E+02, 1.080E+02, 5.874E+01, 1.771E+02, 8.254E+01, 6.039E+01, 1.808E+02, 8.289E+01, 9.544E-01, 1.904E-01, 1.109E-02, 1.997E+02
 3.400E+02, 1.055E+02, 1.082E+02, 5.889E+01, 1.742E+02, 8.357E+01, 6.039E+01, 1.810E+02, 8.331E+01, 1.153E+00, 1.900E-01, 1.129E-02, 2.002E+02
 3.500E+02, 1.069E+02, 1.093E+02, 5.886E+01, 1.776E+02, 8.408E+01, 6.036E+01, 1.827E+02, 8.477E+01, 8.396E-01, 1.898E-01, 1.143E-02, 1.980E+02
 3.600E+02, 1.073E+02, 1.080E+02, 5.811E+01, 1.778E+02, 8.596E+01, 6.116E+01, 1.804E+02, 8.244E+01, 1.079E+00, 1.897E-01, 1.149E-02, 2.007E+02
 3.700E+02, 1.074E+02, 1.093E+02, 5.834E+01, 1.779E+02, 8.592E+01, 6.001E+01, 1.839E+02, 8.409E+01, 1.143E+00, 1.894E-01, 1.162E-02, 2.011E+02
 3.800E+02, 1.074E+02, 1.098E+02, 5.814E+01, 1.782E+02, 8.584E+01, 6.077E+01, 1.827E+02, 8.591E+01, 1.128E+00, 1.891E-01, 1.184E-02, 1.999E+02
 3.900E+02, 1.069E+02, 1.095E+02, 5.773E+01, 1.773E+02, 8.555E+01, 6.050E+01, 1.834E+02, 8.448E+01, 1.374E+00, 1.889E-01, 1.190E-02, 1.997E+02
 4.000E+02, 1.069E+02, 1.098E+02, 5.741E+01, 1.763E+02, 8.693E+01, 6.094E+01, 1.823E+02, 8.611E+01, 1.231E+00, 1.887E-01, 1.202E-02, 2.005E+02
 4.100E+02, 1.074E+02, 1.093E+02, 5.894E+01, 1.745E+02, 8.884E+01, 6.171E+01, 1.808E+02, 8.539E+01, 1.319E+00, 1.885E-01, 1.213E-02, 1.984E+02
 4.200E+02, 1.091E+02, 1.097E+02, 5.979E+01, 1.777E+02, 8.984E+01, 6.135E+01, 1.807E+02, 8.702E+01, 1.103E+00, 1.883E-01, 1.227E-02, 1.995E+02
 4.300E+02, 1.101E+02, 1.107E+02, 6.059E+01, 1.806E+02, 8.899E+01, 6.166E+01, 1.827E+02, 8.769E+01, 1.192E+00, 1.882E-01, 1.232E-02, 2.005E+02
 4.400E+02, 1.077E+02, 1.109E+02, 5.877E+01, 1.760E+02, 8.838E+01, 6.170E+01, 1.829E+02, 8.802E+01, 1.055E+00, 1.881E-01, 1.236E-02, 2.002E+02
 4.500E+02, 1.088E+02, 1.108E+02, 5.980E+01, 1.791E+02, 8.762E+01, 6.188E+01, 1.829E+02, 8.747E+01, 1.040E+00, 1.881E-01, 1.239E-02, 1.997E+02
 4.600E+02, 1.089E+02, 1.122E+02, 5.896E+01, 1.805E+02, 8.733E+01, 6.215E+01, 1.875E+02, 8.693E+01, 1.021E+00, 1.879E-01, 1.247E-02, 2.006E+02
 4.700E+02, 1.083E+02, 1.114E+02, 5.895E+01, 1.787E+02, 8.736E+01, 6.205E+01, 1.863E+02, 8.592E+01, 1.201E+00, 1.879E-01, 1.249E-02, 2.000E+02
 4.800E+02, 1.099E+02, 1.122E+02, 6.009E+01, 1.809E+02, 8.853E+01, 6.162E+01, 1.873E+02, 8.764E+01, 1.117E+00, 1.877E-01, 1.258E-02, 1.989E+02
 4.900E+02, 1.102E+02, 1.114E+02, 5.983E+01, 1.816E+02, 8.930E+01, 6.196E+01, 1.847E+02, 8.764E+01, 1.200E+00, 1.876E-01, 1.266E-02, 2.007E+02
 5.000E+02, 1.105E+02, 1.119E+02, 5.958E+01, 1.823E+02, 8.955E+01, 6.163E+01, 1.854E+02, 8.871E+01, 1.205E+00, 1.876E-01, 1.265E-02, 1.995E+02
 5.100E+02, 1.100E+02, 1.129E+02, 6.001E+01, 1.785E+02, 9.146E+01, 6.247E+01, 1.876E+02, 8.869E+01, 9.789E-01, 1.876E-01, 1.267E-02, 1.996E+02
 5.200E+02, 1.102E+02, 1.121E+02, 6.044E+01, 1.806E+02, 8.967E+01, 6.246E+01, 1.866E+02, 8.713E+01, 1.173E+00, 1.875E-01, 1.269E-02, 1.995E+02
 5.300E+02, 1.107E+02, 1.123E+02, 5.969E+01, 1.813E+02, 9.104E+01, 6.197E+01, 1.870E+02, 8.792E+01, 1.350E+00, 1.874E-01, 1.277E-02, 1.998E+02
 5.400E+02, 1.117E+02, 1.125E+02, 6.084E+01, 1.809E+02, 9.321E+01, 6.187E+01, 1.862E+02, 8.945E+01, 1.059E+00, 1.873E-01, 1.283E-02, 1.991E+02
 5.500E+02, 1.108E+02, 1.130E+02, 6.044E+01, 1.812E+02, 9.068E+01, 6.238E+01, 1.870E+02, 8.974E+01, 1.025E+00, 1.872E-01, 1.288E-02, 2.001E+02
 5.600E+02, 1.098E+02, 1.123E+02, 6.029E+01, 1.781E+02, 9.091E+01, 6.233E+01, 1.857E+02, 8.896E+01, 1.092E+00, 1.872E-01, 1.290E-02, 1.997E+02
 5.700E+02, 1.122E+02, 1.136E+02, 6.074E+01, 1.840E+02, 9.176E+01, 6.236E+01, 1.883E+02, 9.002E+01, 1.056E+00, 1.871E-01, 1.292E-02, 1.998E+02
 5.800E+02, 1.116E+02, 1.133E+02, 6.036E+01, 1.840E+02, 9.036E+01, 6.180E+01, 1.877E+02, 9.047E+01, 1.310E+00, 1.871E-01, 1.295E-02, 1.991E+02
 5.900E+02, 1.116E+02, 1.143E+02, 6.013E+01, 1.834E+02, 9.116E+01, 6.169E+01, 1.909E+02, 9.027E+01, 1.210E+00, 1.870E-01, 1.298E-02, 1.996E+02
 6.000E+02, 1.113E+02, 1.132E+02, 6.114E+01, 1.805E+02, 9.232E+01, 6.239E+01, 1.872E+02, 9.013E+01, 1.099E+00, 1.870E-01, 1.298E-02, 2.000E+02
 6.100E+02, 1.114E+02, 1.131E+02, 6.019E+01, 1.819E+02, 9.200E+01, 6.271E+01, 1.866E+02, 9.007E+01, 1.097E+00, 1.870E-01, 1.301E-02, 2.008E+02
 6.200E+02, 1.114E+02, 1.135E+02, 6.083E+01, 1.825E+02, 9.094E+01, 6.259E+01, 1.875E+02, 9.047E+01, 1.225E+00, 1.869E-01, 1.302E-02, 1.993E+02
 6.300E+02, 1.136E+02, 1.147E+02, 6.070E+01, 1.875E+02, 9.255E+01, 6.281E+01, 1.903E+02, 9.097E+01, 1.045E+00, 1.869E-01, 1.302E-02, 1.995E+02
 6.400E+02, 1.126E+02, 1.146E+02, 6.136E+01, 1.850E+02, 9.125E+01, 6.327E+01, 1.909E+02, 8.961E+01, 1.440E+00, 1.870E-01, 1.300E-02, 2.007E+02
 6.500E+02, 1.127E+02, 1.140E+02, 6.180E+01, 1.814E+02, 9.492E+01, 6.331E+01, 1.873E+02, 9.123E+01, 9.553E-01, 1.870E-01, 1.301E-02, 1.990E+02
 6.600E+02, 1.123E+02, 1.143E+02, 6.278E+01, 1.817E+02, 9.259E+01, 6.258E+01, 1.887E+02, 9.165E+01, 1.131E+00, 1.870E-01, 1.301E-02, 1.991E+02
 6.700E+02, 1.134E+02, 1.149E+02, 6.245E+01, 1.843E+02, 9.341E+01, 6.354E+01, 1.894E+02, 9.163E+01, 1.396E+00, 1.870E-01, 1.298E-02, 2.003E+02
 6.800E+02, 1.124E+02, 1.144E+02, 6.170E+01, 1.818E+02, 9.360E+01, 6.332E+01, 1.888E+02, 9.118E+01, 1.126E+00, 1.870E-01, 1.297E-02, 1.996E+02
 6.900E+02, 1.133E+02, 1.155E+02, 6.067E+01, 1.863E+02, 9.297E+01, 6.386E+01, 1.896E+02, 9.301E+01, 1.388E+00, 1.871E-01, 1.295E-02, 1.997E+02
 7.000E+02, 1.133E+02, 1.152E+02, 6.223E+01, 1.839E+02, 9.386E+01, 6.312E+01, 1.888E+02, 9.385E+01, 1.287E+00, 1.871E-01, 1.296E-02, 1.998E+02
 7.100E+02, 1.137E+02, 1.141E+02, 6.194E+01, 1.841E+02, 9.509E+01, 6.264E+01, 1.878E+02, 9.180E+01, 1.235E+00, 1.871E-01, 1.295E-02, 1.991E+02
 7.200E+02, 1.136E+02, 1.149E+02, 6.094E+01, 1.866E+02, 9.332E+01, 6.274E+01, 1.902E+02, 9.161E+01, 1.123E+00, 1.871E-01, 1.296E-02, 2.010E+02
 7.300E+02, 1.131E+02, 1.155E+02, 6.216E+01, 1.831E+02, 9.418E+01, 6.331E+01, 1.900E+02, 9.330E+01, 1.192E+00, 1.870E-01, 1.298E-02, 1.987E+02
 7.400E+02, 1.147E+02, 1.162E+02, 6.246E+01, 1.883E+02, 9.342E+01, 6.356E+01, 1.927E+02, 9.234E+01, 1.130E+00, 1.870E-01, 1.298E-02, 1.999E+02
 7.500E+02, 1.153E+02, 1.162E+02, 6.166E+01, 1.890E+02, 9.517E+01, 6.389E+01, 1.928E+02, 9.179E+01, 8.533E-01, 1.870E-01, 1.299E-02, 2.019E+02
 7.600E+02, 1.156E+02, 1.144E+02, 6.338E+01, 1.886E+02, 9.488E+01, 6.271E+01, 1.893E+02, 9.131E+01, 1.124E+00, 1.870E-01, 1.301E-02, 1.968E+02
 7.700E+02, 1.140E+02, 1.160E+02, 6.186E+01, 1.853E+02, 9.492E+01, 6.414E+01, 1.906E+02, 9.330E+01, 1.289E+00, 1.869E-01, 1.302E-02, 2.016E+02
 7.800E+02, 1.147E+02, 1.155E+02, 6.195E+01, 1.864E+02, 9.580E+01, 6.393E+01, 1.887E+02, 9.385E+01, 1.324E+00, 1.870E-01, 1.300E-02, 1.990E+02
 7.900E+02, 1.148E+02, 1.152E+02, 6.235E+01, 1.860E+02, 9.597E+01, 6.371E+01, 1.892E+02, 9.260E+01, 1.526E+00, 1.870E-01, 1.300E-02, 2.013E+02
 8.000E+02, 1.160E+02, 1.153E+02, 6.259E+01, 1.879E+02, 9.740E+01, 6.318E+01, 1.877E+02, 9.502E+01, 1.296E+00, 1.870E-01, 1.298E-02, 1.996E+02
 8.100E+02, 1.162E+02, 1.161E+02, 6.254E+01, 1.864E+02, 9.948E+01, 6.320E+01, 1.906E+02, 9.442E+01, 1.228E+00, 1.870E-01, 1.297E-02, 1.991E+02
 8.200E+02, 1.156E+02, 1.169E+02, 6.166E+01, 1.869E+02, 9.818E+01, 6.338E+01, 1.923E+02, 9.502E+01, 1.303E+00, 1.870E-01, 1.297E-02, 1.997E+02
 8.300E+02, 1.157E+02, 1.166E+02, 6.223E+01, 1.871E+02, 9.770E+01, 6.345E+01, 1.911E+02, 9.519E+01, 1.033E+00, 1.870E-01, 1.298E-02, 2.000E+02
 8.400E+02, 1.157E+02, 1.156E+02, 6.151E+01, 1.891E+02, 9.635E+01, 6.402E+01, 1.899E+02, 9.275E+01, 1.502E+00, 1.870E-01, 1.298E-02, 1.989E+02
 8.500E+02, 1.169E+02, 1.172E+02, 6.304E+01, 1.880E+02, 9.965E+01, 6.388E+01, 1.923E+02, 9.554E+01, 1.245E+00, 1.870E-01, 1.297E-02, 1.994E+02
 8.600E+02, 1.167E+02, 1.170E+02, 6.299E+01, 1.883E+02, 9.870E+01, 6.431E+01, 1.915E+02, 9.522E+01, 1.087E+00, 1.870E-01, 1.297E-02, 1.985E+02
 8.700E+02, 1.161E+02, 1.172E+02, 6.223E+01, 1.902E+02, 9.601E+01, 6.354E+01, 1.932E+02, 9.498E+01, 1.032E+00, 1.871E-01, 1.296E-02, 2.022E+02
 8.800E+02, 1.160E+02, 1.172E+02, 6.242E+01, 1.893E+02, 9.634E+01, 6.347E+01, 1.930E+02, 9.523E+01, 1.156E+00, 1.871E-01, 1.295E-02, 1.981E+02
 8.900E+02, 1.152E+02, 1.165E+02, 6.155E+01, 1.844E+02, 9.984E+01, 6.359E+01, 1.911E+02, 9.485E+01, 1.245E+00, 1.871E-01, 1.295E-02, 2.000E+02
 9.000E+02, 1.162E+02, 1.162E+02, 6.297E+01, 1.886E+02, 9.705E+01, 6.276E+01, 1.917E+02, 9.407E+01, 1.477E+00, 1.871E-01, 1.294E-02, 2.002E+02
 9.100E+02, 1.158E+02, 1.172E+02, 6.217E+01, 1.866E+02, 9.857E+01, 6.347E+01, 1.910E+02, 9.707E+01, 1.395E+00, 1.871E-01, 1.292E-02, 1.993E+02
 9.200E+02, 1.167E+02, 1.182E+02, 6.213E+01, 1.890E+02, 9.914E+01, 6.373E+01, 1.935E+02, 9.749E+01, 1.366E+00, 1.871E-01, 1.295E-02, 2.005E+02
 9.300E+02, 1.166E+02, 1.175E+02, 6.355E+01, 1.848E+02, 1.014E+02, 6.369E+01, 1.924E+02, 9.650E+01, 1.432E+00, 1.871E-01, 1.295E-02, 2.002E+02
 9.400E+02, 1.159E+02, 1.192E+02, 6.275E+01, 1.847E+02, 1.003E+02, 6.442E+01, 1.935E+02, 9.949E+01, 1.282E+00, 1.871E-01, 1.294E-02, 1.984E+02
 9.500E+02, 1.156E+02, 1.186E+02, 6.247E+01, 1.840E+02, 1.002E+02, 6.373E+01, 1.945E+02, 9.766E+01, 1.370E+00, 1.872E-01, 1.290E-02, 1.988E+02
 9.600E+02, 1.174E+02, 1.184E+02, 6.237E+01, 1.890E+02, 1.007E+02, 6.432E+01, 1.924E+02, 9.846E+01, 1.291E+00, 1.871E-01, 1.291E-02, 2.015E+02
 9.700E+02, 1.171E+02, 1.184E+02, 6.223E+01, 1.887E+02, 1.005E+02, 6.370E+01, 1.935E+02, 9.810E+01, 1.154E+00, 1.872E-01, 1.290E-02, 1.990E+02
 9.800E+02, 1.171E+02, 1.185E+02, 6.333E+01, 1.872E+02, 1.008E+02, 6.417E+01, 1.942E+02, 9.709E+01, 1.302E+00, 1.872E-01, 1.288E-02, 2.006E+02
 9.900E+02, 1.173E+02, 1.179E+02, 6.384E+01, 1.884E+02, 9.965E+01, 6.368E+01, 1.918E+02, 9.824E+01, 1.100E+00, 1.872E-01, 1.287E-02, 2.003E+02
 1.000E+03, 1.183E+02, 1.174E+02, 6.278E+01, 1.926E+02, 9.950E+01, 6.291E+01, 1.920E+02, 9.724E+01, 1.344E+00, 1.872E-01, 1.286E-02, 1.987E+02
 1.010E+03, 1.185E+02, 1.189E+02, 6.365E+01, 1.917E+02, 1.001E+02, 6.370E+01, 1.949E+02, 9.807E+01, 1.250E+00, 1.872E-01, 1.286E-02, 1.997E+02
 1.020E+03, 1.178E+02, 1.185E+02, 6.321E+01, 1.896E+02, 1.005E+02, 6.295E+01, 1.951E+02, 9.737E+01, 1.299E+00, 1.872E-01, 1.286E-02, 2.003E+02
 1.030E+03, 1.181E+02, 1.187E+02, 6.341E+01, 1.897E+02, 1.012E+02, 6.274E+01, 1.944E+02, 9.881E+01, 1.169E+00, 1.872E-01, 1.285E-02, 2.009E+02
 1.040E+03, 1.175E+02, 1.181E+02, 6.209E+01, 1.921E+02, 9.848E+01, 6.373E+01, 1.925E+02, 9.816E+01, 1.329E+00, 1.872E-01, 1.288E-02, 1.977E+02
 1.050E+03, 1.176E+02, 1.183E+02, 6.341E+01, 1.902E+02, 9.912E+01, 6.337E+01, 1.933E+02, 9.831E+01, 1.115E+00, 1.872E-01, 1.285E-02, 2.011E+02
 1.060E+03, 1.184E+02, 1.187E+02, 6.229E+01, 1.910E+02, 1.019E+02, 6.356E+01, 1.934E+02, 9.915E+01, 1.456E+00, 1.872E-01, 1.286E-02, 1.991E+02
 1.070E+03, 1.188E+02, 1.183E+02, 6.211E+01, 1.918E+02, 1.024E+02, 6.442E+01, 1.938E+02, 9.679E+01, 1.301E+00, 1.872E-01, 1.285E-02, 2.016E+02
 1.080E+03, 1.180E+02, 1.192E+02, 6.266E+01, 1.898E+02, 1.015E+02, 6.391E+01, 1.930E+02, 1.007E+02, 1.245E+00, 1.872E-01, 1.287E-02, 1.977E+02
 1.090E+03, 1.186E+02, 1.197E+02, 6.336E+01, 1.910E+02, 1.016E+02, 6.429E+01, 1.945E+02, 1.004E+02, 1.159E+00, 1.872E-01, 1.285E-02, 2.009E+02
 1.100E+03, 1.182E+02, 1.193E+02, 6.352E+01, 1.896E+02, 1.014E+02, 6.326E+01, 1.951E+02, 9.935E+01, 1.557E+00, 1.873E-01, 1.284E-02, 2.010E+02
 1.110E+03, 1.183E+02, 1.193E+02, 6.317E+01, 1.889E+02, 1.028E+02, 6.458E+01, 1.945E+02, 9.870E+01, 1.103E+00, 1.873E-01, 1.283E-02, 1.984E+02
 1.120E+03, 1.186E+02, 1.192E+02, 6.360E+01, 1.898E+02, 1.025E+02, 6.469E+01, 1.945E+02, 9.844E+01, 1.608E+00, 1.873E-01, 1.281E-02, 2.002E+02
 1.130E+03, 1.195E+02, 1.207E+02, 6.425E+01, 1.918E+02, 1.023E+02, 6.479E+01, 1.962E+02, 1.012E+02, 1.172E+00, 1.873E-01, 1.279E-02, 1.995E+02
 1.140E+03, 1.187E+02, 1.214E+02, 6.345E+01, 1.907E+02, 1.020E+02, 6.650E+01, 1.974E+02, 1.002E+02, 1.254E+00, 1.874E-01, 1.278E-02, 1.994E+02
 1.150E+03, 1.199E+02, 1.196E+02, 6.455E+01, 1.908E+02, 1.044E+02, 6.565E+01, 1.944E+02, 9.880E+01, 1.318E+00, 1.874E-01, 1.278E-02, 1.995E+02
 1.160E+03, 1.212E+02, 1.203E+02, 6.464E+01, 1.935E+02, 1.056E+02, 6.476E+01, 1.972E+02, 9.900E+01, 1.304E+00, 1.873E-01, 1.279E-02, 2.017E+02
 1.170E+03, 1.199E+02, 1.203E+02, 6.306E+01, 1.928E+02, 1.038E+02, 6.555E+01, 1.954E+02, 1.001E+02, 1.352E+00, 1.873E-01, 1.280E-02, 1.986E+02
 1.180E+03, 1.193E+02, 1.198E+02, 6.321E+01, 1.902E+02, 1.043E+02, 6.466E+01, 1.955E+02, 9.934E+01, 1.162E+00, 1.873E-01, 1.281E-02, 1.985E+02
 1.190E+03, 1.200E+02, 1.205E+02, 6.407E+01, 1.920E+02, 1.037E+02, 6.485E+01, 1.971E+02, 9.963E+01, 1.219E+00, 1.873E-01, 1.282E-02, 1.999E+02
 1.200E+03, 1.208E+02, 1.210E+02, 6.368E+01, 1.946E+02, 1.042E+02, 6.557E+01, 1.976E+02, 9.972E+01, 1.169E+00, 1.873E-01, 1.284E-02, 1.985E+02
 1.210E+03, 1.210E+02, 1.201E+02, 6.514E+01, 1.939E+02, 1.041E+02, 6.524E+01, 1.948E+02, 1.003E+02, 1.317E+00, 1.873E-01, 1.285E-02, 2.023E+02
 1.220E+03, 1.205E+02, 1.207E+02, 6.412E+01, 1.929E+02, 1.045E+02, 6.504E+01, 1.971E+02, 9.981E+01, 1.233E+00, 1.872E-01, 1.286E-02, 1.995E+02
 1.230E+03, 1.206E+02, 1.206E+02, 6.459E+01, 1.920E+02, 1.051E+02, 6.487E+01, 1.962E+02, 1.009E+02, 1.318E+00, 1.872E-01, 1.286E-02, 1.993E+02
 1.240E+03, 1.204E+02, 1.207E+02, 6.415E+01, 1.935E+02, 1.037E+02, 6.498E+01, 1.967E+02, 1.005E+02, 1.421E+00, 1.872E-01, 1.286E-02, 1.989E+02
 1.250E+03, 1.203E+02, 1.214E+02, 6.535E+01, 1.927E+02, 1.029E+02, 6.480E+01, 1.970E+02, 1.024E+02, 1.333E+00, 1.872E-01, 1.287E-02, 2.012E+02
 1.260E+03, 1.200E+02, 1.208E+02, 6.460E+01, 1.921E+02, 1.032E+02, 6.584E+01, 1.954E+02, 1.011E+02, 1.264E+00, 1.872E-01, 1.286E-02, 2.009E+02
 1.270E+03, 1.205E+02, 1.206E+02, 6.406E+01, 1.927E+02, 1.049E+02, 6.500E+01, 1.953E+02, 1.013E+02, 1.424E+00, 1.873E-01, 1.283E-02, 1.984E+02
 1.280E+03, 1.213E+02, 1.216E+02, 6.399E+01, 1.943E+02, 1.055E+02, 6.398E+01, 1.989E+02, 1.020E+02, 1.315E+00, 1.873E-01, 1.283E-02, 2.007E+02
 1.290E+03, 1.209E+02, 1.205E+02, 6.283E+01, 1.938E+02, 1.061E+02, 6.448E+01, 1.955E+02, 1.015E+02, 1.133E+00, 1.873E-01, 1.281E-02, 1.999E+02
 1.300E+03, 1.210E+02, 1.202E+02, 6.481E+01, 1.921E+02, 1.059E+02, 6.479E+01, 1.947E+02, 1.012E+02, 1.425E+00, 1.873E-01, 1.281E-02, 1.979E+02
 1.310E+03, 1.207E+02, 1.211E+02, 6.441E+01, 1.922E+02, 1.054E+02, 6.389E+01, 1.953E+02, 1.041E+02, 1.360E+00, 1.873E-01, 1.279E-02, 2.003E+02
