m,kW/m2,C
Height,Flux,Temp
 1.000E-02, 3.911E+01, 5.524E+02
 3.000E-02, 4.188E+01, 5.711E+02
 5.000E-02, 4.160E+01, 5.697E+02
 7.000E-02, 3.938E+01, 5.557E+02
 9.000E-02, 3.636E+01, 5.351E+02
 1.100E-01, 3.315E+01, 5.114E+02
 1.300E-01, 3.007E+01, 4.867E+02
 1.500E-01, 2.720E+01, 4.619E+02
 1.700E-01, 2.462E+01, 4.378E+02
 1.900E-01, 2.232E+01, 4.144E+02
 2.100E-01, 2.026E+01, 3.917E+02
 2.300E-01, 1.842E+01, 3.699E+02
 2.500E-01, 1.675E+01, 3.488E+02
 2.700E-01, 1.523E+01, 3.285E+02
 2.900E-01, 1.386E+01, 3.088E+02
 3.100E-01, 1.261E+01, 2.900E+02
 3.300E-01, 1.149E+01, 2.721E+02
 3.500E-01, 1.048E+01, 2.551E+02
 3.700E-01, 9.565E+00, 2.392E+02
 3.900E-01, 8.744E+00, 2.241E+02
 4.100E-01, 8.004E+00, 2.100E+02
 4.300E-01, 7.328E+00, 1.967E+02
 4.500E-01, 6.711E+00, 1.842E+02
 4.700E-01, 6.154E+00, 1.725E+02
 4.900E-01, 5.650E+00, 1.617E+02
 5.100E-01, 5.196E+00, 1.517E+02
 5.300E-01, 4.781E+00, 1.423E+02
 5.500E-01, 4.402E+00, 1.336E+02
 5.700E-01, 4.058E+00, 1.256E+02
 5.900E-01, 3.745E+00, 1.182E+02
 6.100E-01, 3.463E+00, 1.114E+02
 6.300E-01, 3.205E+00, 1.051E+02
 6.500E-01, 2.972E+00, 9.935E+01
 6.700E-01, 2.761E+00, 9.407E+01
 6.900E-01, 2.570E+00, 8.927E+01
 7.100E-01, 2.397E+00, 8.490E+01
 7.300E-01, 2.241E+00, 8.094E+01
 7.500E-01, 2.100E+00, 7.732E+01
 7.700E-01, 1.972E+00, 7.402E+01
 7.900E-01, 1.855E+00, 7.101E+01
 8.100E-01, 1.749E+00, 6.825E+01
 8.300E-01, 1.652E+00, 6.574E+01
 8.500E-01, 1.564E+00, 6.346E+01
 8.700E-01, 1.484E+00, 6.136E+01
 8.900E-01, 1.409E+00, 5.943E+01
 9.100E-01, 1.341E+00, 5.765E+01
 9.300E-01, 1.279E+00, 5.600E+01
 9.500E-01, 1.220E+00, 5.445E+01
 9.700E-01, 1.166E+00, 5.302E+01
 9.900E-01, 1.115E+00, 5.166E+01
 1.010E+00, 1.067E+00, 5.038E+01
 1.030E+00, 1.023E+00, 4.918E+01
 1.050E+00, 9.822E-01, 4.806E+01
 1.070E+00, 9.441E-01, 4.701E+01
 1.090E+00, 9.086E-01, 4.602E+01
 1.110E+00, 8.756E-01, 4.510E+01
 1.130E+00, 8.452E-01, 4.424E+01
 1.150E+00, 8.167E-01, 4.345E+01
 1.170E+00, 7.900E-01, 4.271E+01
 1.190E+00, 7.648E-01, 4.200E+01
 1.210E+00, 7.406E-01, 4.133E+01
 1.230E+00, 7.179E-01, 4.070E+01
 1.250E+00, 6.963E-01, 4.009E+01
 1.270E+00, 6.759E-01, 3.952E+01
 1.290E+00, 6.565E-01, 3.897E+01
 1.310E+00, 6.386E-01, 3.845E+01
 1.330E+00, 6.216E-01, 3.796E+01
 1.350E+00, 6.054E-01, 3.749E+01
 1.370E+00, 5.894E-01, 3.704E+01
 1.390E+00, 5.740E-01, 3.660E+01
 1.410E+00, 5.592E-01, 3.618E+01
 1.430E+00, 5.449E-01, 3.577E+01
 1.450E+00, 5.313E-01, 3.538E+01
 1.470E+00, 5.183E-01, 3.501E+01
 1.490E+00, 5.058E-01, 3.465E+01
 1.510E+00, 4.939E-01, 3.432E+01
 1.530E+00, 4.828E-01, 3.401E+01
 1.550E+00, 4.722E-01, 3.371E+01
 1.570E+00, 4.621E-01, 3.343E+01
 1.590E+00, 4.524E-01, 3.316E+01
 1.610E+00, 4.430E-01, 3.290E+01
 1.630E+00, 4.340E-01, 3.266E+01
 1.650E+00, 4.254E-01, 3.242E+01
 1.670E+00, 4.170E-01, 3.219E+01
 1.690E+00, 4.089E-01, 3.197E+01
 1.710E+00, 4.011E-01, 3.175E+01
 1.730E+00, 3.936E-01, 3.154E+01
 1.750E+00, 3.863E-01, 3.134E+01
 1.770E+00, 3.795E-01, 3.115E+01
 1.790E+00, 3.730E-01, 3.096E+01
 1.810E+00, 3.668E-01, 3.078E+01
 1.830E+00, 3.610E-01, 3.061E+01
 1.850E+00, 3.555E-01, 3.045E+01
 1.870E+00, 3.501E-01, 3.029E+01
 1.890E+00, 3.448E-01, 3.014E+01
 1.910E+00, 3.396E-01, 2.999E+01
 1.930E+00, 3.346E-01, 2.985E+01
 1.950E+00, 3.296E-01, 2.970E+01
 1.970E+00, 3.247E-01, 2.957E+01
 1.990E+00, 3.199E-01, 2.943E+01
 2.010E+00, 3.153E-01, 2.930E+01
 2.030E+00, 3.109E-01, 2.918E+01
 2.050E+00, 3.066E-01, 2.905E+01
 2.070E+00, 3.024E-01, 2.893E+01
 2.090E+00, 2.983E-01, 2.881E+01
 2.110E+00, 2.942E-01, 2.870E+01
 2.130E+00, 2.901E-01, 2.858E+01
 2.150E+00, 2.862E-01, 2.847E+01
 2.170E+00, 2.823E-01, 2.836E+01
 2.190E+00, 2.784E-01, 2.825E+01
 2.210E+00, 2.744E-01, 2.814E+01
 2.230E+00, 2.704E-01, 2.803E+01
 2.250E+00, 2.665E-01, 2.791E+01
 2.270E+00, 2.626E-01, 2.780E+01
 2.290E+00, 2.588E-01, 2.769E+01
 2.310E+00, 2.550E-01, 2.759E+01
 2.330E+00, 2.512E-01, 2.748E+01
 2.350E+00, 2.472E-01, 2.737E+01
 2.370E+00, 2.429E-01, 2.726E+01
 2.390E+00, 2.385E-01, 2.714E+01
 2.410E+00, 2.340E-01, 2.702E+01
 2.430E+00, 2.309E-01, 2.694E+01
