m,kW/m2,C
Height,Flux,Temp
 1.000E-02, 5.281E+01, 6.272E+02
 3.000E-02, 5.998E+01, 6.624E+02
 5.000E-02, 6.384E+01, 6.798E+02
 7.000E-02, 6.482E+01, 6.838E+02
 9.000E-02, 6.395E+01, 6.796E+02
 1.100E-01, 6.211E+01, 6.709E+02
 1.300E-01, 5.989E+01, 6.602E+02
 1.500E-01, 5.759E+01, 6.489E+02
 1.700E-01, 5.534E+01, 6.373E+02
 1.900E-01, 5.314E+01, 6.257E+02
 2.100E-01, 5.099E+01, 6.139E+02
 2.300E-01, 4.885E+01, 6.018E+02
 2.500E-01, 4.674E+01, 5.894E+02
 2.700E-01, 4.464E+01, 5.765E+02
 2.900E-01, 4.259E+01, 5.634E+02
 3.100E-01, 4.058E+01, 5.501E+02
 3.300E-01, 3.864E+01, 5.367E+02
 3.500E-01, 3.676E+01, 5.230E+02
 3.700E-01, 3.493E+01, 5.092E+02
 3.900E-01, 3.318E+01, 4.953E+02
 4.100E-01, 3.149E+01, 4.813E+02
 4.300E-01, 2.985E+01, 4.672E+02
 4.500E-01, 2.826E+01, 4.530E+02
 4.700E-01, 2.673E+01, 4.387E+02
 4.900E-01, 2.526E+01, 4.244E+02
 5.100E-01, 2.384E+01, 4.100E+02
 5.300E-01, 2.247E+01, 3.956E+02
 5.500E-01, 2.117E+01, 3.813E+02
 5.700E-01, 1.992E+01, 3.671E+02
 5.900E-01, 1.875E+01, 3.531E+02
 6.100E-01, 1.763E+01, 3.393E+02
 6.300E-01, 1.657E+01, 3.256E+02
 6.500E-01, 1.556E+01, 3.122E+02
 6.700E-01, 1.460E+01, 2.989E+02
 6.900E-01, 1.368E+01, 2.860E+02
 7.100E-01, 1.282E+01, 2.733E+02
 7.300E-01, 1.201E+01, 2.610E+02
 7.500E-01, 1.125E+01, 2.491E+02
 7.700E-01, 1.053E+01, 2.375E+02
 7.900E-01, 9.863E+00, 2.264E+02
 8.100E-01, 9.240E+00, 2.158E+02
 8.300E-01, 8.658E+00, 2.056E+02
 8.500E-01, 8.115E+00, 1.959E+02
 8.700E-01, 7.611E+00, 1.867E+02
 8.900E-01, 7.145E+00, 1.780E+02
 9.100E-01, 6.716E+00, 1.698E+02
 9.300E-01, 6.320E+00, 1.621E+02
 9.500E-01, 5.954E+00, 1.549E+02
 9.700E-01, 5.615E+00, 1.480E+02
 9.900E-01, 5.299E+00, 1.415E+02
 1.010E+00, 5.006E+00, 1.354E+02
 1.030E+00, 4.735E+00, 1.297E+02
 1.050E+00, 4.484E+00, 1.244E+02
 1.070E+00, 4.250E+00, 1.194E+02
 1.090E+00, 4.032E+00, 1.147E+02
 1.110E+00, 3.827E+00, 1.102E+02
 1.130E+00, 3.636E+00, 1.061E+02
 1.150E+00, 3.459E+00, 1.022E+02
 1.170E+00, 3.295E+00, 9.858E+01
 1.190E+00, 3.143E+00, 9.522E+01
 1.210E+00, 3.002E+00, 9.207E+01
 1.230E+00, 2.872E+00, 8.915E+01
 1.250E+00, 2.751E+00, 8.641E+01
 1.270E+00, 2.637E+00, 8.384E+01
 1.290E+00, 2.530E+00, 8.142E+01
 1.310E+00, 2.429E+00, 7.913E+01
 1.330E+00, 2.334E+00, 7.699E+01
 1.350E+00, 2.246E+00, 7.499E+01
 1.370E+00, 2.165E+00, 7.313E+01
 1.390E+00, 2.089E+00, 7.139E+01
 1.410E+00, 2.019E+00, 6.975E+01
 1.430E+00, 1.954E+00, 6.821E+01
 1.450E+00, 1.893E+00, 6.675E+01
 1.470E+00, 1.837E+00, 6.537E+01
 1.490E+00, 1.783E+00, 6.407E+01
 1.510E+00, 1.732E+00, 6.283E+01
 1.530E+00, 1.684E+00, 6.167E+01
 1.550E+00, 1.639E+00, 6.058E+01
 1.570E+00, 1.597E+00, 5.956E+01
 1.590E+00, 1.557E+00, 5.861E+01
 1.610E+00, 1.519E+00, 5.771E+01
 1.630E+00, 1.482E+00, 5.685E+01
 1.650E+00, 1.447E+00, 5.602E+01
 1.670E+00, 1.415E+00, 5.524E+01
 1.690E+00, 1.384E+00, 5.451E+01
 1.710E+00, 1.355E+00, 5.381E+01
 1.730E+00, 1.326E+00, 5.313E+01
 1.750E+00, 1.299E+00, 5.248E+01
 1.770E+00, 1.272E+00, 5.185E+01
 1.790E+00, 1.247E+00, 5.125E+01
 1.810E+00, 1.223E+00, 5.068E+01
 1.830E+00, 1.200E+00, 5.014E+01
 1.850E+00, 1.178E+00, 4.961E+01
 1.870E+00, 1.157E+00, 4.909E+01
 1.890E+00, 1.135E+00, 4.857E+01
 1.910E+00, 1.113E+00, 4.807E+01
 1.930E+00, 1.093E+00, 4.758E+01
 1.950E+00, 1.073E+00, 4.711E+01
 1.970E+00, 1.054E+00, 4.667E+01
 1.990E+00, 1.036E+00, 4.625E+01
 2.010E+00, 1.019E+00, 4.585E+01
 2.030E+00, 1.004E+00, 4.548E+01
 2.050E+00, 9.885E-01, 4.513E+01
 2.070E+00, 9.743E-01, 4.479E+01
 2.090E+00, 9.606E-01, 4.446E+01
 2.110E+00, 9.474E-01, 4.414E+01
 2.130E+00, 9.345E-01, 4.382E+01
 2.150E+00, 9.217E-01, 4.351E+01
 2.170E+00, 9.089E-01, 4.319E+01
 2.190E+00, 8.962E-01, 4.288E+01
 2.210E+00, 8.834E-01, 4.257E+01
 2.230E+00, 8.708E-01, 4.227E+01
 2.250E+00, 8.585E-01, 4.199E+01
 2.270E+00, 8.467E-01, 4.171E+01
 2.290E+00, 8.350E-01, 4.144E+01
 2.310E+00, 8.236E-01, 4.117E+01
 2.330E+00, 8.117E-01, 4.089E+01
 2.350E+00, 7.994E-01, 4.061E+01
 2.370E+00, 7.862E-01, 4.031E+01
 2.390E+00, 7.728E-01, 4.000E+01
 2.410E+00, 7.593E-01, 3.969E+01
 2.430E+00, 7.497E-01, 3.948E+01
