m,kW/m2,C
Height,Flux,Temp
 1.000E-02, 2.997E+01, 4.702E+02
 3.000E-02, 3.959E+01, 5.468E+02
 5.000E-02, 4.698E+01, 5.943E+02
 7.000E-02, 5.197E+01, 6.224E+02
 9.000E-02, 5.478E+01, 6.371E+02
 1.100E-01, 5.606E+01, 6.434E+02
 1.300E-01, 5.646E+01, 6.450E+02
 1.500E-01, 5.641E+01, 6.443E+02
 1.700E-01, 5.610E+01, 6.423E+02
 1.900E-01, 5.566E+01, 6.396E+02
 2.100E-01, 5.517E+01, 6.364E+02
 2.300E-01, 5.463E+01, 6.329E+02
 2.500E-01, 5.402E+01, 6.290E+02
 2.700E-01, 5.329E+01, 6.245E+02
 2.900E-01, 5.241E+01, 6.193E+02
 3.100E-01, 5.141E+01, 6.133E+02
 3.300E-01, 5.023E+01, 6.063E+02
 3.500E-01, 4.889E+01, 5.983E+02
 3.700E-01, 4.742E+01, 5.894E+02
 3.900E-01, 4.591E+01, 5.799E+02
 4.100E-01, 4.434E+01, 5.699E+02
 4.300E-01, 4.272E+01, 5.591E+02
 4.500E-01, 4.106E+01, 5.478E+02
 4.700E-01, 3.938E+01, 5.360E+02
 4.900E-01, 3.768E+01, 5.237E+02
 5.100E-01, 3.599E+01, 5.109E+02
 5.300E-01, 3.429E+01, 4.976E+02
 5.500E-01, 3.261E+01, 4.840E+02
 5.700E-01, 3.095E+01, 4.700E+02
 5.900E-01, 2.930E+01, 4.555E+02
 6.100E-01, 2.769E+01, 4.408E+02
 6.300E-01, 2.613E+01, 4.258E+02
 6.500E-01, 2.460E+01, 4.106E+02
 6.700E-01, 2.313E+01, 3.952E+02
 6.900E-01, 2.168E+01, 3.795E+02
 7.100E-01, 2.028E+01, 3.638E+02
 7.300E-01, 1.896E+01, 3.482E+02
 7.500E-01, 1.769E+01, 3.327E+02
 7.700E-01, 1.650E+01, 3.175E+02
 7.900E-01, 1.540E+01, 3.028E+02
 8.100E-01, 1.439E+01, 2.885E+02
 8.300E-01, 1.344E+01, 2.747E+02
 8.500E-01, 1.254E+01, 2.612E+02
 8.700E-01, 1.169E+01, 2.482E+02
 8.900E-01, 1.092E+01, 2.358E+02
 9.100E-01, 1.019E+01, 2.238E+02
 9.300E-01, 9.506E+00, 2.124E+02
 9.500E-01, 8.864E+00, 2.016E+02
 9.700E-01, 8.266E+00, 1.913E+02
 9.900E-01, 7.718E+00, 1.816E+02
 1.010E+00, 7.216E+00, 1.725E+02
 1.030E+00, 6.761E+00, 1.640E+02
 1.050E+00, 6.347E+00, 1.562E+02
 1.070E+00, 5.967E+00, 1.489E+02
 1.090E+00, 5.618E+00, 1.421E+02
 1.110E+00, 5.295E+00, 1.357E+02
 1.130E+00, 4.991E+00, 1.297E+02
 1.150E+00, 4.708E+00, 1.241E+02
 1.170E+00, 4.447E+00, 1.188E+02
 1.190E+00, 4.211E+00, 1.140E+02
 1.210E+00, 3.993E+00, 1.096E+02
 1.230E+00, 3.794E+00, 1.055E+02
 1.250E+00, 3.611E+00, 1.016E+02
 1.270E+00, 3.440E+00, 9.805E+01
 1.290E+00, 3.283E+00, 9.477E+01
 1.310E+00, 3.136E+00, 9.170E+01
 1.330E+00, 3.001E+00, 8.885E+01
 1.350E+00, 2.875E+00, 8.621E+01
 1.370E+00, 2.760E+00, 8.377E+01
 1.390E+00, 2.653E+00, 8.151E+01
 1.410E+00, 2.554E+00, 7.942E+01
 1.430E+00, 2.462E+00, 7.748E+01
 1.450E+00, 2.378E+00, 7.568E+01
 1.470E+00, 2.299E+00, 7.400E+01
 1.490E+00, 2.227E+00, 7.243E+01
 1.510E+00, 2.159E+00, 7.098E+01
 1.530E+00, 2.096E+00, 6.961E+01
 1.550E+00, 2.037E+00, 6.832E+01
 1.570E+00, 1.982E+00, 6.710E+01
 1.590E+00, 1.931E+00, 6.597E+01
 1.610E+00, 1.884E+00, 6.491E+01
 1.630E+00, 1.840E+00, 6.393E+01
 1.650E+00, 1.800E+00, 6.300E+01
 1.670E+00, 1.762E+00, 6.212E+01
 1.690E+00, 1.727E+00, 6.129E+01
 1.710E+00, 1.693E+00, 6.050E+01
 1.730E+00, 1.661E+00, 5.975E+01
 1.750E+00, 1.631E+00, 5.903E+01
 1.770E+00, 1.602E+00, 5.835E+01
 1.790E+00, 1.574E+00, 5.770E+01
 1.810E+00, 1.548E+00, 5.708E+01
 1.830E+00, 1.523E+00, 5.648E+01
 1.850E+00, 1.498E+00, 5.590E+01
 1.870E+00, 1.475E+00, 5.533E+01
 1.890E+00, 1.452E+00, 5.479E+01
 1.910E+00, 1.430E+00, 5.425E+01
 1.930E+00, 1.408E+00, 5.373E+01
 1.950E+00, 1.387E+00, 5.323E+01
 1.970E+00, 1.366E+00, 5.273E+01
 1.990E+00, 1.345E+00, 5.224E+01
 2.010E+00, 1.324E+00, 5.176E+01
 2.030E+00, 1.304E+00, 5.129E+01
 2.050E+00, 1.283E+00, 5.083E+01
 2.070E+00, 1.264E+00, 5.038E+01
 2.090E+00, 1.245E+00, 4.995E+01
 2.110E+00, 1.227E+00, 4.952E+01
 2.130E+00, 1.209E+00, 4.911E+01
 2.150E+00, 1.191E+00, 4.870E+01
 2.170E+00, 1.173E+00, 4.831E+01
 2.190E+00, 1.156E+00, 4.792E+01
 2.210E+00, 1.139E+00, 4.754E+01
 2.230E+00, 1.123E+00, 4.718E+01
 2.250E+00, 1.106E+00, 4.682E+01
 2.270E+00, 1.091E+00, 4.646E+01
 2.290E+00, 1.075E+00, 4.611E+01
 2.310E+00, 1.060E+00, 4.578E+01
 2.330E+00, 1.045E+00, 4.543E+01
 2.350E+00, 1.029E+00, 4.508E+01
 2.370E+00, 1.012E+00, 4.471E+01
 2.390E+00, 9.949E-01, 4.433E+01
 2.410E+00, 9.746E-01, 4.389E+01
 2.430E+00, 9.601E-01, 4.361E+01
