m,kW/m2,C
Height,Flux,Temp
 1.000E-02, 2.903E+01, 4.666E+02
 3.000E-02, 3.468E+01, 5.115E+02
 5.000E-02, 4.012E+01, 5.492E+02
 7.000E-02, 4.499E+01, 5.795E+02
 9.000E-02, 4.871E+01, 6.010E+02
 1.100E-01, 5.149E+01, 6.160E+02
 1.300E-01, 5.349E+01, 6.265E+02
 1.500E-01, 5.493E+01, 6.339E+02
 1.700E-01, 5.599E+01, 6.391E+02
 1.900E-01, 5.676E+01, 6.427E+02
 2.100E-01, 5.729E+01, 6.449E+02
 2.300E-01, 5.761E+01, 6.461E+02
 2.500E-01, 5.773E+01, 6.464E+02
 2.700E-01, 5.772E+01, 6.459E+02
 2.900E-01, 5.753E+01, 6.446E+02
 3.100E-01, 5.720E+01, 6.426E+02
 3.300E-01, 5.676E+01, 6.400E+02
 3.500E-01, 5.623E+01, 6.369E+02
 3.700E-01, 5.561E+01, 6.333E+02
 3.900E-01, 5.487E+01, 6.292E+02
 4.100E-01, 5.405E+01, 6.245E+02
 4.300E-01, 5.315E+01, 6.194E+02
 4.500E-01, 5.217E+01, 6.138E+02
 4.700E-01, 5.111E+01, 6.076E+02
 4.900E-01, 4.997E+01, 6.010E+02
 5.100E-01, 4.881E+01, 5.940E+02
 5.300E-01, 4.761E+01, 5.867E+02
 5.500E-01, 4.637E+01, 5.790E+02
 5.700E-01, 4.510E+01, 5.710E+02
 5.900E-01, 4.379E+01, 5.625E+02
 6.100E-01, 4.245E+01, 5.536E+02
 6.300E-01, 4.108E+01, 5.443E+02
 6.500E-01, 3.971E+01, 5.346E+02
 6.700E-01, 3.834E+01, 5.247E+02
 6.900E-01, 3.698E+01, 5.146E+02
 7.100E-01, 3.563E+01, 5.043E+02
 7.300E-01, 3.429E+01, 4.938E+02
 7.500E-01, 3.297E+01, 4.830E+02
 7.700E-01, 3.166E+01, 4.721E+02
 7.900E-01, 3.037E+01, 4.608E+02
 8.100E-01, 2.911E+01, 4.494E+02
 8.300E-01, 2.789E+01, 4.379E+02
 8.500E-01, 2.670E+01, 4.264E+02
 8.700E-01, 2.554E+01, 4.149E+02
 8.900E-01, 2.441E+01, 4.033E+02
 9.100E-01, 2.331E+01, 3.917E+02
 9.300E-01, 2.224E+01, 3.801E+02
 9.500E-01, 2.120E+01, 3.684E+02
 9.700E-01, 2.021E+01, 3.569E+02
 9.900E-01, 1.924E+01, 3.453E+02
 1.010E+00, 1.830E+01, 3.338E+02
 1.030E+00, 1.740E+01, 3.224E+02
 1.050E+00, 1.653E+01, 3.112E+02
 1.070E+00, 1.570E+01, 3.001E+02
 1.090E+00, 1.491E+01, 2.893E+02
 1.110E+00, 1.416E+01, 2.787E+02
 1.130E+00, 1.344E+01, 2.684E+02
 1.150E+00, 1.276E+01, 2.583E+02
 1.170E+00, 1.211E+01, 2.486E+02
 1.190E+00, 1.150E+01, 2.391E+02
 1.210E+00, 1.092E+01, 2.300E+02
 1.230E+00, 1.037E+01, 2.212E+02
 1.250E+00, 9.856E+00, 2.127E+02
 1.270E+00, 9.366E+00, 2.045E+02
 1.290E+00, 8.905E+00, 1.967E+02
 1.310E+00, 8.474E+00, 1.892E+02
 1.330E+00, 8.072E+00, 1.822E+02
 1.350E+00, 7.695E+00, 1.756E+02
 1.370E+00, 7.341E+00, 1.693E+02
 1.390E+00, 7.009E+00, 1.633E+02
 1.410E+00, 6.698E+00, 1.577E+02
 1.430E+00, 6.407E+00, 1.524E+02
 1.450E+00, 6.132E+00, 1.474E+02
 1.470E+00, 5.871E+00, 1.426E+02
 1.490E+00, 5.624E+00, 1.380E+02
 1.510E+00, 5.392E+00, 1.337E+02
 1.530E+00, 5.173E+00, 1.296E+02
 1.550E+00, 4.966E+00, 1.257E+02
 1.570E+00, 4.773E+00, 1.220E+02
 1.590E+00, 4.590E+00, 1.185E+02
 1.610E+00, 4.418E+00, 1.152E+02
 1.630E+00, 4.257E+00, 1.121E+02
 1.650E+00, 4.106E+00, 1.091E+02
 1.670E+00, 3.964E+00, 1.064E+02
 1.690E+00, 3.832E+00, 1.038E+02
 1.710E+00, 3.708E+00, 1.014E+02
 1.730E+00, 3.592E+00, 9.907E+01
 1.750E+00, 3.483E+00, 9.692E+01
 1.770E+00, 3.381E+00, 9.492E+01
 1.790E+00, 3.286E+00, 9.304E+01
 1.810E+00, 3.196E+00, 9.127E+01
 1.830E+00, 3.112E+00, 8.958E+01
 1.850E+00, 3.033E+00, 8.798E+01
 1.870E+00, 2.959E+00, 8.647E+01
 1.890E+00, 2.888E+00, 8.502E+01
 1.910E+00, 2.821E+00, 8.364E+01
 1.930E+00, 2.757E+00, 8.231E+01
 1.950E+00, 2.697E+00, 8.102E+01
 1.970E+00, 2.639E+00, 7.978E+01
 1.990E+00, 2.584E+00, 7.860E+01
 2.010E+00, 2.532E+00, 7.749E+01
 2.030E+00, 2.482E+00, 7.642E+01
 2.050E+00, 2.434E+00, 7.540E+01
 2.070E+00, 2.388E+00, 7.441E+01
 2.090E+00, 2.343E+00, 7.347E+01
 2.110E+00, 2.300E+00, 7.254E+01
 2.130E+00, 2.257E+00, 7.163E+01
 2.150E+00, 2.215E+00, 7.074E+01
 2.170E+00, 2.175E+00, 6.988E+01
 2.190E+00, 2.135E+00, 6.904E+01
 2.210E+00, 2.097E+00, 6.824E+01
 2.230E+00, 2.060E+00, 6.747E+01
 2.250E+00, 2.026E+00, 6.674E+01
 2.270E+00, 1.993E+00, 6.603E+01
 2.290E+00, 1.961E+00, 6.535E+01
 2.310E+00, 1.929E+00, 6.468E+01
 2.330E+00, 1.897E+00, 6.400E+01
 2.350E+00, 1.865E+00, 6.332E+01
 2.370E+00, 1.830E+00, 6.259E+01
 2.390E+00, 1.795E+00, 6.187E+01
 2.410E+00, 1.755E+00, 6.105E+01
 2.430E+00, 1.728E+00, 6.054E+01
