m,kW/m2,C
Height,Flux,Temp
 1.000E-02, 2.521E+01, 4.252E+02
 3.000E-02, 3.203E+01, 4.893E+02
 5.000E-02, 3.940E+01, 5.439E+02
 7.000E-02, 4.654E+01, 5.890E+02
 9.000E-02, 5.264E+01, 6.231E+02
 1.100E-01, 5.749E+01, 6.479E+02
 1.300E-01, 6.131E+01, 6.663E+02
 1.500E-01, 6.436E+01, 6.802E+02
 1.700E-01, 6.684E+01, 6.910E+02
 1.900E-01, 6.886E+01, 6.994E+02
 2.100E-01, 7.051E+01, 7.059E+02
 2.300E-01, 7.181E+01, 7.109E+02
 2.500E-01, 7.283E+01, 7.146E+02
 2.700E-01, 7.360E+01, 7.172E+02
 2.900E-01, 7.411E+01, 7.189E+02
 3.100E-01, 7.439E+01, 7.196E+02
 3.300E-01, 7.445E+01, 7.194E+02
 3.500E-01, 7.424E+01, 7.183E+02
 3.700E-01, 7.385E+01, 7.164E+02
 3.900E-01, 7.328E+01, 7.138E+02
 4.100E-01, 7.258E+01, 7.106E+02
 4.300E-01, 7.172E+01, 7.067E+02
 4.500E-01, 7.075E+01, 7.023E+02
 4.700E-01, 6.965E+01, 6.973E+02
 4.900E-01, 6.842E+01, 6.916E+02
 5.100E-01, 6.706E+01, 6.854E+02
 5.300E-01, 6.559E+01, 6.785E+02
 5.500E-01, 6.400E+01, 6.710E+02
 5.700E-01, 6.231E+01, 6.629E+02
 5.900E-01, 6.053E+01, 6.541E+02
 6.100E-01, 5.870E+01, 6.450E+02
 6.300E-01, 5.685E+01, 6.354E+02
 6.500E-01, 5.497E+01, 6.254E+02
 6.700E-01, 5.309E+01, 6.152E+02
 6.900E-01, 5.118E+01, 6.044E+02
 7.100E-01, 4.924E+01, 5.931E+02
 7.300E-01, 4.727E+01, 5.812E+02
 7.500E-01, 4.530E+01, 5.690E+02
 7.700E-01, 4.337E+01, 5.566E+02
 7.900E-01, 4.146E+01, 5.439E+02
 8.100E-01, 3.960E+01, 5.310E+02
 8.300E-01, 3.779E+01, 5.180E+02
 8.500E-01, 3.603E+01, 5.049E+02
 8.700E-01, 3.431E+01, 4.917E+02
 8.900E-01, 3.264E+01, 4.784E+02
 9.100E-01, 3.101E+01, 4.648E+02
 9.300E-01, 2.943E+01, 4.511E+02
 9.500E-01, 2.791E+01, 4.375E+02
 9.700E-01, 2.647E+01, 4.240E+02
 9.900E-01, 2.507E+01, 4.105E+02
 1.010E+00, 2.371E+01, 3.968E+02
 1.030E+00, 2.241E+01, 3.832E+02
 1.050E+00, 2.117E+01, 3.698E+02
 1.070E+00, 1.999E+01, 3.565E+02
 1.090E+00, 1.889E+01, 3.434E+02
 1.110E+00, 1.784E+01, 3.306E+02
 1.130E+00, 1.684E+01, 3.180E+02
 1.150E+00, 1.589E+01, 3.056E+02
 1.170E+00, 1.498E+01, 2.934E+02
 1.190E+00, 1.413E+01, 2.815E+02
 1.210E+00, 1.333E+01, 2.701E+02
 1.230E+00, 1.258E+01, 2.589E+02
 1.250E+00, 1.187E+01, 2.482E+02
 1.270E+00, 1.120E+01, 2.379E+02
 1.290E+00, 1.059E+01, 2.281E+02
 1.310E+00, 1.000E+01, 2.186E+02
 1.330E+00, 9.463E+00, 2.096E+02
 1.350E+00, 8.956E+00, 2.010E+02
 1.370E+00, 8.480E+00, 1.928E+02
 1.390E+00, 8.033E+00, 1.849E+02
 1.410E+00, 7.620E+00, 1.774E+02
 1.430E+00, 7.238E+00, 1.704E+02
 1.450E+00, 6.882E+00, 1.638E+02
 1.470E+00, 6.550E+00, 1.576E+02
 1.490E+00, 6.238E+00, 1.517E+02
 1.510E+00, 5.943E+00, 1.461E+02
 1.530E+00, 5.669E+00, 1.409E+02
 1.550E+00, 5.413E+00, 1.359E+02
 1.570E+00, 5.177E+00, 1.313E+02
 1.590E+00, 4.956E+00, 1.270E+02
 1.610E+00, 4.751E+00, 1.229E+02
 1.630E+00, 4.559E+00, 1.191E+02
 1.650E+00, 4.380E+00, 1.155E+02
 1.670E+00, 4.212E+00, 1.122E+02
 1.690E+00, 4.056E+00, 1.090E+02
 1.710E+00, 3.911E+00, 1.061E+02
 1.730E+00, 3.776E+00, 1.034E+02
 1.750E+00, 3.650E+00, 1.008E+02
 1.770E+00, 3.531E+00, 9.845E+01
 1.790E+00, 3.420E+00, 9.620E+01
 1.810E+00, 3.315E+00, 9.408E+01
 1.830E+00, 3.217E+00, 9.209E+01
 1.850E+00, 3.124E+00, 9.020E+01
 1.870E+00, 3.037E+00, 8.842E+01
 1.890E+00, 2.955E+00, 8.673E+01
 1.910E+00, 2.879E+00, 8.512E+01
 1.930E+00, 2.806E+00, 8.360E+01
 1.950E+00, 2.738E+00, 8.215E+01
 1.970E+00, 2.673E+00, 8.078E+01
 1.990E+00, 2.612E+00, 7.949E+01
 2.010E+00, 2.553E+00, 7.825E+01
 2.030E+00, 2.497E+00, 7.707E+01
 2.050E+00, 2.443E+00, 7.593E+01
 2.070E+00, 2.391E+00, 7.485E+01
 2.090E+00, 2.341E+00, 7.381E+01
 2.110E+00, 2.293E+00, 7.282E+01
 2.130E+00, 2.249E+00, 7.187E+01
 2.150E+00, 2.206E+00, 7.098E+01
 2.170E+00, 2.164E+00, 7.011E+01
 2.190E+00, 2.125E+00, 6.926E+01
 2.210E+00, 2.086E+00, 6.844E+01
 2.230E+00, 2.048E+00, 6.764E+01
 2.250E+00, 2.012E+00, 6.687E+01
 2.270E+00, 1.978E+00, 6.614E+01
 2.290E+00, 1.944E+00, 6.542E+01
 2.310E+00, 1.912E+00, 6.472E+01
 2.330E+00, 1.879E+00, 6.401E+01
 2.350E+00, 1.845E+00, 6.329E+01
 2.370E+00, 1.810E+00, 6.254E+01
 2.390E+00, 1.774E+00, 6.178E+01
 2.410E+00, 1.734E+00, 6.093E+01
 2.430E+00, 1.704E+00, 6.034E+01
