m,kW/m2,C
Height,Flux,Temp
 1.000E-02, 3.323E+01, 4.984E+02
 3.000E-02, 4.659E+01, 5.900E+02
 5.000E-02, 5.067E+01, 6.129E+02
 7.000E-02, 5.009E+01, 6.095E+02
 9.000E-02, 4.756E+01, 5.950E+02
 1.100E-01, 4.436E+01, 5.758E+02
 1.300E-01, 4.107E+01, 5.548E+02
 1.500E-01, 3.799E+01, 5.338E+02
 1.700E-01, 3.518E+01, 5.134E+02
 1.900E-01, 3.261E+01, 4.936E+02
 2.100E-01, 3.024E+01, 4.742E+02
 2.300E-01, 2.805E+01, 4.550E+02
 2.500E-01, 2.602E+01, 4.361E+02
 2.700E-01, 2.413E+01, 4.171E+02
 2.900E-01, 2.234E+01, 3.983E+02
 3.100E-01, 2.068E+01, 3.797E+02
 3.300E-01, 1.912E+01, 3.614E+02
 3.500E-01, 1.765E+01, 3.430E+02
 3.700E-01, 1.625E+01, 3.250E+02
 3.900E-01, 1.495E+01, 3.074E+02
 4.100E-01, 1.374E+01, 2.902E+02
 4.300E-01, 1.264E+01, 2.736E+02
 4.500E-01, 1.161E+01, 2.575E+02
 4.700E-01, 1.067E+01, 2.422E+02
 4.900E-01, 9.795E+00, 2.275E+02
 5.100E-01, 9.000E+00, 2.135E+02
 5.300E-01, 8.267E+00, 2.002E+02
 5.500E-01, 7.598E+00, 1.877E+02
 5.700E-01, 6.991E+00, 1.760E+02
 5.900E-01, 6.441E+00, 1.651E+02
 6.100E-01, 5.942E+00, 1.551E+02
 6.300E-01, 5.486E+00, 1.457E+02
 6.500E-01, 5.073E+00, 1.371E+02
 6.700E-01, 4.695E+00, 1.291E+02
 6.900E-01, 4.352E+00, 1.218E+02
 7.100E-01, 4.044E+00, 1.151E+02
 7.300E-01, 3.767E+00, 1.091E+02
 7.500E-01, 3.517E+00, 1.036E+02
 7.700E-01, 3.292E+00, 9.864E+01
 7.900E-01, 3.089E+00, 9.407E+01
 8.100E-01, 2.906E+00, 8.993E+01
 8.300E-01, 2.742E+00, 8.617E+01
 8.500E-01, 2.594E+00, 8.277E+01
 8.700E-01, 2.463E+00, 7.972E+01
 8.900E-01, 2.343E+00, 7.691E+01
 9.100E-01, 2.234E+00, 7.435E+01
 9.300E-01, 2.133E+00, 7.197E+01
 9.500E-01, 2.040E+00, 6.977E+01
 9.700E-01, 1.955E+00, 6.774E+01
 9.900E-01, 1.876E+00, 6.587E+01
 1.010E+00, 1.803E+00, 6.413E+01
 1.030E+00, 1.735E+00, 6.254E+01
 1.050E+00, 1.672E+00, 6.107E+01
 1.070E+00, 1.615E+00, 5.973E+01
 1.090E+00, 1.562E+00, 5.848E+01
 1.110E+00, 1.512E+00, 5.732E+01
 1.130E+00, 1.465E+00, 5.623E+01
 1.150E+00, 1.422E+00, 5.520E+01
 1.170E+00, 1.380E+00, 5.421E+01
 1.190E+00, 1.342E+00, 5.329E+01
 1.210E+00, 1.307E+00, 5.242E+01
 1.230E+00, 1.273E+00, 5.161E+01
 1.250E+00, 1.242E+00, 5.084E+01
 1.270E+00, 1.213E+00, 5.011E+01
 1.290E+00, 1.184E+00, 4.942E+01
 1.310E+00, 1.157E+00, 4.875E+01
 1.330E+00, 1.130E+00, 4.811E+01
 1.350E+00, 1.104E+00, 4.749E+01
 1.370E+00, 1.079E+00, 4.689E+01
 1.390E+00, 1.055E+00, 4.632E+01
 1.410E+00, 1.031E+00, 4.576E+01
 1.430E+00, 1.009E+00, 4.522E+01
 1.450E+00, 9.874E-01, 4.471E+01
 1.470E+00, 9.671E-01, 4.422E+01
 1.490E+00, 9.479E-01, 4.376E+01
 1.510E+00, 9.297E-01, 4.332E+01
 1.530E+00, 9.122E-01, 4.290E+01
 1.550E+00, 8.953E-01, 4.249E+01
 1.570E+00, 8.788E-01, 4.210E+01
 1.590E+00, 8.631E-01, 4.172E+01
 1.610E+00, 8.477E-01, 4.134E+01
 1.630E+00, 8.330E-01, 4.098E+01
 1.650E+00, 8.187E-01, 4.064E+01
 1.670E+00, 8.049E-01, 4.030E+01
 1.690E+00, 7.915E-01, 3.997E+01
 1.710E+00, 7.785E-01, 3.965E+01
 1.730E+00, 7.656E-01, 3.933E+01
 1.750E+00, 7.527E-01, 3.901E+01
 1.770E+00, 7.401E-01, 3.871E+01
 1.790E+00, 7.278E-01, 3.841E+01
 1.810E+00, 7.158E-01, 3.812E+01
 1.830E+00, 7.042E-01, 3.783E+01
 1.850E+00, 6.929E-01, 3.756E+01
 1.870E+00, 6.820E-01, 3.729E+01
 1.890E+00, 6.716E-01, 3.703E+01
 1.910E+00, 6.616E-01, 3.679E+01
 1.930E+00, 6.521E-01, 3.655E+01
 1.950E+00, 6.431E-01, 3.633E+01
 1.970E+00, 6.342E-01, 3.611E+01
 1.990E+00, 6.257E-01, 3.590E+01
 2.010E+00, 6.172E-01, 3.568E+01
 2.030E+00, 6.088E-01, 3.547E+01
 2.050E+00, 6.005E-01, 3.526E+01
 2.070E+00, 5.923E-01, 3.506E+01
 2.090E+00, 5.842E-01, 3.485E+01
 2.110E+00, 5.761E-01, 3.465E+01
 2.130E+00, 5.679E-01, 3.444E+01
 2.150E+00, 5.598E-01, 3.424E+01
 2.170E+00, 5.517E-01, 3.404E+01
 2.190E+00, 5.440E-01, 3.386E+01
 2.210E+00, 5.364E-01, 3.368E+01
 2.230E+00, 5.291E-01, 3.350E+01
 2.250E+00, 5.217E-01, 3.333E+01
 2.270E+00, 5.145E-01, 3.317E+01
 2.290E+00, 5.072E-01, 3.300E+01
 2.310E+00, 5.000E-01, 3.283E+01
 2.330E+00, 4.927E-01, 3.266E+01
 2.350E+00, 4.851E-01, 3.248E+01
 2.370E+00, 4.769E-01, 3.228E+01
 2.390E+00, 4.685E-01, 3.209E+01
 2.410E+00, 4.588E-01, 3.186E+01
 2.430E+00, 4.520E-01, 3.172E+01
