m,kW/m2,C
Height,Flux,Temp
 1.000E-02, 3.792E+01, 5.313E+02
 3.000E-02, 4.537E+01, 5.802E+02
 5.000E-02, 5.264E+01, 6.216E+02
 7.000E-02, 5.879E+01, 6.532E+02
 9.000E-02, 6.341E+01, 6.754E+02
 1.100E-01, 6.668E+01, 6.903E+02
 1.300E-01, 6.890E+01, 7.003E+02
 1.500E-01, 7.044E+01, 7.070E+02
 1.700E-01, 7.147E+01, 7.115E+02
 1.900E-01, 7.211E+01, 7.141E+02
 2.100E-01, 7.248E+01, 7.155E+02
 2.300E-01, 7.263E+01, 7.158E+02
 2.500E-01, 7.258E+01, 7.152E+02
 2.700E-01, 7.235E+01, 7.139E+02
 2.900E-01, 7.195E+01, 7.119E+02
 3.100E-01, 7.140E+01, 7.091E+02
 3.300E-01, 7.070E+01, 7.057E+02
 3.500E-01, 6.987E+01, 7.017E+02
 3.700E-01, 6.891E+01, 6.971E+02
 3.900E-01, 6.784E+01, 6.919E+02
 4.100E-01, 6.664E+01, 6.862E+02
 4.300E-01, 6.535E+01, 6.799E+02
 4.500E-01, 6.400E+01, 6.733E+02
 4.700E-01, 6.256E+01, 6.662E+02
 4.900E-01, 6.103E+01, 6.585E+02
 5.100E-01, 5.944E+01, 6.504E+02
 5.300E-01, 5.780E+01, 6.418E+02
 5.500E-01, 5.611E+01, 6.329E+02
 5.700E-01, 5.440E+01, 6.236E+02
 5.900E-01, 5.263E+01, 6.138E+02
 6.100E-01, 5.082E+01, 6.035E+02
 6.300E-01, 4.898E+01, 5.928E+02
 6.500E-01, 4.714E+01, 5.817E+02
 6.700E-01, 4.529E+01, 5.703E+02
 6.900E-01, 4.346E+01, 5.586E+02
 7.100E-01, 4.164E+01, 5.467E+02
 7.300E-01, 3.983E+01, 5.344E+02
 7.500E-01, 3.807E+01, 5.219E+02
 7.700E-01, 3.636E+01, 5.094E+02
 7.900E-01, 3.470E+01, 4.967E+02
 8.100E-01, 3.308E+01, 4.839E+02
 8.300E-01, 3.151E+01, 4.709E+02
 8.500E-01, 2.997E+01, 4.578E+02
 8.700E-01, 2.849E+01, 4.445E+02
 8.900E-01, 2.706E+01, 4.313E+02
 9.100E-01, 2.570E+01, 4.182E+02
 9.300E-01, 2.439E+01, 4.050E+02
 9.500E-01, 2.314E+01, 3.918E+02
 9.700E-01, 2.191E+01, 3.786E+02
 9.900E-01, 2.074E+01, 3.654E+02
 1.010E+00, 1.960E+01, 3.524E+02
 1.030E+00, 1.852E+01, 3.394E+02
 1.050E+00, 1.749E+01, 3.266E+02
 1.070E+00, 1.650E+01, 3.139E+02
 1.090E+00, 1.556E+01, 3.015E+02
 1.110E+00, 1.468E+01, 2.895E+02
 1.130E+00, 1.384E+01, 2.776E+02
 1.150E+00, 1.304E+01, 2.661E+02
 1.170E+00, 1.230E+01, 2.550E+02
 1.190E+00, 1.160E+01, 2.443E+02
 1.210E+00, 1.096E+01, 2.342E+02
 1.230E+00, 1.035E+01, 2.244E+02
 1.250E+00, 9.786E+00, 2.151E+02
 1.270E+00, 9.256E+00, 2.062E+02
 1.290E+00, 8.755E+00, 1.976E+02
 1.310E+00, 8.287E+00, 1.895E+02
 1.330E+00, 7.849E+00, 1.818E+02
 1.350E+00, 7.440E+00, 1.744E+02
 1.370E+00, 7.057E+00, 1.674E+02
 1.390E+00, 6.699E+00, 1.608E+02
 1.410E+00, 6.368E+00, 1.547E+02
 1.430E+00, 6.061E+00, 1.489E+02
 1.450E+00, 5.779E+00, 1.435E+02
 1.470E+00, 5.515E+00, 1.384E+02
 1.490E+00, 5.269E+00, 1.336E+02
 1.510E+00, 5.040E+00, 1.292E+02
 1.530E+00, 4.826E+00, 1.250E+02
 1.550E+00, 4.626E+00, 1.211E+02
 1.570E+00, 4.441E+00, 1.174E+02
 1.590E+00, 4.271E+00, 1.140E+02
 1.610E+00, 4.113E+00, 1.108E+02
 1.630E+00, 3.965E+00, 1.078E+02
 1.650E+00, 3.827E+00, 1.049E+02
 1.670E+00, 3.698E+00, 1.023E+02
 1.690E+00, 3.577E+00, 9.975E+01
 1.710E+00, 3.463E+00, 9.738E+01
 1.730E+00, 3.354E+00, 9.513E+01
 1.750E+00, 3.251E+00, 9.301E+01
 1.770E+00, 3.153E+00, 9.100E+01
 1.790E+00, 3.062E+00, 8.911E+01
 1.810E+00, 2.977E+00, 8.734E+01
 1.830E+00, 2.898E+00, 8.568E+01
 1.850E+00, 2.824E+00, 8.413E+01
 1.870E+00, 2.756E+00, 8.269E+01
 1.890E+00, 2.693E+00, 8.135E+01
 1.910E+00, 2.633E+00, 8.007E+01
 1.930E+00, 2.576E+00, 7.885E+01
 1.950E+00, 2.522E+00, 7.768E+01
 1.970E+00, 2.470E+00, 7.656E+01
 1.990E+00, 2.418E+00, 7.548E+01
 2.010E+00, 2.369E+00, 7.446E+01
 2.030E+00, 2.323E+00, 7.348E+01
 2.050E+00, 2.279E+00, 7.256E+01
 2.070E+00, 2.238E+00, 7.167E+01
 2.090E+00, 2.199E+00, 7.083E+01
 2.110E+00, 2.162E+00, 7.002E+01
 2.130E+00, 2.126E+00, 6.924E+01
 2.150E+00, 2.093E+00, 6.850E+01
 2.170E+00, 2.060E+00, 6.779E+01
 2.190E+00, 2.028E+00, 6.708E+01
 2.210E+00, 1.996E+00, 6.640E+01
 2.230E+00, 1.965E+00, 6.572E+01
 2.250E+00, 1.934E+00, 6.506E+01
 2.270E+00, 1.903E+00, 6.440E+01
 2.290E+00, 1.871E+00, 6.374E+01
 2.310E+00, 1.840E+00, 6.308E+01
 2.330E+00, 1.808E+00, 6.242E+01
 2.350E+00, 1.775E+00, 6.174E+01
 2.370E+00, 1.740E+00, 6.102E+01
 2.390E+00, 1.704E+00, 6.029E+01
 2.410E+00, 1.665E+00, 5.948E+01
 2.430E+00, 1.636E+00, 5.896E+01
