m,kW/m2,C
Height,Flux,Temp
 1.000E-02, 4.332E+01, 5.726E+02
 3.000E-02, 4.609E+01, 5.892E+02
 5.000E-02, 4.559E+01, 5.865E+02
 7.000E-02, 4.298E+01, 5.709E+02
 9.000E-02, 3.936E+01, 5.479E+02
 1.100E-01, 3.547E+01, 5.212E+02
 1.300E-01, 3.177E+01, 4.934E+02
 1.500E-01, 2.842E+01, 4.659E+02
 1.700E-01, 2.546E+01, 4.391E+02
 1.900E-01, 2.286E+01, 4.133E+02
 2.100E-01, 2.056E+01, 3.885E+02
 2.300E-01, 1.854E+01, 3.647E+02
 2.500E-01, 1.674E+01, 3.420E+02
 2.700E-01, 1.516E+01, 3.204E+02
 2.900E-01, 1.375E+01, 3.000E+02
 3.100E-01, 1.251E+01, 2.808E+02
 3.300E-01, 1.141E+01, 2.630E+02
 3.500E-01, 1.044E+01, 2.463E+02
 3.700E-01, 9.567E+00, 2.308E+02
 3.900E-01, 8.791E+00, 2.165E+02
 4.100E-01, 8.096E+00, 2.033E+02
 4.300E-01, 7.473E+00, 1.910E+02
 4.500E-01, 6.914E+00, 1.797E+02
 4.700E-01, 6.408E+00, 1.693E+02
 4.900E-01, 5.948E+00, 1.596E+02
 5.100E-01, 5.527E+00, 1.506E+02
 5.300E-01, 5.140E+00, 1.422E+02
 5.500E-01, 4.787E+00, 1.345E+02
 5.700E-01, 4.465E+00, 1.274E+02
 5.900E-01, 4.172E+00, 1.209E+02
 6.100E-01, 3.902E+00, 1.148E+02
 6.300E-01, 3.655E+00, 1.093E+02
 6.500E-01, 3.429E+00, 1.041E+02
 6.700E-01, 3.222E+00, 9.943E+01
 6.900E-01, 3.033E+00, 9.510E+01
 7.100E-01, 2.861E+00, 9.113E+01
 7.300E-01, 2.702E+00, 8.747E+01
 7.500E-01, 2.555E+00, 8.410E+01
 7.700E-01, 2.422E+00, 8.099E+01
 7.900E-01, 2.301E+00, 7.813E+01
 8.100E-01, 2.191E+00, 7.549E+01
 8.300E-01, 2.091E+00, 7.305E+01
 8.500E-01, 1.998E+00, 7.078E+01
 8.700E-01, 1.912E+00, 6.867E+01
 8.900E-01, 1.833E+00, 6.672E+01
 9.100E-01, 1.760E+00, 6.491E+01
 9.300E-01, 1.693E+00, 6.324E+01
 9.500E-01, 1.630E+00, 6.170E+01
 9.700E-01, 1.573E+00, 6.028E+01
 9.900E-01, 1.520E+00, 5.898E+01
 1.010E+00, 1.471E+00, 5.776E+01
 1.030E+00, 1.425E+00, 5.663E+01
 1.050E+00, 1.381E+00, 5.556E+01
 1.070E+00, 1.340E+00, 5.456E+01
 1.090E+00, 1.301E+00, 5.361E+01
 1.110E+00, 1.264E+00, 5.269E+01
 1.130E+00, 1.228E+00, 5.180E+01
 1.150E+00, 1.195E+00, 5.097E+01
 1.170E+00, 1.162E+00, 5.017E+01
 1.190E+00, 1.132E+00, 4.942E+01
 1.210E+00, 1.103E+00, 4.871E+01
 1.230E+00, 1.077E+00, 4.803E+01
 1.250E+00, 1.051E+00, 4.738E+01
 1.270E+00, 1.026E+00, 4.674E+01
 1.290E+00, 1.002E+00, 4.613E+01
 1.310E+00, 9.783E-01, 4.554E+01
 1.330E+00, 9.562E-01, 4.498E+01
 1.350E+00, 9.351E-01, 4.446E+01
 1.370E+00, 9.146E-01, 4.395E+01
 1.390E+00, 8.948E-01, 4.347E+01
 1.410E+00, 8.753E-01, 4.299E+01
 1.430E+00, 8.563E-01, 4.253E+01
 1.450E+00, 8.378E-01, 4.207E+01
 1.470E+00, 8.198E-01, 4.163E+01
 1.490E+00, 8.023E-01, 4.120E+01
 1.510E+00, 7.858E-01, 4.079E+01
 1.530E+00, 7.704E-01, 4.040E+01
 1.550E+00, 7.561E-01, 4.003E+01
 1.570E+00, 7.425E-01, 3.968E+01
 1.590E+00, 7.294E-01, 3.934E+01
 1.610E+00, 7.166E-01, 3.902E+01
 1.630E+00, 7.041E-01, 3.870E+01
 1.650E+00, 6.918E-01, 3.839E+01
 1.670E+00, 6.799E-01, 3.809E+01
 1.690E+00, 6.682E-01, 3.780E+01
 1.710E+00, 6.567E-01, 3.751E+01
 1.730E+00, 6.458E-01, 3.723E+01
 1.750E+00, 6.353E-01, 3.696E+01
 1.770E+00, 6.253E-01, 3.669E+01
 1.790E+00, 6.156E-01, 3.644E+01
 1.810E+00, 6.059E-01, 3.618E+01
 1.830E+00, 5.962E-01, 3.593E+01
 1.850E+00, 5.865E-01, 3.569E+01
 1.870E+00, 5.771E-01, 3.545E+01
 1.890E+00, 5.680E-01, 3.522E+01
 1.910E+00, 5.595E-01, 3.500E+01
 1.930E+00, 5.514E-01, 3.479E+01
 1.950E+00, 5.438E-01, 3.459E+01
 1.970E+00, 5.365E-01, 3.441E+01
 1.990E+00, 5.296E-01, 3.423E+01
 2.010E+00, 5.229E-01, 3.405E+01
 2.030E+00, 5.164E-01, 3.388E+01
 2.050E+00, 5.100E-01, 3.371E+01
 2.070E+00, 5.038E-01, 3.354E+01
 2.090E+00, 4.978E-01, 3.337E+01
 2.110E+00, 4.920E-01, 3.321E+01
 2.130E+00, 4.863E-01, 3.306E+01
 2.150E+00, 4.808E-01, 3.290E+01
 2.170E+00, 4.752E-01, 3.275E+01
 2.190E+00, 4.697E-01, 3.260E+01
 2.210E+00, 4.640E-01, 3.245E+01
 2.230E+00, 4.582E-01, 3.231E+01
 2.250E+00, 4.523E-01, 3.216E+01
 2.270E+00, 4.462E-01, 3.202E+01
 2.290E+00, 4.403E-01, 3.188E+01
 2.310E+00, 4.345E-01, 3.175E+01
 2.330E+00, 4.286E-01, 3.161E+01
 2.350E+00, 4.226E-01, 3.148E+01
 2.370E+00, 4.162E-01, 3.133E+01
 2.390E+00, 4.096E-01, 3.118E+01
 2.410E+00, 4.027E-01, 3.102E+01
 2.430E+00, 3.977E-01, 3.091E+01
