m,kW/m2,C
Height,Flux,Temp
 1.000E-02, 4.350E+01, 5.715E+02
 3.000E-02, 4.978E+01, 6.082E+02
 5.000E-02, 5.430E+01, 6.324E+02
 7.000E-02, 5.702E+01, 6.461E+02
 9.000E-02, 5.813E+01, 6.517E+02
 1.100E-01, 5.819E+01, 6.520E+02
 1.300E-01, 5.769E+01, 6.495E+02
 1.500E-01, 5.692E+01, 6.457E+02
 1.700E-01, 5.606E+01, 6.414E+02
 1.900E-01, 5.516E+01, 6.368E+02
 2.100E-01, 5.424E+01, 6.321E+02
 2.300E-01, 5.333E+01, 6.273E+02
 2.500E-01, 5.242E+01, 6.224E+02
 2.700E-01, 5.148E+01, 6.173E+02
 2.900E-01, 5.051E+01, 6.120E+02
 3.100E-01, 4.955E+01, 6.065E+02
 3.300E-01, 4.858E+01, 6.009E+02
 3.500E-01, 4.760E+01, 5.951E+02
 3.700E-01, 4.660E+01, 5.891E+02
 3.900E-01, 4.559E+01, 5.830E+02
 4.100E-01, 4.457E+01, 5.766E+02
 4.300E-01, 4.354E+01, 5.700E+02
 4.500E-01, 4.249E+01, 5.632E+02
 4.700E-01, 4.143E+01, 5.561E+02
 4.900E-01, 4.035E+01, 5.488E+02
 5.100E-01, 3.926E+01, 5.411E+02
 5.300E-01, 3.817E+01, 5.333E+02
 5.500E-01, 3.706E+01, 5.252E+02
 5.700E-01, 3.593E+01, 5.167E+02
 5.900E-01, 3.480E+01, 5.080E+02
 6.100E-01, 3.365E+01, 4.990E+02
 6.300E-01, 3.251E+01, 4.897E+02
 6.500E-01, 3.137E+01, 4.802E+02
 6.700E-01, 3.024E+01, 4.705E+02
 6.900E-01, 2.911E+01, 4.604E+02
 7.100E-01, 2.800E+01, 4.503E+02
 7.300E-01, 2.690E+01, 4.400E+02
 7.500E-01, 2.581E+01, 4.295E+02
 7.700E-01, 2.475E+01, 4.189E+02
 7.900E-01, 2.371E+01, 4.083E+02
 8.100E-01, 2.269E+01, 3.976E+02
 8.300E-01, 2.171E+01, 3.869E+02
 8.500E-01, 2.075E+01, 3.761E+02
 8.700E-01, 1.982E+01, 3.654E+02
 8.900E-01, 1.893E+01, 3.547E+02
 9.100E-01, 1.805E+01, 3.440E+02
 9.300E-01, 1.721E+01, 3.333E+02
 9.500E-01, 1.639E+01, 3.227E+02
 9.700E-01, 1.561E+01, 3.122E+02
 9.900E-01, 1.485E+01, 3.018E+02
 1.010E+00, 1.412E+01, 2.916E+02
 1.030E+00, 1.342E+01, 2.815E+02
 1.050E+00, 1.275E+01, 2.716E+02
 1.070E+00, 1.211E+01, 2.620E+02
 1.090E+00, 1.150E+01, 2.527E+02
 1.110E+00, 1.092E+01, 2.435E+02
 1.130E+00, 1.037E+01, 2.346E+02
 1.150E+00, 9.840E+00, 2.258E+02
 1.170E+00, 9.339E+00, 2.174E+02
 1.190E+00, 8.868E+00, 2.093E+02
 1.210E+00, 8.421E+00, 2.014E+02
 1.230E+00, 7.999E+00, 1.938E+02
 1.250E+00, 7.600E+00, 1.865E+02
 1.270E+00, 7.226E+00, 1.796E+02
 1.290E+00, 6.875E+00, 1.730E+02
 1.310E+00, 6.548E+00, 1.668E+02
 1.330E+00, 6.242E+00, 1.609E+02
 1.350E+00, 5.957E+00, 1.553E+02
 1.370E+00, 5.690E+00, 1.500E+02
 1.390E+00, 5.441E+00, 1.450E+02
 1.410E+00, 5.207E+00, 1.402E+02
 1.430E+00, 4.989E+00, 1.357E+02
 1.450E+00, 4.786E+00, 1.315E+02
 1.470E+00, 4.597E+00, 1.275E+02
 1.490E+00, 4.422E+00, 1.238E+02
 1.510E+00, 4.259E+00, 1.203E+02
 1.530E+00, 4.105E+00, 1.170E+02
 1.550E+00, 3.960E+00, 1.139E+02
 1.570E+00, 3.823E+00, 1.109E+02
 1.590E+00, 3.693E+00, 1.081E+02
 1.610E+00, 3.571E+00, 1.054E+02
 1.630E+00, 3.456E+00, 1.029E+02
 1.650E+00, 3.349E+00, 1.005E+02
 1.670E+00, 3.249E+00, 9.827E+01
 1.690E+00, 3.153E+00, 9.613E+01
 1.710E+00, 3.062E+00, 9.409E+01
 1.730E+00, 2.975E+00, 9.216E+01
 1.750E+00, 2.893E+00, 9.031E+01
 1.770E+00, 2.815E+00, 8.857E+01
 1.790E+00, 2.743E+00, 8.690E+01
 1.810E+00, 2.675E+00, 8.532E+01
 1.830E+00, 2.611E+00, 8.381E+01
 1.850E+00, 2.550E+00, 8.239E+01
 1.870E+00, 2.492E+00, 8.102E+01
 1.890E+00, 2.436E+00, 7.972E+01
 1.910E+00, 2.382E+00, 7.846E+01
 1.930E+00, 2.333E+00, 7.728E+01
 1.950E+00, 2.284E+00, 7.613E+01
 1.970E+00, 2.240E+00, 7.507E+01
 1.990E+00, 2.196E+00, 7.403E+01
 2.010E+00, 2.156E+00, 7.306E+01
 2.030E+00, 2.114E+00, 7.209E+01
 2.050E+00, 2.077E+00, 7.118E+01
 2.070E+00, 2.038E+00, 7.028E+01
 2.090E+00, 2.003E+00, 6.944E+01
 2.110E+00, 1.967E+00, 6.861E+01
 2.130E+00, 1.934E+00, 6.783E+01
 2.150E+00, 1.901E+00, 6.704E+01
 2.170E+00, 1.870E+00, 6.630E+01
 2.190E+00, 1.839E+00, 6.554E+01
 2.210E+00, 1.810E+00, 6.484E+01
 2.230E+00, 1.781E+00, 6.413E+01
 2.250E+00, 1.753E+00, 6.346E+01
 2.270E+00, 1.723E+00, 6.278E+01
 2.290E+00, 1.694E+00, 6.211E+01
 2.310E+00, 1.664E+00, 6.142E+01
 2.330E+00, 1.631E+00, 6.070E+01
 2.350E+00, 1.598E+00, 5.996E+01
 2.370E+00, 1.557E+00, 5.910E+01
 2.390E+00, 1.518E+00, 5.826E+01
 2.410E+00, 1.458E+00, 5.702E+01
 2.430E+00, 1.412E+00, 5.616E+01
