m,kW/m2,C
Height,Flux,Temp
 1.000E-02, 2.532E+01, 4.257E+02
 3.000E-02, 3.162E+01, 4.850E+02
 5.000E-02, 3.648E+01, 5.234E+02
 7.000E-02, 4.005E+01, 5.479E+02
 9.000E-02, 4.235E+01, 5.622E+02
 1.100E-01, 4.372E+01, 5.699E+02
 1.300E-01, 4.451E+01, 5.739E+02
 1.500E-01, 4.490E+01, 5.756E+02
 1.700E-01, 4.502E+01, 5.757E+02
 1.900E-01, 4.499E+01, 5.748E+02
 2.100E-01, 4.482E+01, 5.730E+02
 2.300E-01, 4.452E+01, 5.705E+02
 2.500E-01, 4.407E+01, 5.671E+02
 2.700E-01, 4.346E+01, 5.628E+02
 2.900E-01, 4.273E+01, 5.578E+02
 3.100E-01, 4.190E+01, 5.522E+02
 3.300E-01, 4.096E+01, 5.457E+02
 3.500E-01, 3.991E+01, 5.385E+02
 3.700E-01, 3.876E+01, 5.305E+02
 3.900E-01, 3.757E+01, 5.220E+02
 4.100E-01, 3.634E+01, 5.130E+02
 4.300E-01, 3.507E+01, 5.035E+02
 4.500E-01, 3.375E+01, 4.934E+02
 4.700E-01, 3.242E+01, 4.827E+02
 4.900E-01, 3.107E+01, 4.715E+02
 5.100E-01, 2.970E+01, 4.597E+02
 5.300E-01, 2.833E+01, 4.476E+02
 5.500E-01, 2.697E+01, 4.351E+02
 5.700E-01, 2.563E+01, 4.223E+02
 5.900E-01, 2.432E+01, 4.093E+02
 6.100E-01, 2.305E+01, 3.962E+02
 6.300E-01, 2.180E+01, 3.828E+02
 6.500E-01, 2.059E+01, 3.692E+02
 6.700E-01, 1.942E+01, 3.556E+02
 6.900E-01, 1.830E+01, 3.422E+02
 7.100E-01, 1.723E+01, 3.287E+02
 7.300E-01, 1.619E+01, 3.153E+02
 7.500E-01, 1.520E+01, 3.021E+02
 7.700E-01, 1.426E+01, 2.890E+02
 7.900E-01, 1.336E+01, 2.762E+02
 8.100E-01, 1.252E+01, 2.638E+02
 8.300E-01, 1.173E+01, 2.517E+02
 8.500E-01, 1.099E+01, 2.400E+02
 8.700E-01, 1.030E+01, 2.287E+02
 8.900E-01, 9.652E+00, 2.178E+02
 9.100E-01, 9.054E+00, 2.075E+02
 9.300E-01, 8.503E+00, 1.977E+02
 9.500E-01, 7.993E+00, 1.885E+02
 9.700E-01, 7.518E+00, 1.797E+02
 9.900E-01, 7.077E+00, 1.715E+02
 1.010E+00, 6.669E+00, 1.638E+02
 1.030E+00, 6.289E+00, 1.564E+02
 1.050E+00, 5.937E+00, 1.495E+02
 1.070E+00, 5.613E+00, 1.431E+02
 1.090E+00, 5.311E+00, 1.371E+02
 1.110E+00, 5.032E+00, 1.314E+02
 1.130E+00, 4.772E+00, 1.261E+02
 1.150E+00, 4.530E+00, 1.212E+02
 1.170E+00, 4.304E+00, 1.165E+02
 1.190E+00, 4.096E+00, 1.122E+02
 1.210E+00, 3.905E+00, 1.082E+02
 1.230E+00, 3.731E+00, 1.045E+02
 1.250E+00, 3.569E+00, 1.011E+02
 1.270E+00, 3.420E+00, 9.797E+01
 1.290E+00, 3.282E+00, 9.504E+01
 1.310E+00, 3.153E+00, 9.232E+01
 1.330E+00, 3.034E+00, 8.978E+01
 1.350E+00, 2.925E+00, 8.743E+01
 1.370E+00, 2.825E+00, 8.524E+01
 1.390E+00, 2.730E+00, 8.319E+01
 1.410E+00, 2.640E+00, 8.124E+01
 1.430E+00, 2.554E+00, 7.939E+01
 1.450E+00, 2.474E+00, 7.763E+01
 1.470E+00, 2.398E+00, 7.598E+01
 1.490E+00, 2.328E+00, 7.442E+01
 1.510E+00, 2.262E+00, 7.296E+01
 1.530E+00, 2.200E+00, 7.160E+01
 1.550E+00, 2.143E+00, 7.034E+01
 1.570E+00, 2.091E+00, 6.916E+01
 1.590E+00, 2.042E+00, 6.806E+01
 1.610E+00, 1.996E+00, 6.702E+01
 1.630E+00, 1.952E+00, 6.603E+01
 1.650E+00, 1.910E+00, 6.509E+01
 1.670E+00, 1.870E+00, 6.421E+01
 1.690E+00, 1.833E+00, 6.339E+01
 1.710E+00, 1.798E+00, 6.262E+01
 1.730E+00, 1.764E+00, 6.188E+01
 1.750E+00, 1.732E+00, 6.117E+01
 1.770E+00, 1.700E+00, 6.049E+01
 1.790E+00, 1.670E+00, 5.982E+01
 1.810E+00, 1.641E+00, 5.917E+01
 1.830E+00, 1.612E+00, 5.854E+01
 1.850E+00, 1.585E+00, 5.793E+01
 1.870E+00, 1.558E+00, 5.734E+01
 1.890E+00, 1.534E+00, 5.678E+01
 1.910E+00, 1.509E+00, 5.623E+01
 1.930E+00, 1.487E+00, 5.572E+01
 1.950E+00, 1.465E+00, 5.524E+01
 1.970E+00, 1.445E+00, 5.479E+01
 1.990E+00, 1.427E+00, 5.437E+01
 2.010E+00, 1.408E+00, 5.397E+01
 2.030E+00, 1.390E+00, 5.357E+01
 2.050E+00, 1.371E+00, 5.317E+01
 2.070E+00, 1.353E+00, 5.278E+01
 2.090E+00, 1.336E+00, 5.240E+01
 2.110E+00, 1.320E+00, 5.203E+01
 2.130E+00, 1.303E+00, 5.165E+01
 2.150E+00, 1.287E+00, 5.127E+01
 2.170E+00, 1.270E+00, 5.088E+01
 2.190E+00, 1.254E+00, 5.049E+01
 2.210E+00, 1.237E+00, 5.011E+01
 2.230E+00, 1.222E+00, 4.973E+01
 2.250E+00, 1.205E+00, 4.935E+01
 2.270E+00, 1.189E+00, 4.897E+01
 2.290E+00, 1.172E+00, 4.859E+01
 2.310E+00, 1.155E+00, 4.821E+01
 2.330E+00, 1.138E+00, 4.782E+01
 2.350E+00, 1.120E+00, 4.743E+01
 2.370E+00, 1.102E+00, 4.701E+01
 2.390E+00, 1.083E+00, 4.659E+01
 2.410E+00, 1.061E+00, 4.610E+01
 2.430E+00, 1.046E+00, 4.580E+01
