m,kW/m2,C
Height,Flux,Temp
 1.000E-02, 1.922E+01, 3.624E+02
 3.000E-02, 2.397E+01, 4.190E+02
 5.000E-02, 2.919E+01, 4.678E+02
 7.000E-02, 3.452E+01, 5.102E+02
 9.000E-02, 3.921E+01, 5.433E+02
 1.100E-01, 4.323E+01, 5.689E+02
 1.300E-01, 4.659E+01, 5.888E+02
 1.500E-01, 4.934E+01, 6.041E+02
 1.700E-01, 5.160E+01, 6.159E+02
 1.900E-01, 5.345E+01, 6.251E+02
 2.100E-01, 5.498E+01, 6.324E+02
 2.300E-01, 5.619E+01, 6.379E+02
 2.500E-01, 5.710E+01, 6.418E+02
 2.700E-01, 5.776E+01, 6.446E+02
 2.900E-01, 5.817E+01, 6.461E+02
 3.100E-01, 5.837E+01, 6.467E+02
 3.300E-01, 5.841E+01, 6.465E+02
 3.500E-01, 5.831E+01, 6.456E+02
 3.700E-01, 5.807E+01, 6.440E+02
 3.900E-01, 5.771E+01, 6.418E+02
 4.100E-01, 5.725E+01, 6.391E+02
 4.300E-01, 5.669E+01, 6.359E+02
 4.500E-01, 5.602E+01, 6.322E+02
 4.700E-01, 5.528E+01, 6.280E+02
 4.900E-01, 5.445E+01, 6.233E+02
 5.100E-01, 5.355E+01, 6.181E+02
 5.300E-01, 5.259E+01, 6.126E+02
 5.500E-01, 5.156E+01, 6.066E+02
 5.700E-01, 5.045E+01, 6.000E+02
 5.900E-01, 4.927E+01, 5.930E+02
 6.100E-01, 4.803E+01, 5.854E+02
 6.300E-01, 4.673E+01, 5.774E+02
 6.500E-01, 4.538E+01, 5.689E+02
 6.700E-01, 4.399E+01, 5.599E+02
 6.900E-01, 4.256E+01, 5.506E+02
 7.100E-01, 4.110E+01, 5.408E+02
 7.300E-01, 3.962E+01, 5.306E+02
 7.500E-01, 3.813E+01, 5.200E+02
 7.700E-01, 3.664E+01, 5.090E+02
 7.900E-01, 3.514E+01, 4.977E+02
 8.100E-01, 3.364E+01, 4.860E+02
 8.300E-01, 3.217E+01, 4.741E+02
 8.500E-01, 3.073E+01, 4.621E+02
 8.700E-01, 2.931E+01, 4.498E+02
 8.900E-01, 2.793E+01, 4.374E+02
 9.100E-01, 2.659E+01, 4.250E+02
 9.300E-01, 2.531E+01, 4.126E+02
 9.500E-01, 2.406E+01, 4.002E+02
 9.700E-01, 2.287E+01, 3.878E+02
 9.900E-01, 2.171E+01, 3.755E+02
 1.010E+00, 2.059E+01, 3.630E+02
 1.030E+00, 1.951E+01, 3.508E+02
 1.050E+00, 1.849E+01, 3.387E+02
 1.070E+00, 1.752E+01, 3.269E+02
 1.090E+00, 1.658E+01, 3.152E+02
 1.110E+00, 1.570E+01, 3.037E+02
 1.130E+00, 1.485E+01, 2.925E+02
 1.150E+00, 1.406E+01, 2.816E+02
 1.170E+00, 1.331E+01, 2.710E+02
 1.190E+00, 1.260E+01, 2.607E+02
 1.210E+00, 1.193E+01, 2.507E+02
 1.230E+00, 1.130E+01, 2.410E+02
 1.250E+00, 1.070E+01, 2.317E+02
 1.270E+00, 1.015E+01, 2.228E+02
 1.290E+00, 9.626E+00, 2.143E+02
 1.310E+00, 9.139E+00, 2.061E+02
 1.330E+00, 8.681E+00, 1.983E+02
 1.350E+00, 8.251E+00, 1.908E+02
 1.370E+00, 7.851E+00, 1.837E+02
 1.390E+00, 7.475E+00, 1.769E+02
 1.410E+00, 7.124E+00, 1.704E+02
 1.430E+00, 6.794E+00, 1.642E+02
 1.450E+00, 6.484E+00, 1.584E+02
 1.470E+00, 6.193E+00, 1.529E+02
 1.490E+00, 5.920E+00, 1.477E+02
 1.510E+00, 5.666E+00, 1.428E+02
 1.530E+00, 5.429E+00, 1.382E+02
 1.550E+00, 5.207E+00, 1.338E+02
 1.570E+00, 5.001E+00, 1.298E+02
 1.590E+00, 4.808E+00, 1.259E+02
 1.610E+00, 4.627E+00, 1.223E+02
 1.630E+00, 4.459E+00, 1.189E+02
 1.650E+00, 4.300E+00, 1.157E+02
 1.670E+00, 4.151E+00, 1.127E+02
 1.690E+00, 4.010E+00, 1.098E+02
 1.710E+00, 3.878E+00, 1.071E+02
 1.730E+00, 3.754E+00, 1.046E+02
 1.750E+00, 3.637E+00, 1.021E+02
 1.770E+00, 3.528E+00, 9.986E+01
 1.790E+00, 3.426E+00, 9.769E+01
 1.810E+00, 3.330E+00, 9.566E+01
 1.830E+00, 3.240E+00, 9.373E+01
 1.850E+00, 3.156E+00, 9.192E+01
 1.870E+00, 3.075E+00, 9.021E+01
 1.890E+00, 2.999E+00, 8.859E+01
 1.910E+00, 2.926E+00, 8.705E+01
 1.930E+00, 2.856E+00, 8.557E+01
 1.950E+00, 2.789E+00, 8.414E+01
 1.970E+00, 2.725E+00, 8.276E+01
 1.990E+00, 2.664E+00, 8.144E+01
 2.010E+00, 2.607E+00, 8.019E+01
 2.030E+00, 2.554E+00, 7.903E+01
 2.050E+00, 2.505E+00, 7.793E+01
 2.070E+00, 2.458E+00, 7.690E+01
 2.090E+00, 2.415E+00, 7.591E+01
 2.110E+00, 2.373E+00, 7.496E+01
 2.130E+00, 2.333E+00, 7.403E+01
 2.150E+00, 2.293E+00, 7.311E+01
 2.170E+00, 2.253E+00, 7.221E+01
 2.190E+00, 2.214E+00, 7.133E+01
 2.210E+00, 2.176E+00, 7.047E+01
 2.230E+00, 2.138E+00, 6.964E+01
 2.250E+00, 2.101E+00, 6.882E+01
 2.270E+00, 2.064E+00, 6.802E+01
 2.290E+00, 2.027E+00, 6.723E+01
 2.310E+00, 1.990E+00, 6.645E+01
 2.330E+00, 1.952E+00, 6.567E+01
 2.350E+00, 1.915E+00, 6.489E+01
 2.370E+00, 1.876E+00, 6.408E+01
 2.390E+00, 1.838E+00, 6.329E+01
 2.410E+00, 1.795E+00, 6.239E+01
 2.430E+00, 1.765E+00, 6.181E+01
