s,C
Time,"temp"
 0.0000000E+000, 2.0000000E+001
 1.0100000E+001, 4.9996170E+001
 2.0000000E+001, 1.1044549E+002
 3.0000000E+001, 1.6349921E+002
 4.0000000E+001, 2.1056283E+002
 5.0000000E+001, 2.5188316E+002
 6.0000000E+001, 2.8767278E+002
 7.0000000E+001, 3.1832191E+002
 8.0100000E+001, 3.4430913E+002
 9.0100000E+001, 3.6595957E+002
 1.0010000E+002, 3.8387716E+002
 1.1010000E+002, 3.9874349E+002
 1.2010000E+002, 4.1073265E+002
 1.3010000E+002, 4.2064833E+002
 1.4010000E+002, 4.2879398E+002
 1.5010000E+002, 4.3553697E+002
 1.6010000E+002, 4.4120301E+002
 1.7010000E+002, 4.4605476E+002
 1.8010000E+002, 4.5008198E+002
 1.9010000E+002, 4.5353394E+002
 2.0010000E+002, 4.5627334E+002
 2.1010000E+002, 4.5845539E+002
 2.2010000E+002, 4.6032324E+002
 2.3010000E+002, 4.6199843E+002
 2.4010000E+002, 4.6347541E+002
 2.5010000E+002, 4.6479916E+002
 2.6010000E+002, 4.6580813E+002
 2.7010000E+002, 4.6671131E+002
 2.8010000E+002, 4.6755924E+002
 2.9010000E+002, 4.6841443E+002
 3.0010000E+002, 4.6915201E+002
 3.1000000E+002, 4.6985387E+002
 3.2000000E+002, 4.7036839E+002
 3.3000000E+002, 4.7079800E+002
 3.4000000E+002, 4.7132519E+002
 3.5000000E+002, 4.7185268E+002
 3.6000000E+002, 4.7226378E+002
 3.7000000E+002, 4.7269519E+002
 3.8000000E+002, 4.7301489E+002
 3.9000000E+002, 4.7335663E+002
 4.0000000E+002, 4.7376859E+002
 4.1000000E+002, 4.7409558E+002
 4.2000000E+002, 4.7437407E+002
 4.3000000E+002, 4.7479340E+002
 4.4000000E+002, 4.7500101E+002
 4.5000000E+002, 4.7519241E+002
 4.6000000E+002, 4.7540934E+002
 4.7000000E+002, 4.7563731E+002
 4.8000000E+002, 4.7585162E+002
 4.9000000E+002, 4.7626424E+002
 5.0000000E+002, 4.7647115E+002
 5.1000000E+002, 4.7659757E+002
 5.2000000E+002, 4.7674556E+002
 5.3000000E+002, 4.7704642E+002
 5.4000000E+002, 4.7721592E+002
 5.5000000E+002, 4.7749107E+002
 5.6000000E+002, 4.7773475E+002
 5.7000000E+002, 4.7796438E+002
 5.8000000E+002, 4.7809965E+002
 5.9000000E+002, 4.7801057E+002
 6.0000000E+002, 4.7783844E+002
 6.1000000E+002, 4.7779636E+002
 6.2000000E+002, 4.7779031E+002
 6.3000000E+002, 4.7777577E+002
 6.4000000E+002, 4.7786404E+002
 6.5000000E+002, 4.7800035E+002
 6.6000000E+002, 4.7822840E+002
 6.7000000E+002, 4.7830082E+002
 6.8000000E+002, 4.7827412E+002
 6.9000000E+002, 4.7826424E+002
 7.0000000E+002, 4.7829578E+002
 7.1000000E+002, 4.7840711E+002
 7.2000000E+002, 4.7848990E+002
 7.3000000E+002, 4.7862064E+002
 7.4000000E+002, 4.7862923E+002
 7.5000000E+002, 4.7864609E+002
 7.6000000E+002, 4.7858912E+002
 7.7000000E+002, 4.7859175E+002
 7.8000000E+002, 4.7863096E+002
 7.9000000E+002, 4.7873923E+002
 8.0000000E+002, 4.7880821E+002
 8.1000000E+002, 4.7895999E+002
 8.2000000E+002, 4.7891376E+002
 8.3000000E+002, 4.7880468E+002
 8.4000000E+002, 4.7888329E+002
 8.5000000E+002, 4.7887951E+002
 8.6000000E+002, 4.7887627E+002
 8.7000000E+002, 4.7900012E+002
 8.8000000E+002, 4.7896290E+002
 8.9000000E+002, 4.7894532E+002
 9.0000000E+002, 4.7893558E+002
 9.1000000E+002, 4.7902332E+002
 9.2000000E+002, 4.7921052E+002
 9.3000000E+002, 4.7925725E+002
 9.4000000E+002, 4.7908359E+002
 9.5000000E+002, 4.7912774E+002
 9.6000000E+002, 4.7923589E+002
 9.7000000E+002, 4.7923670E+002
 9.8000000E+002, 4.7946237E+002
 9.9000000E+002, 4.7967272E+002
 1.0000000E+003, 4.7964022E+002
 1.0100000E+003, 4.7953957E+002
 1.0200000E+003, 4.7947116E+002
 1.0300000E+003, 4.7929841E+002
 1.0400000E+003, 4.7937695E+002
 1.0500000E+003, 4.7941947E+002
 1.0600000E+003, 4.7948358E+002
 1.0700000E+003, 4.7956126E+002
 1.0800000E+003, 4.7970878E+002
 1.0900000E+003, 4.7988165E+002
 1.1000000E+003, 4.7983466E+002
 1.1100000E+003, 4.7991597E+002
 1.1200000E+003, 4.8007848E+002
 1.1300000E+003, 4.7990090E+002
 1.1400000E+003, 4.7982795E+002
 1.1500000E+003, 4.7969752E+002
 1.1600000E+003, 4.7990391E+002
 1.1700000E+003, 4.7989182E+002
 1.1800000E+003, 4.7980230E+002
 1.1900000E+003, 4.7979966E+002
 1.2000000E+003, 4.7981105E+002
 1.2101000E+003, 4.7971268E+002
 1.2201000E+003, 4.7968078E+002
 1.2301000E+003, 4.7965358E+002
 1.2401000E+003, 4.7953160E+002
 1.2501000E+003, 4.7951076E+002
 1.2601000E+003, 4.7954986E+002
 1.2701000E+003, 4.7959658E+002
 1.2801000E+003, 4.7976069E+002
 1.2901000E+003, 4.7977852E+002
 1.3001000E+003, 4.7980822E+002
 1.3101000E+003, 4.6442876E+002
 1.3201000E+003, 4.2092602E+002
 1.3301000E+003, 3.8513546E+002
 1.3401000E+003, 3.5599518E+002
 1.3501000E+003, 3.3150254E+002
 1.3601000E+003, 3.1051468E+002
 1.3701000E+003, 2.9218467E+002
 1.3801000E+003, 2.7619359E+002
 1.3901000E+003, 2.6203335E+002
 1.4001000E+003, 2.4921061E+002
 1.4101000E+003, 2.3756801E+002
 1.4201000E+003, 2.2705941E+002
 1.4301000E+003, 2.1752708E+002
 1.4401000E+003, 2.0883694E+002
 1.4501000E+003, 2.0077476E+002
 1.4601000E+003, 1.9338041E+002
 1.4701000E+003, 1.8650206E+002
 1.4801000E+003, 1.8012739E+002
 1.4901000E+003, 1.7418188E+002
 1.5001000E+003, 1.6866640E+002
 1.5101000E+003, 1.6352939E+002
 1.5201000E+003, 1.5863980E+002
 1.5301000E+003, 1.5403153E+002
 1.5401000E+003, 1.4970346E+002
 1.5501000E+003, 1.4559479E+002
 1.5601000E+003, 1.4168650E+002
 1.5701000E+003, 1.3798695E+002
 1.5801000E+003, 1.3453795E+002
 1.5901000E+003, 1.3123375E+002
 1.6001000E+003, 1.2809228E+002
 1.6101000E+003, 1.2502696E+002
 1.6201000E+003, 1.2210419E+002
 1.6301000E+003, 1.1932877E+002
 1.6401000E+003, 1.1671059E+002
 1.6501000E+003, 1.1417665E+002
 1.6601000E+003, 1.1175578E+002
 1.6701000E+003, 1.0936591E+002
 1.6801000E+003, 1.0710667E+002
 1.6901000E+003, 1.0492411E+002
 1.7001000E+003, 1.0278728E+002
 1.7101000E+003, 1.0074124E+002
 1.7201000E+003, 9.8776780E+001
 1.7301000E+003, 9.6895202E+001
 1.7401000E+003, 9.5061304E+001
 1.7501000E+003, 9.3262909E+001
 1.7601000E+003, 9.1543470E+001
 1.7701000E+003, 8.9881974E+001
 1.7801000E+003, 8.8271429E+001
 1.7901000E+003, 8.6685594E+001
 1.8001000E+003, 8.5170662E+001
 1.8101000E+003, 8.3730362E+001
 1.8201000E+003, 8.2331450E+001
 1.8301000E+003, 8.0970101E+001
 1.8401000E+003, 7.9618854E+001
 1.8501000E+003, 7.8315630E+001
 1.8601000E+003, 7.7045420E+001
 1.8701000E+003, 7.5810909E+001
 1.8801000E+003, 7.4616680E+001
 1.8901000E+003, 7.3464787E+001
 1.9001000E+003, 7.2334089E+001
 1.9101000E+003, 7.1219481E+001
 1.9201000E+003, 7.0119089E+001
 1.9301000E+003, 6.9064164E+001
 1.9401000E+003, 6.8041941E+001
 1.9501000E+003, 6.7058445E+001
 1.9601000E+003, 6.6107731E+001
 1.9701000E+003, 6.5187667E+001
 1.9801000E+003, 6.4291123E+001
 1.9901000E+003, 6.3397614E+001
 2.0001000E+003, 6.2511678E+001
 2.0101000E+003, 6.1653533E+001
 2.0201000E+003, 6.0819572E+001
 2.0301000E+003, 6.0004684E+001
 2.0401000E+003, 5.9196101E+001
 2.0501000E+003, 5.8412329E+001
 2.0601000E+003, 5.7661169E+001
 2.0701000E+003, 5.6924579E+001
 2.0801000E+003, 5.6181960E+001
 2.0901000E+003, 5.5458857E+001
 2.1000000E+003, 5.4760718E+001
