s,C,C
Time,"Cable Temp","Shroud Temp"
 0.000E+00, 2.400E+01, 2.400E+01
 1.500E+01, 2.401E+01, 6.147E+01
 3.001E+01, 2.426E+01, 1.356E+02
 4.501E+01, 2.535E+01, 2.100E+02
 6.002E+01, 2.791E+01, 2.843E+02
 7.500E+01, 3.275E+01, 3.586E+02
 9.001E+01, 4.088E+01, 4.329E+02
 1.050E+02, 5.338E+01, 4.700E+02
 1.200E+02, 6.912E+01, 4.700E+02
 1.350E+02, 8.509E+01, 4.700E+02
 1.500E+02, 1.002E+02, 4.700E+02
 1.650E+02, 1.143E+02, 4.700E+02
 1.800E+02, 1.273E+02, 4.700E+02
 1.950E+02, 1.395E+02, 4.700E+02
 2.100E+02, 1.509E+02, 4.700E+02
 2.250E+02, 1.616E+02, 4.700E+02
 2.400E+02, 1.716E+02, 4.700E+02
 2.550E+02, 1.811E+02, 4.700E+02
 2.700E+02, 1.900E+02, 4.700E+02
 2.850E+02, 1.984E+02, 4.700E+02
 3.000E+02, 2.064E+02, 4.700E+02
 3.150E+02, 2.141E+02, 4.700E+02
 3.300E+02, 2.217E+02, 4.700E+02
 3.450E+02, 2.290E+02, 4.700E+02
 3.600E+02, 2.361E+02, 4.700E+02
 3.750E+02, 2.428E+02, 4.700E+02
 3.900E+02, 2.491E+02, 4.700E+02
 4.050E+02, 2.554E+02, 4.700E+02
 4.200E+02, 2.613E+02, 4.700E+02
 4.350E+02, 2.671E+02, 4.700E+02
 4.500E+02, 2.727E+02, 4.700E+02
 4.650E+02, 2.781E+02, 4.700E+02
 4.800E+02, 2.833E+02, 4.700E+02
 4.950E+02, 2.882E+02, 4.700E+02
 5.100E+02, 2.930E+02, 4.700E+02
 5.250E+02, 2.976E+02, 4.700E+02
 5.400E+02, 3.021E+02, 4.700E+02
 5.550E+02, 3.064E+02, 4.700E+02
 5.700E+02, 3.103E+02, 4.700E+02
 5.850E+02, 3.142E+02, 4.700E+02
 6.000E+02, 3.181E+02, 4.700E+02
 6.150E+02, 3.220E+02, 4.700E+02
 6.300E+02, 3.257E+02, 4.700E+02
 6.450E+02, 3.291E+02, 4.700E+02
 6.600E+02, 3.325E+02, 4.700E+02
 6.750E+02, 3.357E+02, 4.700E+02
 6.900E+02, 3.389E+02, 4.700E+02
 7.050E+02, 3.416E+02, 4.700E+02
 7.200E+02, 3.445E+02, 4.700E+02
 7.350E+02, 3.474E+02, 4.700E+02
 7.500E+02, 3.502E+02, 4.700E+02
 7.650E+02, 3.528E+02, 4.700E+02
 7.800E+02, 3.552E+02, 4.700E+02
 7.950E+02, 3.574E+02, 4.700E+02
 8.100E+02, 3.598E+02, 4.700E+02
 8.250E+02, 3.619E+02, 4.700E+02
 8.400E+02, 3.640E+02, 4.700E+02
 8.550E+02, 3.658E+02, 4.700E+02
 8.700E+02, 3.678E+02, 4.700E+02
 8.850E+02, 3.696E+02, 4.700E+02
 9.000E+02, 3.714E+02, 4.700E+02
 9.150E+02, 3.732E+02, 4.700E+02
 9.300E+02, 3.750E+02, 4.700E+02
 9.450E+02, 3.766E+02, 4.700E+02
 9.600E+02, 3.782E+02, 4.700E+02
 9.750E+02, 3.799E+02, 4.700E+02
 9.900E+02, 3.814E+02, 4.700E+02
 1.005E+03, 3.827E+02, 4.700E+02
 1.020E+03, 3.840E+02, 4.700E+02
 1.035E+03, 3.851E+02, 4.700E+02
 1.050E+03, 3.863E+02, 4.700E+02
 1.065E+03, 3.874E+02, 4.700E+02
 1.080E+03, 3.885E+02, 4.700E+02
 1.095E+03, 3.898E+02, 4.700E+02
 1.110E+03, 3.909E+02, 4.700E+02
 1.125E+03, 3.919E+02, 4.700E+02
 1.140E+03, 3.930E+02, 4.700E+02
 1.155E+03, 3.940E+02, 4.700E+02
 1.170E+03, 3.950E+02, 4.700E+02
 1.185E+03, 3.960E+02, 4.700E+02
 1.200E+03, 3.971E+02, 4.700E+02
 1.215E+03, 3.978E+02, 4.700E+02
 1.230E+03, 3.986E+02, 4.700E+02
 1.245E+03, 3.993E+02, 4.700E+02
 1.260E+03, 4.000E+02, 4.700E+02
 1.275E+03, 4.007E+02, 4.700E+02
 1.290E+03, 4.015E+02, 4.700E+02
 1.305E+03, 4.020E+02, 4.700E+02
 1.320E+03, 4.025E+02, 4.700E+02
 1.335E+03, 4.030E+02, 4.700E+02
 1.350E+03, 4.035E+02, 4.700E+02
 1.365E+03, 4.041E+02, 4.700E+02
 1.380E+03, 4.046E+02, 4.700E+02
 1.395E+03, 4.052E+02, 4.700E+02
 1.410E+03, 4.057E+02, 4.700E+02
 1.425E+03, 4.063E+02, 4.700E+02
 1.440E+03, 4.068E+02, 4.700E+02
 1.455E+03, 4.071E+02, 4.700E+02
 1.470E+03, 4.074E+02, 4.700E+02
 1.485E+03, 4.077E+02, 4.700E+02
 1.500E+03, 4.081E+02, 4.700E+02
 1.515E+03, 4.085E+02, 4.700E+02
 1.530E+03, 4.091E+02, 4.700E+02
 1.545E+03, 4.096E+02, 4.700E+02
 1.560E+03, 4.101E+02, 4.700E+02
 1.575E+03, 4.105E+02, 4.700E+02
 1.590E+03, 4.107E+02, 4.700E+02
 1.605E+03, 4.108E+02, 4.700E+02
 1.620E+03, 4.110E+02, 4.700E+02
 1.635E+03, 4.113E+02, 4.700E+02
 1.650E+03, 4.115E+02, 4.700E+02
 1.665E+03, 4.119E+02, 4.700E+02
 1.680E+03, 4.119E+02, 4.700E+02
 1.695E+03, 4.120E+02, 4.700E+02
 1.710E+03, 4.122E+02, 4.700E+02
 1.725E+03, 4.124E+02, 4.700E+02
 1.740E+03, 4.127E+02, 4.700E+02
 1.755E+03, 4.129E+02, 4.700E+02
 1.770E+03, 4.131E+02, 4.700E+02
 1.785E+03, 4.133E+02, 4.700E+02
 1.800E+03, 4.134E+02, 4.700E+02
