s,C,C
Time,"Cable Temp","Shroud Temp"
 0.000E+00, 2.000E+01, 2.000E+01
 1.509E+01, 2.015E+01, 6.683E+01
 3.000E+01, 2.227E+01, 1.591E+02
 4.504E+01, 2.888E+01, 2.512E+02
 6.004E+01, 4.172E+01, 3.219E+02
 7.503E+01, 5.636E+01, 3.234E+02
 9.001E+01, 6.772E+01, 3.196E+02
 1.050E+02, 7.698E+01, 3.158E+02
 1.200E+02, 8.475E+01, 3.120E+02
 1.350E+02, 9.152E+01, 3.082E+02
 1.500E+02, 9.735E+01, 3.052E+02
 1.650E+02, 1.027E+02, 3.050E+02
 1.800E+02, 1.078E+02, 3.050E+02
 1.950E+02, 1.128E+02, 3.050E+02
 2.100E+02, 1.176E+02, 3.050E+02
 2.250E+02, 1.221E+02, 3.050E+02
 2.400E+02, 1.265E+02, 3.050E+02
 2.550E+02, 1.308E+02, 3.050E+02
 2.700E+02, 1.349E+02, 3.050E+02
 2.851E+02, 1.389E+02, 3.050E+02
 3.000E+02, 1.427E+02, 3.050E+02
 3.150E+02, 1.465E+02, 3.050E+02
 3.301E+02, 1.502E+02, 3.050E+02
 3.450E+02, 1.537E+02, 3.050E+02
 3.600E+02, 1.571E+02, 3.050E+02
 3.750E+02, 1.605E+02, 3.050E+02
 3.900E+02, 1.638E+02, 3.050E+02
 4.050E+02, 1.670E+02, 3.050E+02
 4.201E+02, 1.700E+02, 3.050E+02
 4.350E+02, 1.728E+02, 3.050E+02
 4.500E+02, 1.756E+02, 3.050E+02
 4.650E+02, 1.784E+02, 3.050E+02
 4.800E+02, 1.810E+02, 3.050E+02
 4.950E+02, 1.834E+02, 3.050E+02
 5.100E+02, 1.860E+02, 3.050E+02
 5.250E+02, 1.886E+02, 3.050E+02
 5.400E+02, 1.911E+02, 3.050E+02
 5.551E+02, 1.932E+02, 3.050E+02
 5.700E+02, 1.954E+02, 3.050E+02
 5.850E+02, 1.975E+02, 3.050E+02
 6.000E+02, 1.997E+02, 3.050E+02
 6.150E+02, 2.017E+02, 3.050E+02
 6.300E+02, 2.036E+02, 3.050E+02
 6.450E+02, 2.054E+02, 3.050E+02
 6.600E+02, 2.073E+02, 3.050E+02
 6.750E+02, 2.092E+02, 3.050E+02
 6.900E+02, 2.110E+02, 3.050E+02
 7.050E+02, 2.128E+02, 3.050E+02
 7.201E+02, 2.145E+02, 3.050E+02
 7.350E+02, 2.159E+02, 3.050E+02
 7.500E+02, 2.174E+02, 3.050E+02
 7.650E+02, 2.188E+02, 3.050E+02
 7.800E+02, 2.203E+02, 3.050E+02
 7.951E+02, 2.216E+02, 3.050E+02
 8.100E+02, 2.229E+02, 3.050E+02
 8.250E+02, 2.241E+02, 3.050E+02
 8.400E+02, 2.253E+02, 3.050E+02
 8.550E+02, 2.267E+02, 3.050E+02
 8.700E+02, 2.276E+02, 3.050E+02
 8.850E+02, 2.287E+02, 3.050E+02
 9.000E+02, 2.296E+02, 3.050E+02
 9.150E+02, 2.307E+02, 3.050E+02
 9.300E+02, 2.318E+02, 3.050E+02
 9.450E+02, 2.326E+02, 3.050E+02
 9.600E+02, 2.337E+02, 3.050E+02
 9.751E+02, 2.347E+02, 3.050E+02
 9.900E+02, 2.354E+02, 3.050E+02
 1.005E+03, 2.360E+02, 3.050E+02
 1.020E+03, 2.368E+02, 3.050E+02
 1.035E+03, 2.376E+02, 3.050E+02
 1.050E+03, 2.385E+02, 3.050E+02
 1.065E+03, 2.391E+02, 3.050E+02
 1.080E+03, 2.398E+02, 3.050E+02
 1.095E+03, 2.406E+02, 3.050E+02
 1.110E+03, 2.414E+02, 3.050E+02
 1.125E+03, 2.422E+02, 3.050E+02
 1.140E+03, 2.427E+02, 3.050E+02
 1.155E+03, 2.434E+02, 3.050E+02
 1.170E+03, 2.440E+02, 3.050E+02
 1.185E+03, 2.448E+02, 3.050E+02
 1.200E+03, 2.453E+02, 3.050E+02
 1.215E+03, 2.457E+02, 3.050E+02
 1.230E+03, 2.460E+02, 3.050E+02
 1.245E+03, 2.463E+02, 3.050E+02
 1.260E+03, 2.466E+02, 3.050E+02
 1.275E+03, 2.473E+02, 3.050E+02
 1.290E+03, 2.476E+02, 3.050E+02
 1.305E+03, 2.479E+02, 3.050E+02
 1.320E+03, 2.483E+02, 3.050E+02
 1.335E+03, 2.488E+02, 3.050E+02
 1.350E+03, 2.494E+02, 3.050E+02
 1.365E+03, 2.495E+02, 3.050E+02
 1.380E+03, 2.497E+02, 3.050E+02
 1.395E+03, 2.502E+02, 3.050E+02
 1.410E+03, 2.506E+02, 3.050E+02
 1.425E+03, 2.508E+02, 3.050E+02
 1.440E+03, 2.512E+02, 3.050E+02
 1.455E+03, 2.516E+02, 3.050E+02
 1.470E+03, 2.520E+02, 3.050E+02
 1.485E+03, 2.522E+02, 3.050E+02
 1.500E+03, 2.523E+02, 3.050E+02
 1.515E+03, 2.529E+02, 3.050E+02
 1.530E+03, 2.531E+02, 3.050E+02
 1.545E+03, 2.531E+02, 3.050E+02
 1.560E+03, 2.534E+02, 3.050E+02
 1.575E+03, 2.536E+02, 3.050E+02
 1.590E+03, 2.540E+02, 3.050E+02
 1.605E+03, 2.544E+02, 3.050E+02
 1.620E+03, 2.546E+02, 3.050E+02
 1.635E+03, 2.547E+02, 3.050E+02
 1.650E+03, 2.552E+02, 3.050E+02
 1.665E+03, 2.550E+02, 3.050E+02
 1.680E+03, 2.553E+02, 3.050E+02
 1.695E+03, 2.552E+02, 3.050E+02
 1.710E+03, 2.554E+02, 3.050E+02
 1.725E+03, 2.553E+02, 3.050E+02
 1.740E+03, 2.555E+02, 3.050E+02
 1.755E+03, 2.557E+02, 3.050E+02
 1.770E+03, 2.561E+02, 3.050E+02
 1.785E+03, 2.565E+02, 3.050E+02
 1.800E+03, 2.564E+02, 3.050E+02
 1.815E+03, 2.565E+02, 3.050E+02
 1.830E+03, 2.567E+02, 3.050E+02
 1.845E+03, 2.568E+02, 3.050E+02
 1.860E+03, 2.568E+02, 3.050E+02
 1.875E+03, 2.566E+02, 3.050E+02
 1.890E+03, 2.567E+02, 3.050E+02
 1.905E+03, 2.568E+02, 3.050E+02
 1.920E+03, 2.567E+02, 3.050E+02
 1.935E+03, 2.569E+02, 3.050E+02
 1.950E+03, 2.571E+02, 3.050E+02
 1.965E+03, 2.574E+02, 3.050E+02
 1.980E+03, 2.575E+02, 3.050E+02
 1.995E+03, 2.577E+02, 3.050E+02
 2.010E+03, 2.578E+02, 3.050E+02
 2.025E+03, 2.577E+02, 3.050E+02
 2.040E+03, 2.575E+02, 3.050E+02
 2.055E+03, 2.576E+02, 3.050E+02
 2.070E+03, 2.578E+02, 3.050E+02
 2.085E+03, 2.581E+02, 3.050E+02
 2.100E+03, 2.582E+02, 3.040E+02
 2.115E+03, 2.581E+02, 2.996E+02
 2.130E+03, 2.572E+02, 2.949E+02
 2.145E+03, 2.562E+02, 2.903E+02
 2.160E+03, 2.550E+02, 2.856E+02
 2.175E+03, 2.538E+02, 2.810E+02
 2.190E+03, 2.526E+02, 2.763E+02
 2.205E+03, 2.513E+02, 2.717E+02
 2.220E+03, 2.493E+02, 2.670E+02
 2.235E+03, 2.477E+02, 2.624E+02
 2.250E+03, 2.458E+02, 2.577E+02
 2.265E+03, 2.441E+02, 2.531E+02
 2.280E+03, 2.422E+02, 2.484E+02
 2.295E+03, 2.402E+02, 2.438E+02
 2.310E+03, 2.383E+02, 2.392E+02
 2.325E+03, 2.362E+02, 2.348E+02
 2.340E+03, 2.343E+02, 2.338E+02
 2.355E+03, 2.326E+02, 2.337E+02
 2.370E+03, 2.315E+02, 2.337E+02
 2.385E+03, 2.302E+02, 2.337E+02
 2.400E+03, 2.288E+02, 2.338E+02
