s,C,C
Time,"Cable Temp","Shroud Temp"
 0.000E+00, 2.000E+01, 2.000E+01
 1.507E+01, 2.015E+01, 6.680E+01
 3.002E+01, 2.226E+01, 1.590E+02
 4.501E+01, 2.887E+01, 2.511E+02
 6.002E+01, 4.175E+01, 3.219E+02
 7.505E+01, 5.630E+01, 3.234E+02
 9.004E+01, 6.762E+01, 3.195E+02
 1.050E+02, 7.687E+01, 3.158E+02
 1.200E+02, 8.462E+01, 3.120E+02
 1.350E+02, 9.137E+01, 3.082E+02
 1.500E+02, 9.727E+01, 3.052E+02
 1.650E+02, 1.028E+02, 3.050E+02
 1.800E+02, 1.080E+02, 3.050E+02
 1.950E+02, 1.129E+02, 3.050E+02
 2.100E+02, 1.177E+02, 3.050E+02
 2.250E+02, 1.222E+02, 3.050E+02
 2.400E+02, 1.267E+02, 3.050E+02
 2.550E+02, 1.309E+02, 3.050E+02
 2.700E+02, 1.350E+02, 3.050E+02
 2.851E+02, 1.390E+02, 3.050E+02
 3.000E+02, 1.428E+02, 3.050E+02
 3.150E+02, 1.466E+02, 3.050E+02
 3.300E+02, 1.502E+02, 3.050E+02
 3.450E+02, 1.537E+02, 3.050E+02
 3.600E+02, 1.571E+02, 3.050E+02
 3.750E+02, 1.605E+02, 3.050E+02
 3.900E+02, 1.637E+02, 3.050E+02
 4.050E+02, 1.668E+02, 3.050E+02
 4.200E+02, 1.699E+02, 3.050E+02
 4.350E+02, 1.729E+02, 3.050E+02
 4.500E+02, 1.756E+02, 3.050E+02
 4.650E+02, 1.783E+02, 3.050E+02
 4.800E+02, 1.809E+02, 3.050E+02
 4.950E+02, 1.836E+02, 3.050E+02
 5.101E+02, 1.861E+02, 3.050E+02
 5.250E+02, 1.887E+02, 3.050E+02
 5.400E+02, 1.912E+02, 3.050E+02
 5.551E+02, 1.935E+02, 3.050E+02
 5.700E+02, 1.955E+02, 3.050E+02
 5.850E+02, 1.977E+02, 3.050E+02
 6.000E+02, 1.998E+02, 3.050E+02
 6.150E+02, 2.018E+02, 3.050E+02
 6.300E+02, 2.036E+02, 3.050E+02
 6.450E+02, 2.056E+02, 3.050E+02
 6.600E+02, 2.075E+02, 3.050E+02
 6.750E+02, 2.093E+02, 3.050E+02
 6.901E+02, 2.110E+02, 3.050E+02
 7.050E+02, 2.126E+02, 3.050E+02
 7.201E+02, 2.143E+02, 3.050E+02
 7.350E+02, 2.160E+02, 3.050E+02
 7.500E+02, 2.175E+02, 3.050E+02
 7.650E+02, 2.188E+02, 3.050E+02
 7.800E+02, 2.202E+02, 3.050E+02
 7.950E+02, 2.216E+02, 3.050E+02
 8.100E+02, 2.229E+02, 3.050E+02
 8.250E+02, 2.244E+02, 3.050E+02
 8.400E+02, 2.257E+02, 3.050E+02
 8.551E+02, 2.267E+02, 3.050E+02
 8.701E+02, 2.277E+02, 3.050E+02
 8.850E+02, 2.287E+02, 3.050E+02
 9.001E+02, 2.300E+02, 3.050E+02
 9.150E+02, 2.311E+02, 3.050E+02
 9.300E+02, 2.321E+02, 3.050E+02
 9.450E+02, 2.333E+02, 3.050E+02
 9.601E+02, 2.341E+02, 3.050E+02
 9.750E+02, 2.349E+02, 3.050E+02
 9.900E+02, 2.357E+02, 3.050E+02
 1.005E+03, 2.366E+02, 3.050E+02
 1.020E+03, 2.372E+02, 3.050E+02
 1.035E+03, 2.382E+02, 3.050E+02
 1.050E+03, 2.392E+02, 3.050E+02
 1.065E+03, 2.399E+02, 3.050E+02
 1.080E+03, 2.406E+02, 3.050E+02
 1.095E+03, 2.413E+02, 3.050E+02
 1.110E+03, 2.418E+02, 3.050E+02
 1.125E+03, 2.426E+02, 3.050E+02
 1.140E+03, 2.433E+02, 3.050E+02
 1.155E+03, 2.439E+02, 3.050E+02
 1.170E+03, 2.444E+02, 3.050E+02
 1.185E+03, 2.448E+02, 3.050E+02
 1.200E+03, 2.455E+02, 3.050E+02
 1.215E+03, 2.462E+02, 3.050E+02
 1.230E+03, 2.466E+02, 3.050E+02
 1.245E+03, 2.472E+02, 3.050E+02
 1.260E+03, 2.477E+02, 3.050E+02
 1.275E+03, 2.483E+02, 3.050E+02
 1.290E+03, 2.488E+02, 3.050E+02
 1.305E+03, 2.490E+02, 3.050E+02
 1.320E+03, 2.490E+02, 3.050E+02
 1.335E+03, 2.494E+02, 3.050E+02
 1.350E+03, 2.500E+02, 3.050E+02
 1.365E+03, 2.504E+02, 3.050E+02
 1.380E+03, 2.508E+02, 3.050E+02
 1.395E+03, 2.509E+02, 3.050E+02
 1.410E+03, 2.510E+02, 3.050E+02
 1.425E+03, 2.513E+02, 3.050E+02
 1.440E+03, 2.517E+02, 3.050E+02
 1.455E+03, 2.519E+02, 3.050E+02
 1.470E+03, 2.522E+02, 3.050E+02
 1.485E+03, 2.525E+02, 3.050E+02
 1.500E+03, 2.529E+02, 3.050E+02
 1.515E+03, 2.533E+02, 3.050E+02
 1.530E+03, 2.535E+02, 3.050E+02
 1.545E+03, 2.538E+02, 3.050E+02
 1.560E+03, 2.540E+02, 3.050E+02
 1.575E+03, 2.542E+02, 3.050E+02
 1.590E+03, 2.545E+02, 3.050E+02
 1.605E+03, 2.548E+02, 3.050E+02
 1.620E+03, 2.547E+02, 3.050E+02
 1.635E+03, 2.548E+02, 3.050E+02
 1.650E+03, 2.551E+02, 3.050E+02
 1.665E+03, 2.552E+02, 3.050E+02
 1.680E+03, 2.557E+02, 3.050E+02
 1.695E+03, 2.556E+02, 3.050E+02
 1.710E+03, 2.559E+02, 3.050E+02
 1.725E+03, 2.562E+02, 3.050E+02
 1.740E+03, 2.563E+02, 3.050E+02
 1.755E+03, 2.564E+02, 3.050E+02
 1.770E+03, 2.566E+02, 3.050E+02
 1.785E+03, 2.565E+02, 3.050E+02
 1.800E+03, 2.566E+02, 3.050E+02
 1.815E+03, 2.570E+02, 3.050E+02
 1.830E+03, 2.573E+02, 3.050E+02
 1.845E+03, 2.577E+02, 3.050E+02
 1.860E+03, 2.576E+02, 3.050E+02
 1.875E+03, 2.575E+02, 3.050E+02
 1.890E+03, 2.576E+02, 3.050E+02
 1.905E+03, 2.577E+02, 3.050E+02
 1.920E+03, 2.579E+02, 3.050E+02
 1.935E+03, 2.581E+02, 3.050E+02
 1.950E+03, 2.577E+02, 3.050E+02
 1.965E+03, 2.580E+02, 3.050E+02
 1.980E+03, 2.583E+02, 3.050E+02
 1.995E+03, 2.582E+02, 3.050E+02
 2.010E+03, 2.579E+02, 3.050E+02
 2.025E+03, 2.580E+02, 3.050E+02
 2.040E+03, 2.580E+02, 3.050E+02
 2.055E+03, 2.579E+02, 3.050E+02
 2.070E+03, 2.582E+02, 3.050E+02
 2.085E+03, 2.583E+02, 3.050E+02
 2.100E+03, 2.583E+02, 3.040E+02
 2.115E+03, 2.582E+02, 2.996E+02
 2.130E+03, 2.575E+02, 2.949E+02
 2.145E+03, 2.568E+02, 2.903E+02
 2.160E+03, 2.557E+02, 2.856E+02
 2.175E+03, 2.542E+02, 2.810E+02
 2.190E+03, 2.529E+02, 2.763E+02
 2.205E+03, 2.516E+02, 2.717E+02
 2.220E+03, 2.499E+02, 2.670E+02
 2.235E+03, 2.483E+02, 2.624E+02
 2.250E+03, 2.461E+02, 2.577E+02
 2.265E+03, 2.441E+02, 2.531E+02
 2.280E+03, 2.425E+02, 2.484E+02
 2.295E+03, 2.405E+02, 2.438E+02
 2.310E+03, 2.386E+02, 2.392E+02
 2.325E+03, 2.364E+02, 2.348E+02
 2.340E+03, 2.344E+02, 2.338E+02
 2.355E+03, 2.326E+02, 2.338E+02
 2.370E+03, 2.311E+02, 2.338E+02
 2.385E+03, 2.298E+02, 2.337E+02
 2.400E+03, 2.283E+02, 2.338E+02
