s,C,C,C
Time,"Cable Temp","Shroud Temp","Conduit"
 0.000E+00, 3.100E+01, 3.100E+01, 3.100E+01
 1.505E+01, 3.100E+01, 7.159E+01, 3.106E+01
 3.006E+01, 3.103E+01, 1.517E+02, 3.170E+01
 4.503E+01, 3.119E+01, 2.319E+02, 3.353E+01
 6.005E+01, 3.141E+01, 3.074E+02, 3.724E+01
 7.503E+01, 3.167E+01, 3.250E+02, 4.246E+01
 9.006E+01, 3.218E+01, 3.250E+02, 4.779E+01
 1.050E+02, 3.265E+01, 3.250E+02, 5.304E+01
 1.200E+02, 3.329E+01, 3.250E+02, 5.822E+01
 1.350E+02, 3.400E+01, 3.250E+02, 6.330E+01
 1.500E+02, 3.483E+01, 3.250E+02, 6.830E+01
 1.650E+02, 3.619E+01, 3.250E+02, 7.323E+01
 1.800E+02, 3.713E+01, 3.250E+02, 7.807E+01
 1.950E+02, 3.787E+01, 3.250E+02, 8.284E+01
 2.101E+02, 3.901E+01, 3.250E+02, 8.751E+01
 2.250E+02, 3.991E+01, 3.250E+02, 9.209E+01
 2.400E+02, 4.118E+01, 3.250E+02, 9.660E+01
 2.550E+02, 4.244E+01, 3.250E+02, 1.010E+02
 2.700E+02, 4.386E+01, 3.250E+02, 1.054E+02
 2.850E+02, 4.527E+01, 3.250E+02, 1.097E+02
 3.000E+02, 4.656E+01, 3.250E+02, 1.139E+02
 3.150E+02, 4.768E+01, 3.250E+02, 1.180E+02
 3.300E+02, 4.907E+01, 3.250E+02, 1.220E+02
 3.450E+02, 5.056E+01, 3.250E+02, 1.260E+02
 3.600E+02, 5.201E+01, 3.250E+02, 1.299E+02
 3.751E+02, 5.373E+01, 3.250E+02, 1.337E+02
 3.900E+02, 5.549E+01, 3.250E+02, 1.375E+02
 4.050E+02, 5.735E+01, 3.250E+02, 1.412E+02
 4.200E+02, 5.905E+01, 3.250E+02, 1.448E+02
 4.350E+02, 6.087E+01, 3.250E+02, 1.483E+02
 4.500E+02, 6.302E+01, 3.250E+02, 1.518E+02
 4.650E+02, 6.504E+01, 3.250E+02, 1.551E+02
 4.800E+02, 6.731E+01, 3.250E+02, 1.584E+02
 4.950E+02, 6.939E+01, 3.250E+02, 1.616E+02
 5.100E+02, 7.125E+01, 3.250E+02, 1.648E+02
 5.250E+02, 7.341E+01, 3.250E+02, 1.679E+02
 5.400E+02, 7.555E+01, 3.250E+02, 1.710E+02
 5.550E+02, 7.796E+01, 3.250E+02, 1.739E+02
 5.700E+02, 8.013E+01, 3.250E+02, 1.769E+02
 5.850E+02, 8.252E+01, 3.250E+02, 1.797E+02
 6.000E+02, 8.497E+01, 3.250E+02, 1.825E+02
 6.150E+02, 8.730E+01, 3.250E+02, 1.852E+02
 6.300E+02, 8.965E+01, 3.250E+02, 1.879E+02
 6.450E+02, 9.198E+01, 3.250E+02, 1.906E+02
 6.600E+02, 9.433E+01, 3.250E+02, 1.932E+02
 6.750E+02, 9.664E+01, 3.250E+02, 1.958E+02
 6.900E+02, 9.886E+01, 3.250E+02, 1.983E+02
 7.050E+02, 1.013E+02, 3.250E+02, 2.008E+02
 7.200E+02, 1.039E+02, 3.250E+02, 2.031E+02
 7.350E+02, 1.064E+02, 3.250E+02, 2.055E+02
 7.500E+02, 1.089E+02, 3.250E+02, 2.077E+02
 7.650E+02, 1.114E+02, 3.250E+02, 2.100E+02
 7.800E+02, 1.140E+02, 3.250E+02, 2.122E+02
 7.950E+02, 1.165E+02, 3.250E+02, 2.143E+02
 8.100E+02, 1.191E+02, 3.250E+02, 2.164E+02
 8.250E+02, 1.215E+02, 3.250E+02, 2.185E+02
 8.400E+02, 1.242E+02, 3.250E+02, 2.204E+02
 8.550E+02, 1.267E+02, 3.250E+02, 2.223E+02
 8.700E+02, 1.293E+02, 3.250E+02, 2.242E+02
 8.850E+02, 1.319E+02, 3.250E+02, 2.260E+02
 9.000E+02, 1.345E+02, 3.250E+02, 2.277E+02
 9.150E+02, 1.371E+02, 3.250E+02, 2.294E+02
 9.300E+02, 1.397E+02, 3.250E+02, 2.312E+02
 9.450E+02, 1.421E+02, 3.250E+02, 2.328E+02
 9.600E+02, 1.447E+02, 3.250E+02, 2.345E+02
 9.750E+02, 1.472E+02, 3.250E+02, 2.360E+02
 9.900E+02, 1.496E+02, 3.250E+02, 2.376E+02
 1.005E+03, 1.521E+02, 3.250E+02, 2.390E+02
 1.020E+03, 1.547E+02, 3.250E+02, 2.405E+02
 1.035E+03, 1.571E+02, 3.250E+02, 2.419E+02
 1.050E+03, 1.595E+02, 3.250E+02, 2.432E+02
 1.065E+03, 1.619E+02, 3.250E+02, 2.445E+02
 1.080E+03, 1.643E+02, 3.250E+02, 2.457E+02
 1.095E+03, 1.666E+02, 3.250E+02, 2.470E+02
 1.110E+03, 1.690E+02, 3.250E+02, 2.483E+02
 1.125E+03, 1.714E+02, 3.250E+02, 2.496E+02
 1.140E+03, 1.738E+02, 3.250E+02, 2.507E+02
 1.155E+03, 1.761E+02, 3.250E+02, 2.518E+02
 1.170E+03, 1.783E+02, 3.250E+02, 2.529E+02
 1.185E+03, 1.805E+02, 3.250E+02, 2.540E+02
 1.200E+03, 1.828E+02, 3.250E+02, 2.551E+02
 1.215E+03, 1.850E+02, 3.250E+02, 2.561E+02
 1.230E+03, 1.871E+02, 3.250E+02, 2.570E+02
 1.245E+03, 1.893E+02, 3.250E+02, 2.580E+02
 1.260E+03, 1.914E+02, 3.250E+02, 2.590E+02
 1.275E+03, 1.934E+02, 3.250E+02, 2.598E+02
 1.290E+03, 1.952E+02, 3.250E+02, 2.606E+02
 1.305E+03, 1.972E+02, 3.250E+02, 2.614E+02
 1.320E+03, 1.992E+02, 3.250E+02, 2.622E+02
 1.335E+03, 2.012E+02, 3.250E+02, 2.631E+02
 1.350E+03, 2.031E+02, 3.250E+02, 2.640E+02
 1.365E+03, 2.050E+02, 3.250E+02, 2.647E+02
 1.380E+03, 2.069E+02, 3.250E+02, 2.655E+02
 1.395E+03, 2.087E+02, 3.250E+02, 2.663E+02
 1.410E+03, 2.105E+02, 3.250E+02, 2.671E+02
 1.425E+03, 2.123E+02, 3.250E+02, 2.678E+02
 1.440E+03, 2.136E+02, 3.250E+02, 2.683E+02
 1.455E+03, 2.151E+02, 3.250E+02, 2.688E+02
 1.470E+03, 2.167E+02, 3.250E+02, 2.694E+02
 1.485E+03, 2.183E+02, 3.250E+02, 2.700E+02
 1.500E+03, 2.201E+02, 3.250E+02, 2.707E+02
 1.515E+03, 2.216E+02, 3.250E+02, 2.713E+02
 1.530E+03, 2.229E+02, 3.250E+02, 2.718E+02
 1.545E+03, 2.247E+02, 3.250E+02, 2.724E+02
 1.560E+03, 2.262E+02, 3.250E+02, 2.729E+02
 1.575E+03, 2.277E+02, 3.250E+02, 2.735E+02
 1.590E+03, 2.292E+02, 3.250E+02, 2.741E+02
 1.605E+03, 2.306E+02, 3.250E+02, 2.747E+02
 1.620E+03, 2.319E+02, 3.250E+02, 2.752E+02
 1.635E+03, 2.334E+02, 3.250E+02, 2.757E+02
 1.650E+03, 2.349E+02, 3.250E+02, 2.762E+02
 1.665E+03, 2.362E+02, 3.250E+02, 2.768E+02
 1.680E+03, 2.375E+02, 3.250E+02, 2.772E+02
 1.695E+03, 2.386E+02, 3.250E+02, 2.777E+02
 1.710E+03, 2.399E+02, 3.250E+02, 2.781E+02
 1.725E+03, 2.411E+02, 3.250E+02, 2.786E+02
 1.740E+03, 2.422E+02, 3.250E+02, 2.790E+02
 1.755E+03, 2.434E+02, 3.250E+02, 2.794E+02
 1.770E+03, 2.445E+02, 3.250E+02, 2.797E+02
 1.785E+03, 2.454E+02, 3.250E+02, 2.800E+02
 1.800E+03, 2.466E+02, 3.250E+02, 2.805E+02
 1.815E+03, 2.479E+02, 3.250E+02, 2.809E+02
 1.830E+03, 2.489E+02, 3.250E+02, 2.813E+02
 1.845E+03, 2.497E+02, 3.250E+02, 2.816E+02
 1.860E+03, 2.508E+02, 3.250E+02, 2.820E+02
 1.875E+03, 2.518E+02, 3.250E+02, 2.824E+02
 1.890E+03, 2.527E+02, 3.250E+02, 2.827E+02
 1.905E+03, 2.537E+02, 3.250E+02, 2.830E+02
 1.920E+03, 2.544E+02, 3.250E+02, 2.833E+02
 1.935E+03, 2.551E+02, 3.250E+02, 2.835E+02
 1.950E+03, 2.558E+02, 3.250E+02, 2.838E+02
 1.965E+03, 2.566E+02, 3.250E+02, 2.840E+02
 1.980E+03, 2.576E+02, 3.250E+02, 2.844E+02
 1.995E+03, 2.584E+02, 3.250E+02, 2.846E+02
 2.010E+03, 2.591E+02, 3.250E+02, 2.849E+02
 2.025E+03, 2.601E+02, 3.250E+02, 2.851E+02
 2.040E+03, 2.610E+02, 3.250E+02, 2.855E+02
 2.055E+03, 2.616E+02, 3.250E+02, 2.857E+02
 2.070E+03, 2.620E+02, 3.250E+02, 2.859E+02
 2.085E+03, 2.628E+02, 3.250E+02, 2.861E+02
 2.100E+03, 2.637E+02, 3.250E+02, 2.864E+02
 2.115E+03, 2.645E+02, 3.250E+02, 2.866E+02
 2.130E+03, 2.653E+02, 3.250E+02, 2.869E+02
 2.145E+03, 2.660E+02, 3.250E+02, 2.872E+02
 2.160E+03, 2.663E+02, 3.250E+02, 2.873E+02
 2.175E+03, 2.670E+02, 3.250E+02, 2.876E+02
 2.190E+03, 2.677E+02, 3.250E+02, 2.878E+02
 2.205E+03, 2.684E+02, 3.250E+02, 2.880E+02
 2.220E+03, 2.690E+02, 3.250E+02, 2.883E+02
 2.235E+03, 2.695E+02, 3.250E+02, 2.885E+02
 2.250E+03, 2.702E+02, 3.250E+02, 2.887E+02
 2.265E+03, 2.707E+02, 3.250E+02, 2.889E+02
 2.280E+03, 2.711E+02, 3.250E+02, 2.890E+02
 2.295E+03, 2.715E+02, 3.250E+02, 2.892E+02
 2.310E+03, 2.721E+02, 3.250E+02, 2.893E+02
 2.325E+03, 2.727E+02, 3.250E+02, 2.895E+02
 2.340E+03, 2.732E+02, 3.250E+02, 2.896E+02
 2.355E+03, 2.736E+02, 3.250E+02, 2.898E+02
 2.370E+03, 2.741E+02, 3.250E+02, 2.899E+02
 2.385E+03, 2.743E+02, 3.250E+02, 2.900E+02
 2.400E+03, 2.748E+02, 3.250E+02, 2.902E+02
 2.415E+03, 2.751E+02, 3.250E+02, 2.903E+02
 2.430E+03, 2.756E+02, 3.250E+02, 2.905E+02
 2.445E+03, 2.761E+02, 3.250E+02, 2.906E+02
 2.460E+03, 2.764E+02, 3.250E+02, 2.907E+02
 2.475E+03, 2.769E+02, 3.250E+02, 2.908E+02
 2.490E+03, 2.769E+02, 3.250E+02, 2.909E+02
 2.505E+03, 2.771E+02, 3.250E+02, 2.910E+02
 2.520E+03, 2.776E+02, 3.250E+02, 2.911E+02
 2.535E+03, 2.780E+02, 3.250E+02, 2.912E+02
 2.550E+03, 2.785E+02, 3.250E+02, 2.914E+02
 2.565E+03, 2.788E+02, 3.250E+02, 2.915E+02
 2.580E+03, 2.791E+02, 3.250E+02, 2.915E+02
 2.595E+03, 2.792E+02, 3.250E+02, 2.916E+02
 2.610E+03, 2.796E+02, 3.250E+02, 2.918E+02
 2.625E+03, 2.800E+02, 3.250E+02, 2.919E+02
 2.640E+03, 2.801E+02, 3.250E+02, 2.919E+02
 2.655E+03, 2.804E+02, 3.250E+02, 2.920E+02
 2.670E+03, 2.806E+02, 3.250E+02, 2.921E+02
 2.685E+03, 2.809E+02, 3.250E+02, 2.922E+02
 2.700E+03, 2.814E+02, 3.250E+02, 2.924E+02
 2.715E+03, 2.816E+02, 3.250E+02, 2.925E+02
 2.730E+03, 2.818E+02, 3.250E+02, 2.925E+02
 2.745E+03, 2.821E+02, 3.250E+02, 2.926E+02
 2.760E+03, 2.824E+02, 3.250E+02, 2.928E+02
 2.775E+03, 2.827E+02, 3.250E+02, 2.929E+02
 2.790E+03, 2.828E+02, 3.250E+02, 2.930E+02
 2.805E+03, 2.830E+02, 3.250E+02, 2.930E+02
 2.820E+03, 2.828E+02, 3.250E+02, 2.931E+02
 2.835E+03, 2.832E+02, 3.250E+02, 2.932E+02
 2.850E+03, 2.834E+02, 3.250E+02, 2.932E+02
 2.865E+03, 2.837E+02, 3.250E+02, 2.933E+02
 2.880E+03, 2.839E+02, 3.250E+02, 2.933E+02
 2.895E+03, 2.840E+02, 3.250E+02, 2.934E+02
 2.910E+03, 2.844E+02, 3.250E+02, 2.934E+02
 2.925E+03, 2.846E+02, 3.250E+02, 2.935E+02
 2.940E+03, 2.848E+02, 3.250E+02, 2.936E+02
 2.955E+03, 2.849E+02, 3.250E+02, 2.936E+02
 2.970E+03, 2.849E+02, 3.250E+02, 2.936E+02
 2.985E+03, 2.848E+02, 3.250E+02, 2.936E+02
 3.000E+03, 2.848E+02, 3.250E+02, 2.936E+02
 3.015E+03, 2.845E+02, 3.250E+02, 2.935E+02
 3.030E+03, 2.850E+02, 3.250E+02, 2.935E+02
 3.045E+03, 2.853E+02, 3.250E+02, 2.936E+02
 3.060E+03, 2.856E+02, 3.250E+02, 2.937E+02
 3.075E+03, 2.856E+02, 3.250E+02, 2.937E+02
 3.090E+03, 2.857E+02, 3.250E+02, 2.938E+02
 3.105E+03, 2.860E+02, 3.250E+02, 2.939E+02
 3.120E+03, 2.859E+02, 3.250E+02, 2.939E+02
 3.135E+03, 2.862E+02, 3.250E+02, 2.940E+02
 3.150E+03, 2.864E+02, 3.250E+02, 2.941E+02
 3.165E+03, 2.864E+02, 3.250E+02, 2.941E+02
 3.180E+03, 2.864E+02, 3.250E+02, 2.941E+02
 3.195E+03, 2.867E+02, 3.250E+02, 2.942E+02
 3.210E+03, 2.870E+02, 3.250E+02, 2.943E+02
 3.225E+03, 2.871E+02, 3.250E+02, 2.944E+02
 3.240E+03, 2.870E+02, 3.250E+02, 2.944E+02
 3.255E+03, 2.869E+02, 3.250E+02, 2.944E+02
 3.270E+03, 2.871E+02, 3.250E+02, 2.944E+02
 3.285E+03, 2.872E+02, 3.250E+02, 2.945E+02
 3.300E+03, 2.875E+02, 3.250E+02, 2.946E+02
 3.315E+03, 2.877E+02, 3.250E+02, 2.946E+02
 3.330E+03, 2.877E+02, 3.250E+02, 2.946E+02
 3.345E+03, 2.876E+02, 3.250E+02, 2.946E+02
 3.360E+03, 2.878E+02, 3.250E+02, 2.946E+02
 3.375E+03, 2.874E+02, 3.139E+02, 2.945E+02
 3.390E+03, 2.870E+02, 2.918E+02, 2.936E+02
 3.405E+03, 2.868E+02, 2.698E+02, 2.922E+02
 3.420E+03, 2.866E+02, 2.477E+02, 2.902E+02
 3.435E+03, 2.862E+02, 2.257E+02, 2.877E+02
 3.450E+03, 2.858E+02, 2.036E+02, 2.849E+02
 3.465E+03, 2.852E+02, 1.828E+02, 2.818E+02
 3.480E+03, 2.841E+02, 1.780E+02, 2.785E+02
 3.495E+03, 2.827E+02, 1.780E+02, 2.752E+02
 3.510E+03, 2.815E+02, 1.780E+02, 2.722E+02
 3.525E+03, 2.804E+02, 1.780E+02, 2.692E+02
 3.540E+03, 2.794E+02, 1.780E+02, 2.664E+02
 3.555E+03, 2.782E+02, 1.780E+02, 2.636E+02
 3.570E+03, 2.763E+02, 1.780E+02, 2.609E+02
 3.585E+03, 2.750E+02, 1.780E+02, 2.583E+02
 3.600E+03, 2.741E+02, 1.780E+02, 2.558E+02
