s,C,C
Time,"Cable Temp","Shroud Temp"
 0.000E+00, 2.000E+01, 2.000E+01
 1.509E+01, 2.015E+01, 6.683E+01
 3.000E+01, 2.227E+01, 1.591E+02
 4.504E+01, 2.888E+01, 2.512E+02
 6.004E+01, 4.172E+01, 3.219E+02
 7.504E+01, 5.633E+01, 3.233E+02
 9.002E+01, 6.760E+01, 3.196E+02
 1.050E+02, 7.679E+01, 3.158E+02
 1.201E+02, 8.459E+01, 3.120E+02
 1.350E+02, 9.132E+01, 3.082E+02
 1.500E+02, 9.723E+01, 3.052E+02
 1.650E+02, 1.026E+02, 3.050E+02
 1.800E+02, 1.078E+02, 3.050E+02
 1.950E+02, 1.128E+02, 3.050E+02
 2.100E+02, 1.175E+02, 3.050E+02
 2.250E+02, 1.221E+02, 3.050E+02
 2.400E+02, 1.265E+02, 3.050E+02
 2.550E+02, 1.308E+02, 3.050E+02
 2.700E+02, 1.349E+02, 3.050E+02
 2.850E+02, 1.388E+02, 3.050E+02
 3.000E+02, 1.428E+02, 3.050E+02
 3.150E+02, 1.466E+02, 3.050E+02
 3.300E+02, 1.502E+02, 3.050E+02
 3.451E+02, 1.538E+02, 3.050E+02
 3.601E+02, 1.572E+02, 3.050E+02
 3.750E+02, 1.605E+02, 3.050E+02
 3.900E+02, 1.638E+02, 3.050E+02
 4.050E+02, 1.669E+02, 3.050E+02
 4.200E+02, 1.700E+02, 3.050E+02
 4.350E+02, 1.727E+02, 3.050E+02
 4.500E+02, 1.757E+02, 3.050E+02
 4.650E+02, 1.786E+02, 3.050E+02
 4.800E+02, 1.813E+02, 3.050E+02
 4.951E+02, 1.839E+02, 3.050E+02
 5.100E+02, 1.864E+02, 3.050E+02
 5.250E+02, 1.888E+02, 3.050E+02
 5.401E+02, 1.912E+02, 3.050E+02
 5.550E+02, 1.933E+02, 3.050E+02
 5.700E+02, 1.955E+02, 3.050E+02
 5.850E+02, 1.977E+02, 3.050E+02
 6.000E+02, 2.001E+02, 3.050E+02
 6.151E+02, 2.021E+02, 3.050E+02
 6.300E+02, 2.040E+02, 3.050E+02
 6.450E+02, 2.058E+02, 3.050E+02
 6.600E+02, 2.075E+02, 3.050E+02
 6.750E+02, 2.092E+02, 3.050E+02
 6.900E+02, 2.110E+02, 3.050E+02
 7.050E+02, 2.125E+02, 3.050E+02
 7.200E+02, 2.140E+02, 3.050E+02
 7.350E+02, 2.157E+02, 3.050E+02
 7.500E+02, 2.174E+02, 3.050E+02
 7.650E+02, 2.185E+02, 3.050E+02
 7.800E+02, 2.198E+02, 3.050E+02
 7.950E+02, 2.213E+02, 3.050E+02
 8.100E+02, 2.226E+02, 3.050E+02
 8.250E+02, 2.238E+02, 3.050E+02
 8.400E+02, 2.250E+02, 3.050E+02
 8.550E+02, 2.262E+02, 3.050E+02
 8.700E+02, 2.277E+02, 3.050E+02
 8.850E+02, 2.287E+02, 3.050E+02
 9.000E+02, 2.299E+02, 3.050E+02
 9.150E+02, 2.312E+02, 3.050E+02
 9.301E+02, 2.322E+02, 3.050E+02
 9.450E+02, 2.332E+02, 3.050E+02
 9.600E+02, 2.339E+02, 3.050E+02
 9.750E+02, 2.349E+02, 3.050E+02
 9.900E+02, 2.360E+02, 3.050E+02
 1.005E+03, 2.368E+02, 3.050E+02
 1.020E+03, 2.376E+02, 3.050E+02
 1.035E+03, 2.383E+02, 3.050E+02
 1.050E+03, 2.390E+02, 3.050E+02
 1.065E+03, 2.396E+02, 3.050E+02
 1.080E+03, 2.403E+02, 3.050E+02
 1.095E+03, 2.408E+02, 3.050E+02
 1.110E+03, 2.412E+02, 3.050E+02
 1.125E+03, 2.421E+02, 3.050E+02
 1.140E+03, 2.427E+02, 3.050E+02
 1.155E+03, 2.434E+02, 3.050E+02
 1.170E+03, 2.441E+02, 3.050E+02
 1.185E+03, 2.447E+02, 3.050E+02
 1.200E+03, 2.452E+02, 3.050E+02
 1.215E+03, 2.459E+02, 3.050E+02
 1.230E+03, 2.463E+02, 3.050E+02
 1.245E+03, 2.466E+02, 3.050E+02
 1.260E+03, 2.474E+02, 3.050E+02
 1.275E+03, 2.478E+02, 3.050E+02
 1.290E+03, 2.485E+02, 3.050E+02
 1.305E+03, 2.488E+02, 3.050E+02
 1.320E+03, 2.492E+02, 3.050E+02
 1.335E+03, 2.496E+02, 3.050E+02
 1.350E+03, 2.497E+02, 3.050E+02
 1.365E+03, 2.502E+02, 3.050E+02
 1.380E+03, 2.507E+02, 3.050E+02
 1.395E+03, 2.510E+02, 3.050E+02
 1.410E+03, 2.514E+02, 3.050E+02
 1.425E+03, 2.517E+02, 3.050E+02
 1.440E+03, 2.522E+02, 3.050E+02
 1.455E+03, 2.525E+02, 3.050E+02
 1.470E+03, 2.527E+02, 3.050E+02
 1.485E+03, 2.528E+02, 3.050E+02
 1.500E+03, 2.532E+02, 3.050E+02
 1.515E+03, 2.530E+02, 3.050E+02
 1.530E+03, 2.533E+02, 3.050E+02
 1.545E+03, 2.534E+02, 3.050E+02
 1.560E+03, 2.537E+02, 3.050E+02
 1.575E+03, 2.539E+02, 3.050E+02
 1.590E+03, 2.540E+02, 3.050E+02
 1.605E+03, 2.544E+02, 3.050E+02
 1.620E+03, 2.545E+02, 3.050E+02
 1.635E+03, 2.546E+02, 3.050E+02
 1.650E+03, 2.549E+02, 3.050E+02
 1.665E+03, 2.551E+02, 3.050E+02
 1.680E+03, 2.552E+02, 3.050E+02
 1.695E+03, 2.554E+02, 3.050E+02
 1.710E+03, 2.557E+02, 3.050E+02
 1.725E+03, 2.561E+02, 3.050E+02
 1.740E+03, 2.561E+02, 3.050E+02
 1.755E+03, 2.561E+02, 3.050E+02
 1.770E+03, 2.563E+02, 3.050E+02
 1.785E+03, 2.569E+02, 3.050E+02
 1.800E+03, 2.570E+02, 3.050E+02
 1.815E+03, 2.571E+02, 3.050E+02
 1.830E+03, 2.572E+02, 3.050E+02
 1.845E+03, 2.574E+02, 3.050E+02
 1.860E+03, 2.574E+02, 3.050E+02
 1.875E+03, 2.576E+02, 3.050E+02
 1.890E+03, 2.576E+02, 3.050E+02
 1.905E+03, 2.577E+02, 3.050E+02
 1.920E+03, 2.578E+02, 3.050E+02
 1.935E+03, 2.581E+02, 3.050E+02
 1.950E+03, 2.582E+02, 3.050E+02
 1.965E+03, 2.580E+02, 3.050E+02
 1.980E+03, 2.580E+02, 3.050E+02
 1.995E+03, 2.579E+02, 3.050E+02
 2.010E+03, 2.580E+02, 3.050E+02
 2.025E+03, 2.583E+02, 3.050E+02
 2.040E+03, 2.582E+02, 3.050E+02
 2.055E+03, 2.582E+02, 3.050E+02
 2.070E+03, 2.584E+02, 3.050E+02
 2.085E+03, 2.586E+02, 3.050E+02
 2.100E+03, 2.587E+02, 3.040E+02
 2.115E+03, 2.585E+02, 2.996E+02
 2.130E+03, 2.579E+02, 2.949E+02
 2.145E+03, 2.568E+02, 2.903E+02
 2.160E+03, 2.558E+02, 2.856E+02
 2.175E+03, 2.547E+02, 2.810E+02
 2.190E+03, 2.532E+02, 2.763E+02
 2.205E+03, 2.517E+02, 2.717E+02
 2.220E+03, 2.501E+02, 2.670E+02
 2.235E+03, 2.481E+02, 2.624E+02
 2.250E+03, 2.465E+02, 2.577E+02
 2.265E+03, 2.448E+02, 2.531E+02
 2.280E+03, 2.431E+02, 2.484E+02
 2.295E+03, 2.411E+02, 2.438E+02
 2.310E+03, 2.392E+02, 2.392E+02
 2.325E+03, 2.371E+02, 2.348E+02
 2.340E+03, 2.352E+02, 2.338E+02
 2.355E+03, 2.334E+02, 2.337E+02
 2.370E+03, 2.319E+02, 2.338E+02
 2.385E+03, 2.304E+02, 2.337E+02
 2.400E+03, 2.292E+02, 2.338E+02
