s,C,C,C
Time,"Cable Temp","Shroud Temp","Conduit"
 0.000E+00, 3.100E+01, 3.100E+01, 3.100E+01
 1.503E+01, 3.100E+01, 6.850E+01, 3.106E+01
 3.003E+01, 3.100E+01, 1.423E+02, 3.162E+01
 4.502E+01, 3.103E+01, 2.164E+02, 3.324E+01
 6.003E+01, 3.109E+01, 2.903E+02, 3.648E+01
 7.501E+01, 3.120E+01, 3.642E+02, 4.200E+01
 9.001E+01, 3.144E+01, 4.381E+02, 5.072E+01
 1.050E+02, 3.185E+01, 4.750E+02, 6.294E+01
 1.200E+02, 3.246E+01, 4.750E+02, 7.566E+01
 1.350E+02, 3.320E+01, 4.750E+02, 8.817E+01
 1.500E+02, 3.405E+01, 4.750E+02, 1.004E+02
 1.650E+02, 3.506E+01, 4.750E+02, 1.124E+02
 1.800E+02, 3.631E+01, 4.750E+02, 1.242E+02
 1.950E+02, 3.776E+01, 4.750E+02, 1.357E+02
 2.100E+02, 3.940E+01, 4.750E+02, 1.470E+02
 2.250E+02, 4.130E+01, 4.750E+02, 1.579E+02
 2.400E+02, 4.342E+01, 4.750E+02, 1.686E+02
 2.550E+02, 4.567E+01, 4.750E+02, 1.791E+02
 2.700E+02, 4.802E+01, 4.750E+02, 1.893E+02
 2.850E+02, 5.057E+01, 4.750E+02, 1.991E+02
 3.000E+02, 5.329E+01, 4.750E+02, 2.088E+02
 3.150E+02, 5.625E+01, 4.750E+02, 2.181E+02
 3.300E+02, 5.941E+01, 4.750E+02, 2.273E+02
 3.450E+02, 6.272E+01, 4.750E+02, 2.361E+02
 3.600E+02, 6.625E+01, 4.750E+02, 2.447E+02
 3.750E+02, 7.004E+01, 4.750E+02, 2.530E+02
 3.900E+02, 7.403E+01, 4.750E+02, 2.611E+02
 4.050E+02, 7.820E+01, 4.750E+02, 2.689E+02
 4.200E+02, 8.252E+01, 4.750E+02, 2.764E+02
 4.350E+02, 8.705E+01, 4.750E+02, 2.837E+02
 4.500E+02, 9.180E+01, 4.750E+02, 2.906E+02
 4.650E+02, 9.668E+01, 4.750E+02, 2.974E+02
 4.800E+02, 1.017E+02, 4.750E+02, 3.039E+02
 4.950E+02, 1.068E+02, 4.750E+02, 3.101E+02
 5.100E+02, 1.121E+02, 4.750E+02, 3.161E+02
 5.250E+02, 1.175E+02, 4.750E+02, 3.218E+02
 5.400E+02, 1.231E+02, 4.750E+02, 3.271E+02
 5.550E+02, 1.288E+02, 4.750E+02, 3.323E+02
 5.700E+02, 1.346E+02, 4.750E+02, 3.373E+02
 5.850E+02, 1.404E+02, 4.750E+02, 3.420E+02
 6.000E+02, 1.462E+02, 4.750E+02, 3.466E+02
 6.150E+02, 1.521E+02, 4.750E+02, 3.510E+02
 6.300E+02, 1.580E+02, 4.750E+02, 3.551E+02
 6.450E+02, 1.640E+02, 4.750E+02, 3.589E+02
 6.600E+02, 1.700E+02, 4.750E+02, 3.627E+02
 6.750E+02, 1.760E+02, 4.750E+02, 3.662E+02
 6.900E+02, 1.819E+02, 4.750E+02, 3.697E+02
 7.050E+02, 1.878E+02, 4.750E+02, 3.731E+02
 7.200E+02, 1.937E+02, 4.750E+02, 3.763E+02
 7.350E+02, 1.996E+02, 4.750E+02, 3.792E+02
 7.500E+02, 2.055E+02, 4.750E+02, 3.819E+02
 7.650E+02, 2.113E+02, 4.750E+02, 3.847E+02
 7.800E+02, 2.170E+02, 4.750E+02, 3.872E+02
 7.950E+02, 2.227E+02, 4.750E+02, 3.897E+02
 8.100E+02, 2.283E+02, 4.750E+02, 3.920E+02
 8.250E+02, 2.338E+02, 4.750E+02, 3.943E+02
 8.400E+02, 2.393E+02, 4.750E+02, 3.963E+02
 8.550E+02, 2.446E+02, 4.750E+02, 3.984E+02
 8.700E+02, 2.499E+02, 4.750E+02, 4.003E+02
 8.850E+02, 2.550E+02, 4.750E+02, 4.022E+02
 9.000E+02, 2.601E+02, 4.750E+02, 4.039E+02
 9.150E+02, 2.652E+02, 4.750E+02, 4.056E+02
 9.300E+02, 2.700E+02, 4.750E+02, 4.072E+02
 9.450E+02, 2.748E+02, 4.750E+02, 4.087E+02
 9.600E+02, 2.796E+02, 4.750E+02, 4.102E+02
 9.750E+02, 2.842E+02, 4.750E+02, 4.114E+02
 9.900E+02, 2.886E+02, 4.750E+02, 4.127E+02
 1.005E+03, 2.929E+02, 4.750E+02, 4.137E+02
 1.020E+03, 2.972E+02, 4.750E+02, 4.147E+02
 1.035E+03, 3.013E+02, 4.750E+02, 4.159E+02
 1.050E+03, 3.053E+02, 4.750E+02, 4.172E+02
 1.065E+03, 3.093E+02, 4.750E+02, 4.182E+02
 1.080E+03, 3.132E+02, 4.750E+02, 4.193E+02
 1.095E+03, 3.170E+02, 4.750E+02, 4.203E+02
 1.110E+03, 3.207E+02, 4.750E+02, 4.211E+02
 1.125E+03, 3.243E+02, 4.750E+02, 4.220E+02
 1.140E+03, 3.278E+02, 4.750E+02, 4.230E+02
 1.155E+03, 3.313E+02, 4.750E+02, 4.238E+02
 1.170E+03, 3.346E+02, 4.750E+02, 4.245E+02
 1.185E+03, 3.378E+02, 4.750E+02, 4.252E+02
 1.200E+03, 3.409E+02, 4.750E+02, 4.259E+02
 1.215E+03, 3.439E+02, 4.750E+02, 4.267E+02
 1.230E+03, 3.469E+02, 4.750E+02, 4.275E+02
 1.245E+03, 3.498E+02, 4.750E+02, 4.281E+02
 1.260E+03, 3.526E+02, 4.750E+02, 4.287E+02
 1.275E+03, 3.553E+02, 4.750E+02, 4.293E+02
 1.290E+03, 3.580E+02, 4.750E+02, 4.298E+02
 1.305E+03, 3.605E+02, 4.750E+02, 4.303E+02
 1.320E+03, 3.630E+02, 4.750E+02, 4.309E+02
 1.335E+03, 3.655E+02, 4.750E+02, 4.314E+02
 1.350E+03, 3.678E+02, 4.750E+02, 4.318E+02
 1.365E+03, 3.699E+02, 4.750E+02, 4.322E+02
 1.380E+03, 3.721E+02, 4.750E+02, 4.326E+02
 1.395E+03, 3.742E+02, 4.750E+02, 4.331E+02
 1.410E+03, 3.763E+02, 4.750E+02, 4.334E+02
 1.425E+03, 3.783E+02, 4.750E+02, 4.338E+02
 1.440E+03, 3.802E+02, 4.750E+02, 4.341E+02
 1.455E+03, 3.821E+02, 4.750E+02, 4.345E+02
 1.470E+03, 3.839E+02, 4.750E+02, 4.348E+02
 1.485E+03, 3.857E+02, 4.750E+02, 4.351E+02
 1.500E+03, 3.874E+02, 4.750E+02, 4.354E+02
 1.515E+03, 3.890E+02, 4.750E+02, 4.356E+02
 1.530E+03, 3.906E+02, 4.750E+02, 4.360E+02
 1.545E+03, 3.922E+02, 4.750E+02, 4.365E+02
 1.560E+03, 3.938E+02, 4.750E+02, 4.369E+02
 1.575E+03, 3.953E+02, 4.750E+02, 4.371E+02
 1.590E+03, 3.968E+02, 4.750E+02, 4.375E+02
 1.605E+03, 3.982E+02, 4.750E+02, 4.378E+02
 1.620E+03, 3.996E+02, 4.750E+02, 4.381E+02
 1.635E+03, 4.009E+02, 4.750E+02, 4.384E+02
 1.650E+03, 4.022E+02, 4.750E+02, 4.387E+02
 1.665E+03, 4.035E+02, 4.750E+02, 4.389E+02
 1.680E+03, 4.047E+02, 4.750E+02, 4.391E+02
 1.695E+03, 4.058E+02, 4.750E+02, 4.393E+02
 1.710E+03, 4.069E+02, 4.750E+02, 4.394E+02
 1.725E+03, 4.080E+02, 4.750E+02, 4.397E+02
 1.740E+03, 4.090E+02, 4.750E+02, 4.398E+02
 1.755E+03, 4.099E+02, 4.750E+02, 4.399E+02
 1.770E+03, 4.108E+02, 4.750E+02, 4.400E+02
 1.785E+03, 4.117E+02, 4.750E+02, 4.403E+02
 1.800E+03, 4.126E+02, 4.750E+02, 4.404E+02
 1.815E+03, 4.135E+02, 4.750E+02, 4.406E+02
 1.830E+03, 4.144E+02, 4.750E+02, 4.408E+02
 1.845E+03, 4.152E+02, 4.750E+02, 4.409E+02
 1.860E+03, 4.160E+02, 4.750E+02, 4.410E+02
 1.875E+03, 4.167E+02, 4.750E+02, 4.411E+02
 1.890E+03, 4.175E+02, 4.750E+02, 4.413E+02
 1.905E+03, 4.182E+02, 4.750E+02, 4.415E+02
 1.920E+03, 4.189E+02, 4.750E+02, 4.416E+02
 1.935E+03, 4.196E+02, 4.750E+02, 4.417E+02
 1.950E+03, 4.202E+02, 4.750E+02, 4.417E+02
 1.965E+03, 4.206E+02, 4.750E+02, 4.417E+02
 1.980E+03, 4.212E+02, 4.750E+02, 4.418E+02
 1.995E+03, 4.218E+02, 4.750E+02, 4.419E+02
 2.010E+03, 4.224E+02, 4.750E+02, 4.421E+02
 2.025E+03, 4.231E+02, 4.750E+02, 4.423E+02
 2.040E+03, 4.237E+02, 4.750E+02, 4.425E+02
 2.055E+03, 4.243E+02, 4.750E+02, 4.426E+02
 2.070E+03, 4.249E+02, 4.750E+02, 4.427E+02
 2.085E+03, 4.254E+02, 4.750E+02, 4.429E+02
 2.100E+03, 4.259E+02, 4.750E+02, 4.430E+02
 2.115E+03, 4.264E+02, 4.750E+02, 4.431E+02
 2.130E+03, 4.268E+02, 4.750E+02, 4.430E+02
 2.145E+03, 4.271E+02, 4.750E+02, 4.428E+02
 2.160E+03, 4.273E+02, 4.750E+02, 4.428E+02
 2.175E+03, 4.277E+02, 4.750E+02, 4.428E+02
 2.190E+03, 4.280E+02, 4.750E+02, 4.429E+02
 2.205E+03, 4.284E+02, 4.750E+02, 4.430E+02
 2.220E+03, 4.288E+02, 4.750E+02, 4.432E+02
 2.235E+03, 4.292E+02, 4.750E+02, 4.434E+02
 2.250E+03, 4.297E+02, 4.750E+02, 4.436E+02
 2.265E+03, 4.301E+02, 4.750E+02, 4.437E+02
 2.280E+03, 4.304E+02, 4.750E+02, 4.437E+02
 2.295E+03, 4.307E+02, 4.750E+02, 4.439E+02
 2.310E+03, 4.311E+02, 4.750E+02, 4.439E+02
 2.325E+03, 4.313E+02, 4.750E+02, 4.438E+02
 2.340E+03, 4.315E+02, 4.750E+02, 4.439E+02
 2.355E+03, 4.318E+02, 4.750E+02, 4.439E+02
 2.370E+03, 4.320E+02, 4.750E+02, 4.439E+02
 2.385E+03, 4.323E+02, 4.750E+02, 4.440E+02
 2.400E+03, 4.326E+02, 4.750E+02, 4.440E+02
 2.415E+03, 4.328E+02, 4.750E+02, 4.441E+02
 2.430E+03, 4.330E+02, 4.750E+02, 4.440E+02
 2.445E+03, 4.332E+02, 4.750E+02, 4.440E+02
 2.460E+03, 4.334E+02, 4.750E+02, 4.441E+02
 2.475E+03, 4.337E+02, 4.750E+02, 4.442E+02
 2.490E+03, 4.338E+02, 4.750E+02, 4.442E+02
 2.505E+03, 4.339E+02, 4.750E+02, 4.441E+02
 2.520E+03, 4.339E+02, 4.750E+02, 4.440E+02
 2.535E+03, 4.340E+02, 4.750E+02, 4.441E+02
 2.550E+03, 4.343E+02, 4.750E+02, 4.442E+02
 2.565E+03, 4.346E+02, 4.750E+02, 4.443E+02
 2.580E+03, 4.348E+02, 4.750E+02, 4.443E+02
 2.595E+03, 4.349E+02, 4.750E+02, 4.442E+02
 2.610E+03, 4.349E+02, 4.750E+02, 4.442E+02
 2.625E+03, 4.350E+02, 4.750E+02, 4.442E+02
 2.640E+03, 4.352E+02, 4.750E+02, 4.443E+02
 2.655E+03, 4.355E+02, 4.750E+02, 4.443E+02
 2.670E+03, 4.356E+02, 4.750E+02, 4.443E+02
 2.685E+03, 4.357E+02, 4.750E+02, 4.443E+02
 2.700E+03, 4.358E+02, 4.750E+02, 4.444E+02
 2.715E+03, 4.360E+02, 4.750E+02, 4.445E+02
 2.730E+03, 4.361E+02, 4.750E+02, 4.444E+02
 2.745E+03, 4.361E+02, 4.750E+02, 4.445E+02
 2.760E+03, 4.362E+02, 4.750E+02, 4.445E+02
 2.775E+03, 4.363E+02, 4.750E+02, 4.444E+02
 2.790E+03, 4.364E+02, 4.750E+02, 4.445E+02
 2.805E+03, 4.365E+02, 4.750E+02, 4.446E+02
 2.820E+03, 4.366E+02, 4.750E+02, 4.446E+02
 2.835E+03, 4.367E+02, 4.750E+02, 4.447E+02
 2.850E+03, 4.369E+02, 4.750E+02, 4.447E+02
 2.865E+03, 4.369E+02, 4.750E+02, 4.447E+02
 2.880E+03, 4.370E+02, 4.750E+02, 4.448E+02
 2.895E+03, 4.372E+02, 4.750E+02, 4.447E+02
 2.910E+03, 4.372E+02, 4.750E+02, 4.447E+02
 2.925E+03, 4.373E+02, 4.750E+02, 4.448E+02
 2.940E+03, 4.373E+02, 4.750E+02, 4.447E+02
 2.955E+03, 4.374E+02, 4.750E+02, 4.447E+02
 2.970E+03, 4.374E+02, 4.750E+02, 4.446E+02
 2.985E+03, 4.374E+02, 4.715E+02, 4.445E+02
 3.000E+03, 4.374E+02, 4.646E+02, 4.439E+02
 3.015E+03, 4.373E+02, 4.576E+02, 4.430E+02
 3.030E+03, 4.372E+02, 4.507E+02, 4.417E+02
 3.045E+03, 4.370E+02, 4.438E+02, 4.401E+02
 3.060E+03, 4.368E+02, 4.368E+02, 4.383E+02
 3.075E+03, 4.365E+02, 4.299E+02, 4.363E+02
 3.090E+03, 4.363E+02, 4.230E+02, 4.341E+02
 3.105E+03, 4.359E+02, 4.160E+02, 4.316E+02
 3.120E+03, 4.353E+02, 4.091E+02, 4.288E+02
 3.135E+03, 4.346E+02, 4.021E+02, 4.260E+02
 3.150E+03, 4.338E+02, 3.952E+02, 4.228E+02
 3.165E+03, 4.327E+02, 3.883E+02, 4.197E+02
 3.180E+03, 4.317E+02, 3.813E+02, 4.164E+02
 3.195E+03, 4.307E+02, 3.744E+02, 4.131E+02
 3.210E+03, 4.295E+02, 3.674E+02, 4.096E+02
 3.225E+03, 4.282E+02, 3.605E+02, 4.061E+02
 3.240E+03, 4.269E+02, 3.536E+02, 4.026E+02
 3.255E+03, 4.254E+02, 3.466E+02, 3.988E+02
 3.270E+03, 4.238E+02, 3.397E+02, 3.950E+02
 3.285E+03, 4.221E+02, 3.328E+02, 3.913E+02
 3.300E+03, 4.203E+02, 3.258E+02, 3.874E+02
 3.315E+03, 4.185E+02, 3.189E+02, 3.834E+02
 3.330E+03, 4.165E+02, 3.119E+02, 3.794E+02
 3.345E+03, 4.142E+02, 3.050E+02, 3.753E+02
 3.360E+03, 4.120E+02, 2.981E+02, 3.713E+02
 3.375E+03, 4.099E+02, 2.911E+02, 3.674E+02
 3.390E+03, 4.077E+02, 2.842E+02, 3.635E+02
 3.405E+03, 4.057E+02, 2.773E+02, 3.595E+02
 3.420E+03, 4.036E+02, 2.703E+02, 3.555E+02
 3.435E+03, 4.011E+02, 2.634E+02, 3.514E+02
 3.450E+03, 3.986E+02, 2.565E+02, 3.473E+02
 3.465E+03, 3.963E+02, 2.530E+02, 3.435E+02
 3.480E+03, 3.941E+02, 2.530E+02, 3.398E+02
 3.495E+03, 3.919E+02, 2.530E+02, 3.362E+02
 3.510E+03, 3.895E+02, 2.530E+02, 3.327E+02
 3.525E+03, 3.869E+02, 2.530E+02, 3.293E+02
 3.540E+03, 3.842E+02, 2.530E+02, 3.260E+02
 3.555E+03, 3.817E+02, 2.530E+02, 3.230E+02
 3.570E+03, 3.792E+02, 2.530E+02, 3.200E+02
 3.585E+03, 3.767E+02, 2.530E+02, 3.172E+02
 3.600E+03, 3.743E+02, 2.530E+02, 3.144E+02
