s,C,C
Time,"Cable Temp","Shroud Temp"
 0.000E+00, 2.400E+01, 2.400E+01
 1.501E+01, 2.401E+01, 5.859E+01
 3.002E+01, 2.429E+01, 1.271E+02
 4.500E+01, 2.543E+01, 1.958E+02
 6.002E+01, 2.801E+01, 2.653E+02
 7.500E+01, 3.271E+01, 3.066E+02
 9.001E+01, 3.921E+01, 3.189E+02
 1.050E+02, 4.634E+01, 3.183E+02
 1.200E+02, 5.325E+01, 3.138E+02
 1.350E+02, 5.957E+01, 3.092E+02
 1.500E+02, 6.525E+01, 3.047E+02
 1.650E+02, 7.035E+01, 3.006E+02
 1.800E+02, 7.498E+01, 3.000E+02
 1.950E+02, 7.932E+01, 3.000E+02
 2.100E+02, 8.346E+01, 3.000E+02
 2.250E+02, 8.747E+01, 3.000E+02
 2.400E+02, 9.131E+01, 3.000E+02
 2.550E+02, 9.509E+01, 3.000E+02
 2.700E+02, 9.879E+01, 3.000E+02
 2.850E+02, 1.024E+02, 3.000E+02
 3.000E+02, 1.060E+02, 3.000E+02
 3.150E+02, 1.093E+02, 3.000E+02
 3.300E+02, 1.126E+02, 3.000E+02
 3.450E+02, 1.159E+02, 3.000E+02
 3.600E+02, 1.191E+02, 3.000E+02
 3.750E+02, 1.223E+02, 3.000E+02
 3.900E+02, 1.254E+02, 3.000E+02
 4.050E+02, 1.284E+02, 3.000E+02
 4.200E+02, 1.314E+02, 3.000E+02
 4.350E+02, 1.343E+02, 3.000E+02
 4.500E+02, 1.371E+02, 3.000E+02
 4.650E+02, 1.399E+02, 3.000E+02
 4.800E+02, 1.426E+02, 3.000E+02
 4.950E+02, 1.452E+02, 3.000E+02
 5.100E+02, 1.477E+02, 3.000E+02
 5.250E+02, 1.502E+02, 3.000E+02
 5.400E+02, 1.527E+02, 3.000E+02
 5.550E+02, 1.552E+02, 3.000E+02
 5.700E+02, 1.576E+02, 3.000E+02
 5.850E+02, 1.600E+02, 3.000E+02
 6.000E+02, 1.621E+02, 3.000E+02
 6.150E+02, 1.642E+02, 3.000E+02
 6.300E+02, 1.664E+02, 3.000E+02
 6.450E+02, 1.685E+02, 3.000E+02
 6.600E+02, 1.706E+02, 3.000E+02
 6.750E+02, 1.726E+02, 3.000E+02
 6.900E+02, 1.746E+02, 3.000E+02
 7.050E+02, 1.764E+02, 3.000E+02
 7.200E+02, 1.781E+02, 3.000E+02
 7.350E+02, 1.798E+02, 3.000E+02
 7.500E+02, 1.815E+02, 3.000E+02
 7.650E+02, 1.833E+02, 3.000E+02
 7.800E+02, 1.850E+02, 3.000E+02
 7.950E+02, 1.867E+02, 3.000E+02
 8.100E+02, 1.881E+02, 3.000E+02
 8.250E+02, 1.895E+02, 3.000E+02
 8.400E+02, 1.911E+02, 3.000E+02
 8.550E+02, 1.926E+02, 3.000E+02
 8.700E+02, 1.941E+02, 3.000E+02
 8.850E+02, 1.955E+02, 3.000E+02
 9.000E+02, 1.969E+02, 3.000E+02
 9.150E+02, 1.983E+02, 3.000E+02
 9.300E+02, 1.996E+02, 3.000E+02
 9.450E+02, 2.009E+02, 3.000E+02
 9.600E+02, 2.022E+02, 3.000E+02
 9.750E+02, 2.033E+02, 3.000E+02
 9.900E+02, 2.044E+02, 3.000E+02
 1.005E+03, 2.054E+02, 3.000E+02
 1.020E+03, 2.065E+02, 3.000E+02
 1.035E+03, 2.077E+02, 3.000E+02
 1.050E+03, 2.089E+02, 3.000E+02
 1.065E+03, 2.101E+02, 3.000E+02
 1.080E+03, 2.112E+02, 3.000E+02
 1.095E+03, 2.123E+02, 3.000E+02
 1.110E+03, 2.133E+02, 3.000E+02
 1.125E+03, 2.141E+02, 3.000E+02
 1.140E+03, 2.150E+02, 3.000E+02
 1.155E+03, 2.158E+02, 3.000E+02
 1.170E+03, 2.167E+02, 3.000E+02
 1.185E+03, 2.176E+02, 3.000E+02
 1.200E+03, 2.185E+02, 3.000E+02
 1.215E+03, 2.193E+02, 3.000E+02
 1.230E+03, 2.200E+02, 3.000E+02
 1.245E+03, 2.207E+02, 3.000E+02
 1.260E+03, 2.215E+02, 3.000E+02
 1.275E+03, 2.222E+02, 3.000E+02
 1.290E+03, 2.229E+02, 3.000E+02
 1.305E+03, 2.236E+02, 3.000E+02
 1.320E+03, 2.243E+02, 3.000E+02
 1.335E+03, 2.249E+02, 3.000E+02
 1.350E+03, 2.255E+02, 3.000E+02
 1.365E+03, 2.261E+02, 3.000E+02
 1.380E+03, 2.266E+02, 3.000E+02
 1.395E+03, 2.272E+02, 3.000E+02
 1.410E+03, 2.278E+02, 3.000E+02
 1.425E+03, 2.284E+02, 3.000E+02
 1.440E+03, 2.290E+02, 3.000E+02
 1.455E+03, 2.294E+02, 3.000E+02
 1.470E+03, 2.298E+02, 3.000E+02
 1.485E+03, 2.304E+02, 3.000E+02
 1.500E+03, 2.309E+02, 2.964E+02
 1.515E+03, 2.312E+02, 2.891E+02
 1.530E+03, 2.312E+02, 2.819E+02
 1.545E+03, 2.311E+02, 2.746E+02
 1.560E+03, 2.306E+02, 2.674E+02
 1.575E+03, 2.300E+02, 2.601E+02
 1.590E+03, 2.291E+02, 2.529E+02
 1.605E+03, 2.280E+02, 2.456E+02
 1.620E+03, 2.268E+02, 2.384E+02
 1.635E+03, 2.254E+02, 2.312E+02
 1.650E+03, 2.240E+02, 2.239E+02
 1.665E+03, 2.225E+02, 2.167E+02
 1.680E+03, 2.208E+02, 2.094E+02
 1.695E+03, 2.191E+02, 2.038E+02
 1.710E+03, 2.174E+02, 2.034E+02
 1.725E+03, 2.157E+02, 2.034E+02
 1.740E+03, 2.141E+02, 2.034E+02
 1.755E+03, 2.127E+02, 2.034E+02
 1.770E+03, 2.114E+02, 2.034E+02
 1.785E+03, 2.101E+02, 2.034E+02
 1.800E+03, 2.089E+02, 2.034E+02
