s,C,C
Time,"Cable Temp","Shroud Temp"
 0.000E+00, 2.400E+01, 2.400E+01
 1.502E+01, 2.401E+01, 7.345E+01
 3.001E+01, 2.434E+01, 1.709E+02
 4.501E+01, 2.599E+01, 2.685E+02
 6.003E+01, 3.032E+01, 3.663E+02
 7.500E+01, 3.905E+01, 4.585E+02
 9.002E+01, 5.372E+01, 4.800E+02
 1.050E+02, 7.171E+01, 4.800E+02
 1.200E+02, 8.962E+01, 4.800E+02
 1.350E+02, 1.065E+02, 4.800E+02
 1.500E+02, 1.221E+02, 4.800E+02
 1.650E+02, 1.366E+02, 4.800E+02
 1.800E+02, 1.501E+02, 4.800E+02
 1.950E+02, 1.626E+02, 4.800E+02
 2.100E+02, 1.744E+02, 4.800E+02
 2.250E+02, 1.855E+02, 4.800E+02
 2.400E+02, 1.960E+02, 4.800E+02
 2.550E+02, 2.059E+02, 4.800E+02
 2.700E+02, 2.153E+02, 4.800E+02
 2.850E+02, 2.243E+02, 4.800E+02
 3.000E+02, 2.329E+02, 4.800E+02
 3.150E+02, 2.411E+02, 4.800E+02
 3.300E+02, 2.489E+02, 4.800E+02
 3.450E+02, 2.564E+02, 4.800E+02
 3.600E+02, 2.636E+02, 4.800E+02
 3.750E+02, 2.705E+02, 4.800E+02
 3.900E+02, 2.772E+02, 4.800E+02
 4.050E+02, 2.836E+02, 4.800E+02
 4.200E+02, 2.898E+02, 4.800E+02
 4.350E+02, 2.957E+02, 4.800E+02
 4.500E+02, 3.015E+02, 4.800E+02
 4.650E+02, 3.070E+02, 4.800E+02
 4.800E+02, 3.122E+02, 4.800E+02
 4.950E+02, 3.173E+02, 4.800E+02
 5.100E+02, 3.222E+02, 4.800E+02
 5.250E+02, 3.269E+02, 4.800E+02
 5.400E+02, 3.314E+02, 4.800E+02
 5.550E+02, 3.358E+02, 4.800E+02
 5.700E+02, 3.400E+02, 4.800E+02
 5.850E+02, 3.440E+02, 4.800E+02
 6.000E+02, 3.478E+02, 4.800E+02
 6.150E+02, 3.515E+02, 4.800E+02
 6.300E+02, 3.552E+02, 4.800E+02
 6.450E+02, 3.588E+02, 4.800E+02
 6.600E+02, 3.620E+02, 4.800E+02
 6.750E+02, 3.652E+02, 4.800E+02
 6.900E+02, 3.683E+02, 4.784E+02
 7.050E+02, 3.712E+02, 4.716E+02
 7.200E+02, 3.736E+02, 4.645E+02
 7.350E+02, 3.753E+02, 4.573E+02
 7.500E+02, 3.765E+02, 4.502E+02
 7.650E+02, 3.772E+02, 4.430E+02
 7.800E+02, 3.775E+02, 4.359E+02
 7.950E+02, 3.775E+02, 4.287E+02
 8.100E+02, 3.772E+02, 4.216E+02
 8.250E+02, 3.766E+02, 4.144E+02
 8.400E+02, 3.758E+02, 4.073E+02
 8.550E+02, 3.746E+02, 4.001E+02
 8.700E+02, 3.732E+02, 3.930E+02
 8.850E+02, 3.717E+02, 3.858E+02
 9.000E+02, 3.700E+02, 3.787E+02
 9.150E+02, 3.681E+02, 3.732E+02
 9.300E+02, 3.661E+02, 3.694E+02
 9.450E+02, 3.642E+02, 3.655E+02
 9.600E+02, 3.623E+02, 3.617E+02
 9.750E+02, 3.605E+02, 3.579E+02
 9.900E+02, 3.588E+02, 3.541E+02
 1.005E+03, 3.569E+02, 3.503E+02
 1.020E+03, 3.551E+02, 3.464E+02
 1.035E+03, 3.532E+02, 3.426E+02
 1.050E+03, 3.513E+02, 3.388E+02
 1.065E+03, 3.494E+02, 3.350E+02
 1.080E+03, 3.475E+02, 3.312E+02
 1.095E+03, 3.455E+02, 3.273E+02
 1.110E+03, 3.435E+02, 3.235E+02
 1.125E+03, 3.413E+02, 3.197E+02
 1.140E+03, 3.392E+02, 3.159E+02
 1.155E+03, 3.371E+02, 3.120E+02
 1.170E+03, 3.350E+02, 3.082E+02
 1.185E+03, 3.329E+02, 3.044E+02
 1.200E+03, 3.307E+02, 3.006E+02
 1.215E+03, 3.285E+02, 2.967E+02
 1.230E+03, 3.263E+02, 2.929E+02
 1.245E+03, 3.241E+02, 2.891E+02
 1.260E+03, 3.219E+02, 2.856E+02
 1.275E+03, 3.197E+02, 2.822E+02
 1.290E+03, 3.174E+02, 2.788E+02
 1.305E+03, 3.152E+02, 2.754E+02
 1.320E+03, 3.130E+02, 2.719E+02
 1.335E+03, 3.108E+02, 2.685E+02
 1.350E+03, 3.086E+02, 2.651E+02
 1.365E+03, 3.064E+02, 2.617E+02
 1.380E+03, 3.041E+02, 2.583E+02
 1.395E+03, 3.018E+02, 2.548E+02
 1.410E+03, 2.994E+02, 2.514E+02
 1.425E+03, 2.972E+02, 2.480E+02
 1.440E+03, 2.950E+02, 2.446E+02
 1.455E+03, 2.928E+02, 2.412E+02
 1.470E+03, 2.906E+02, 2.377E+02
 1.485E+03, 2.882E+02, 2.343E+02
 1.500E+03, 2.858E+02, 2.309E+02
 1.515E+03, 2.835E+02, 2.275E+02
 1.530E+03, 2.812E+02, 2.241E+02
 1.545E+03, 2.790E+02, 2.206E+02
 1.560E+03, 2.768E+02, 2.172E+02
 1.575E+03, 2.745E+02, 2.138E+02
 1.590E+03, 2.723E+02, 2.104E+02
 1.605E+03, 2.700E+02, 2.071E+02
 1.620E+03, 2.677E+02, 2.064E+02
 1.635E+03, 2.656E+02, 2.064E+02
 1.650E+03, 2.635E+02, 2.064E+02
 1.665E+03, 2.614E+02, 2.064E+02
 1.680E+03, 2.595E+02, 2.064E+02
 1.695E+03, 2.576E+02, 2.064E+02
 1.710E+03, 2.558E+02, 2.064E+02
 1.725E+03, 2.540E+02, 2.064E+02
 1.740E+03, 2.522E+02, 2.064E+02
 1.755E+03, 2.505E+02, 2.064E+02
 1.770E+03, 2.489E+02, 2.064E+02
 1.785E+03, 2.473E+02, 2.064E+02
 1.800E+03, 2.457E+02, 2.064E+02
