s,C,C
Time,"Cable Temp","Shroud Temp"
 0.000E+00, 2.400E+01, 2.400E+01
 1.501E+01, 2.401E+01, 7.343E+01
 3.005E+01, 2.435E+01, 1.710E+02
 4.504E+01, 2.607E+01, 2.688E+02
 6.004E+01, 3.056E+01, 3.664E+02
 7.503E+01, 3.953E+01, 4.585E+02
 9.004E+01, 5.444E+01, 4.800E+02
 1.050E+02, 7.258E+01, 4.800E+02
 1.200E+02, 9.060E+01, 4.800E+02
 1.350E+02, 1.075E+02, 4.800E+02
 1.500E+02, 1.231E+02, 4.800E+02
 1.650E+02, 1.375E+02, 4.800E+02
 1.800E+02, 1.509E+02, 4.800E+02
 1.950E+02, 1.634E+02, 4.800E+02
 2.100E+02, 1.750E+02, 4.800E+02
 2.250E+02, 1.859E+02, 4.800E+02
 2.400E+02, 1.962E+02, 4.800E+02
 2.550E+02, 2.060E+02, 4.800E+02
 2.700E+02, 2.153E+02, 4.800E+02
 2.850E+02, 2.241E+02, 4.800E+02
 3.000E+02, 2.325E+02, 4.800E+02
 3.150E+02, 2.406E+02, 4.800E+02
 3.300E+02, 2.482E+02, 4.800E+02
 3.450E+02, 2.555E+02, 4.800E+02
 3.600E+02, 2.626E+02, 4.800E+02
 3.750E+02, 2.693E+02, 4.800E+02
 3.900E+02, 2.757E+02, 4.800E+02
 4.050E+02, 2.819E+02, 4.800E+02
 4.200E+02, 2.878E+02, 4.800E+02
 4.350E+02, 2.935E+02, 4.800E+02
 4.500E+02, 2.990E+02, 4.800E+02
 4.650E+02, 3.044E+02, 4.800E+02
 4.800E+02, 3.095E+02, 4.800E+02
 4.950E+02, 3.144E+02, 4.800E+02
 5.100E+02, 3.192E+02, 4.800E+02
 5.250E+02, 3.238E+02, 4.800E+02
 5.400E+02, 3.282E+02, 4.800E+02
 5.550E+02, 3.325E+02, 4.800E+02
 5.700E+02, 3.366E+02, 4.800E+02
 5.850E+02, 3.405E+02, 4.800E+02
 6.000E+02, 3.443E+02, 4.800E+02
 6.150E+02, 3.480E+02, 4.800E+02
 6.300E+02, 3.515E+02, 4.800E+02
 6.450E+02, 3.548E+02, 4.800E+02
 6.600E+02, 3.580E+02, 4.800E+02
 6.750E+02, 3.610E+02, 4.800E+02
 6.900E+02, 3.640E+02, 4.784E+02
 7.050E+02, 3.669E+02, 4.716E+02
 7.200E+02, 3.693E+02, 4.645E+02
 7.350E+02, 3.711E+02, 4.573E+02
 7.500E+02, 3.722E+02, 4.502E+02
 7.650E+02, 3.728E+02, 4.430E+02
 7.800E+02, 3.730E+02, 4.359E+02
 7.950E+02, 3.730E+02, 4.287E+02
 8.100E+02, 3.726E+02, 4.216E+02
 8.250E+02, 3.717E+02, 4.144E+02
 8.400E+02, 3.706E+02, 4.073E+02
 8.550E+02, 3.693E+02, 4.001E+02
 8.700E+02, 3.677E+02, 3.930E+02
 8.850E+02, 3.660E+02, 3.858E+02
 9.000E+02, 3.642E+02, 3.787E+02
 9.150E+02, 3.622E+02, 3.732E+02
 9.300E+02, 3.604E+02, 3.694E+02
 9.450E+02, 3.585E+02, 3.656E+02
 9.600E+02, 3.565E+02, 3.617E+02
 9.751E+02, 3.545E+02, 3.579E+02
 9.900E+02, 3.525E+02, 3.541E+02
 1.005E+03, 3.505E+02, 3.503E+02
 1.020E+03, 3.485E+02, 3.464E+02
 1.035E+03, 3.466E+02, 3.426E+02
 1.050E+03, 3.448E+02, 3.388E+02
 1.065E+03, 3.429E+02, 3.350E+02
 1.080E+03, 3.410E+02, 3.312E+02
 1.095E+03, 3.390E+02, 3.273E+02
 1.110E+03, 3.370E+02, 3.235E+02
 1.125E+03, 3.349E+02, 3.197E+02
 1.140E+03, 3.327E+02, 3.159E+02
 1.155E+03, 3.306E+02, 3.120E+02
 1.170E+03, 3.284E+02, 3.082E+02
 1.185E+03, 3.262E+02, 3.044E+02
 1.200E+03, 3.241E+02, 3.006E+02
 1.215E+03, 3.217E+02, 2.967E+02
 1.230E+03, 3.194E+02, 2.929E+02
 1.245E+03, 3.172E+02, 2.891E+02
 1.260E+03, 3.150E+02, 2.856E+02
 1.275E+03, 3.126E+02, 2.822E+02
 1.290E+03, 3.102E+02, 2.788E+02
 1.305E+03, 3.078E+02, 2.754E+02
 1.320E+03, 3.054E+02, 2.719E+02
 1.335E+03, 3.031E+02, 2.685E+02
 1.350E+03, 3.009E+02, 2.651E+02
 1.365E+03, 2.986E+02, 2.617E+02
 1.380E+03, 2.963E+02, 2.583E+02
 1.395E+03, 2.939E+02, 2.548E+02
 1.410E+03, 2.916E+02, 2.514E+02
 1.425E+03, 2.894E+02, 2.480E+02
 1.440E+03, 2.870E+02, 2.446E+02
 1.455E+03, 2.848E+02, 2.412E+02
 1.470E+03, 2.825E+02, 2.377E+02
 1.485E+03, 2.801E+02, 2.343E+02
 1.500E+03, 2.780E+02, 2.309E+02
 1.515E+03, 2.758E+02, 2.275E+02
 1.530E+03, 2.735E+02, 2.241E+02
 1.545E+03, 2.713E+02, 2.206E+02
 1.560E+03, 2.690E+02, 2.172E+02
 1.575E+03, 2.667E+02, 2.138E+02
 1.590E+03, 2.643E+02, 2.104E+02
 1.605E+03, 2.621E+02, 2.071E+02
 1.620E+03, 2.598E+02, 2.064E+02
 1.635E+03, 2.575E+02, 2.064E+02
 1.650E+03, 2.553E+02, 2.064E+02
 1.665E+03, 2.533E+02, 2.064E+02
 1.680E+03, 2.515E+02, 2.064E+02
 1.695E+03, 2.496E+02, 2.064E+02
 1.710E+03, 2.479E+02, 2.064E+02
 1.725E+03, 2.461E+02, 2.064E+02
 1.740E+03, 2.445E+02, 2.064E+02
 1.755E+03, 2.428E+02, 2.064E+02
 1.770E+03, 2.411E+02, 2.064E+02
 1.785E+03, 2.395E+02, 2.064E+02
 1.800E+03, 2.379E+02, 2.064E+02
