s,C,C
Time,"Cable Temp","Shroud Temp"
 0.000E+00, 2.800E+01, 2.800E+01
 1.500E+01, 2.819E+01, 6.226E+01
 3.007E+01, 3.010E+01, 1.301E+02
 4.505E+01, 3.491E+01, 1.979E+02
 6.001E+01, 4.328E+01, 2.655E+02
 7.504E+01, 5.657E+01, 3.333E+02
 9.004E+01, 7.558E+01, 4.012E+02
 1.050E+02, 1.022E+02, 4.651E+02
 1.200E+02, 1.307E+02, 4.800E+02
 1.350E+02, 1.528E+02, 4.800E+02
 1.500E+02, 1.709E+02, 4.800E+02
 1.650E+02, 1.869E+02, 4.800E+02
 1.800E+02, 2.012E+02, 4.800E+02
 1.950E+02, 2.140E+02, 4.800E+02
 2.100E+02, 2.260E+02, 4.800E+02
 2.250E+02, 2.372E+02, 4.800E+02
 2.400E+02, 2.477E+02, 4.800E+02
 2.550E+02, 2.574E+02, 4.800E+02
 2.700E+02, 2.665E+02, 4.800E+02
 2.850E+02, 2.754E+02, 4.800E+02
 3.000E+02, 2.841E+02, 4.800E+02
 3.150E+02, 2.920E+02, 4.800E+02
 3.300E+02, 2.993E+02, 4.800E+02
 3.450E+02, 3.067E+02, 4.800E+02
 3.600E+02, 3.137E+02, 4.800E+02
 3.750E+02, 3.200E+02, 4.800E+02
 3.900E+02, 3.255E+02, 4.800E+02
 4.050E+02, 3.314E+02, 4.800E+02
 4.200E+02, 3.368E+02, 4.800E+02
 4.350E+02, 3.417E+02, 4.800E+02
 4.500E+02, 3.470E+02, 4.800E+02
 4.650E+02, 3.517E+02, 4.800E+02
 4.800E+02, 3.562E+02, 4.800E+02
 4.950E+02, 3.605E+02, 4.800E+02
 5.100E+02, 3.643E+02, 4.800E+02
 5.250E+02, 3.679E+02, 4.800E+02
 5.400E+02, 3.712E+02, 4.800E+02
 5.550E+02, 3.745E+02, 4.800E+02
 5.700E+02, 3.778E+02, 4.800E+02
 5.850E+02, 3.811E+02, 4.800E+02
 6.000E+02, 3.841E+02, 4.800E+02
 6.150E+02, 3.865E+02, 4.800E+02
 6.300E+02, 3.890E+02, 4.800E+02
 6.450E+02, 3.911E+02, 4.800E+02
 6.600E+02, 3.924E+02, 4.800E+02
 6.750E+02, 3.948E+02, 4.800E+02
 6.900E+02, 3.976E+02, 4.800E+02
 7.050E+02, 3.996E+02, 4.800E+02
 7.200E+02, 4.016E+02, 4.800E+02
 7.350E+02, 4.033E+02, 4.800E+02
 7.500E+02, 4.047E+02, 4.800E+02
 7.650E+02, 4.059E+02, 4.800E+02
 7.800E+02, 4.075E+02, 4.800E+02
 7.950E+02, 4.086E+02, 4.800E+02
 8.100E+02, 4.103E+02, 4.800E+02
 8.250E+02, 4.115E+02, 4.800E+02
 8.400E+02, 4.124E+02, 4.800E+02
 8.550E+02, 4.136E+02, 4.800E+02
 8.700E+02, 4.144E+02, 4.800E+02
 8.850E+02, 4.155E+02, 4.800E+02
 9.000E+02, 4.167E+02, 4.800E+02
 9.150E+02, 4.175E+02, 4.800E+02
 9.300E+02, 4.178E+02, 4.800E+02
 9.450E+02, 4.190E+02, 4.800E+02
 9.600E+02, 4.202E+02, 4.800E+02
 9.750E+02, 4.211E+02, 4.800E+02
 9.900E+02, 4.218E+02, 4.800E+02
 1.005E+03, 4.224E+02, 4.800E+02
 1.020E+03, 4.231E+02, 4.800E+02
 1.035E+03, 4.233E+02, 4.800E+02
 1.050E+03, 4.236E+02, 4.800E+02
 1.065E+03, 4.235E+02, 4.800E+02
 1.080E+03, 4.239E+02, 4.800E+02
 1.095E+03, 4.249E+02, 4.800E+02
 1.110E+03, 4.253E+02, 4.800E+02
 1.125E+03, 4.258E+02, 4.800E+02
 1.140E+03, 4.265E+02, 4.800E+02
 1.155E+03, 4.272E+02, 4.800E+02
 1.170E+03, 4.276E+02, 4.800E+02
 1.185E+03, 4.273E+02, 4.800E+02
 1.200E+03, 4.273E+02, 4.800E+02
 1.215E+03, 4.276E+02, 4.800E+02
 1.230E+03, 4.275E+02, 4.800E+02
 1.245E+03, 4.281E+02, 4.800E+02
 1.260E+03, 4.286E+02, 4.800E+02
 1.275E+03, 4.288E+02, 4.800E+02
 1.290E+03, 4.289E+02, 4.800E+02
 1.305E+03, 4.297E+02, 4.800E+02
 1.320E+03, 4.299E+02, 4.800E+02
 1.335E+03, 4.293E+02, 4.800E+02
 1.350E+03, 4.297E+02, 4.800E+02
 1.365E+03, 4.303E+02, 4.800E+02
 1.380E+03, 4.299E+02, 4.800E+02
 1.395E+03, 4.298E+02, 4.800E+02
 1.410E+03, 4.305E+02, 4.800E+02
 1.425E+03, 4.303E+02, 4.780E+02
 1.440E+03, 4.292E+02, 4.694E+02
 1.455E+03, 4.267E+02, 4.604E+02
 1.470E+03, 4.235E+02, 4.513E+02
 1.485E+03, 4.205E+02, 4.423E+02
 1.500E+03, 4.170E+02, 4.333E+02
 1.515E+03, 4.124E+02, 4.242E+02
 1.530E+03, 4.081E+02, 4.152E+02
 1.545E+03, 4.037E+02, 4.062E+02
 1.560E+03, 3.994E+02, 3.971E+02
 1.575E+03, 3.943E+02, 3.881E+02
 1.590E+03, 3.892E+02, 3.790E+02
 1.605E+03, 3.842E+02, 3.700E+02
 1.620E+03, 3.786E+02, 3.609E+02
 1.635E+03, 3.739E+02, 3.519E+02
 1.650E+03, 3.691E+02, 3.429E+02
 1.665E+03, 3.645E+02, 3.338E+02
 1.680E+03, 3.588E+02, 3.248E+02
 1.695E+03, 3.532E+02, 3.157E+02
 1.710E+03, 3.477E+02, 3.067E+02
 1.725E+03, 3.425E+02, 2.997E+02
 1.740E+03, 3.376E+02, 2.992E+02
 1.755E+03, 3.339E+02, 2.992E+02
 1.770E+03, 3.304E+02, 2.992E+02
 1.785E+03, 3.271E+02, 2.992E+02
 1.800E+03, 3.241E+02, 2.992E+02
