s,C,C
Time,"Cable Temp","Shroud Temp"
 0.000E+00, 2.400E+01, 2.400E+01
 1.501E+01, 2.401E+01, 7.343E+01
 3.005E+01, 2.435E+01, 1.710E+02
 4.504E+01, 2.607E+01, 2.688E+02
 6.004E+01, 3.056E+01, 3.664E+02
 7.501E+01, 3.952E+01, 4.585E+02
 9.002E+01, 5.442E+01, 4.800E+02
 1.050E+02, 7.257E+01, 4.800E+02
 1.200E+02, 9.060E+01, 4.800E+02
 1.350E+02, 1.075E+02, 4.800E+02
 1.500E+02, 1.231E+02, 4.800E+02
 1.650E+02, 1.375E+02, 4.800E+02
 1.800E+02, 1.508E+02, 4.800E+02
 1.950E+02, 1.633E+02, 4.800E+02
 2.100E+02, 1.749E+02, 4.800E+02
 2.250E+02, 1.858E+02, 4.800E+02
 2.400E+02, 1.962E+02, 4.800E+02
 2.550E+02, 2.059E+02, 4.800E+02
 2.700E+02, 2.151E+02, 4.800E+02
 2.850E+02, 2.239E+02, 4.800E+02
 3.000E+02, 2.323E+02, 4.800E+02
 3.150E+02, 2.403E+02, 4.800E+02
 3.300E+02, 2.480E+02, 4.800E+02
 3.450E+02, 2.554E+02, 4.800E+02
 3.600E+02, 2.624E+02, 4.800E+02
 3.750E+02, 2.691E+02, 4.800E+02
 3.900E+02, 2.756E+02, 4.800E+02
 4.050E+02, 2.818E+02, 4.800E+02
 4.200E+02, 2.877E+02, 4.800E+02
 4.350E+02, 2.935E+02, 4.800E+02
 4.500E+02, 2.991E+02, 4.800E+02
 4.650E+02, 3.045E+02, 4.800E+02
 4.800E+02, 3.094E+02, 4.800E+02
 4.950E+02, 3.142E+02, 4.800E+02
 5.100E+02, 3.189E+02, 4.800E+02
 5.250E+02, 3.234E+02, 4.800E+02
 5.400E+02, 3.278E+02, 4.800E+02
 5.550E+02, 3.320E+02, 4.800E+02
 5.700E+02, 3.361E+02, 4.800E+02
 5.850E+02, 3.400E+02, 4.800E+02
 6.000E+02, 3.439E+02, 4.800E+02
 6.150E+02, 3.476E+02, 4.800E+02
 6.300E+02, 3.512E+02, 4.800E+02
 6.450E+02, 3.545E+02, 4.800E+02
 6.600E+02, 3.578E+02, 4.800E+02
 6.750E+02, 3.609E+02, 4.800E+02
 6.900E+02, 3.641E+02, 4.800E+02
 7.050E+02, 3.670E+02, 4.800E+02
 7.200E+02, 3.698E+02, 4.800E+02
 7.350E+02, 3.724E+02, 4.800E+02
 7.500E+02, 3.749E+02, 4.800E+02
 7.650E+02, 3.774E+02, 4.800E+02
 7.800E+02, 3.798E+02, 4.800E+02
 7.950E+02, 3.821E+02, 4.800E+02
 8.100E+02, 3.843E+02, 4.800E+02
 8.250E+02, 3.864E+02, 4.796E+02
 8.400E+02, 3.885E+02, 4.748E+02
 8.550E+02, 3.901E+02, 4.686E+02
 8.700E+02, 3.913E+02, 4.624E+02
 8.850E+02, 3.921E+02, 4.563E+02
 9.000E+02, 3.924E+02, 4.501E+02
 9.150E+02, 3.923E+02, 4.439E+02
 9.300E+02, 3.920E+02, 4.377E+02
 9.450E+02, 3.913E+02, 4.315E+02
 9.600E+02, 3.904E+02, 4.253E+02
 9.750E+02, 3.892E+02, 4.191E+02
 9.900E+02, 3.879E+02, 4.129E+02
 1.005E+03, 3.863E+02, 4.067E+02
 1.020E+03, 3.847E+02, 4.006E+02
 1.035E+03, 3.829E+02, 3.944E+02
 1.050E+03, 3.811E+02, 3.882E+02
 1.065E+03, 3.790E+02, 3.820E+02
 1.080E+03, 3.767E+02, 3.758E+02
 1.095E+03, 3.745E+02, 3.696E+02
 1.110E+03, 3.722E+02, 3.634E+02
 1.125E+03, 3.697E+02, 3.572E+02
 1.140E+03, 3.673E+02, 3.511E+02
 1.155E+03, 3.647E+02, 3.449E+02
 1.170E+03, 3.619E+02, 3.387E+02
 1.185E+03, 3.592E+02, 3.325E+02
 1.200E+03, 3.564E+02, 3.263E+02
 1.215E+03, 3.536E+02, 3.201E+02
 1.230E+03, 3.506E+02, 3.139E+02
 1.245E+03, 3.476E+02, 3.078E+02
 1.260E+03, 3.446E+02, 3.032E+02
 1.275E+03, 3.414E+02, 2.990E+02
 1.290E+03, 3.383E+02, 2.949E+02
 1.305E+03, 3.353E+02, 2.907E+02
 1.320E+03, 3.322E+02, 2.865E+02
 1.335E+03, 3.293E+02, 2.823E+02
 1.350E+03, 3.264E+02, 2.781E+02
 1.365E+03, 3.236E+02, 2.740E+02
 1.380E+03, 3.208E+02, 2.698E+02
 1.395E+03, 3.179E+02, 2.656E+02
 1.410E+03, 3.150E+02, 2.614E+02
 1.425E+03, 3.122E+02, 2.572E+02
 1.440E+03, 3.093E+02, 2.531E+02
 1.455E+03, 3.064E+02, 2.489E+02
 1.470E+03, 3.036E+02, 2.447E+02
 1.485E+03, 3.009E+02, 2.405E+02
 1.500E+03, 2.981E+02, 2.363E+02
 1.515E+03, 2.954E+02, 2.322E+02
 1.530E+03, 2.927E+02, 2.280E+02
 1.545E+03, 2.898E+02, 2.238E+02
 1.560E+03, 2.869E+02, 2.196E+02
 1.575E+03, 2.840E+02, 2.154E+02
 1.590E+03, 2.810E+02, 2.113E+02
 1.605E+03, 2.783E+02, 2.073E+02
 1.620E+03, 2.756E+02, 2.064E+02
 1.635E+03, 2.729E+02, 2.064E+02
 1.650E+03, 2.704E+02, 2.064E+02
 1.665E+03, 2.679E+02, 2.064E+02
 1.680E+03, 2.655E+02, 2.064E+02
 1.695E+03, 2.632E+02, 2.064E+02
 1.710E+03, 2.610E+02, 2.064E+02
 1.725E+03, 2.589E+02, 2.064E+02
 1.740E+03, 2.568E+02, 2.064E+02
 1.755E+03, 2.549E+02, 2.064E+02
 1.770E+03, 2.529E+02, 2.064E+02
 1.785E+03, 2.510E+02, 2.064E+02
 1.800E+03, 2.491E+02, 2.064E+02
