s,C,C
Time,"Cable Temp","Shroud Temp"
 0.000E+00, 2.400E+01, 2.400E+01
 1.501E+01, 2.401E+01, 7.343E+01
 3.002E+01, 2.435E+01, 1.709E+02
 4.503E+01, 2.607E+01, 2.687E+02
 6.000E+01, 3.054E+01, 3.663E+02
 7.501E+01, 3.951E+01, 4.584E+02
 9.000E+01, 5.444E+01, 4.800E+02
 1.050E+02, 7.259E+01, 4.800E+02
 1.200E+02, 9.065E+01, 4.800E+02
 1.350E+02, 1.076E+02, 4.800E+02
 1.500E+02, 1.232E+02, 4.800E+02
 1.650E+02, 1.376E+02, 4.800E+02
 1.800E+02, 1.510E+02, 4.800E+02
 1.950E+02, 1.635E+02, 4.800E+02
 2.100E+02, 1.751E+02, 4.800E+02
 2.250E+02, 1.860E+02, 4.800E+02
 2.400E+02, 1.963E+02, 4.800E+02
 2.550E+02, 2.060E+02, 4.800E+02
 2.700E+02, 2.153E+02, 4.800E+02
 2.850E+02, 2.241E+02, 4.800E+02
 3.000E+02, 2.325E+02, 4.800E+02
 3.150E+02, 2.405E+02, 4.800E+02
 3.300E+02, 2.481E+02, 4.800E+02
 3.450E+02, 2.554E+02, 4.800E+02
 3.600E+02, 2.625E+02, 4.800E+02
 3.750E+02, 2.693E+02, 4.800E+02
 3.900E+02, 2.758E+02, 4.800E+02
 4.050E+02, 2.821E+02, 4.800E+02
 4.200E+02, 2.880E+02, 4.800E+02
 4.350E+02, 2.938E+02, 4.800E+02
 4.500E+02, 2.993E+02, 4.800E+02
 4.650E+02, 3.046E+02, 4.800E+02
 4.800E+02, 3.097E+02, 4.800E+02
 4.950E+02, 3.145E+02, 4.800E+02
 5.100E+02, 3.193E+02, 4.800E+02
 5.250E+02, 3.239E+02, 4.800E+02
 5.400E+02, 3.283E+02, 4.800E+02
 5.550E+02, 3.326E+02, 4.800E+02
 5.700E+02, 3.367E+02, 4.800E+02
 5.850E+02, 3.406E+02, 4.800E+02
 6.000E+02, 3.443E+02, 4.800E+02
 6.150E+02, 3.479E+02, 4.800E+02
 6.300E+02, 3.514E+02, 4.800E+02
 6.450E+02, 3.548E+02, 4.800E+02
 6.600E+02, 3.581E+02, 4.800E+02
 6.750E+02, 3.611E+02, 4.800E+02
 6.900E+02, 3.640E+02, 4.800E+02
 7.050E+02, 3.669E+02, 4.800E+02
 7.200E+02, 3.697E+02, 4.800E+02
 7.350E+02, 3.725E+02, 4.800E+02
 7.500E+02, 3.751E+02, 4.800E+02
 7.650E+02, 3.775E+02, 4.800E+02
 7.800E+02, 3.798E+02, 4.800E+02
 7.950E+02, 3.821E+02, 4.800E+02
 8.100E+02, 3.843E+02, 4.800E+02
 8.250E+02, 3.865E+02, 4.797E+02
 8.400E+02, 3.885E+02, 4.748E+02
 8.550E+02, 3.902E+02, 4.686E+02
 8.700E+02, 3.913E+02, 4.624E+02
 8.850E+02, 3.919E+02, 4.563E+02
 9.000E+02, 3.921E+02, 4.501E+02
 9.150E+02, 3.921E+02, 4.439E+02
 9.300E+02, 3.917E+02, 4.377E+02
 9.450E+02, 3.910E+02, 4.315E+02
 9.600E+02, 3.902E+02, 4.253E+02
 9.750E+02, 3.893E+02, 4.191E+02
 9.900E+02, 3.880E+02, 4.129E+02
 1.005E+03, 3.866E+02, 4.068E+02
 1.020E+03, 3.849E+02, 4.006E+02
 1.035E+03, 3.830E+02, 3.944E+02
 1.050E+03, 3.810E+02, 3.882E+02
 1.065E+03, 3.788E+02, 3.820E+02
 1.080E+03, 3.767E+02, 3.758E+02
 1.095E+03, 3.745E+02, 3.696E+02
 1.110E+03, 3.722E+02, 3.634E+02
 1.125E+03, 3.698E+02, 3.572E+02
 1.140E+03, 3.672E+02, 3.510E+02
 1.155E+03, 3.646E+02, 3.449E+02
 1.170E+03, 3.619E+02, 3.387E+02
 1.185E+03, 3.591E+02, 3.325E+02
 1.200E+03, 3.563E+02, 3.263E+02
 1.215E+03, 3.535E+02, 3.201E+02
 1.230E+03, 3.506E+02, 3.139E+02
 1.245E+03, 3.476E+02, 3.078E+02
 1.260E+03, 3.443E+02, 3.032E+02
 1.275E+03, 3.411E+02, 2.990E+02
 1.290E+03, 3.379E+02, 2.949E+02
 1.305E+03, 3.349E+02, 2.907E+02
 1.320E+03, 3.321E+02, 2.865E+02
 1.335E+03, 3.292E+02, 2.823E+02
 1.350E+03, 3.263E+02, 2.781E+02
 1.365E+03, 3.234E+02, 2.740E+02
 1.380E+03, 3.205E+02, 2.698E+02
 1.395E+03, 3.177E+02, 2.656E+02
 1.410E+03, 3.147E+02, 2.614E+02
 1.425E+03, 3.119E+02, 2.572E+02
 1.440E+03, 3.094E+02, 2.531E+02
 1.455E+03, 3.067E+02, 2.489E+02
 1.470E+03, 3.039E+02, 2.447E+02
 1.485E+03, 3.012E+02, 2.405E+02
 1.500E+03, 2.984E+02, 2.363E+02
 1.515E+03, 2.956E+02, 2.322E+02
 1.530E+03, 2.928E+02, 2.280E+02
 1.545E+03, 2.901E+02, 2.238E+02
 1.560E+03, 2.872E+02, 2.196E+02
 1.575E+03, 2.842E+02, 2.154E+02
 1.590E+03, 2.813E+02, 2.113E+02
 1.605E+03, 2.785E+02, 2.073E+02
 1.620E+03, 2.757E+02, 2.064E+02
 1.635E+03, 2.730E+02, 2.064E+02
 1.650E+03, 2.704E+02, 2.064E+02
 1.665E+03, 2.679E+02, 2.064E+02
 1.680E+03, 2.656E+02, 2.064E+02
 1.695E+03, 2.634E+02, 2.064E+02
 1.710E+03, 2.612E+02, 2.064E+02
 1.725E+03, 2.590E+02, 2.064E+02
 1.740E+03, 2.570E+02, 2.064E+02
 1.755E+03, 2.549E+02, 2.064E+02
 1.770E+03, 2.529E+02, 2.064E+02
 1.785E+03, 2.509E+02, 2.064E+02
 1.800E+03, 2.490E+02, 2.064E+02
