s,C,C,C
Time,"Cable Temp","Shroud Temp","Conduit"
 0.000E+00, 3.100E+01, 3.100E+01, 3.100E+01
 1.505E+01, 3.100E+01, 7.159E+01, 3.106E+01
 3.006E+01, 3.103E+01, 1.517E+02, 3.170E+01
 4.503E+01, 3.119E+01, 2.319E+02, 3.353E+01
 6.003E+01, 3.141E+01, 3.074E+02, 3.723E+01
 7.503E+01, 3.177E+01, 3.250E+02, 4.245E+01
 9.004E+01, 3.230E+01, 3.250E+02, 4.773E+01
 1.050E+02, 3.307E+01, 3.250E+02, 5.294E+01
 1.200E+02, 3.363E+01, 3.250E+02, 5.807E+01
 1.350E+02, 3.463E+01, 3.250E+02, 6.311E+01
 1.500E+02, 3.551E+01, 3.250E+02, 6.810E+01
 1.650E+02, 3.662E+01, 3.250E+02, 7.300E+01
 1.800E+02, 3.773E+01, 3.250E+02, 7.786E+01
 1.950E+02, 3.874E+01, 3.250E+02, 8.259E+01
 2.100E+02, 3.990E+01, 3.250E+02, 8.726E+01
 2.250E+02, 4.067E+01, 3.250E+02, 9.186E+01
 2.400E+02, 4.172E+01, 3.250E+02, 9.638E+01
 2.550E+02, 4.292E+01, 3.250E+02, 1.008E+02
 2.700E+02, 4.409E+01, 3.250E+02, 1.052E+02
 2.850E+02, 4.520E+01, 3.250E+02, 1.095E+02
 3.000E+02, 4.633E+01, 3.250E+02, 1.137E+02
 3.150E+02, 4.773E+01, 3.250E+02, 1.178E+02
 3.300E+02, 4.909E+01, 3.250E+02, 1.218E+02
 3.450E+02, 5.064E+01, 3.250E+02, 1.258E+02
 3.600E+02, 5.249E+01, 3.250E+02, 1.297E+02
 3.750E+02, 5.430E+01, 3.250E+02, 1.335E+02
 3.900E+02, 5.613E+01, 3.250E+02, 1.372E+02
 4.050E+02, 5.763E+01, 3.250E+02, 1.409E+02
 4.200E+02, 5.932E+01, 3.250E+02, 1.446E+02
 4.350E+02, 6.096E+01, 3.250E+02, 1.481E+02
 4.500E+02, 6.279E+01, 3.250E+02, 1.515E+02
 4.650E+02, 6.496E+01, 3.250E+02, 1.549E+02
 4.800E+02, 6.703E+01, 3.250E+02, 1.582E+02
 4.950E+02, 6.901E+01, 3.250E+02, 1.615E+02
 5.100E+02, 7.098E+01, 3.250E+02, 1.647E+02
 5.250E+02, 7.300E+01, 3.250E+02, 1.678E+02
 5.400E+02, 7.512E+01, 3.250E+02, 1.709E+02
 5.550E+02, 7.746E+01, 3.250E+02, 1.739E+02
 5.700E+02, 7.964E+01, 3.250E+02, 1.768E+02
 5.850E+02, 8.190E+01, 3.250E+02, 1.797E+02
 6.001E+02, 8.434E+01, 3.250E+02, 1.826E+02
 6.150E+02, 8.657E+01, 3.250E+02, 1.853E+02
 6.301E+02, 8.897E+01, 3.250E+02, 1.880E+02
 6.450E+02, 9.132E+01, 3.250E+02, 1.906E+02
 6.600E+02, 9.364E+01, 3.250E+02, 1.933E+02
 6.750E+02, 9.612E+01, 3.250E+02, 1.958E+02
 6.900E+02, 9.875E+01, 3.250E+02, 1.983E+02
 7.050E+02, 1.015E+02, 3.250E+02, 2.007E+02
 7.200E+02, 1.040E+02, 3.250E+02, 2.030E+02
 7.350E+02, 1.064E+02, 3.250E+02, 2.054E+02
 7.500E+02, 1.088E+02, 3.250E+02, 2.077E+02
 7.650E+02, 1.113E+02, 3.250E+02, 2.099E+02
 7.800E+02, 1.137E+02, 3.250E+02, 2.121E+02
 7.950E+02, 1.162E+02, 3.250E+02, 2.142E+02
 8.100E+02, 1.187E+02, 3.250E+02, 2.163E+02
 8.250E+02, 1.212E+02, 3.250E+02, 2.183E+02
 8.400E+02, 1.239E+02, 3.250E+02, 2.203E+02
 8.550E+02, 1.266E+02, 3.250E+02, 2.222E+02
 8.700E+02, 1.291E+02, 3.250E+02, 2.241E+02
 8.850E+02, 1.316E+02, 3.250E+02, 2.259E+02
 9.000E+02, 1.341E+02, 3.250E+02, 2.277E+02
 9.150E+02, 1.367E+02, 3.250E+02, 2.293E+02
 9.300E+02, 1.393E+02, 3.250E+02, 2.309E+02
 9.451E+02, 1.419E+02, 3.250E+02, 2.326E+02
 9.600E+02, 1.445E+02, 3.250E+02, 2.342E+02
 9.750E+02, 1.470E+02, 3.250E+02, 2.358E+02
 9.900E+02, 1.495E+02, 3.250E+02, 2.374E+02
 1.005E+03, 1.519E+02, 3.250E+02, 2.389E+02
 1.020E+03, 1.544E+02, 3.250E+02, 2.404E+02
 1.035E+03, 1.569E+02, 3.250E+02, 2.418E+02
 1.050E+03, 1.595E+02, 3.250E+02, 2.432E+02
 1.065E+03, 1.620E+02, 3.250E+02, 2.445E+02
 1.080E+03, 1.644E+02, 3.250E+02, 2.457E+02
 1.095E+03, 1.668E+02, 3.250E+02, 2.470E+02
 1.110E+03, 1.691E+02, 3.250E+02, 2.482E+02
 1.125E+03, 1.714E+02, 3.250E+02, 2.495E+02
 1.140E+03, 1.737E+02, 3.250E+02, 2.507E+02
 1.155E+03, 1.760E+02, 3.250E+02, 2.518E+02
 1.170E+03, 1.783E+02, 3.250E+02, 2.530E+02
 1.185E+03, 1.805E+02, 3.250E+02, 2.541E+02
 1.200E+03, 1.828E+02, 3.250E+02, 2.551E+02
 1.215E+03, 1.849E+02, 3.250E+02, 2.561E+02
 1.230E+03, 1.869E+02, 3.250E+02, 2.570E+02
 1.245E+03, 1.890E+02, 3.250E+02, 2.580E+02
 1.260E+03, 1.912E+02, 3.250E+02, 2.590E+02
 1.275E+03, 1.933E+02, 3.250E+02, 2.599E+02
 1.290E+03, 1.953E+02, 3.250E+02, 2.608E+02
 1.305E+03, 1.972E+02, 3.250E+02, 2.616E+02
 1.320E+03, 1.992E+02, 3.250E+02, 2.625E+02
 1.335E+03, 2.011E+02, 3.250E+02, 2.633E+02
 1.350E+03, 2.031E+02, 3.250E+02, 2.641E+02
 1.365E+03, 2.050E+02, 3.250E+02, 2.649E+02
 1.380E+03, 2.069E+02, 3.250E+02, 2.657E+02
 1.395E+03, 2.088E+02, 3.250E+02, 2.665E+02
 1.410E+03, 2.107E+02, 3.250E+02, 2.673E+02
 1.425E+03, 2.125E+02, 3.250E+02, 2.680E+02
 1.440E+03, 2.142E+02, 3.250E+02, 2.687E+02
 1.455E+03, 2.158E+02, 3.250E+02, 2.693E+02
 1.470E+03, 2.175E+02, 3.250E+02, 2.700E+02
 1.485E+03, 2.192E+02, 3.250E+02, 2.707E+02
 1.500E+03, 2.209E+02, 3.250E+02, 2.713E+02
 1.515E+03, 2.224E+02, 3.250E+02, 2.719E+02
 1.530E+03, 2.240E+02, 3.250E+02, 2.725E+02
 1.545E+03, 2.256E+02, 3.250E+02, 2.731E+02
 1.560E+03, 2.270E+02, 3.250E+02, 2.737E+02
 1.575E+03, 2.283E+02, 3.250E+02, 2.741E+02
 1.590E+03, 2.298E+02, 3.250E+02, 2.747E+02
 1.605E+03, 2.310E+02, 3.250E+02, 2.751E+02
 1.620E+03, 2.324E+02, 3.250E+02, 2.756E+02
 1.635E+03, 2.338E+02, 3.250E+02, 2.761E+02
 1.650E+03, 2.352E+02, 3.250E+02, 2.766E+02
 1.665E+03, 2.365E+02, 3.250E+02, 2.771E+02
 1.680E+03, 2.379E+02, 3.250E+02, 2.776E+02
 1.695E+03, 2.392E+02, 3.250E+02, 2.780E+02
 1.710E+03, 2.402E+02, 3.250E+02, 2.783E+02
 1.725E+03, 2.411E+02, 3.250E+02, 2.786E+02
 1.740E+03, 2.423E+02, 3.250E+02, 2.790E+02
 1.755E+03, 2.433E+02, 3.250E+02, 2.793E+02
 1.770E+03, 2.445E+02, 3.250E+02, 2.798E+02
 1.785E+03, 2.456E+02, 3.250E+02, 2.801E+02
 1.800E+03, 2.467E+02, 3.250E+02, 2.805E+02
 1.815E+03, 2.478E+02, 3.250E+02, 2.809E+02
 1.830E+03, 2.484E+02, 3.250E+02, 2.811E+02
 1.845E+03, 2.496E+02, 3.250E+02, 2.815E+02
 1.860E+03, 2.508E+02, 3.250E+02, 2.819E+02
 1.875E+03, 2.517E+02, 3.250E+02, 2.823E+02
 1.890E+03, 2.527E+02, 3.250E+02, 2.826E+02
 1.905E+03, 2.536E+02, 3.250E+02, 2.828E+02
 1.920E+03, 2.545E+02, 3.250E+02, 2.831E+02
 1.935E+03, 2.555E+02, 3.250E+02, 2.835E+02
 1.950E+03, 2.565E+02, 3.250E+02, 2.839E+02
 1.965E+03, 2.574E+02, 3.250E+02, 2.842E+02
 1.980E+03, 2.582E+02, 3.250E+02, 2.845E+02
 1.995E+03, 2.588E+02, 3.250E+02, 2.848E+02
 2.010E+03, 2.597E+02, 3.250E+02, 2.850E+02
 2.025E+03, 2.605E+02, 3.250E+02, 2.853E+02
 2.040E+03, 2.611E+02, 3.250E+02, 2.856E+02
 2.055E+03, 2.618E+02, 3.250E+02, 2.858E+02
 2.070E+03, 2.623E+02, 3.250E+02, 2.860E+02
 2.085E+03, 2.631E+02, 3.250E+02, 2.862E+02
 2.100E+03, 2.639E+02, 3.250E+02, 2.865E+02
 2.115E+03, 2.647E+02, 3.250E+02, 2.868E+02
 2.130E+03, 2.654E+02, 3.250E+02, 2.870E+02
 2.145E+03, 2.654E+02, 3.250E+02, 2.870E+02
 2.160E+03, 2.658E+02, 3.250E+02, 2.871E+02
 2.175E+03, 2.665E+02, 3.250E+02, 2.873E+02
 2.190E+03, 2.673E+02, 3.250E+02, 2.876E+02
 2.205E+03, 2.679E+02, 3.250E+02, 2.878E+02
 2.220E+03, 2.683E+02, 3.250E+02, 2.879E+02
 2.235E+03, 2.689E+02, 3.250E+02, 2.881E+02
 2.250E+03, 2.691E+02, 3.250E+02, 2.882E+02
 2.265E+03, 2.694E+02, 3.250E+02, 2.883E+02
 2.280E+03, 2.699E+02, 3.250E+02, 2.884E+02
 2.295E+03, 2.703E+02, 3.250E+02, 2.885E+02
 2.310E+03, 2.706E+02, 3.250E+02, 2.886E+02
 2.325E+03, 2.714E+02, 3.250E+02, 2.888E+02
 2.340E+03, 2.719E+02, 3.250E+02, 2.889E+02
 2.355E+03, 2.716E+02, 3.250E+02, 2.888E+02
 2.370E+03, 2.721E+02, 3.250E+02, 2.889E+02
 2.385E+03, 2.726E+02, 3.250E+02, 2.891E+02
 2.400E+03, 2.732E+02, 3.250E+02, 2.893E+02
 2.415E+03, 2.735E+02, 3.250E+02, 2.893E+02
 2.430E+03, 2.741E+02, 3.250E+02, 2.895E+02
 2.445E+03, 2.744E+02, 3.250E+02, 2.896E+02
 2.460E+03, 2.741E+02, 3.250E+02, 2.895E+02
 2.475E+03, 2.740E+02, 3.250E+02, 2.895E+02
 2.490E+03, 2.748E+02, 3.250E+02, 2.897E+02
 2.505E+03, 2.755E+02, 3.250E+02, 2.898E+02
 2.520E+03, 2.758E+02, 3.250E+02, 2.899E+02
 2.535E+03, 2.762E+02, 3.250E+02, 2.900E+02
 2.550E+03, 2.767E+02, 3.250E+02, 2.902E+02
 2.565E+03, 2.771E+02, 3.250E+02, 2.903E+02
 2.580E+03, 2.773E+02, 3.250E+02, 2.904E+02
 2.595E+03, 2.773E+02, 3.250E+02, 2.905E+02
 2.610E+03, 2.774E+02, 3.250E+02, 2.905E+02
 2.625E+03, 2.776E+02, 3.250E+02, 2.906E+02
 2.640E+03, 2.771E+02, 3.250E+02, 2.905E+02
 2.655E+03, 2.772E+02, 3.250E+02, 2.905E+02
 2.670E+03, 2.778E+02, 3.250E+02, 2.906E+02
 2.685E+03, 2.781E+02, 3.250E+02, 2.906E+02
 2.700E+03, 2.786E+02, 3.250E+02, 2.908E+02
 2.715E+03, 2.789E+02, 3.250E+02, 2.909E+02
 2.730E+03, 2.791E+02, 3.250E+02, 2.910E+02
 2.745E+03, 2.795E+02, 3.250E+02, 2.911E+02
 2.760E+03, 2.798E+02, 3.250E+02, 2.912E+02
 2.775E+03, 2.803E+02, 3.250E+02, 2.914E+02
 2.790E+03, 2.801E+02, 3.250E+02, 2.914E+02
 2.805E+03, 2.805E+02, 3.250E+02, 2.915E+02
 2.820E+03, 2.808E+02, 3.250E+02, 2.916E+02
 2.835E+03, 2.809E+02, 3.250E+02, 2.917E+02
 2.850E+03, 2.810E+02, 3.250E+02, 2.918E+02
 2.865E+03, 2.812E+02, 3.250E+02, 2.918E+02
 2.880E+03, 2.809E+02, 3.250E+02, 2.918E+02
 2.895E+03, 2.810E+02, 3.250E+02, 2.918E+02
 2.910E+03, 2.811E+02, 3.250E+02, 2.918E+02
 2.925E+03, 2.817E+02, 3.250E+02, 2.920E+02
 2.940E+03, 2.820E+02, 3.250E+02, 2.921E+02
 2.955E+03, 2.817E+02, 3.250E+02, 2.920E+02
 2.970E+03, 2.821E+02, 3.250E+02, 2.921E+02
 2.985E+03, 2.823E+02, 3.250E+02, 2.922E+02
 3.000E+03, 2.826E+02, 3.250E+02, 2.922E+02
 3.015E+03, 2.823E+02, 3.250E+02, 2.922E+02
 3.030E+03, 2.824E+02, 3.250E+02, 2.922E+02
 3.045E+03, 2.827E+02, 3.250E+02, 2.923E+02
 3.060E+03, 2.825E+02, 3.250E+02, 2.923E+02
 3.075E+03, 2.827E+02, 3.250E+02, 2.923E+02
 3.090E+03, 2.830E+02, 3.250E+02, 2.924E+02
 3.105E+03, 2.832E+02, 3.250E+02, 2.924E+02
 3.120E+03, 2.834E+02, 3.250E+02, 2.925E+02
 3.135E+03, 2.837E+02, 3.250E+02, 2.926E+02
 3.150E+03, 2.839E+02, 3.250E+02, 2.927E+02
 3.165E+03, 2.841E+02, 3.250E+02, 2.929E+02
 3.180E+03, 2.843E+02, 3.250E+02, 2.929E+02
 3.195E+03, 2.846E+02, 3.250E+02, 2.930E+02
 3.210E+03, 2.847E+02, 3.250E+02, 2.931E+02
 3.225E+03, 2.842E+02, 3.250E+02, 2.930E+02
 3.240E+03, 2.844E+02, 3.250E+02, 2.931E+02
 3.255E+03, 2.846E+02, 3.250E+02, 2.931E+02
 3.270E+03, 2.847E+02, 3.250E+02, 2.931E+02
 3.285E+03, 2.842E+02, 3.250E+02, 2.930E+02
 3.300E+03, 2.840E+02, 3.250E+02, 2.929E+02
 3.315E+03, 2.844E+02, 3.250E+02, 2.930E+02
 3.330E+03, 2.847E+02, 3.250E+02, 2.931E+02
 3.345E+03, 2.844E+02, 3.250E+02, 2.931E+02
 3.360E+03, 2.848E+02, 3.250E+02, 2.931E+02
 3.375E+03, 2.850E+02, 3.139E+02, 2.930E+02
 3.390E+03, 2.852E+02, 2.919E+02, 2.924E+02
 3.405E+03, 2.851E+02, 2.698E+02, 2.911E+02
 3.420E+03, 2.851E+02, 2.477E+02, 2.892E+02
 3.435E+03, 2.849E+02, 2.256E+02, 2.869E+02
 3.450E+03, 2.845E+02, 2.036E+02, 2.841E+02
 3.465E+03, 2.839E+02, 1.828E+02, 2.811E+02
 3.480E+03, 2.831E+02, 1.780E+02, 2.778E+02
 3.495E+03, 2.821E+02, 1.780E+02, 2.747E+02
 3.510E+03, 2.808E+02, 1.780E+02, 2.716E+02
 3.525E+03, 2.799E+02, 1.780E+02, 2.687E+02
 3.540E+03, 2.783E+02, 1.780E+02, 2.658E+02
 3.555E+03, 2.769E+02, 1.780E+02, 2.630E+02
 3.570E+03, 2.755E+02, 1.780E+02, 2.603E+02
 3.585E+03, 2.745E+02, 1.780E+02, 2.578E+02
 3.600E+03, 2.735E+02, 1.780E+02, 2.554E+02
