s,C,C,C
Time,"Cable Temp","Shroud Temp","Conduit"
 0.000E+00, 3.100E+01, 3.100E+01, 3.100E+01
 1.510E+01, 3.100E+01, 6.898E+01, 3.106E+01
 3.002E+01, 3.100E+01, 1.436E+02, 3.163E+01
 4.503E+01, 3.103E+01, 2.181E+02, 3.329E+01
 6.004E+01, 3.113E+01, 2.886E+02, 3.657E+01
 7.500E+01, 3.134E+01, 3.050E+02, 4.110E+01
 9.004E+01, 3.170E+01, 3.050E+02, 4.576E+01
 1.050E+02, 3.218E+01, 3.050E+02, 5.035E+01
 1.200E+02, 3.260E+01, 3.050E+02, 5.486E+01
 1.350E+02, 3.298E+01, 3.050E+02, 5.928E+01
 1.500E+02, 3.341E+01, 3.050E+02, 6.360E+01
 1.650E+02, 3.385E+01, 3.050E+02, 6.787E+01
 1.800E+02, 3.441E+01, 3.050E+02, 7.206E+01
 1.950E+02, 3.498E+01, 3.050E+02, 7.620E+01
 2.100E+02, 3.558E+01, 3.050E+02, 8.029E+01
 2.250E+02, 3.635E+01, 3.050E+02, 8.434E+01
 2.400E+02, 3.711E+01, 3.050E+02, 8.829E+01
 2.550E+02, 3.782E+01, 3.050E+02, 9.216E+01
 2.701E+02, 3.860E+01, 3.050E+02, 9.601E+01
 2.850E+02, 3.945E+01, 3.050E+02, 9.979E+01
 3.001E+02, 4.026E+01, 3.050E+02, 1.034E+02
 3.150E+02, 4.117E+01, 3.050E+02, 1.071E+02
 3.300E+02, 4.212E+01, 3.050E+02, 1.106E+02
 3.450E+02, 4.302E+01, 3.050E+02, 1.141E+02
 3.600E+02, 4.393E+01, 3.050E+02, 1.176E+02
 3.751E+02, 4.498E+01, 3.050E+02, 1.209E+02
 3.900E+02, 4.605E+01, 3.050E+02, 1.242E+02
 4.050E+02, 4.712E+01, 3.050E+02, 1.275E+02
 4.201E+02, 4.825E+01, 3.050E+02, 1.307E+02
 4.350E+02, 4.943E+01, 3.050E+02, 1.338E+02
 4.500E+02, 5.074E+01, 3.050E+02, 1.369E+02
 4.650E+02, 5.203E+01, 3.050E+02, 1.399E+02
 4.800E+02, 5.344E+01, 3.050E+02, 1.428E+02
 4.950E+02, 5.491E+01, 3.050E+02, 1.457E+02
 5.100E+02, 5.642E+01, 3.050E+02, 1.485E+02
 5.250E+02, 5.787E+01, 3.050E+02, 1.513E+02
 5.400E+02, 5.930E+01, 3.050E+02, 1.540E+02
 5.550E+02, 6.072E+01, 3.050E+02, 1.568E+02
 5.700E+02, 6.220E+01, 3.050E+02, 1.594E+02
 5.850E+02, 6.373E+01, 3.050E+02, 1.620E+02
 6.000E+02, 6.527E+01, 3.050E+02, 1.645E+02
 6.150E+02, 6.684E+01, 3.050E+02, 1.670E+02
 6.300E+02, 6.847E+01, 3.050E+02, 1.694E+02
 6.450E+02, 7.011E+01, 3.050E+02, 1.719E+02
 6.600E+02, 7.176E+01, 3.050E+02, 1.742E+02
 6.750E+02, 7.350E+01, 3.050E+02, 1.765E+02
 6.900E+02, 7.522E+01, 3.050E+02, 1.788E+02
 7.050E+02, 7.700E+01, 3.050E+02, 1.810E+02
 7.200E+02, 7.882E+01, 3.050E+02, 1.831E+02
 7.350E+02, 8.066E+01, 3.050E+02, 1.852E+02
 7.500E+02, 8.256E+01, 3.050E+02, 1.873E+02
 7.650E+02, 8.448E+01, 3.050E+02, 1.893E+02
 7.800E+02, 8.640E+01, 3.050E+02, 1.913E+02
 7.950E+02, 8.828E+01, 3.050E+02, 1.933E+02
 8.101E+02, 9.017E+01, 3.050E+02, 1.952E+02
 8.250E+02, 9.206E+01, 3.050E+02, 1.970E+02
 8.400E+02, 9.396E+01, 3.050E+02, 1.988E+02
 8.550E+02, 9.593E+01, 3.050E+02, 2.005E+02
 8.700E+02, 9.794E+01, 3.050E+02, 2.023E+02
 8.850E+02, 9.994E+01, 3.050E+02, 2.040E+02
 9.000E+02, 1.019E+02, 3.050E+02, 2.057E+02
 9.150E+02, 1.039E+02, 3.050E+02, 2.073E+02
 9.300E+02, 1.058E+02, 3.050E+02, 2.090E+02
 9.450E+02, 1.078E+02, 3.050E+02, 2.105E+02
 9.600E+02, 1.097E+02, 3.050E+02, 2.121E+02
 9.750E+02, 1.118E+02, 3.050E+02, 2.135E+02
 9.900E+02, 1.138E+02, 3.050E+02, 2.150E+02
 1.005E+03, 1.157E+02, 3.050E+02, 2.164E+02
 1.020E+03, 1.177E+02, 3.050E+02, 2.178E+02
 1.035E+03, 1.197E+02, 3.050E+02, 2.191E+02
 1.050E+03, 1.218E+02, 3.050E+02, 2.204E+02
 1.065E+03, 1.238E+02, 3.050E+02, 2.216E+02
 1.080E+03, 1.258E+02, 3.050E+02, 2.228E+02
 1.095E+03, 1.277E+02, 3.050E+02, 2.240E+02
 1.110E+03, 1.297E+02, 3.050E+02, 2.252E+02
 1.125E+03, 1.316E+02, 3.050E+02, 2.264E+02
 1.140E+03, 1.336E+02, 3.050E+02, 2.275E+02
 1.155E+03, 1.356E+02, 3.050E+02, 2.286E+02
 1.170E+03, 1.376E+02, 3.050E+02, 2.297E+02
 1.185E+03, 1.395E+02, 3.050E+02, 2.308E+02
 1.200E+03, 1.415E+02, 3.050E+02, 2.318E+02
 1.215E+03, 1.434E+02, 3.050E+02, 2.328E+02
 1.230E+03, 1.453E+02, 3.050E+02, 2.337E+02
 1.245E+03, 1.472E+02, 3.050E+02, 2.346E+02
 1.260E+03, 1.491E+02, 3.050E+02, 2.355E+02
 1.275E+03, 1.509E+02, 3.050E+02, 2.364E+02
 1.290E+03, 1.528E+02, 3.050E+02, 2.373E+02
 1.305E+03, 1.546E+02, 3.050E+02, 2.382E+02
 1.320E+03, 1.565E+02, 3.050E+02, 2.390E+02
 1.335E+03, 1.583E+02, 3.050E+02, 2.398E+02
 1.350E+03, 1.601E+02, 3.050E+02, 2.406E+02
 1.365E+03, 1.619E+02, 3.050E+02, 2.413E+02
 1.380E+03, 1.636E+02, 3.050E+02, 2.420E+02
 1.395E+03, 1.653E+02, 3.050E+02, 2.428E+02
 1.410E+03, 1.671E+02, 3.050E+02, 2.436E+02
 1.425E+03, 1.688E+02, 3.050E+02, 2.443E+02
 1.440E+03, 1.704E+02, 3.050E+02, 2.449E+02
 1.455E+03, 1.721E+02, 3.050E+02, 2.456E+02
 1.470E+03, 1.738E+02, 3.050E+02, 2.461E+02
 1.485E+03, 1.753E+02, 3.050E+02, 2.467E+02
 1.500E+03, 1.769E+02, 3.050E+02, 2.473E+02
 1.515E+03, 1.785E+02, 3.050E+02, 2.479E+02
 1.530E+03, 1.800E+02, 3.050E+02, 2.485E+02
 1.545E+03, 1.816E+02, 3.050E+02, 2.492E+02
 1.560E+03, 1.832E+02, 3.050E+02, 2.498E+02
 1.575E+03, 1.847E+02, 3.050E+02, 2.503E+02
 1.590E+03, 1.862E+02, 3.050E+02, 2.508E+02
 1.605E+03, 1.877E+02, 3.050E+02, 2.513E+02
 1.620E+03, 1.892E+02, 3.050E+02, 2.518E+02
 1.635E+03, 1.906E+02, 3.050E+02, 2.522E+02
 1.650E+03, 1.920E+02, 3.050E+02, 2.527E+02
 1.665E+03, 1.933E+02, 3.050E+02, 2.532E+02
 1.680E+03, 1.947E+02, 3.050E+02, 2.536E+02
 1.695E+03, 1.960E+02, 3.050E+02, 2.540E+02
 1.710E+03, 1.973E+02, 3.050E+02, 2.543E+02
 1.725E+03, 1.986E+02, 3.050E+02, 2.547E+02
 1.740E+03, 1.999E+02, 3.050E+02, 2.552E+02
 1.755E+03, 2.012E+02, 3.050E+02, 2.557E+02
 1.770E+03, 2.025E+02, 3.050E+02, 2.562E+02
 1.785E+03, 2.038E+02, 3.050E+02, 2.566E+02
 1.800E+03, 2.051E+02, 3.050E+02, 2.570E+02
 1.815E+03, 2.062E+02, 3.050E+02, 2.573E+02
 1.830E+03, 2.073E+02, 3.050E+02, 2.576E+02
 1.845E+03, 2.084E+02, 3.050E+02, 2.580E+02
 1.860E+03, 2.096E+02, 3.050E+02, 2.585E+02
 1.875E+03, 2.107E+02, 3.050E+02, 2.588E+02
 1.890E+03, 2.118E+02, 3.049E+02, 2.591E+02
 1.905E+03, 2.130E+02, 3.021E+02, 2.595E+02
 1.920E+03, 2.141E+02, 2.980E+02, 2.596E+02
 1.935E+03, 2.151E+02, 2.939E+02, 2.596E+02
 1.950E+03, 2.161E+02, 2.898E+02, 2.595E+02
 1.965E+03, 2.171E+02, 2.857E+02, 2.594E+02
 1.980E+03, 2.181E+02, 2.816E+02, 2.591E+02
 1.995E+03, 2.191E+02, 2.775E+02, 2.586E+02
 2.010E+03, 2.199E+02, 2.733E+02, 2.581E+02
 2.025E+03, 2.208E+02, 2.692E+02, 2.575E+02
 2.040E+03, 2.216E+02, 2.651E+02, 2.569E+02
 2.055E+03, 2.225E+02, 2.610E+02, 2.562E+02
 2.070E+03, 2.232E+02, 2.569E+02, 2.554E+02
 2.085E+03, 2.240E+02, 2.528E+02, 2.546E+02
 2.100E+03, 2.245E+02, 2.487E+02, 2.535E+02
 2.115E+03, 2.248E+02, 2.446E+02, 2.522E+02
 2.130E+03, 2.250E+02, 2.405E+02, 2.510E+02
 2.145E+03, 2.254E+02, 2.364E+02, 2.498E+02
 2.160E+03, 2.257E+02, 2.322E+02, 2.486E+02
 2.175E+03, 2.261E+02, 2.281E+02, 2.473E+02
 2.190E+03, 2.265E+02, 2.240E+02, 2.460E+02
 2.205E+03, 2.268E+02, 2.199E+02, 2.447E+02
 2.220E+03, 2.271E+02, 2.158E+02, 2.433E+02
 2.235E+03, 2.273E+02, 2.117E+02, 2.419E+02
 2.250E+03, 2.276E+02, 2.076E+02, 2.405E+02
 2.265E+03, 2.278E+02, 2.035E+02, 2.390E+02
 2.280E+03, 2.278E+02, 1.994E+02, 2.374E+02
 2.295E+03, 2.278E+02, 1.952E+02, 2.359E+02
 2.310E+03, 2.279E+02, 1.911E+02, 2.343E+02
 2.325E+03, 2.277E+02, 1.870E+02, 2.326E+02
 2.340E+03, 2.276E+02, 1.829E+02, 2.309E+02
 2.355E+03, 2.274E+02, 1.788E+02, 2.293E+02
 2.370E+03, 2.272E+02, 1.747E+02, 2.275E+02
 2.385E+03, 2.268E+02, 1.706E+02, 2.258E+02
 2.400E+03, 2.265E+02, 1.680E+02, 2.241E+02
 2.415E+03, 2.263E+02, 1.680E+02, 2.225E+02
 2.430E+03, 2.261E+02, 1.680E+02, 2.208E+02
 2.445E+03, 2.256E+02, 1.680E+02, 2.191E+02
 2.460E+03, 2.251E+02, 1.680E+02, 2.176E+02
 2.475E+03, 2.245E+02, 1.680E+02, 2.160E+02
 2.490E+03, 2.239E+02, 1.680E+02, 2.146E+02
 2.505E+03, 2.235E+02, 1.680E+02, 2.131E+02
 2.520E+03, 2.229E+02, 1.680E+02, 2.117E+02
 2.535E+03, 2.223E+02, 1.680E+02, 2.103E+02
 2.550E+03, 2.217E+02, 1.680E+02, 2.090E+02
 2.565E+03, 2.213E+02, 1.680E+02, 2.078E+02
 2.580E+03, 2.209E+02, 1.680E+02, 2.066E+02
 2.595E+03, 2.205E+02, 1.680E+02, 2.054E+02
 2.610E+03, 2.199E+02, 1.680E+02, 2.042E+02
 2.625E+03, 2.193E+02, 1.680E+02, 2.030E+02
 2.640E+03, 2.187E+02, 1.680E+02, 2.019E+02
 2.655E+03, 2.180E+02, 1.680E+02, 2.008E+02
 2.670E+03, 2.173E+02, 1.680E+02, 1.997E+02
 2.685E+03, 2.166E+02, 1.680E+02, 1.986E+02
 2.700E+03, 2.160E+02, 1.680E+02, 1.976E+02
 2.715E+03, 2.153E+02, 1.680E+02, 1.966E+02
 2.730E+03, 2.145E+02, 1.680E+02, 1.955E+02
 2.745E+03, 2.137E+02, 1.680E+02, 1.945E+02
 2.760E+03, 2.128E+02, 1.680E+02, 1.935E+02
 2.775E+03, 2.121E+02, 1.680E+02, 1.926E+02
 2.790E+03, 2.116E+02, 1.680E+02, 1.918E+02
 2.805E+03, 2.111E+02, 1.680E+02, 1.909E+02
 2.820E+03, 2.104E+02, 1.680E+02, 1.900E+02
 2.835E+03, 2.097E+02, 1.680E+02, 1.892E+02
 2.850E+03, 2.092E+02, 1.680E+02, 1.885E+02
 2.865E+03, 2.086E+02, 1.680E+02, 1.877E+02
 2.880E+03, 2.080E+02, 1.680E+02, 1.869E+02
 2.895E+03, 2.074E+02, 1.680E+02, 1.862E+02
 2.910E+03, 2.068E+02, 1.680E+02, 1.855E+02
 2.925E+03, 2.061E+02, 1.680E+02, 1.847E+02
 2.940E+03, 2.054E+02, 1.680E+02, 1.840E+02
 2.955E+03, 2.046E+02, 1.680E+02, 1.833E+02
 2.970E+03, 2.041E+02, 1.680E+02, 1.827E+02
 2.985E+03, 2.037E+02, 1.680E+02, 1.821E+02
 3.000E+03, 2.032E+02, 1.680E+02, 1.815E+02
 3.015E+03, 2.027E+02, 1.680E+02, 1.809E+02
 3.030E+03, 2.020E+02, 1.680E+02, 1.802E+02
 3.045E+03, 2.012E+02, 1.680E+02, 1.796E+02
 3.060E+03, 2.006E+02, 1.680E+02, 1.791E+02
 3.075E+03, 2.001E+02, 1.680E+02, 1.785E+02
 3.090E+03, 1.995E+02, 1.680E+02, 1.780E+02
 3.105E+03, 1.989E+02, 1.680E+02, 1.774E+02
 3.120E+03, 1.984E+02, 1.680E+02, 1.769E+02
 3.135E+03, 1.978E+02, 1.680E+02, 1.764E+02
 3.150E+03, 1.973E+02, 1.680E+02, 1.759E+02
 3.165E+03, 1.968E+02, 1.680E+02, 1.755E+02
 3.180E+03, 1.963E+02, 1.680E+02, 1.750E+02
 3.195E+03, 1.957E+02, 1.680E+02, 1.745E+02
 3.210E+03, 1.953E+02, 1.680E+02, 1.741E+02
 3.225E+03, 1.947E+02, 1.680E+02, 1.736E+02
 3.240E+03, 1.941E+02, 1.680E+02, 1.731E+02
 3.255E+03, 1.935E+02, 1.680E+02, 1.727E+02
 3.270E+03, 1.929E+02, 1.680E+02, 1.722E+02
 3.285E+03, 1.922E+02, 1.680E+02, 1.717E+02
 3.300E+03, 1.916E+02, 1.680E+02, 1.713E+02
 3.315E+03, 1.911E+02, 1.680E+02, 1.709E+02
 3.330E+03, 1.904E+02, 1.680E+02, 1.704E+02
 3.345E+03, 1.898E+02, 1.680E+02, 1.700E+02
 3.360E+03, 1.893E+02, 1.680E+02, 1.697E+02
 3.375E+03, 1.888E+02, 1.680E+02, 1.693E+02
 3.390E+03, 1.883E+02, 1.680E+02, 1.689E+02
 3.405E+03, 1.877E+02, 1.680E+02, 1.685E+02
 3.420E+03, 1.872E+02, 1.680E+02, 1.681E+02
 3.435E+03, 1.868E+02, 1.680E+02, 1.678E+02
 3.450E+03, 1.863E+02, 1.680E+02, 1.674E+02
 3.465E+03, 1.858E+02, 1.680E+02, 1.671E+02
 3.480E+03, 1.854E+02, 1.680E+02, 1.668E+02
 3.495E+03, 1.850E+02, 1.680E+02, 1.664E+02
 3.510E+03, 1.844E+02, 1.680E+02, 1.661E+02
 3.525E+03, 1.840E+02, 1.680E+02, 1.658E+02
 3.540E+03, 1.835E+02, 1.680E+02, 1.655E+02
 3.555E+03, 1.830E+02, 1.680E+02, 1.652E+02
 3.570E+03, 1.825E+02, 1.680E+02, 1.648E+02
 3.585E+03, 1.820E+02, 1.680E+02, 1.645E+02
 3.600E+03, 1.816E+02, 1.680E+02, 1.642E+02
