s,C,C
Time,"Cable Temp","Shroud Temp"
 0.000E+00, 2.400E+01, 2.400E+01
 1.508E+01, 2.401E+01, 6.168E+01
 3.001E+01, 2.430E+01, 1.356E+02
 4.506E+01, 2.561E+01, 2.085E+02
 6.005E+01, 2.874E+01, 2.789E+02
 7.504E+01, 3.435E+01, 3.148E+02
 9.002E+01, 4.193E+01, 3.257E+02
 1.050E+02, 5.004E+01, 3.223E+02
 1.200E+02, 5.775E+01, 3.178E+02
 1.350E+02, 6.471E+01, 3.134E+02
 1.500E+02, 7.098E+01, 3.090E+02
 1.650E+02, 7.664E+01, 3.053E+02
 1.800E+02, 8.179E+01, 3.050E+02
 1.950E+02, 8.663E+01, 3.050E+02
 2.100E+02, 9.126E+01, 3.050E+02
 2.250E+02, 9.573E+01, 3.050E+02
 2.400E+02, 1.001E+02, 3.050E+02
 2.550E+02, 1.043E+02, 3.050E+02
 2.700E+02, 1.084E+02, 3.050E+02
 2.850E+02, 1.123E+02, 3.050E+02
 3.000E+02, 1.162E+02, 3.050E+02
 3.150E+02, 1.200E+02, 3.050E+02
 3.300E+02, 1.237E+02, 3.050E+02
 3.451E+02, 1.273E+02, 3.050E+02
 3.600E+02, 1.308E+02, 3.050E+02
 3.750E+02, 1.342E+02, 3.050E+02
 3.900E+02, 1.375E+02, 3.050E+02
 4.051E+02, 1.408E+02, 3.050E+02
 4.200E+02, 1.440E+02, 3.050E+02
 4.351E+02, 1.471E+02, 3.050E+02
 4.500E+02, 1.501E+02, 3.050E+02
 4.650E+02, 1.530E+02, 3.050E+02
 4.800E+02, 1.559E+02, 3.050E+02
 4.950E+02, 1.587E+02, 3.050E+02
 5.100E+02, 1.615E+02, 3.050E+02
 5.250E+02, 1.641E+02, 3.050E+02
 5.400E+02, 1.668E+02, 3.050E+02
 5.550E+02, 1.693E+02, 3.050E+02
 5.700E+02, 1.718E+02, 3.050E+02
 5.850E+02, 1.743E+02, 3.050E+02
 6.000E+02, 1.767E+02, 3.050E+02
 6.151E+02, 1.790E+02, 3.050E+02
 6.300E+02, 1.813E+02, 3.050E+02
 6.450E+02, 1.835E+02, 3.050E+02
 6.600E+02, 1.856E+02, 3.050E+02
 6.750E+02, 1.877E+02, 3.050E+02
 6.901E+02, 1.897E+02, 3.050E+02
 7.050E+02, 1.916E+02, 3.050E+02
 7.200E+02, 1.936E+02, 3.050E+02
 7.350E+02, 1.955E+02, 3.050E+02
 7.500E+02, 1.973E+02, 3.050E+02
 7.650E+02, 1.990E+02, 3.050E+02
 7.800E+02, 2.008E+02, 3.050E+02
 7.950E+02, 2.025E+02, 3.050E+02
 8.100E+02, 2.042E+02, 3.050E+02
 8.250E+02, 2.058E+02, 3.050E+02
 8.400E+02, 2.074E+02, 3.050E+02
 8.550E+02, 2.089E+02, 3.050E+02
 8.700E+02, 2.104E+02, 3.050E+02
 8.850E+02, 2.119E+02, 3.050E+02
 9.000E+02, 2.134E+02, 3.050E+02
 9.150E+02, 2.147E+02, 3.050E+02
 9.300E+02, 2.161E+02, 3.050E+02
 9.450E+02, 2.174E+02, 3.050E+02
 9.600E+02, 2.188E+02, 3.050E+02
 9.750E+02, 2.201E+02, 3.050E+02
 9.900E+02, 2.213E+02, 3.050E+02
 1.005E+03, 2.224E+02, 3.050E+02
 1.020E+03, 2.234E+02, 3.050E+02
 1.035E+03, 2.244E+02, 3.050E+02
 1.050E+03, 2.254E+02, 3.050E+02
 1.065E+03, 2.265E+02, 3.050E+02
 1.080E+03, 2.275E+02, 3.050E+02
 1.095E+03, 2.285E+02, 3.024E+02
 1.110E+03, 2.292E+02, 2.979E+02
 1.125E+03, 2.298E+02, 2.933E+02
 1.140E+03, 2.302E+02, 2.888E+02
 1.155E+03, 2.304E+02, 2.843E+02
 1.170E+03, 2.304E+02, 2.797E+02
 1.185E+03, 2.303E+02, 2.752E+02
 1.200E+03, 2.301E+02, 2.706E+02
 1.215E+03, 2.297E+02, 2.661E+02
 1.230E+03, 2.291E+02, 2.616E+02
 1.245E+03, 2.286E+02, 2.570E+02
 1.260E+03, 2.279E+02, 2.525E+02
 1.275E+03, 2.271E+02, 2.479E+02
 1.290E+03, 2.262E+02, 2.434E+02
 1.305E+03, 2.252E+02, 2.389E+02
 1.320E+03, 2.241E+02, 2.343E+02
 1.335E+03, 2.230E+02, 2.298E+02
 1.350E+03, 2.219E+02, 2.252E+02
 1.365E+03, 2.208E+02, 2.207E+02
 1.380E+03, 2.195E+02, 2.162E+02
 1.395E+03, 2.182E+02, 2.116E+02
 1.410E+03, 2.168E+02, 2.075E+02
 1.425E+03, 2.154E+02, 2.066E+02
 1.440E+03, 2.140E+02, 2.066E+02
 1.455E+03, 2.126E+02, 2.067E+02
 1.470E+03, 2.113E+02, 2.067E+02
 1.485E+03, 2.101E+02, 2.067E+02
 1.500E+03, 2.090E+02, 2.067E+02
 1.515E+03, 2.080E+02, 2.067E+02
 1.530E+03, 2.071E+02, 2.067E+02
 1.545E+03, 2.062E+02, 2.067E+02
 1.560E+03, 2.053E+02, 2.067E+02
 1.575E+03, 2.045E+02, 2.067E+02
 1.590E+03, 2.036E+02, 2.067E+02
 1.605E+03, 2.028E+02, 2.067E+02
 1.620E+03, 2.020E+02, 2.067E+02
 1.635E+03, 2.013E+02, 2.067E+02
 1.650E+03, 2.005E+02, 2.066E+02
 1.665E+03, 1.996E+02, 2.066E+02
 1.680E+03, 1.989E+02, 2.066E+02
 1.695E+03, 1.981E+02, 2.066E+02
 1.710E+03, 1.974E+02, 2.066E+02
 1.725E+03, 1.967E+02, 2.066E+02
 1.740E+03, 1.961E+02, 2.066E+02
 1.755E+03, 1.955E+02, 2.066E+02
 1.770E+03, 1.948E+02, 2.066E+02
 1.785E+03, 1.942E+02, 2.066E+02
 1.800E+03, 1.936E+02, 2.066E+02
