s,C,C
Time,"Cable Temp","Shroud Temp"
 0.000E+00, 2.000E+01, 2.000E+01
 1.507E+01, 2.015E+01, 6.680E+01
 3.001E+01, 2.217E+01, 1.590E+02
 4.505E+01, 2.846E+01, 2.512E+02
 6.001E+01, 4.087E+01, 3.219E+02
 7.501E+01, 5.504E+01, 3.234E+02
 9.001E+01, 6.628E+01, 3.196E+02
 1.050E+02, 7.552E+01, 3.158E+02
 1.200E+02, 8.329E+01, 3.120E+02
 1.351E+02, 9.000E+01, 3.081E+02
 1.500E+02, 9.588E+01, 3.052E+02
 1.650E+02, 1.013E+02, 3.050E+02
 1.800E+02, 1.065E+02, 3.050E+02
 1.951E+02, 1.116E+02, 3.050E+02
 2.100E+02, 1.164E+02, 3.050E+02
 2.250E+02, 1.211E+02, 3.050E+02
 2.400E+02, 1.256E+02, 3.050E+02
 2.550E+02, 1.300E+02, 3.050E+02
 2.700E+02, 1.342E+02, 3.050E+02
 2.850E+02, 1.383E+02, 3.050E+02
 3.000E+02, 1.423E+02, 3.050E+02
 3.150E+02, 1.462E+02, 3.050E+02
 3.300E+02, 1.499E+02, 3.050E+02
 3.450E+02, 1.536E+02, 3.050E+02
 3.600E+02, 1.572E+02, 3.050E+02
 3.750E+02, 1.606E+02, 3.050E+02
 3.900E+02, 1.640E+02, 3.050E+02
 4.051E+02, 1.673E+02, 3.050E+02
 4.200E+02, 1.705E+02, 3.050E+02
 4.350E+02, 1.737E+02, 3.050E+02
 4.500E+02, 1.766E+02, 3.050E+02
 4.651E+02, 1.794E+02, 3.050E+02
 4.800E+02, 1.823E+02, 3.050E+02
 4.950E+02, 1.852E+02, 3.050E+02
 5.100E+02, 1.878E+02, 3.050E+02
 5.250E+02, 1.904E+02, 3.050E+02
 5.400E+02, 1.929E+02, 3.050E+02
 5.550E+02, 1.954E+02, 3.050E+02
 5.701E+02, 1.978E+02, 3.050E+02
 5.850E+02, 2.001E+02, 3.050E+02
 6.000E+02, 2.022E+02, 3.050E+02
 6.150E+02, 2.043E+02, 3.050E+02
 6.300E+02, 2.065E+02, 3.050E+02
 6.450E+02, 2.087E+02, 3.050E+02
 6.600E+02, 2.104E+02, 3.050E+02
 6.750E+02, 2.125E+02, 3.050E+02
 6.900E+02, 2.145E+02, 3.050E+02
 7.050E+02, 2.163E+02, 3.050E+02
 7.200E+02, 2.179E+02, 3.050E+02
 7.350E+02, 2.196E+02, 3.050E+02
 7.500E+02, 2.213E+02, 3.050E+02
 7.650E+02, 2.228E+02, 3.050E+02
 7.801E+02, 2.243E+02, 3.050E+02
 7.950E+02, 2.257E+02, 3.050E+02
 8.100E+02, 2.270E+02, 3.050E+02
 8.250E+02, 2.283E+02, 3.050E+02
 8.400E+02, 2.294E+02, 3.050E+02
 8.550E+02, 2.307E+02, 3.050E+02
 8.700E+02, 2.319E+02, 3.050E+02
 8.850E+02, 2.332E+02, 3.050E+02
 9.001E+02, 2.345E+02, 3.050E+02
 9.150E+02, 2.357E+02, 3.050E+02
 9.300E+02, 2.369E+02, 3.050E+02
 9.450E+02, 2.378E+02, 3.050E+02
 9.600E+02, 2.388E+02, 3.050E+02
 9.750E+02, 2.399E+02, 3.050E+02
 9.900E+02, 2.408E+02, 3.050E+02
 1.005E+03, 2.417E+02, 3.050E+02
 1.020E+03, 2.427E+02, 3.050E+02
 1.035E+03, 2.439E+02, 3.050E+02
 1.050E+03, 2.449E+02, 3.050E+02
 1.065E+03, 2.454E+02, 3.050E+02
 1.080E+03, 2.461E+02, 3.050E+02
 1.095E+03, 2.469E+02, 3.050E+02
 1.110E+03, 2.475E+02, 3.050E+02
 1.125E+03, 2.482E+02, 3.050E+02
 1.140E+03, 2.489E+02, 3.050E+02
 1.155E+03, 2.495E+02, 3.050E+02
 1.170E+03, 2.501E+02, 3.050E+02
 1.185E+03, 2.509E+02, 3.050E+02
 1.200E+03, 2.517E+02, 3.050E+02
 1.215E+03, 2.522E+02, 3.050E+02
 1.230E+03, 2.526E+02, 3.050E+02
 1.245E+03, 2.532E+02, 3.050E+02
 1.260E+03, 2.536E+02, 3.050E+02
 1.275E+03, 2.539E+02, 3.050E+02
 1.290E+03, 2.543E+02, 3.050E+02
 1.305E+03, 2.550E+02, 3.050E+02
 1.320E+03, 2.557E+02, 3.050E+02
 1.335E+03, 2.561E+02, 3.050E+02
 1.350E+03, 2.564E+02, 3.050E+02
 1.365E+03, 2.568E+02, 3.050E+02
 1.380E+03, 2.574E+02, 3.050E+02
 1.395E+03, 2.579E+02, 3.050E+02
 1.410E+03, 2.583E+02, 3.050E+02
 1.425E+03, 2.585E+02, 3.050E+02
 1.440E+03, 2.587E+02, 3.050E+02
 1.455E+03, 2.589E+02, 3.050E+02
 1.470E+03, 2.590E+02, 3.050E+02
 1.485E+03, 2.593E+02, 3.050E+02
 1.500E+03, 2.596E+02, 3.050E+02
 1.515E+03, 2.600E+02, 3.050E+02
 1.530E+03, 2.603E+02, 3.050E+02
 1.545E+03, 2.605E+02, 3.050E+02
 1.560E+03, 2.607E+02, 3.050E+02
 1.575E+03, 2.611E+02, 3.050E+02
 1.590E+03, 2.616E+02, 3.050E+02
 1.605E+03, 2.618E+02, 3.050E+02
 1.620E+03, 2.619E+02, 3.050E+02
 1.635E+03, 2.620E+02, 3.050E+02
 1.650E+03, 2.623E+02, 3.050E+02
 1.665E+03, 2.625E+02, 3.050E+02
 1.680E+03, 2.627E+02, 3.050E+02
 1.695E+03, 2.630E+02, 3.050E+02
 1.710E+03, 2.631E+02, 3.050E+02
 1.725E+03, 2.632E+02, 3.050E+02
 1.740E+03, 2.636E+02, 3.050E+02
 1.755E+03, 2.637E+02, 3.050E+02
 1.770E+03, 2.637E+02, 3.050E+02
 1.785E+03, 2.639E+02, 3.050E+02
 1.800E+03, 2.641E+02, 3.050E+02
 1.815E+03, 2.643E+02, 3.050E+02
 1.830E+03, 2.644E+02, 3.050E+02
 1.845E+03, 2.647E+02, 3.050E+02
 1.860E+03, 2.649E+02, 3.050E+02
 1.875E+03, 2.650E+02, 3.050E+02
 1.890E+03, 2.652E+02, 3.050E+02
 1.905E+03, 2.652E+02, 3.050E+02
 1.920E+03, 2.655E+02, 3.050E+02
 1.935E+03, 2.655E+02, 3.050E+02
 1.950E+03, 2.657E+02, 3.050E+02
 1.965E+03, 2.658E+02, 3.050E+02
 1.980E+03, 2.655E+02, 3.050E+02
 1.995E+03, 2.656E+02, 3.050E+02
 2.010E+03, 2.658E+02, 3.050E+02
 2.025E+03, 2.656E+02, 3.050E+02
 2.040E+03, 2.658E+02, 3.050E+02
 2.055E+03, 2.660E+02, 3.050E+02
 2.070E+03, 2.659E+02, 3.050E+02
 2.085E+03, 2.660E+02, 3.050E+02
 2.100E+03, 2.660E+02, 3.040E+02
 2.115E+03, 2.658E+02, 2.996E+02
 2.130E+03, 2.654E+02, 2.949E+02
 2.145E+03, 2.646E+02, 2.903E+02
 2.160E+03, 2.636E+02, 2.856E+02
 2.175E+03, 2.626E+02, 2.810E+02
 2.190E+03, 2.613E+02, 2.763E+02
 2.205E+03, 2.599E+02, 2.717E+02
 2.220E+03, 2.582E+02, 2.670E+02
 2.235E+03, 2.566E+02, 2.624E+02
 2.250E+03, 2.549E+02, 2.577E+02
 2.265E+03, 2.531E+02, 2.531E+02
 2.280E+03, 2.510E+02, 2.484E+02
 2.295E+03, 2.490E+02, 2.438E+02
 2.310E+03, 2.470E+02, 2.392E+02
 2.325E+03, 2.451E+02, 2.348E+02
 2.340E+03, 2.430E+02, 2.338E+02
 2.355E+03, 2.413E+02, 2.338E+02
 2.370E+03, 2.397E+02, 2.337E+02
 2.385E+03, 2.385E+02, 2.338E+02
 2.400E+03, 2.371E+02, 2.337E+02
