s,C,C,C
Time,"Cable Temp","Shroud Temp","Conduit"
 0.000E+00, 3.100E+01, 3.100E+01, 3.100E+01
 1.511E+01, 3.100E+01, 6.675E+01, 3.105E+01
 3.000E+01, 3.100E+01, 1.366E+02, 3.157E+01
 4.503E+01, 3.101E+01, 2.065E+02, 3.304E+01
 6.003E+01, 3.108E+01, 2.767E+02, 3.595E+01
 7.505E+01, 3.119E+01, 3.468E+02, 4.092E+01
 9.001E+01, 3.134E+01, 4.168E+02, 4.870E+01
 1.050E+02, 3.169E+01, 4.711E+02, 6.002E+01
 1.200E+02, 3.224E+01, 4.750E+02, 7.272E+01
 1.350E+02, 3.299E+01, 4.750E+02, 8.523E+01
 1.500E+02, 3.406E+01, 4.750E+02, 9.751E+01
 1.650E+02, 3.527E+01, 4.750E+02, 1.096E+02
 1.800E+02, 3.670E+01, 4.750E+02, 1.214E+02
 1.950E+02, 3.836E+01, 4.750E+02, 1.330E+02
 2.100E+02, 4.027E+01, 4.750E+02, 1.444E+02
 2.250E+02, 4.249E+01, 4.750E+02, 1.555E+02
 2.400E+02, 4.488E+01, 4.750E+02, 1.663E+02
 2.550E+02, 4.751E+01, 4.750E+02, 1.768E+02
 2.700E+02, 5.025E+01, 4.750E+02, 1.871E+02
 2.850E+02, 5.317E+01, 4.750E+02, 1.971E+02
 3.000E+02, 5.633E+01, 4.750E+02, 2.068E+02
 3.150E+02, 5.980E+01, 4.750E+02, 2.163E+02
 3.300E+02, 6.345E+01, 4.750E+02, 2.255E+02
 3.450E+02, 6.724E+01, 4.750E+02, 2.344E+02
 3.600E+02, 7.132E+01, 4.750E+02, 2.430E+02
 3.750E+02, 7.564E+01, 4.750E+02, 2.514E+02
 3.900E+02, 8.012E+01, 4.750E+02, 2.595E+02
 4.050E+02, 8.486E+01, 4.750E+02, 2.673E+02
 4.200E+02, 8.990E+01, 4.750E+02, 2.749E+02
 4.350E+02, 9.513E+01, 4.750E+02, 2.822E+02
 4.500E+02, 1.005E+02, 4.750E+02, 2.892E+02
 4.650E+02, 1.061E+02, 4.750E+02, 2.960E+02
 4.800E+02, 1.118E+02, 4.750E+02, 3.025E+02
 4.950E+02, 1.177E+02, 4.750E+02, 3.089E+02
 5.100E+02, 1.236E+02, 4.750E+02, 3.149E+02
 5.250E+02, 1.297E+02, 4.750E+02, 3.207E+02
 5.400E+02, 1.359E+02, 4.750E+02, 3.262E+02
 5.550E+02, 1.420E+02, 4.750E+02, 3.316E+02
 5.700E+02, 1.484E+02, 4.750E+02, 3.367E+02
 5.850E+02, 1.549E+02, 4.750E+02, 3.416E+02
 6.000E+02, 1.614E+02, 4.750E+02, 3.462E+02
 6.150E+02, 1.680E+02, 4.750E+02, 3.507E+02
 6.300E+02, 1.745E+02, 4.750E+02, 3.550E+02
 6.450E+02, 1.810E+02, 4.750E+02, 3.591E+02
 6.600E+02, 1.876E+02, 4.750E+02, 3.630E+02
 6.750E+02, 1.942E+02, 4.750E+02, 3.665E+02
 6.900E+02, 2.007E+02, 4.750E+02, 3.701E+02
 7.050E+02, 2.072E+02, 4.750E+02, 3.734E+02
 7.200E+02, 2.137E+02, 4.750E+02, 3.766E+02
 7.350E+02, 2.201E+02, 4.750E+02, 3.797E+02
 7.500E+02, 2.264E+02, 4.750E+02, 3.827E+02
 7.650E+02, 2.327E+02, 4.750E+02, 3.855E+02
 7.800E+02, 2.389E+02, 4.750E+02, 3.881E+02
 7.950E+02, 2.449E+02, 4.750E+02, 3.906E+02
 8.100E+02, 2.509E+02, 4.750E+02, 3.930E+02
 8.250E+02, 2.567E+02, 4.750E+02, 3.951E+02
 8.400E+02, 2.624E+02, 4.750E+02, 3.973E+02
 8.550E+02, 2.680E+02, 4.750E+02, 3.993E+02
 8.700E+02, 2.736E+02, 4.750E+02, 4.013E+02
 8.850E+02, 2.790E+02, 4.750E+02, 4.032E+02
 9.000E+02, 2.842E+02, 4.750E+02, 4.051E+02
 9.150E+02, 2.893E+02, 4.750E+02, 4.068E+02
 9.300E+02, 2.943E+02, 4.750E+02, 4.083E+02
 9.450E+02, 2.991E+02, 4.750E+02, 4.098E+02
 9.600E+02, 3.038E+02, 4.750E+02, 4.113E+02
 9.750E+02, 3.085E+02, 4.750E+02, 4.129E+02
 9.900E+02, 3.130E+02, 4.750E+02, 4.142E+02
 1.005E+03, 3.174E+02, 4.750E+02, 4.154E+02
 1.020E+03, 3.216E+02, 4.750E+02, 4.167E+02
 1.035E+03, 3.257E+02, 4.750E+02, 4.178E+02
 1.050E+03, 3.297E+02, 4.750E+02, 4.189E+02
 1.065E+03, 3.335E+02, 4.750E+02, 4.200E+02
 1.080E+03, 3.373E+02, 4.750E+02, 4.211E+02
 1.095E+03, 3.410E+02, 4.750E+02, 4.222E+02
 1.110E+03, 3.446E+02, 4.750E+02, 4.232E+02
 1.125E+03, 3.480E+02, 4.750E+02, 4.241E+02
 1.140E+03, 3.512E+02, 4.750E+02, 4.249E+02
 1.155E+03, 3.544E+02, 4.750E+02, 4.257E+02
 1.170E+03, 3.575E+02, 4.750E+02, 4.265E+02
 1.185E+03, 3.606E+02, 4.750E+02, 4.274E+02
 1.200E+03, 3.635E+02, 4.750E+02, 4.282E+02
 1.215E+03, 3.664E+02, 4.750E+02, 4.289E+02
 1.230E+03, 3.692E+02, 4.750E+02, 4.296E+02
 1.245E+03, 3.717E+02, 4.750E+02, 4.301E+02
 1.260E+03, 3.741E+02, 4.750E+02, 4.305E+02
 1.275E+03, 3.765E+02, 4.750E+02, 4.311E+02
 1.290E+03, 3.789E+02, 4.750E+02, 4.318E+02
 1.305E+03, 3.813E+02, 4.750E+02, 4.323E+02
 1.320E+03, 3.835E+02, 4.750E+02, 4.330E+02
 1.335E+03, 3.855E+02, 4.750E+02, 4.333E+02
 1.350E+03, 3.874E+02, 4.750E+02, 4.337E+02
 1.365E+03, 3.894E+02, 4.750E+02, 4.342E+02
 1.380E+03, 3.913E+02, 4.750E+02, 4.348E+02
 1.395E+03, 3.932E+02, 4.750E+02, 4.352E+02
 1.410E+03, 3.950E+02, 4.750E+02, 4.355E+02
 1.425E+03, 3.966E+02, 4.750E+02, 4.358E+02
 1.440E+03, 3.982E+02, 4.750E+02, 4.362E+02
 1.455E+03, 3.997E+02, 4.750E+02, 4.365E+02
 1.470E+03, 4.013E+02, 4.750E+02, 4.369E+02
 1.485E+03, 4.027E+02, 4.750E+02, 4.372E+02
 1.500E+03, 4.041E+02, 4.750E+02, 4.375E+02
 1.515E+03, 4.055E+02, 4.750E+02, 4.378E+02
 1.530E+03, 4.069E+02, 4.750E+02, 4.382E+02
 1.545E+03, 4.082E+02, 4.750E+02, 4.385E+02
 1.560E+03, 4.094E+02, 4.750E+02, 4.388E+02
 1.575E+03, 4.105E+02, 4.750E+02, 4.389E+02
 1.590E+03, 4.117E+02, 4.750E+02, 4.393E+02
 1.605E+03, 4.128E+02, 4.750E+02, 4.395E+02
 1.620E+03, 4.138E+02, 4.750E+02, 4.397E+02
 1.635E+03, 4.147E+02, 4.750E+02, 4.399E+02
 1.650E+03, 4.156E+02, 4.750E+02, 4.403E+02
 1.665E+03, 4.166E+02, 4.750E+02, 4.404E+02
 1.680E+03, 4.176E+02, 4.750E+02, 4.407E+02
 1.695E+03, 4.184E+02, 4.750E+02, 4.407E+02
 1.710E+03, 4.191E+02, 4.750E+02, 4.409E+02
 1.725E+03, 4.198E+02, 4.750E+02, 4.410E+02
 1.740E+03, 4.206E+02, 4.750E+02, 4.411E+02
 1.755E+03, 4.214E+02, 4.750E+02, 4.413E+02
 1.770E+03, 4.222E+02, 4.750E+02, 4.414E+02
 1.785E+03, 4.228E+02, 4.750E+02, 4.416E+02
 1.800E+03, 4.234E+02, 4.750E+02, 4.416E+02
 1.815E+03, 4.238E+02, 4.750E+02, 4.416E+02
 1.830E+03, 4.243E+02, 4.750E+02, 4.416E+02
 1.845E+03, 4.249E+02, 4.750E+02, 4.419E+02
 1.860E+03, 4.256E+02, 4.750E+02, 4.421E+02
 1.875E+03, 4.262E+02, 4.750E+02, 4.423E+02
 1.890E+03, 4.267E+02, 4.750E+02, 4.425E+02
 1.905E+03, 4.272E+02, 4.750E+02, 4.425E+02
 1.920E+03, 4.276E+02, 4.750E+02, 4.426E+02
 1.935E+03, 4.281E+02, 4.750E+02, 4.428E+02
 1.950E+03, 4.286E+02, 4.750E+02, 4.428E+02
 1.965E+03, 4.290E+02, 4.750E+02, 4.429E+02
 1.980E+03, 4.294E+02, 4.750E+02, 4.430E+02
 1.995E+03, 4.299E+02, 4.750E+02, 4.432E+02
 2.010E+03, 4.303E+02, 4.750E+02, 4.433E+02
 2.025E+03, 4.306E+02, 4.750E+02, 4.433E+02
 2.040E+03, 4.308E+02, 4.750E+02, 4.433E+02
 2.055E+03, 4.311E+02, 4.750E+02, 4.434E+02
 2.070E+03, 4.313E+02, 4.750E+02, 4.434E+02
 2.085E+03, 4.315E+02, 4.750E+02, 4.434E+02
 2.100E+03, 4.319E+02, 4.750E+02, 4.435E+02
 2.115E+03, 4.323E+02, 4.750E+02, 4.436E+02
 2.130E+03, 4.326E+02, 4.750E+02, 4.438E+02
 2.145E+03, 4.329E+02, 4.750E+02, 4.438E+02
 2.160E+03, 4.330E+02, 4.750E+02, 4.436E+02
 2.175E+03, 4.331E+02, 4.750E+02, 4.434E+02
 2.190E+03, 4.331E+02, 4.750E+02, 4.434E+02
 2.205E+03, 4.333E+02, 4.750E+02, 4.435E+02
 2.220E+03, 4.336E+02, 4.750E+02, 4.437E+02
 2.235E+03, 4.339E+02, 4.750E+02, 4.437E+02
 2.250E+03, 4.340E+02, 4.750E+02, 4.437E+02
 2.265E+03, 4.343E+02, 4.750E+02, 4.438E+02
 2.280E+03, 4.344E+02, 4.750E+02, 4.438E+02
 2.295E+03, 4.345E+02, 4.750E+02, 4.437E+02
 2.310E+03, 4.346E+02, 4.750E+02, 4.437E+02
 2.325E+03, 4.348E+02, 4.750E+02, 4.437E+02
 2.340E+03, 4.349E+02, 4.750E+02, 4.438E+02
 2.355E+03, 4.351E+02, 4.750E+02, 4.439E+02
 2.370E+03, 4.354E+02, 4.750E+02, 4.441E+02
 2.385E+03, 4.356E+02, 4.750E+02, 4.441E+02
 2.400E+03, 4.357E+02, 4.750E+02, 4.441E+02
 2.415E+03, 4.359E+02, 4.750E+02, 4.443E+02
 2.430E+03, 4.359E+02, 4.750E+02, 4.442E+02
 2.445E+03, 4.359E+02, 4.750E+02, 4.441E+02
 2.460E+03, 4.360E+02, 4.750E+02, 4.441E+02
 2.475E+03, 4.360E+02, 4.750E+02, 4.441E+02
 2.490E+03, 4.362E+02, 4.750E+02, 4.442E+02
 2.505E+03, 4.364E+02, 4.750E+02, 4.443E+02
 2.520E+03, 4.365E+02, 4.750E+02, 4.443E+02
 2.535E+03, 4.366E+02, 4.750E+02, 4.444E+02
 2.550E+03, 4.367E+02, 4.750E+02, 4.444E+02
 2.565E+03, 4.369E+02, 4.750E+02, 4.444E+02
 2.580E+03, 4.370E+02, 4.750E+02, 4.445E+02
 2.595E+03, 4.371E+02, 4.750E+02, 4.446E+02
 2.610E+03, 4.372E+02, 4.750E+02, 4.447E+02
 2.625E+03, 4.373E+02, 4.750E+02, 4.446E+02
 2.640E+03, 4.373E+02, 4.750E+02, 4.445E+02
 2.655E+03, 4.372E+02, 4.750E+02, 4.444E+02
 2.670E+03, 4.372E+02, 4.750E+02, 4.444E+02
 2.685E+03, 4.372E+02, 4.750E+02, 4.442E+02
 2.700E+03, 4.371E+02, 4.750E+02, 4.442E+02
 2.715E+03, 4.371E+02, 4.750E+02, 4.442E+02
 2.730E+03, 4.373E+02, 4.750E+02, 4.442E+02
 2.745E+03, 4.375E+02, 4.750E+02, 4.443E+02
 2.760E+03, 4.376E+02, 4.750E+02, 4.443E+02
 2.775E+03, 4.375E+02, 4.750E+02, 4.443E+02
 2.790E+03, 4.375E+02, 4.750E+02, 4.444E+02
 2.805E+03, 4.377E+02, 4.750E+02, 4.445E+02
 2.820E+03, 4.377E+02, 4.741E+02, 4.444E+02
 2.835E+03, 4.375E+02, 4.701E+02, 4.441E+02
 2.850E+03, 4.374E+02, 4.659E+02, 4.436E+02
 2.865E+03, 4.375E+02, 4.616E+02, 4.429E+02
 2.880E+03, 4.375E+02, 4.574E+02, 4.421E+02
 2.895E+03, 4.375E+02, 4.532E+02, 4.411E+02
 2.910E+03, 4.374E+02, 4.490E+02, 4.399E+02
 2.925E+03, 4.372E+02, 4.448E+02, 4.385E+02
 2.940E+03, 4.368E+02, 4.406E+02, 4.369E+02
 2.955E+03, 4.364E+02, 4.363E+02, 4.354E+02
 2.970E+03, 4.360E+02, 4.321E+02, 4.337E+02
 2.985E+03, 4.354E+02, 4.279E+02, 4.317E+02
 3.000E+03, 4.347E+02, 4.237E+02, 4.297E+02
 3.015E+03, 4.340E+02, 4.195E+02, 4.276E+02
 3.030E+03, 4.332E+02, 4.153E+02, 4.253E+02
 3.045E+03, 4.321E+02, 4.111E+02, 4.229E+02
 3.060E+03, 4.311E+02, 4.068E+02, 4.206E+02
 3.075E+03, 4.300E+02, 4.026E+02, 4.182E+02
 3.090E+03, 4.290E+02, 3.984E+02, 4.158E+02
 3.105E+03, 4.280E+02, 3.942E+02, 4.134E+02
 3.120E+03, 4.269E+02, 3.900E+02, 4.109E+02
 3.135E+03, 4.255E+02, 3.858E+02, 4.082E+02
 3.150E+03, 4.241E+02, 3.815E+02, 4.055E+02
 3.165E+03, 4.228E+02, 3.773E+02, 4.028E+02
 3.180E+03, 4.212E+02, 3.731E+02, 4.000E+02
 3.195E+03, 4.196E+02, 3.689E+02, 3.972E+02
 3.210E+03, 4.181E+02, 3.647E+02, 3.946E+02
 3.225E+03, 4.167E+02, 3.605E+02, 3.919E+02
 3.240E+03, 4.151E+02, 3.563E+02, 3.891E+02
 3.255E+03, 4.135E+02, 3.520E+02, 3.864E+02
 3.270E+03, 4.118E+02, 3.478E+02, 3.837E+02
 3.285E+03, 4.101E+02, 3.436E+02, 3.808E+02
 3.300E+03, 4.082E+02, 3.394E+02, 3.779E+02
 3.315E+03, 4.064E+02, 3.352E+02, 3.751E+02
 3.330E+03, 4.047E+02, 3.310E+02, 3.723E+02
 3.345E+03, 4.028E+02, 3.268E+02, 3.694E+02
 3.360E+03, 4.008E+02, 3.225E+02, 3.665E+02
 3.375E+03, 3.987E+02, 3.183E+02, 3.634E+02
 3.390E+03, 3.964E+02, 3.141E+02, 3.604E+02
 3.405E+03, 3.941E+02, 3.099E+02, 3.573E+02
 3.420E+03, 3.919E+02, 3.057E+02, 3.545E+02
 3.435E+03, 3.901E+02, 3.015E+02, 3.516E+02
 3.450E+03, 3.880E+02, 2.972E+02, 3.485E+02
 3.465E+03, 3.855E+02, 2.930E+02, 3.455E+02
 3.480E+03, 3.833E+02, 2.888E+02, 3.426E+02
 3.495E+03, 3.812E+02, 2.846E+02, 3.397E+02
 3.510E+03, 3.791E+02, 2.804E+02, 3.368E+02
 3.525E+03, 3.770E+02, 2.762E+02, 3.341E+02
 3.540E+03, 3.750E+02, 2.720E+02, 3.312E+02
 3.555E+03, 3.729E+02, 2.677E+02, 3.283E+02
 3.570E+03, 3.704E+02, 2.635E+02, 3.252E+02
 3.585E+03, 3.677E+02, 2.593E+02, 3.221E+02
 3.600E+03, 3.652E+02, 2.551E+02, 3.192E+02
