s,C,C,C
Time,"Cable Temp","Shroud Temp","Conduit"
 0.000E+00, 3.100E+01, 3.100E+01, 3.100E+01
 1.504E+01, 3.100E+01, 6.849E+01, 3.106E+01
 3.001E+01, 3.100E+01, 1.423E+02, 3.161E+01
 4.503E+01, 3.101E+01, 2.163E+02, 3.320E+01
 6.000E+01, 3.103E+01, 2.902E+02, 3.638E+01
 7.503E+01, 3.109E+01, 3.642E+02, 4.192E+01
 9.002E+01, 3.127E+01, 4.382E+02, 5.070E+01
 1.050E+02, 3.157E+01, 4.750E+02, 6.286E+01
 1.200E+02, 3.205E+01, 4.750E+02, 7.561E+01
 1.350E+02, 3.276E+01, 4.750E+02, 8.813E+01
 1.500E+02, 3.367E+01, 4.750E+02, 1.004E+02
 1.650E+02, 3.473E+01, 4.750E+02, 1.124E+02
 1.800E+02, 3.602E+01, 4.750E+02, 1.241E+02
 1.950E+02, 3.750E+01, 4.750E+02, 1.357E+02
 2.100E+02, 3.915E+01, 4.750E+02, 1.469E+02
 2.250E+02, 4.088E+01, 4.750E+02, 1.579E+02
 2.400E+02, 4.278E+01, 4.750E+02, 1.687E+02
 2.550E+02, 4.500E+01, 4.750E+02, 1.791E+02
 2.700E+02, 4.743E+01, 4.750E+02, 1.892E+02
 2.850E+02, 5.001E+01, 4.750E+02, 1.992E+02
 3.000E+02, 5.277E+01, 4.750E+02, 2.088E+02
 3.150E+02, 5.569E+01, 4.750E+02, 2.182E+02
 3.300E+02, 5.885E+01, 4.750E+02, 2.272E+02
 3.450E+02, 6.229E+01, 4.750E+02, 2.361E+02
 3.600E+02, 6.594E+01, 4.750E+02, 2.446E+02
 3.750E+02, 6.974E+01, 4.750E+02, 2.529E+02
 3.900E+02, 7.373E+01, 4.750E+02, 2.609E+02
 4.050E+02, 7.790E+01, 4.750E+02, 2.686E+02
 4.200E+02, 8.226E+01, 4.750E+02, 2.761E+02
 4.350E+02, 8.672E+01, 4.750E+02, 2.834E+02
 4.500E+02, 9.136E+01, 4.750E+02, 2.904E+02
 4.650E+02, 9.617E+01, 4.750E+02, 2.971E+02
 4.800E+02, 1.012E+02, 4.750E+02, 3.035E+02
 4.950E+02, 1.063E+02, 4.750E+02, 3.097E+02
 5.100E+02, 1.117E+02, 4.750E+02, 3.156E+02
 5.250E+02, 1.171E+02, 4.750E+02, 3.213E+02
 5.400E+02, 1.225E+02, 4.750E+02, 3.267E+02
 5.550E+02, 1.281E+02, 4.750E+02, 3.319E+02
 5.700E+02, 1.338E+02, 4.750E+02, 3.369E+02
 5.850E+02, 1.396E+02, 4.750E+02, 3.416E+02
 6.000E+02, 1.454E+02, 4.750E+02, 3.462E+02
 6.150E+02, 1.513E+02, 4.750E+02, 3.505E+02
 6.300E+02, 1.572E+02, 4.750E+02, 3.547E+02
 6.450E+02, 1.632E+02, 4.750E+02, 3.587E+02
 6.600E+02, 1.692E+02, 4.750E+02, 3.623E+02
 6.750E+02, 1.752E+02, 4.750E+02, 3.659E+02
 6.900E+02, 1.811E+02, 4.750E+02, 3.694E+02
 7.050E+02, 1.870E+02, 4.750E+02, 3.727E+02
 7.200E+02, 1.930E+02, 4.750E+02, 3.759E+02
 7.350E+02, 1.989E+02, 4.750E+02, 3.789E+02
 7.500E+02, 2.048E+02, 4.750E+02, 3.817E+02
 7.650E+02, 2.106E+02, 4.750E+02, 3.844E+02
 7.800E+02, 2.163E+02, 4.750E+02, 3.870E+02
 7.950E+02, 2.220E+02, 4.750E+02, 3.894E+02
 8.100E+02, 2.276E+02, 4.750E+02, 3.916E+02
 8.250E+02, 2.331E+02, 4.750E+02, 3.939E+02
 8.400E+02, 2.385E+02, 4.750E+02, 3.961E+02
 8.550E+02, 2.438E+02, 4.750E+02, 3.979E+02
 8.700E+02, 2.491E+02, 4.750E+02, 3.998E+02
 8.850E+02, 2.543E+02, 4.750E+02, 4.016E+02
 9.000E+02, 2.594E+02, 4.750E+02, 4.033E+02
 9.150E+02, 2.644E+02, 4.750E+02, 4.050E+02
 9.300E+02, 2.693E+02, 4.750E+02, 4.067E+02
 9.450E+02, 2.741E+02, 4.750E+02, 4.082E+02
 9.600E+02, 2.788E+02, 4.750E+02, 4.098E+02
 9.750E+02, 2.834E+02, 4.750E+02, 4.112E+02
 9.900E+02, 2.879E+02, 4.750E+02, 4.126E+02
 1.005E+03, 2.924E+02, 4.750E+02, 4.140E+02
 1.020E+03, 2.967E+02, 4.750E+02, 4.151E+02
 1.035E+03, 3.009E+02, 4.750E+02, 4.161E+02
 1.050E+03, 3.049E+02, 4.750E+02, 4.171E+02
 1.065E+03, 3.089E+02, 4.750E+02, 4.182E+02
 1.080E+03, 3.128E+02, 4.750E+02, 4.191E+02
 1.095E+03, 3.165E+02, 4.750E+02, 4.200E+02
 1.110E+03, 3.202E+02, 4.750E+02, 4.209E+02
 1.125E+03, 3.238E+02, 4.750E+02, 4.217E+02
 1.140E+03, 3.272E+02, 4.750E+02, 4.224E+02
 1.155E+03, 3.306E+02, 4.750E+02, 4.232E+02
 1.170E+03, 3.339E+02, 4.750E+02, 4.240E+02
 1.185E+03, 3.370E+02, 4.750E+02, 4.246E+02
 1.200E+03, 3.401E+02, 4.750E+02, 4.253E+02
 1.215E+03, 3.431E+02, 4.750E+02, 4.261E+02
 1.230E+03, 3.459E+02, 4.750E+02, 4.267E+02
 1.245E+03, 3.488E+02, 4.750E+02, 4.273E+02
 1.260E+03, 3.516E+02, 4.750E+02, 4.280E+02
 1.275E+03, 3.543E+02, 4.750E+02, 4.285E+02
 1.290E+03, 3.568E+02, 4.750E+02, 4.291E+02
 1.305E+03, 3.594E+02, 4.750E+02, 4.296E+02
 1.320E+03, 3.619E+02, 4.750E+02, 4.302E+02
 1.335E+03, 3.643E+02, 4.750E+02, 4.306E+02
 1.350E+03, 3.666E+02, 4.750E+02, 4.312E+02
 1.365E+03, 3.689E+02, 4.750E+02, 4.317E+02
 1.380E+03, 3.711E+02, 4.750E+02, 4.322E+02
 1.395E+03, 3.732E+02, 4.750E+02, 4.327E+02
 1.410E+03, 3.753E+02, 4.750E+02, 4.330E+02
 1.425E+03, 3.773E+02, 4.750E+02, 4.334E+02
 1.440E+03, 3.793E+02, 4.750E+02, 4.338E+02
 1.455E+03, 3.812E+02, 4.750E+02, 4.342E+02
 1.470E+03, 3.830E+02, 4.750E+02, 4.347E+02
 1.485E+03, 3.849E+02, 4.750E+02, 4.351E+02
 1.500E+03, 3.867E+02, 4.750E+02, 4.355E+02
 1.515E+03, 3.884E+02, 4.750E+02, 4.357E+02
 1.530E+03, 3.900E+02, 4.750E+02, 4.359E+02
 1.545E+03, 3.914E+02, 4.750E+02, 4.361E+02
 1.560E+03, 3.929E+02, 4.750E+02, 4.364E+02
 1.575E+03, 3.944E+02, 4.750E+02, 4.367E+02
 1.590E+03, 3.958E+02, 4.750E+02, 4.369E+02
 1.605E+03, 3.971E+02, 4.750E+02, 4.372E+02
 1.620E+03, 3.985E+02, 4.750E+02, 4.375E+02
 1.635E+03, 3.998E+02, 4.750E+02, 4.378E+02
 1.650E+03, 4.011E+02, 4.750E+02, 4.381E+02
 1.665E+03, 4.023E+02, 4.750E+02, 4.384E+02
 1.680E+03, 4.035E+02, 4.750E+02, 4.387E+02
 1.695E+03, 4.047E+02, 4.750E+02, 4.389E+02
 1.710E+03, 4.059E+02, 4.750E+02, 4.390E+02
 1.725E+03, 4.069E+02, 4.750E+02, 4.392E+02
 1.740E+03, 4.080E+02, 4.750E+02, 4.395E+02
 1.755E+03, 4.091E+02, 4.750E+02, 4.397E+02
 1.770E+03, 4.101E+02, 4.750E+02, 4.399E+02
 1.785E+03, 4.111E+02, 4.750E+02, 4.399E+02
 1.800E+03, 4.118E+02, 4.750E+02, 4.399E+02
 1.815E+03, 4.125E+02, 4.750E+02, 4.399E+02
 1.830E+03, 4.132E+02, 4.750E+02, 4.400E+02
 1.845E+03, 4.141E+02, 4.750E+02, 4.402E+02
 1.860E+03, 4.150E+02, 4.750E+02, 4.405E+02
 1.875E+03, 4.159E+02, 4.750E+02, 4.407E+02
 1.890E+03, 4.167E+02, 4.750E+02, 4.409E+02
 1.905E+03, 4.174E+02, 4.750E+02, 4.411E+02
 1.920E+03, 4.182E+02, 4.750E+02, 4.412E+02
 1.935E+03, 4.188E+02, 4.750E+02, 4.413E+02
 1.950E+03, 4.195E+02, 4.750E+02, 4.414E+02
 1.965E+03, 4.202E+02, 4.750E+02, 4.415E+02
 1.980E+03, 4.208E+02, 4.750E+02, 4.414E+02
 1.995E+03, 4.213E+02, 4.750E+02, 4.416E+02
 2.010E+03, 4.219E+02, 4.750E+02, 4.418E+02
 2.025E+03, 4.225E+02, 4.750E+02, 4.419E+02
 2.040E+03, 4.230E+02, 4.750E+02, 4.420E+02
 2.055E+03, 4.235E+02, 4.750E+02, 4.421E+02
 2.070E+03, 4.240E+02, 4.750E+02, 4.422E+02
 2.085E+03, 4.245E+02, 4.750E+02, 4.423E+02
 2.100E+03, 4.250E+02, 4.750E+02, 4.424E+02
 2.115E+03, 4.255E+02, 4.750E+02, 4.425E+02
 2.130E+03, 4.260E+02, 4.750E+02, 4.427E+02
 2.145E+03, 4.265E+02, 4.750E+02, 4.429E+02
 2.160E+03, 4.269E+02, 4.750E+02, 4.429E+02
 2.175E+03, 4.272E+02, 4.750E+02, 4.430E+02
 2.190E+03, 4.276E+02, 4.750E+02, 4.429E+02
 2.205E+03, 4.279E+02, 4.750E+02, 4.431E+02
 2.220E+03, 4.283E+02, 4.750E+02, 4.432E+02
 2.235E+03, 4.287E+02, 4.750E+02, 4.433E+02
 2.250E+03, 4.291E+02, 4.750E+02, 4.434E+02
 2.265E+03, 4.295E+02, 4.750E+02, 4.434E+02
 2.280E+03, 4.298E+02, 4.750E+02, 4.434E+02
 2.295E+03, 4.302E+02, 4.750E+02, 4.436E+02
 2.310E+03, 4.305E+02, 4.750E+02, 4.437E+02
 2.325E+03, 4.308E+02, 4.750E+02, 4.437E+02
 2.340E+03, 4.310E+02, 4.750E+02, 4.436E+02
 2.355E+03, 4.312E+02, 4.750E+02, 4.437E+02
 2.370E+03, 4.315E+02, 4.750E+02, 4.436E+02
 2.385E+03, 4.318E+02, 4.750E+02, 4.437E+02
 2.400E+03, 4.321E+02, 4.750E+02, 4.438E+02
 2.415E+03, 4.324E+02, 4.750E+02, 4.439E+02
 2.430E+03, 4.326E+02, 4.750E+02, 4.440E+02
 2.445E+03, 4.328E+02, 4.750E+02, 4.440E+02
 2.460E+03, 4.330E+02, 4.750E+02, 4.440E+02
 2.475E+03, 4.333E+02, 4.750E+02, 4.441E+02
 2.490E+03, 4.335E+02, 4.750E+02, 4.441E+02
 2.505E+03, 4.337E+02, 4.750E+02, 4.442E+02
 2.520E+03, 4.339E+02, 4.750E+02, 4.442E+02
 2.535E+03, 4.341E+02, 4.750E+02, 4.443E+02
 2.550E+03, 4.343E+02, 4.750E+02, 4.444E+02
 2.565E+03, 4.346E+02, 4.750E+02, 4.444E+02
 2.580E+03, 4.348E+02, 4.750E+02, 4.443E+02
 2.595E+03, 4.349E+02, 4.750E+02, 4.444E+02
 2.610E+03, 4.351E+02, 4.750E+02, 4.443E+02
 2.625E+03, 4.351E+02, 4.750E+02, 4.443E+02
 2.640E+03, 4.352E+02, 4.750E+02, 4.443E+02
 2.655E+03, 4.353E+02, 4.750E+02, 4.443E+02
 2.670E+03, 4.354E+02, 4.750E+02, 4.444E+02
 2.685E+03, 4.355E+02, 4.750E+02, 4.443E+02
 2.700E+03, 4.355E+02, 4.750E+02, 4.442E+02
 2.715E+03, 4.355E+02, 4.750E+02, 4.441E+02
 2.730E+03, 4.356E+02, 4.750E+02, 4.441E+02
 2.745E+03, 4.357E+02, 4.750E+02, 4.442E+02
 2.760E+03, 4.358E+02, 4.750E+02, 4.441E+02
 2.775E+03, 4.359E+02, 4.750E+02, 4.441E+02
 2.790E+03, 4.360E+02, 4.750E+02, 4.442E+02
 2.805E+03, 4.361E+02, 4.750E+02, 4.441E+02
 2.820E+03, 4.362E+02, 4.750E+02, 4.442E+02
 2.835E+03, 4.363E+02, 4.750E+02, 4.443E+02
 2.850E+03, 4.365E+02, 4.750E+02, 4.443E+02
 2.865E+03, 4.366E+02, 4.750E+02, 4.444E+02
 2.880E+03, 4.367E+02, 4.750E+02, 4.444E+02
 2.895E+03, 4.367E+02, 4.750E+02, 4.443E+02
 2.910E+03, 4.366E+02, 4.750E+02, 4.442E+02
 2.925E+03, 4.366E+02, 4.750E+02, 4.442E+02
 2.940E+03, 4.367E+02, 4.750E+02, 4.443E+02
 2.955E+03, 4.368E+02, 4.750E+02, 4.443E+02
 2.970E+03, 4.369E+02, 4.750E+02, 4.444E+02
 2.985E+03, 4.371E+02, 4.715E+02, 4.444E+02
 3.000E+03, 4.372E+02, 4.646E+02, 4.441E+02
 3.015E+03, 4.373E+02, 4.576E+02, 4.433E+02
 3.030E+03, 4.373E+02, 4.507E+02, 4.422E+02
 3.045E+03, 4.373E+02, 4.438E+02, 4.407E+02
 3.060E+03, 4.370E+02, 4.368E+02, 4.387E+02
 3.075E+03, 4.367E+02, 4.299E+02, 4.366E+02
 3.090E+03, 4.363E+02, 4.230E+02, 4.342E+02
 3.105E+03, 4.358E+02, 4.160E+02, 4.318E+02
 3.120E+03, 4.352E+02, 4.091E+02, 4.291E+02
 3.135E+03, 4.346E+02, 4.021E+02, 4.263E+02
 3.150E+03, 4.339E+02, 3.952E+02, 4.233E+02
 3.165E+03, 4.331E+02, 3.883E+02, 4.201E+02
 3.180E+03, 4.321E+02, 3.813E+02, 4.169E+02
 3.195E+03, 4.311E+02, 3.744E+02, 4.136E+02
 3.210E+03, 4.299E+02, 3.675E+02, 4.100E+02
 3.225E+03, 4.285E+02, 3.605E+02, 4.065E+02
 3.240E+03, 4.271E+02, 3.536E+02, 4.028E+02
 3.255E+03, 4.255E+02, 3.466E+02, 3.990E+02
 3.270E+03, 4.237E+02, 3.397E+02, 3.951E+02
 3.285E+03, 4.218E+02, 3.328E+02, 3.913E+02
 3.300E+03, 4.201E+02, 3.258E+02, 3.875E+02
 3.315E+03, 4.184E+02, 3.189E+02, 3.837E+02
 3.330E+03, 4.166E+02, 3.119E+02, 3.799E+02
 3.345E+03, 4.148E+02, 3.050E+02, 3.759E+02
 3.360E+03, 4.126E+02, 2.981E+02, 3.718E+02
 3.375E+03, 4.103E+02, 2.911E+02, 3.677E+02
 3.390E+03, 4.080E+02, 2.842E+02, 3.636E+02
 3.405E+03, 4.054E+02, 2.773E+02, 3.594E+02
 3.420E+03, 4.030E+02, 2.703E+02, 3.554E+02
 3.435E+03, 4.009E+02, 2.634E+02, 3.515E+02
 3.450E+03, 3.988E+02, 2.564E+02, 3.476E+02
 3.465E+03, 3.966E+02, 2.530E+02, 3.436E+02
 3.480E+03, 3.939E+02, 2.530E+02, 3.396E+02
 3.495E+03, 3.913E+02, 2.530E+02, 3.360E+02
 3.510E+03, 3.890E+02, 2.530E+02, 3.327E+02
 3.525E+03, 3.868E+02, 2.530E+02, 3.294E+02
 3.540E+03, 3.845E+02, 2.530E+02, 3.263E+02
 3.555E+03, 3.822E+02, 2.530E+02, 3.231E+02
 3.570E+03, 3.795E+02, 2.530E+02, 3.201E+02
 3.585E+03, 3.770E+02, 2.530E+02, 3.174E+02
 3.600E+03, 3.747E+02, 2.530E+02, 3.148E+02
