s,C,C,C
Time,"Cable Temp","Shroud Temp","Conduit"
 0.000E+00, 3.100E+01, 3.100E+01, 3.100E+01
 1.503E+01, 3.100E+01, 6.654E+01, 3.105E+01
 3.006E+01, 3.100E+01, 1.365E+02, 3.158E+01
 4.500E+01, 3.102E+01, 2.066E+02, 3.304E+01
 6.001E+01, 3.105E+01, 2.765E+02, 3.594E+01
 7.502E+01, 3.114E+01, 3.467E+02, 4.091E+01
 9.001E+01, 3.138E+01, 4.167E+02, 4.868E+01
 1.050E+02, 3.177E+01, 4.711E+02, 5.993E+01
 1.200E+02, 3.238E+01, 4.750E+02, 7.273E+01
 1.350E+02, 3.339E+01, 4.750E+02, 8.529E+01
 1.500E+02, 3.459E+01, 4.750E+02, 9.758E+01
 1.650E+02, 3.587E+01, 4.750E+02, 1.096E+02
 1.800E+02, 3.733E+01, 4.750E+02, 1.215E+02
 1.950E+02, 3.891E+01, 4.750E+02, 1.331E+02
 2.100E+02, 4.072E+01, 4.750E+02, 1.444E+02
 2.250E+02, 4.281E+01, 4.750E+02, 1.555E+02
 2.400E+02, 4.515E+01, 4.750E+02, 1.663E+02
 2.550E+02, 4.773E+01, 4.750E+02, 1.768E+02
 2.700E+02, 5.050E+01, 4.750E+02, 1.871E+02
 2.850E+02, 5.352E+01, 4.750E+02, 1.971E+02
 3.000E+02, 5.676E+01, 4.750E+02, 2.069E+02
 3.150E+02, 6.026E+01, 4.750E+02, 2.163E+02
 3.300E+02, 6.396E+01, 4.750E+02, 2.255E+02
 3.450E+02, 6.782E+01, 4.750E+02, 2.344E+02
 3.600E+02, 7.188E+01, 4.750E+02, 2.431E+02
 3.750E+02, 7.615E+01, 4.750E+02, 2.515E+02
 3.900E+02, 8.058E+01, 4.750E+02, 2.596E+02
 4.050E+02, 8.531E+01, 4.750E+02, 2.675E+02
 4.200E+02, 9.033E+01, 4.750E+02, 2.750E+02
 4.350E+02, 9.554E+01, 4.750E+02, 2.824E+02
 4.500E+02, 1.009E+02, 4.750E+02, 2.895E+02
 4.650E+02, 1.064E+02, 4.750E+02, 2.963E+02
 4.800E+02, 1.121E+02, 4.750E+02, 3.029E+02
 4.950E+02, 1.180E+02, 4.750E+02, 3.092E+02
 5.100E+02, 1.239E+02, 4.750E+02, 3.153E+02
 5.250E+02, 1.300E+02, 4.750E+02, 3.211E+02
 5.400E+02, 1.362E+02, 4.750E+02, 3.267E+02
 5.550E+02, 1.426E+02, 4.750E+02, 3.319E+02
 5.700E+02, 1.490E+02, 4.750E+02, 3.370E+02
 5.850E+02, 1.555E+02, 4.750E+02, 3.419E+02
 6.000E+02, 1.620E+02, 4.750E+02, 3.465E+02
 6.150E+02, 1.685E+02, 4.750E+02, 3.510E+02
 6.300E+02, 1.751E+02, 4.750E+02, 3.551E+02
 6.450E+02, 1.817E+02, 4.750E+02, 3.592E+02
 6.600E+02, 1.882E+02, 4.750E+02, 3.632E+02
 6.750E+02, 1.948E+02, 4.750E+02, 3.668E+02
 6.900E+02, 2.014E+02, 4.750E+02, 3.703E+02
 7.050E+02, 2.079E+02, 4.750E+02, 3.737E+02
 7.200E+02, 2.143E+02, 4.750E+02, 3.769E+02
 7.350E+02, 2.206E+02, 4.750E+02, 3.798E+02
 7.500E+02, 2.269E+02, 4.750E+02, 3.827E+02
 7.650E+02, 2.331E+02, 4.750E+02, 3.854E+02
 7.800E+02, 2.392E+02, 4.750E+02, 3.881E+02
 7.950E+02, 2.452E+02, 4.750E+02, 3.907E+02
 8.100E+02, 2.512E+02, 4.750E+02, 3.930E+02
 8.250E+02, 2.570E+02, 4.750E+02, 3.953E+02
 8.400E+02, 2.627E+02, 4.750E+02, 3.975E+02
 8.550E+02, 2.683E+02, 4.750E+02, 3.996E+02
 8.700E+02, 2.738E+02, 4.750E+02, 4.016E+02
 8.850E+02, 2.792E+02, 4.750E+02, 4.035E+02
 9.000E+02, 2.845E+02, 4.750E+02, 4.053E+02
 9.150E+02, 2.896E+02, 4.750E+02, 4.071E+02
 9.300E+02, 2.947E+02, 4.750E+02, 4.086E+02
 9.450E+02, 2.995E+02, 4.750E+02, 4.100E+02
 9.600E+02, 3.041E+02, 4.750E+02, 4.113E+02
 9.750E+02, 3.086E+02, 4.750E+02, 4.126E+02
 9.900E+02, 3.131E+02, 4.750E+02, 4.141E+02
 1.005E+03, 3.175E+02, 4.750E+02, 4.155E+02
 1.020E+03, 3.218E+02, 4.750E+02, 4.167E+02
 1.035E+03, 3.259E+02, 4.750E+02, 4.179E+02
 1.050E+03, 3.299E+02, 4.750E+02, 4.191E+02
 1.065E+03, 3.338E+02, 4.750E+02, 4.203E+02
 1.080E+03, 3.376E+02, 4.750E+02, 4.213E+02
 1.095E+03, 3.413E+02, 4.750E+02, 4.222E+02
 1.110E+03, 3.448E+02, 4.750E+02, 4.230E+02
 1.125E+03, 3.482E+02, 4.750E+02, 4.240E+02
 1.140E+03, 3.516E+02, 4.750E+02, 4.249E+02
 1.155E+03, 3.547E+02, 4.750E+02, 4.256E+02
 1.170E+03, 3.577E+02, 4.750E+02, 4.263E+02
 1.185E+03, 3.606E+02, 4.750E+02, 4.269E+02
 1.200E+03, 3.634E+02, 4.750E+02, 4.277E+02
 1.215E+03, 3.661E+02, 4.750E+02, 4.283E+02
 1.230E+03, 3.687E+02, 4.750E+02, 4.289E+02
 1.245E+03, 3.711E+02, 4.750E+02, 4.294E+02
 1.260E+03, 3.736E+02, 4.750E+02, 4.301E+02
 1.275E+03, 3.761E+02, 4.750E+02, 4.307E+02
 1.290E+03, 3.784E+02, 4.750E+02, 4.312E+02
 1.305E+03, 3.806E+02, 4.750E+02, 4.318E+02
 1.320E+03, 3.827E+02, 4.750E+02, 4.323E+02
 1.335E+03, 3.849E+02, 4.750E+02, 4.329E+02
 1.350E+03, 3.870E+02, 4.750E+02, 4.335E+02
 1.365E+03, 3.891E+02, 4.750E+02, 4.340E+02
 1.380E+03, 3.911E+02, 4.750E+02, 4.345E+02
 1.395E+03, 3.930E+02, 4.750E+02, 4.350E+02
 1.410E+03, 3.948E+02, 4.750E+02, 4.354E+02
 1.425E+03, 3.964E+02, 4.750E+02, 4.357E+02
 1.440E+03, 3.978E+02, 4.750E+02, 4.359E+02
 1.455E+03, 3.994E+02, 4.750E+02, 4.364E+02
 1.470E+03, 4.009E+02, 4.750E+02, 4.367E+02
 1.485E+03, 4.025E+02, 4.750E+02, 4.372E+02
 1.500E+03, 4.040E+02, 4.750E+02, 4.376E+02
 1.515E+03, 4.056E+02, 4.750E+02, 4.380E+02
 1.530E+03, 4.069E+02, 4.750E+02, 4.382E+02
 1.545E+03, 4.080E+02, 4.750E+02, 4.383E+02
 1.560E+03, 4.092E+02, 4.750E+02, 4.386E+02
 1.575E+03, 4.104E+02, 4.750E+02, 4.389E+02
 1.590E+03, 4.115E+02, 4.750E+02, 4.392E+02
 1.605E+03, 4.127E+02, 4.750E+02, 4.396E+02
 1.620E+03, 4.138E+02, 4.750E+02, 4.398E+02
 1.635E+03, 4.146E+02, 4.750E+02, 4.399E+02
 1.650E+03, 4.155E+02, 4.750E+02, 4.401E+02
 1.665E+03, 4.165E+02, 4.750E+02, 4.402E+02
 1.680E+03, 4.174E+02, 4.750E+02, 4.403E+02
 1.695E+03, 4.183E+02, 4.750E+02, 4.406E+02
 1.710E+03, 4.190E+02, 4.750E+02, 4.406E+02
 1.725E+03, 4.196E+02, 4.750E+02, 4.407E+02
 1.740E+03, 4.203E+02, 4.750E+02, 4.409E+02
 1.755E+03, 4.210E+02, 4.750E+02, 4.410E+02
 1.770E+03, 4.216E+02, 4.750E+02, 4.411E+02
 1.785E+03, 4.222E+02, 4.750E+02, 4.414E+02
 1.800E+03, 4.230E+02, 4.750E+02, 4.416E+02
 1.815E+03, 4.237E+02, 4.750E+02, 4.418E+02
 1.830E+03, 4.243E+02, 4.750E+02, 4.419E+02
 1.845E+03, 4.249E+02, 4.750E+02, 4.420E+02
 1.860E+03, 4.255E+02, 4.750E+02, 4.422E+02
 1.875E+03, 4.262E+02, 4.750E+02, 4.423E+02
 1.890E+03, 4.266E+02, 4.750E+02, 4.423E+02
 1.905E+03, 4.270E+02, 4.750E+02, 4.424E+02
 1.920E+03, 4.273E+02, 4.750E+02, 4.424E+02
 1.935E+03, 4.277E+02, 4.750E+02, 4.425E+02
 1.950E+03, 4.281E+02, 4.750E+02, 4.426E+02
 1.965E+03, 4.286E+02, 4.750E+02, 4.428E+02
 1.980E+03, 4.291E+02, 4.750E+02, 4.429E+02
 1.995E+03, 4.296E+02, 4.750E+02, 4.430E+02
 2.010E+03, 4.299E+02, 4.750E+02, 4.431E+02
 2.025E+03, 4.304E+02, 4.750E+02, 4.432E+02
 2.040E+03, 4.309E+02, 4.750E+02, 4.434E+02
 2.055E+03, 4.313E+02, 4.750E+02, 4.434E+02
 2.070E+03, 4.317E+02, 4.750E+02, 4.435E+02
 2.085E+03, 4.320E+02, 4.750E+02, 4.436E+02
 2.100E+03, 4.322E+02, 4.750E+02, 4.436E+02
 2.115E+03, 4.325E+02, 4.750E+02, 4.436E+02
 2.130E+03, 4.326E+02, 4.750E+02, 4.436E+02
 2.145E+03, 4.329E+02, 4.750E+02, 4.436E+02
 2.160E+03, 4.332E+02, 4.750E+02, 4.437E+02
 2.175E+03, 4.334E+02, 4.750E+02, 4.438E+02
 2.190E+03, 4.338E+02, 4.750E+02, 4.439E+02
 2.205E+03, 4.340E+02, 4.750E+02, 4.440E+02
 2.220E+03, 4.342E+02, 4.750E+02, 4.441E+02
 2.235E+03, 4.345E+02, 4.750E+02, 4.442E+02
 2.250E+03, 4.348E+02, 4.750E+02, 4.443E+02
 2.265E+03, 4.349E+02, 4.750E+02, 4.442E+02
 2.280E+03, 4.349E+02, 4.750E+02, 4.442E+02
 2.295E+03, 4.350E+02, 4.750E+02, 4.441E+02
 2.310E+03, 4.351E+02, 4.750E+02, 4.442E+02
 2.325E+03, 4.353E+02, 4.750E+02, 4.443E+02
 2.340E+03, 4.355E+02, 4.750E+02, 4.444E+02
 2.355E+03, 4.358E+02, 4.750E+02, 4.445E+02
 2.370E+03, 4.358E+02, 4.750E+02, 4.444E+02
 2.385E+03, 4.359E+02, 4.750E+02, 4.445E+02
 2.400E+03, 4.361E+02, 4.750E+02, 4.446E+02
 2.415E+03, 4.364E+02, 4.750E+02, 4.447E+02
 2.430E+03, 4.365E+02, 4.750E+02, 4.447E+02
 2.445E+03, 4.365E+02, 4.750E+02, 4.446E+02
 2.460E+03, 4.365E+02, 4.750E+02, 4.445E+02
 2.475E+03, 4.366E+02, 4.750E+02, 4.443E+02
 2.490E+03, 4.366E+02, 4.750E+02, 4.443E+02
 2.505E+03, 4.367E+02, 4.750E+02, 4.443E+02
 2.520E+03, 4.367E+02, 4.750E+02, 4.441E+02
 2.535E+03, 4.367E+02, 4.750E+02, 4.442E+02
 2.550E+03, 4.369E+02, 4.750E+02, 4.443E+02
 2.565E+03, 4.371E+02, 4.750E+02, 4.445E+02
 2.580E+03, 4.372E+02, 4.750E+02, 4.445E+02
 2.595E+03, 4.372E+02, 4.750E+02, 4.446E+02
 2.610E+03, 4.374E+02, 4.750E+02, 4.447E+02
 2.625E+03, 4.376E+02, 4.750E+02, 4.447E+02
 2.640E+03, 4.377E+02, 4.750E+02, 4.448E+02
 2.655E+03, 4.378E+02, 4.750E+02, 4.448E+02
 2.670E+03, 4.377E+02, 4.750E+02, 4.446E+02
 2.685E+03, 4.376E+02, 4.750E+02, 4.446E+02
 2.700E+03, 4.378E+02, 4.750E+02, 4.448E+02
 2.715E+03, 4.379E+02, 4.750E+02, 4.447E+02
 2.730E+03, 4.379E+02, 4.750E+02, 4.446E+02
 2.745E+03, 4.379E+02, 4.750E+02, 4.447E+02
 2.760E+03, 4.380E+02, 4.750E+02, 4.446E+02
 2.775E+03, 4.380E+02, 4.750E+02, 4.446E+02
 2.790E+03, 4.380E+02, 4.750E+02, 4.446E+02
 2.805E+03, 4.380E+02, 4.750E+02, 4.445E+02
 2.820E+03, 4.378E+02, 4.741E+02, 4.443E+02
 2.835E+03, 4.377E+02, 4.701E+02, 4.441E+02
 2.850E+03, 4.377E+02, 4.659E+02, 4.437E+02
 2.865E+03, 4.378E+02, 4.616E+02, 4.432E+02
 2.880E+03, 4.379E+02, 4.574E+02, 4.425E+02
 2.895E+03, 4.379E+02, 4.532E+02, 4.414E+02
 2.910E+03, 4.375E+02, 4.490E+02, 4.401E+02
 2.925E+03, 4.372E+02, 4.448E+02, 4.386E+02
 2.940E+03, 4.369E+02, 4.406E+02, 4.371E+02
 2.955E+03, 4.365E+02, 4.364E+02, 4.353E+02
 2.970E+03, 4.360E+02, 4.321E+02, 4.335E+02
 2.985E+03, 4.354E+02, 4.279E+02, 4.315E+02
 3.000E+03, 4.346E+02, 4.237E+02, 4.295E+02
 3.015E+03, 4.339E+02, 4.195E+02, 4.275E+02
 3.030E+03, 4.332E+02, 4.153E+02, 4.254E+02
 3.045E+03, 4.325E+02, 4.111E+02, 4.232E+02
 3.060E+03, 4.315E+02, 4.068E+02, 4.207E+02
 3.075E+03, 4.302E+02, 4.026E+02, 4.182E+02
 3.090E+03, 4.291E+02, 3.984E+02, 4.158E+02
 3.105E+03, 4.280E+02, 3.942E+02, 4.134E+02
 3.120E+03, 4.269E+02, 3.900E+02, 4.109E+02
 3.135E+03, 4.257E+02, 3.858E+02, 4.084E+02
 3.150E+03, 4.246E+02, 3.815E+02, 4.059E+02
 3.165E+03, 4.233E+02, 3.773E+02, 4.033E+02
 3.180E+03, 4.219E+02, 3.731E+02, 4.006E+02
 3.195E+03, 4.202E+02, 3.689E+02, 3.978E+02
 3.210E+03, 4.187E+02, 3.647E+02, 3.950E+02
 3.225E+03, 4.170E+02, 3.605E+02, 3.920E+02
 3.240E+03, 4.150E+02, 3.563E+02, 3.891E+02
 3.255E+03, 4.132E+02, 3.520E+02, 3.863E+02
 3.270E+03, 4.116E+02, 3.478E+02, 3.835E+02
 3.285E+03, 4.098E+02, 3.436E+02, 3.806E+02
 3.300E+03, 4.079E+02, 3.394E+02, 3.777E+02
 3.315E+03, 4.061E+02, 3.352E+02, 3.748E+02
 3.330E+03, 4.042E+02, 3.310E+02, 3.719E+02
 3.345E+03, 4.025E+02, 3.268E+02, 3.691E+02
 3.360E+03, 4.007E+02, 3.225E+02, 3.662E+02
 3.375E+03, 3.987E+02, 3.183E+02, 3.633E+02
 3.390E+03, 3.967E+02, 3.141E+02, 3.603E+02
 3.405E+03, 3.945E+02, 3.099E+02, 3.574E+02
 3.420E+03, 3.924E+02, 3.057E+02, 3.545E+02
 3.435E+03, 3.902E+02, 3.015E+02, 3.515E+02
 3.450E+03, 3.877E+02, 2.972E+02, 3.485E+02
 3.465E+03, 3.856E+02, 2.930E+02, 3.457E+02
 3.480E+03, 3.835E+02, 2.888E+02, 3.427E+02
 3.495E+03, 3.812E+02, 2.846E+02, 3.398E+02
 3.510E+03, 3.791E+02, 2.804E+02, 3.369E+02
 3.525E+03, 3.769E+02, 2.762E+02, 3.339E+02
 3.540E+03, 3.746E+02, 2.720E+02, 3.311E+02
 3.555E+03, 3.723E+02, 2.677E+02, 3.281E+02
 3.570E+03, 3.700E+02, 2.635E+02, 3.252E+02
 3.585E+03, 3.678E+02, 2.593E+02, 3.224E+02
 3.600E+03, 3.657E+02, 2.551E+02, 3.196E+02
