s,C,C,C
Time,"Cable Temp","Shroud Temp","Conduit"
 0.000E+00, 3.100E+01, 3.100E+01, 3.100E+01
 1.504E+01, 3.100E+01, 6.849E+01, 3.106E+01
 3.001E+01, 3.100E+01, 1.423E+02, 3.161E+01
 4.502E+01, 3.101E+01, 2.163E+02, 3.320E+01
 6.003E+01, 3.103E+01, 2.902E+02, 3.638E+01
 7.502E+01, 3.112E+01, 3.642E+02, 4.195E+01
 9.003E+01, 3.135E+01, 4.382E+02, 5.072E+01
 1.050E+02, 3.171E+01, 4.750E+02, 6.284E+01
 1.200E+02, 3.223E+01, 4.750E+02, 7.556E+01
 1.350E+02, 3.293E+01, 4.750E+02, 8.803E+01
 1.500E+02, 3.377E+01, 4.750E+02, 1.003E+02
 1.650E+02, 3.482E+01, 4.750E+02, 1.123E+02
 1.800E+02, 3.599E+01, 4.750E+02, 1.241E+02
 1.950E+02, 3.746E+01, 4.750E+02, 1.356E+02
 2.100E+02, 3.912E+01, 4.750E+02, 1.469E+02
 2.250E+02, 4.089E+01, 4.750E+02, 1.578E+02
 2.400E+02, 4.280E+01, 4.750E+02, 1.685E+02
 2.550E+02, 4.493E+01, 4.750E+02, 1.790E+02
 2.700E+02, 4.724E+01, 4.750E+02, 1.893E+02
 2.850E+02, 4.983E+01, 4.750E+02, 1.992E+02
 3.000E+02, 5.255E+01, 4.750E+02, 2.089E+02
 3.150E+02, 5.554E+01, 4.750E+02, 2.182E+02
 3.300E+02, 5.872E+01, 4.750E+02, 2.273E+02
 3.450E+02, 6.214E+01, 4.750E+02, 2.361E+02
 3.600E+02, 6.578E+01, 4.750E+02, 2.446E+02
 3.750E+02, 6.961E+01, 4.750E+02, 2.528E+02
 3.900E+02, 7.360E+01, 4.750E+02, 2.608E+02
 4.050E+02, 7.775E+01, 4.750E+02, 2.686E+02
 4.200E+02, 8.206E+01, 4.750E+02, 2.760E+02
 4.350E+02, 8.656E+01, 4.750E+02, 2.832E+02
 4.500E+02, 9.124E+01, 4.750E+02, 2.902E+02
 4.650E+02, 9.603E+01, 4.750E+02, 2.969E+02
 4.800E+02, 1.010E+02, 4.750E+02, 3.034E+02
 4.950E+02, 1.061E+02, 4.750E+02, 3.096E+02
 5.100E+02, 1.113E+02, 4.750E+02, 3.155E+02
 5.250E+02, 1.167E+02, 4.750E+02, 3.213E+02
 5.400E+02, 1.222E+02, 4.750E+02, 3.267E+02
 5.550E+02, 1.279E+02, 4.750E+02, 3.319E+02
 5.700E+02, 1.336E+02, 4.750E+02, 3.369E+02
 5.850E+02, 1.394E+02, 4.750E+02, 3.417E+02
 6.000E+02, 1.453E+02, 4.750E+02, 3.463E+02
 6.150E+02, 1.512E+02, 4.750E+02, 3.505E+02
 6.300E+02, 1.572E+02, 4.750E+02, 3.547E+02
 6.450E+02, 1.631E+02, 4.750E+02, 3.587E+02
 6.600E+02, 1.691E+02, 4.750E+02, 3.625E+02
 6.750E+02, 1.750E+02, 4.750E+02, 3.661E+02
 6.900E+02, 1.810E+02, 4.750E+02, 3.694E+02
 7.050E+02, 1.870E+02, 4.750E+02, 3.726E+02
 7.200E+02, 1.929E+02, 4.750E+02, 3.758E+02
 7.350E+02, 1.988E+02, 4.750E+02, 3.788E+02
 7.500E+02, 2.047E+02, 4.750E+02, 3.816E+02
 7.650E+02, 2.105E+02, 4.750E+02, 3.843E+02
 7.800E+02, 2.162E+02, 4.750E+02, 3.868E+02
 7.950E+02, 2.219E+02, 4.750E+02, 3.892E+02
 8.100E+02, 2.275E+02, 4.750E+02, 3.914E+02
 8.250E+02, 2.330E+02, 4.750E+02, 3.937E+02
 8.400E+02, 2.384E+02, 4.750E+02, 3.959E+02
 8.550E+02, 2.438E+02, 4.750E+02, 3.979E+02
 8.700E+02, 2.490E+02, 4.750E+02, 3.998E+02
 8.850E+02, 2.542E+02, 4.750E+02, 4.017E+02
 9.000E+02, 2.593E+02, 4.750E+02, 4.035E+02
 9.150E+02, 2.643E+02, 4.750E+02, 4.052E+02
 9.300E+02, 2.693E+02, 4.750E+02, 4.068E+02
 9.450E+02, 2.740E+02, 4.750E+02, 4.083E+02
 9.600E+02, 2.787E+02, 4.750E+02, 4.098E+02
 9.750E+02, 2.833E+02, 4.750E+02, 4.111E+02
 9.900E+02, 2.879E+02, 4.750E+02, 4.123E+02
 1.005E+03, 2.923E+02, 4.750E+02, 4.136E+02
 1.020E+03, 2.966E+02, 4.750E+02, 4.147E+02
 1.035E+03, 3.008E+02, 4.750E+02, 4.157E+02
 1.050E+03, 3.048E+02, 4.750E+02, 4.168E+02
 1.065E+03, 3.088E+02, 4.750E+02, 4.180E+02
 1.080E+03, 3.127E+02, 4.750E+02, 4.190E+02
 1.095E+03, 3.165E+02, 4.750E+02, 4.200E+02
 1.110E+03, 3.202E+02, 4.750E+02, 4.210E+02
 1.125E+03, 3.238E+02, 4.750E+02, 4.219E+02
 1.140E+03, 3.272E+02, 4.750E+02, 4.227E+02
 1.155E+03, 3.306E+02, 4.750E+02, 4.236E+02
 1.170E+03, 3.340E+02, 4.750E+02, 4.244E+02
 1.185E+03, 3.372E+02, 4.750E+02, 4.251E+02
 1.200E+03, 3.404E+02, 4.750E+02, 4.259E+02
 1.215E+03, 3.434E+02, 4.750E+02, 4.265E+02
 1.230E+03, 3.463E+02, 4.750E+02, 4.271E+02
 1.245E+03, 3.492E+02, 4.750E+02, 4.278E+02
 1.260E+03, 3.520E+02, 4.750E+02, 4.284E+02
 1.275E+03, 3.547E+02, 4.750E+02, 4.291E+02
 1.290E+03, 3.574E+02, 4.750E+02, 4.298E+02
 1.305E+03, 3.600E+02, 4.750E+02, 4.302E+02
 1.320E+03, 3.625E+02, 4.750E+02, 4.307E+02
 1.335E+03, 3.649E+02, 4.750E+02, 4.312E+02
 1.350E+03, 3.672E+02, 4.750E+02, 4.316E+02
 1.365E+03, 3.695E+02, 4.750E+02, 4.321E+02
 1.380E+03, 3.717E+02, 4.750E+02, 4.326E+02
 1.395E+03, 3.738E+02, 4.750E+02, 4.330E+02
 1.410E+03, 3.759E+02, 4.750E+02, 4.333E+02
 1.425E+03, 3.778E+02, 4.750E+02, 4.336E+02
 1.440E+03, 3.797E+02, 4.750E+02, 4.339E+02
 1.455E+03, 3.815E+02, 4.750E+02, 4.343E+02
 1.470E+03, 3.834E+02, 4.750E+02, 4.346E+02
 1.485E+03, 3.852E+02, 4.750E+02, 4.350E+02
 1.500E+03, 3.869E+02, 4.750E+02, 4.353E+02
 1.515E+03, 3.886E+02, 4.750E+02, 4.356E+02
 1.530E+03, 3.901E+02, 4.750E+02, 4.359E+02
 1.545E+03, 3.917E+02, 4.750E+02, 4.361E+02
 1.560E+03, 3.932E+02, 4.750E+02, 4.364E+02
 1.575E+03, 3.947E+02, 4.750E+02, 4.367E+02
 1.590E+03, 3.961E+02, 4.750E+02, 4.371E+02
 1.605E+03, 3.976E+02, 4.750E+02, 4.374E+02
 1.620E+03, 3.988E+02, 4.750E+02, 4.374E+02
 1.635E+03, 3.999E+02, 4.750E+02, 4.376E+02
 1.650E+03, 4.010E+02, 4.750E+02, 4.378E+02
 1.665E+03, 4.022E+02, 4.750E+02, 4.382E+02
 1.680E+03, 4.034E+02, 4.750E+02, 4.384E+02
 1.695E+03, 4.046E+02, 4.750E+02, 4.387E+02
 1.710E+03, 4.057E+02, 4.750E+02, 4.389E+02
 1.725E+03, 4.068E+02, 4.750E+02, 4.390E+02
 1.740E+03, 4.078E+02, 4.750E+02, 4.391E+02
 1.755E+03, 4.088E+02, 4.750E+02, 4.393E+02
 1.770E+03, 4.098E+02, 4.750E+02, 4.395E+02
 1.785E+03, 4.107E+02, 4.750E+02, 4.396E+02
 1.800E+03, 4.115E+02, 4.750E+02, 4.398E+02
 1.815E+03, 4.123E+02, 4.750E+02, 4.399E+02
 1.830E+03, 4.132E+02, 4.750E+02, 4.399E+02
 1.845E+03, 4.140E+02, 4.750E+02, 4.401E+02
 1.860E+03, 4.148E+02, 4.750E+02, 4.403E+02
 1.875E+03, 4.157E+02, 4.750E+02, 4.405E+02
 1.890E+03, 4.165E+02, 4.750E+02, 4.408E+02
 1.905E+03, 4.174E+02, 4.750E+02, 4.410E+02
 1.920E+03, 4.182E+02, 4.750E+02, 4.410E+02
 1.935E+03, 4.188E+02, 4.750E+02, 4.412E+02
 1.950E+03, 4.195E+02, 4.750E+02, 4.413E+02
 1.965E+03, 4.200E+02, 4.750E+02, 4.413E+02
 1.980E+03, 4.205E+02, 4.750E+02, 4.414E+02
 1.995E+03, 4.210E+02, 4.750E+02, 4.415E+02
 2.010E+03, 4.216E+02, 4.750E+02, 4.417E+02
 2.025E+03, 4.222E+02, 4.750E+02, 4.419E+02
 2.040E+03, 4.228E+02, 4.750E+02, 4.421E+02
 2.055E+03, 4.234E+02, 4.750E+02, 4.421E+02
 2.070E+03, 4.238E+02, 4.750E+02, 4.423E+02
 2.085E+03, 4.243E+02, 4.750E+02, 4.425E+02
 2.100E+03, 4.249E+02, 4.750E+02, 4.426E+02
 2.115E+03, 4.253E+02, 4.750E+02, 4.427E+02
 2.130E+03, 4.258E+02, 4.750E+02, 4.427E+02
 2.145E+03, 4.263E+02, 4.750E+02, 4.429E+02
 2.160E+03, 4.268E+02, 4.750E+02, 4.429E+02
 2.175E+03, 4.272E+02, 4.750E+02, 4.428E+02
 2.190E+03, 4.274E+02, 4.750E+02, 4.428E+02
 2.205E+03, 4.278E+02, 4.750E+02, 4.430E+02
 2.220E+03, 4.282E+02, 4.750E+02, 4.431E+02
 2.235E+03, 4.286E+02, 4.750E+02, 4.431E+02
 2.250E+03, 4.290E+02, 4.750E+02, 4.433E+02
 2.265E+03, 4.294E+02, 4.750E+02, 4.434E+02
 2.280E+03, 4.297E+02, 4.750E+02, 4.435E+02
 2.295E+03, 4.301E+02, 4.750E+02, 4.435E+02
 2.310E+03, 4.303E+02, 4.750E+02, 4.435E+02
 2.325E+03, 4.305E+02, 4.750E+02, 4.435E+02
 2.340E+03, 4.307E+02, 4.750E+02, 4.435E+02
 2.355E+03, 4.309E+02, 4.750E+02, 4.435E+02
 2.370E+03, 4.312E+02, 4.750E+02, 4.436E+02
 2.385E+03, 4.316E+02, 4.750E+02, 4.438E+02
 2.400E+03, 4.320E+02, 4.750E+02, 4.439E+02
 2.415E+03, 4.323E+02, 4.750E+02, 4.440E+02
 2.430E+03, 4.326E+02, 4.750E+02, 4.440E+02
 2.445E+03, 4.328E+02, 4.750E+02, 4.441E+02
 2.460E+03, 4.330E+02, 4.750E+02, 4.441E+02
 2.475E+03, 4.333E+02, 4.750E+02, 4.443E+02
 2.490E+03, 4.336E+02, 4.750E+02, 4.444E+02
 2.505E+03, 4.339E+02, 4.750E+02, 4.445E+02
 2.520E+03, 4.341E+02, 4.750E+02, 4.446E+02
 2.535E+03, 4.344E+02, 4.750E+02, 4.446E+02
 2.550E+03, 4.345E+02, 4.750E+02, 4.445E+02
 2.565E+03, 4.345E+02, 4.750E+02, 4.444E+02
 2.580E+03, 4.345E+02, 4.750E+02, 4.443E+02
 2.595E+03, 4.345E+02, 4.750E+02, 4.443E+02
 2.610E+03, 4.347E+02, 4.750E+02, 4.443E+02
 2.625E+03, 4.349E+02, 4.750E+02, 4.442E+02
 2.640E+03, 4.349E+02, 4.750E+02, 4.442E+02
 2.655E+03, 4.351E+02, 4.750E+02, 4.443E+02
 2.670E+03, 4.353E+02, 4.750E+02, 4.444E+02
 2.685E+03, 4.355E+02, 4.750E+02, 4.445E+02
 2.700E+03, 4.357E+02, 4.750E+02, 4.444E+02
 2.715E+03, 4.357E+02, 4.750E+02, 4.444E+02
 2.730E+03, 4.358E+02, 4.750E+02, 4.444E+02
 2.745E+03, 4.359E+02, 4.750E+02, 4.444E+02
 2.760E+03, 4.360E+02, 4.750E+02, 4.445E+02
 2.775E+03, 4.361E+02, 4.750E+02, 4.445E+02
 2.790E+03, 4.361E+02, 4.750E+02, 4.444E+02
 2.805E+03, 4.360E+02, 4.750E+02, 4.444E+02
 2.820E+03, 4.361E+02, 4.750E+02, 4.444E+02
 2.835E+03, 4.362E+02, 4.750E+02, 4.443E+02
 2.850E+03, 4.361E+02, 4.750E+02, 4.441E+02
 2.865E+03, 4.360E+02, 4.750E+02, 4.441E+02
 2.880E+03, 4.362E+02, 4.750E+02, 4.442E+02
 2.895E+03, 4.363E+02, 4.750E+02, 4.442E+02
 2.910E+03, 4.364E+02, 4.750E+02, 4.442E+02
 2.925E+03, 4.365E+02, 4.750E+02, 4.442E+02
 2.940E+03, 4.365E+02, 4.750E+02, 4.441E+02
 2.955E+03, 4.365E+02, 4.750E+02, 4.441E+02
 2.970E+03, 4.366E+02, 4.750E+02, 4.441E+02
 2.985E+03, 4.366E+02, 4.715E+02, 4.441E+02
 3.000E+03, 4.367E+02, 4.646E+02, 4.435E+02
 3.015E+03, 4.367E+02, 4.576E+02, 4.427E+02
 3.030E+03, 4.365E+02, 4.507E+02, 4.415E+02
 3.045E+03, 4.364E+02, 4.438E+02, 4.400E+02
 3.060E+03, 4.363E+02, 4.368E+02, 4.382E+02
 3.075E+03, 4.361E+02, 4.299E+02, 4.362E+02
 3.090E+03, 4.358E+02, 4.229E+02, 4.339E+02
 3.105E+03, 4.353E+02, 4.160E+02, 4.314E+02
 3.120E+03, 4.347E+02, 4.091E+02, 4.287E+02
 3.135E+03, 4.341E+02, 4.021E+02, 4.259E+02
 3.150E+03, 4.334E+02, 3.952E+02, 4.230E+02
 3.165E+03, 4.326E+02, 3.883E+02, 4.199E+02
 3.180E+03, 4.317E+02, 3.813E+02, 4.167E+02
 3.195E+03, 4.306E+02, 3.744E+02, 4.134E+02
 3.210E+03, 4.295E+02, 3.674E+02, 4.099E+02
 3.225E+03, 4.282E+02, 3.605E+02, 4.064E+02
 3.240E+03, 4.269E+02, 3.536E+02, 4.029E+02
 3.255E+03, 4.254E+02, 3.466E+02, 3.992E+02
 3.270E+03, 4.238E+02, 3.397E+02, 3.954E+02
 3.285E+03, 4.221E+02, 3.328E+02, 3.916E+02
 3.300E+03, 4.203E+02, 3.258E+02, 3.878E+02
 3.315E+03, 4.185E+02, 3.189E+02, 3.839E+02
 3.330E+03, 4.166E+02, 3.119E+02, 3.800E+02
 3.345E+03, 4.147E+02, 3.050E+02, 3.761E+02
 3.360E+03, 4.128E+02, 2.981E+02, 3.723E+02
 3.375E+03, 4.109E+02, 2.911E+02, 3.684E+02
 3.390E+03, 4.087E+02, 2.842E+02, 3.641E+02
 3.405E+03, 4.064E+02, 2.773E+02, 3.602E+02
 3.420E+03, 4.043E+02, 2.703E+02, 3.563E+02
 3.435E+03, 4.020E+02, 2.634E+02, 3.522E+02
 3.450E+03, 3.996E+02, 2.564E+02, 3.482E+02
 3.465E+03, 3.971E+02, 2.530E+02, 3.441E+02
 3.480E+03, 3.947E+02, 2.530E+02, 3.404E+02
 3.495E+03, 3.923E+02, 2.530E+02, 3.368E+02
 3.510E+03, 3.899E+02, 2.530E+02, 3.332E+02
 3.525E+03, 3.873E+02, 2.530E+02, 3.298E+02
 3.540E+03, 3.846E+02, 2.530E+02, 3.265E+02
 3.555E+03, 3.820E+02, 2.530E+02, 3.234E+02
 3.570E+03, 3.798E+02, 2.530E+02, 3.207E+02
 3.585E+03, 3.777E+02, 2.530E+02, 3.180E+02
 3.600E+03, 3.756E+02, 2.530E+02, 3.154E+02
