s,C,C
Time,"Cable Temp","Shroud Temp"
 0.000E+00, 2.400E+01, 2.400E+01
 1.504E+01, 2.401E+01, 6.159E+01
 3.001E+01, 2.426E+01, 1.357E+02
 4.501E+01, 2.534E+01, 2.100E+02
 6.001E+01, 2.791E+01, 2.843E+02
 7.501E+01, 3.275E+01, 3.586E+02
 9.001E+01, 4.086E+01, 4.329E+02
 1.050E+02, 5.328E+01, 4.700E+02
 1.200E+02, 6.892E+01, 4.700E+02
 1.350E+02, 8.487E+01, 4.700E+02
 1.500E+02, 9.997E+01, 4.700E+02
 1.650E+02, 1.140E+02, 4.700E+02
 1.800E+02, 1.270E+02, 4.700E+02
 1.950E+02, 1.391E+02, 4.700E+02
 2.100E+02, 1.504E+02, 4.700E+02
 2.250E+02, 1.610E+02, 4.700E+02
 2.400E+02, 1.711E+02, 4.700E+02
 2.550E+02, 1.806E+02, 4.700E+02
 2.700E+02, 1.897E+02, 4.700E+02
 2.850E+02, 1.984E+02, 4.700E+02
 3.000E+02, 2.065E+02, 4.700E+02
 3.150E+02, 2.143E+02, 4.700E+02
 3.300E+02, 2.219E+02, 4.700E+02
 3.450E+02, 2.290E+02, 4.700E+02
 3.600E+02, 2.360E+02, 4.700E+02
 3.750E+02, 2.426E+02, 4.700E+02
 3.900E+02, 2.489E+02, 4.700E+02
 4.050E+02, 2.549E+02, 4.700E+02
 4.200E+02, 2.608E+02, 4.700E+02
 4.350E+02, 2.665E+02, 4.700E+02
 4.500E+02, 2.720E+02, 4.700E+02
 4.650E+02, 2.773E+02, 4.700E+02
 4.800E+02, 2.825E+02, 4.700E+02
 4.950E+02, 2.874E+02, 4.700E+02
 5.100E+02, 2.921E+02, 4.700E+02
 5.250E+02, 2.967E+02, 4.700E+02
 5.400E+02, 3.011E+02, 4.700E+02
 5.550E+02, 3.054E+02, 4.700E+02
 5.700E+02, 3.096E+02, 4.700E+02
 5.850E+02, 3.136E+02, 4.700E+02
 6.000E+02, 3.175E+02, 4.700E+02
 6.150E+02, 3.211E+02, 4.700E+02
 6.300E+02, 3.246E+02, 4.700E+02
 6.450E+02, 3.279E+02, 4.700E+02
 6.600E+02, 3.310E+02, 4.700E+02
 6.750E+02, 3.339E+02, 4.700E+02
 6.900E+02, 3.370E+02, 4.700E+02
 7.050E+02, 3.399E+02, 4.700E+02
 7.200E+02, 3.428E+02, 4.700E+02
 7.350E+02, 3.455E+02, 4.700E+02
 7.500E+02, 3.480E+02, 4.700E+02
 7.650E+02, 3.504E+02, 4.700E+02
 7.800E+02, 3.529E+02, 4.700E+02
 7.950E+02, 3.555E+02, 4.700E+02
 8.100E+02, 3.579E+02, 4.700E+02
 8.250E+02, 3.601E+02, 4.700E+02
 8.400E+02, 3.624E+02, 4.700E+02
 8.550E+02, 3.646E+02, 4.700E+02
 8.700E+02, 3.666E+02, 4.700E+02
 8.850E+02, 3.686E+02, 4.700E+02
 9.000E+02, 3.704E+02, 4.700E+02
 9.150E+02, 3.723E+02, 4.700E+02
 9.300E+02, 3.740E+02, 4.700E+02
 9.450E+02, 3.757E+02, 4.700E+02
 9.600E+02, 3.772E+02, 4.700E+02
 9.750E+02, 3.788E+02, 4.700E+02
 9.900E+02, 3.802E+02, 4.700E+02
 1.005E+03, 3.815E+02, 4.700E+02
 1.020E+03, 3.827E+02, 4.700E+02
 1.035E+03, 3.838E+02, 4.700E+02
 1.050E+03, 3.850E+02, 4.700E+02
 1.065E+03, 3.862E+02, 4.700E+02
 1.080E+03, 3.873E+02, 4.700E+02
 1.095E+03, 3.885E+02, 4.700E+02
 1.110E+03, 3.897E+02, 4.700E+02
 1.125E+03, 3.908E+02, 4.700E+02
 1.140E+03, 3.919E+02, 4.700E+02
 1.155E+03, 3.930E+02, 4.700E+02
 1.170E+03, 3.939E+02, 4.700E+02
 1.185E+03, 3.948E+02, 4.700E+02
 1.200E+03, 3.956E+02, 4.700E+02
 1.215E+03, 3.966E+02, 4.700E+02
 1.230E+03, 3.976E+02, 4.700E+02
 1.245E+03, 3.985E+02, 4.700E+02
 1.260E+03, 3.992E+02, 4.700E+02
 1.275E+03, 4.000E+02, 4.700E+02
 1.290E+03, 4.006E+02, 4.700E+02
 1.305E+03, 4.012E+02, 4.700E+02
 1.320E+03, 4.018E+02, 4.700E+02
 1.335E+03, 4.026E+02, 4.700E+02
 1.350E+03, 4.032E+02, 4.700E+02
 1.365E+03, 4.038E+02, 4.700E+02
 1.380E+03, 4.044E+02, 4.700E+02
 1.395E+03, 4.050E+02, 4.700E+02
 1.410E+03, 4.055E+02, 4.700E+02
 1.425E+03, 4.059E+02, 4.700E+02
 1.440E+03, 4.062E+02, 4.700E+02
 1.455E+03, 4.066E+02, 4.700E+02
 1.470E+03, 4.071E+02, 4.700E+02
 1.485E+03, 4.076E+02, 4.700E+02
 1.500E+03, 4.080E+02, 4.700E+02
 1.515E+03, 4.084E+02, 4.700E+02
 1.530E+03, 4.086E+02, 4.700E+02
 1.545E+03, 4.088E+02, 4.700E+02
 1.560E+03, 4.092E+02, 4.700E+02
 1.575E+03, 4.096E+02, 4.700E+02
 1.590E+03, 4.098E+02, 4.700E+02
 1.605E+03, 4.100E+02, 4.700E+02
 1.620E+03, 4.104E+02, 4.700E+02
 1.635E+03, 4.107E+02, 4.700E+02
 1.650E+03, 4.111E+02, 4.700E+02
 1.665E+03, 4.114E+02, 4.700E+02
 1.680E+03, 4.116E+02, 4.700E+02
 1.695E+03, 4.117E+02, 4.700E+02
 1.710E+03, 4.118E+02, 4.700E+02
 1.725E+03, 4.119E+02, 4.700E+02
 1.740E+03, 4.121E+02, 4.700E+02
 1.755E+03, 4.123E+02, 4.700E+02
 1.770E+03, 4.124E+02, 4.700E+02
 1.785E+03, 4.124E+02, 4.700E+02
 1.800E+03, 4.126E+02, 4.700E+02
