s,C,C
Time,"Cable Temp","Shroud Temp"
 0.000E+00, 2.800E+01, 2.800E+01
 1.510E+01, 2.801E+01, 6.211E+01
 3.004E+01, 2.832E+01, 1.291E+02
 4.503E+01, 2.964E+01, 1.960E+02
 6.002E+01, 3.271E+01, 2.629E+02
 7.503E+01, 3.826E+01, 3.300E+02
 9.003E+01, 4.721E+01, 3.970E+02
 1.050E+02, 6.063E+01, 4.602E+02
 1.200E+02, 7.896E+01, 4.750E+02
 1.350E+02, 9.885E+01, 4.750E+02
 1.500E+02, 1.176E+02, 4.750E+02
 1.650E+02, 1.347E+02, 4.750E+02
 1.800E+02, 1.505E+02, 4.750E+02
 1.950E+02, 1.650E+02, 4.750E+02
 2.100E+02, 1.785E+02, 4.750E+02
 2.250E+02, 1.911E+02, 4.750E+02
 2.400E+02, 2.029E+02, 4.750E+02
 2.550E+02, 2.141E+02, 4.750E+02
 2.700E+02, 2.246E+02, 4.750E+02
 2.850E+02, 2.346E+02, 4.750E+02
 3.000E+02, 2.441E+02, 4.750E+02
 3.150E+02, 2.531E+02, 4.750E+02
 3.300E+02, 2.616E+02, 4.750E+02
 3.450E+02, 2.698E+02, 4.750E+02
 3.600E+02, 2.776E+02, 4.750E+02
 3.750E+02, 2.851E+02, 4.750E+02
 3.900E+02, 2.922E+02, 4.750E+02
 4.050E+02, 2.991E+02, 4.750E+02
 4.200E+02, 3.056E+02, 4.750E+02
 4.350E+02, 3.118E+02, 4.750E+02
 4.500E+02, 3.178E+02, 4.750E+02
 4.650E+02, 3.235E+02, 4.750E+02
 4.800E+02, 3.289E+02, 4.750E+02
 4.950E+02, 3.342E+02, 4.750E+02
 5.100E+02, 3.391E+02, 4.750E+02
 5.250E+02, 3.438E+02, 4.750E+02
 5.400E+02, 3.483E+02, 4.750E+02
 5.550E+02, 3.526E+02, 4.750E+02
 5.700E+02, 3.568E+02, 4.750E+02
 5.850E+02, 3.608E+02, 4.750E+02
 6.000E+02, 3.645E+02, 4.750E+02
 6.150E+02, 3.681E+02, 4.750E+02
 6.300E+02, 3.715E+02, 4.750E+02
 6.450E+02, 3.749E+02, 4.750E+02
 6.600E+02, 3.780E+02, 4.750E+02
 6.750E+02, 3.810E+02, 4.750E+02
 6.900E+02, 3.838E+02, 4.750E+02
 7.050E+02, 3.865E+02, 4.750E+02
 7.200E+02, 3.890E+02, 4.750E+02
 7.350E+02, 3.914E+02, 4.750E+02
 7.500E+02, 3.937E+02, 4.750E+02
 7.650E+02, 3.958E+02, 4.750E+02
 7.800E+02, 3.978E+02, 4.750E+02
 7.950E+02, 3.999E+02, 4.750E+02
 8.100E+02, 4.019E+02, 4.750E+02
 8.250E+02, 4.037E+02, 4.750E+02
 8.400E+02, 4.055E+02, 4.750E+02
 8.550E+02, 4.071E+02, 4.750E+02
 8.700E+02, 4.087E+02, 4.750E+02
 8.850E+02, 4.103E+02, 4.750E+02
 9.000E+02, 4.118E+02, 4.750E+02
 9.150E+02, 4.133E+02, 4.750E+02
 9.300E+02, 4.147E+02, 4.750E+02
 9.450E+02, 4.160E+02, 4.750E+02
 9.600E+02, 4.171E+02, 4.750E+02
 9.750E+02, 4.182E+02, 4.750E+02
 9.900E+02, 4.194E+02, 4.750E+02
 1.005E+03, 4.205E+02, 4.750E+02
 1.020E+03, 4.214E+02, 4.750E+02
 1.035E+03, 4.225E+02, 4.750E+02
 1.050E+03, 4.234E+02, 4.750E+02
 1.065E+03, 4.241E+02, 4.750E+02
 1.080E+03, 4.248E+02, 4.750E+02
 1.095E+03, 4.254E+02, 4.750E+02
 1.110E+03, 4.262E+02, 4.750E+02
 1.125E+03, 4.269E+02, 4.750E+02
 1.140E+03, 4.277E+02, 4.750E+02
 1.155E+03, 4.284E+02, 4.750E+02
 1.170E+03, 4.288E+02, 4.750E+02
 1.185E+03, 4.293E+02, 4.750E+02
 1.200E+03, 4.298E+02, 4.750E+02
 1.215E+03, 4.305E+02, 4.750E+02
 1.230E+03, 4.311E+02, 4.750E+02
 1.245E+03, 4.316E+02, 4.750E+02
 1.260E+03, 4.320E+02, 4.750E+02
 1.275E+03, 4.323E+02, 4.750E+02
 1.290E+03, 4.327E+02, 4.750E+02
 1.305E+03, 4.331E+02, 4.746E+02
 1.320E+03, 4.335E+02, 4.694E+02
 1.335E+03, 4.335E+02, 4.627E+02
 1.350E+03, 4.329E+02, 4.560E+02
 1.365E+03, 4.318E+02, 4.493E+02
 1.380E+03, 4.303E+02, 4.426E+02
 1.395E+03, 4.284E+02, 4.359E+02
 1.410E+03, 4.264E+02, 4.292E+02
 1.425E+03, 4.242E+02, 4.225E+02
 1.440E+03, 4.218E+02, 4.158E+02
 1.455E+03, 4.190E+02, 4.090E+02
 1.470E+03, 4.161E+02, 4.023E+02
 1.485E+03, 4.132E+02, 3.956E+02
 1.500E+03, 4.100E+02, 3.889E+02
 1.515E+03, 4.068E+02, 3.822E+02
 1.530E+03, 4.035E+02, 3.755E+02
 1.545E+03, 4.001E+02, 3.688E+02
 1.560E+03, 3.966E+02, 3.621E+02
 1.575E+03, 3.930E+02, 3.554E+02
 1.590E+03, 3.893E+02, 3.487E+02
 1.605E+03, 3.856E+02, 3.420E+02
 1.620E+03, 3.819E+02, 3.353E+02
 1.635E+03, 3.781E+02, 3.286E+02
 1.650E+03, 3.742E+02, 3.219E+02
 1.665E+03, 3.704E+02, 3.152E+02
 1.680E+03, 3.665E+02, 3.085E+02
 1.695E+03, 3.626E+02, 3.018E+02
 1.710E+03, 3.586E+02, 2.966E+02
 1.725E+03, 3.546E+02, 2.962E+02
 1.740E+03, 3.509E+02, 2.962E+02
 1.755E+03, 3.475E+02, 2.962E+02
 1.770E+03, 3.443E+02, 2.962E+02
 1.785E+03, 3.412E+02, 2.962E+02
 1.800E+03, 3.384E+02, 2.962E+02
