s,C,C
Time,"Cable Temp","Shroud Temp"
 0.000E+00, 2.400E+01, 2.400E+01
 1.500E+01, 2.401E+01, 7.339E+01
 3.003E+01, 2.435E+01, 1.709E+02
 4.500E+01, 2.605E+01, 2.686E+02
 6.001E+01, 3.049E+01, 3.662E+02
 7.503E+01, 3.945E+01, 4.584E+02
 9.001E+01, 5.439E+01, 4.800E+02
 1.050E+02, 7.254E+01, 4.800E+02
 1.200E+02, 9.056E+01, 4.800E+02
 1.350E+02, 1.075E+02, 4.800E+02
 1.500E+02, 1.231E+02, 4.800E+02
 1.650E+02, 1.375E+02, 4.800E+02
 1.800E+02, 1.508E+02, 4.800E+02
 1.950E+02, 1.633E+02, 4.800E+02
 2.100E+02, 1.749E+02, 4.800E+02
 2.250E+02, 1.859E+02, 4.800E+02
 2.400E+02, 1.962E+02, 4.800E+02
 2.550E+02, 2.059E+02, 4.800E+02
 2.700E+02, 2.151E+02, 4.800E+02
 2.850E+02, 2.239E+02, 4.800E+02
 3.000E+02, 2.323E+02, 4.800E+02
 3.150E+02, 2.403E+02, 4.800E+02
 3.300E+02, 2.479E+02, 4.800E+02
 3.450E+02, 2.553E+02, 4.800E+02
 3.600E+02, 2.624E+02, 4.800E+02
 3.750E+02, 2.692E+02, 4.800E+02
 3.900E+02, 2.756E+02, 4.800E+02
 4.050E+02, 2.818E+02, 4.800E+02
 4.200E+02, 2.878E+02, 4.800E+02
 4.350E+02, 2.934E+02, 4.800E+02
 4.500E+02, 2.990E+02, 4.800E+02
 4.650E+02, 3.045E+02, 4.800E+02
 4.800E+02, 3.097E+02, 4.800E+02
 4.950E+02, 3.146E+02, 4.800E+02
 5.100E+02, 3.193E+02, 4.800E+02
 5.250E+02, 3.237E+02, 4.800E+02
 5.400E+02, 3.280E+02, 4.800E+02
 5.550E+02, 3.322E+02, 4.800E+02
 5.700E+02, 3.363E+02, 4.800E+02
 5.850E+02, 3.404E+02, 4.800E+02
 6.000E+02, 3.443E+02, 4.800E+02
 6.150E+02, 3.479E+02, 4.800E+02
 6.300E+02, 3.514E+02, 4.800E+02
 6.450E+02, 3.549E+02, 4.800E+02
 6.600E+02, 3.580E+02, 4.800E+02
 6.750E+02, 3.611E+02, 4.800E+02
 6.900E+02, 3.640E+02, 4.800E+02
 7.050E+02, 3.670E+02, 4.800E+02
 7.200E+02, 3.700E+02, 4.800E+02
 7.350E+02, 3.726E+02, 4.800E+02
 7.500E+02, 3.752E+02, 4.800E+02
 7.650E+02, 3.777E+02, 4.800E+02
 7.800E+02, 3.800E+02, 4.800E+02
 7.950E+02, 3.823E+02, 4.800E+02
 8.100E+02, 3.845E+02, 4.800E+02
 8.250E+02, 3.866E+02, 4.797E+02
 8.400E+02, 3.886E+02, 4.748E+02
 8.550E+02, 3.902E+02, 4.686E+02
 8.700E+02, 3.914E+02, 4.625E+02
 8.850E+02, 3.921E+02, 4.563E+02
 9.000E+02, 3.923E+02, 4.501E+02
 9.150E+02, 3.922E+02, 4.439E+02
 9.300E+02, 3.919E+02, 4.377E+02
 9.450E+02, 3.914E+02, 4.315E+02
 9.600E+02, 3.903E+02, 4.253E+02
 9.750E+02, 3.891E+02, 4.191E+02
 9.900E+02, 3.877E+02, 4.129E+02
 1.005E+03, 3.862E+02, 4.068E+02
 1.020E+03, 3.844E+02, 4.006E+02
 1.035E+03, 3.826E+02, 3.944E+02
 1.050E+03, 3.806E+02, 3.882E+02
 1.065E+03, 3.786E+02, 3.820E+02
 1.080E+03, 3.764E+02, 3.758E+02
 1.095E+03, 3.740E+02, 3.696E+02
 1.110E+03, 3.716E+02, 3.634E+02
 1.125E+03, 3.692E+02, 3.572E+02
 1.140E+03, 3.667E+02, 3.511E+02
 1.155E+03, 3.640E+02, 3.449E+02
 1.170E+03, 3.613E+02, 3.387E+02
 1.185E+03, 3.585E+02, 3.325E+02
 1.200E+03, 3.557E+02, 3.263E+02
 1.215E+03, 3.528E+02, 3.201E+02
 1.230E+03, 3.499E+02, 3.139E+02
 1.245E+03, 3.469E+02, 3.078E+02
 1.260E+03, 3.438E+02, 3.032E+02
 1.275E+03, 3.408E+02, 2.990E+02
 1.290E+03, 3.379E+02, 2.949E+02
 1.305E+03, 3.350E+02, 2.907E+02
 1.320E+03, 3.321E+02, 2.865E+02
 1.335E+03, 3.291E+02, 2.823E+02
 1.350E+03, 3.262E+02, 2.781E+02
 1.365E+03, 3.234E+02, 2.740E+02
 1.380E+03, 3.206E+02, 2.698E+02
 1.395E+03, 3.178E+02, 2.656E+02
 1.410E+03, 3.149E+02, 2.614E+02
 1.425E+03, 3.120E+02, 2.572E+02
 1.440E+03, 3.092E+02, 2.531E+02
 1.455E+03, 3.063E+02, 2.489E+02
 1.470E+03, 3.034E+02, 2.447E+02
 1.485E+03, 3.006E+02, 2.405E+02
 1.500E+03, 2.979E+02, 2.363E+02
 1.515E+03, 2.951E+02, 2.322E+02
 1.530E+03, 2.922E+02, 2.280E+02
 1.545E+03, 2.894E+02, 2.238E+02
 1.560E+03, 2.866E+02, 2.196E+02
 1.575E+03, 2.839E+02, 2.154E+02
 1.590E+03, 2.811E+02, 2.113E+02
 1.605E+03, 2.784E+02, 2.073E+02
 1.620E+03, 2.757E+02, 2.064E+02
 1.635E+03, 2.730E+02, 2.064E+02
 1.650E+03, 2.704E+02, 2.064E+02
 1.665E+03, 2.680E+02, 2.064E+02
 1.680E+03, 2.656E+02, 2.064E+02
 1.695E+03, 2.633E+02, 2.064E+02
 1.710E+03, 2.611E+02, 2.064E+02
 1.725E+03, 2.589E+02, 2.064E+02
 1.740E+03, 2.568E+02, 2.064E+02
 1.755E+03, 2.547E+02, 2.064E+02
 1.770E+03, 2.528E+02, 2.064E+02
 1.785E+03, 2.509E+02, 2.064E+02
 1.800E+03, 2.490E+02, 2.064E+02
