s,C,C,C
Time,"Cable Temp","Shroud Temp","Conduit"
 0.000E+00, 3.100E+01, 3.100E+01, 3.100E+01
 1.504E+01, 3.100E+01, 6.849E+01, 3.106E+01
 3.001E+01, 3.100E+01, 1.423E+02, 3.161E+01
 4.502E+01, 3.101E+01, 2.163E+02, 3.320E+01
 6.001E+01, 3.103E+01, 2.902E+02, 3.638E+01
 7.503E+01, 3.110E+01, 3.642E+02, 4.191E+01
 9.003E+01, 3.125E+01, 4.382E+02, 5.068E+01
 1.050E+02, 3.154E+01, 4.750E+02, 6.291E+01
 1.200E+02, 3.211E+01, 4.750E+02, 7.566E+01
 1.350E+02, 3.293E+01, 4.750E+02, 8.819E+01
 1.500E+02, 3.388E+01, 4.750E+02, 1.004E+02
 1.650E+02, 3.499E+01, 4.750E+02, 1.124E+02
 1.800E+02, 3.624E+01, 4.750E+02, 1.242E+02
 1.950E+02, 3.772E+01, 4.750E+02, 1.357E+02
 2.100E+02, 3.933E+01, 4.750E+02, 1.470E+02
 2.250E+02, 4.123E+01, 4.750E+02, 1.579E+02
 2.400E+02, 4.329E+01, 4.750E+02, 1.687E+02
 2.550E+02, 4.538E+01, 4.750E+02, 1.792E+02
 2.700E+02, 4.771E+01, 4.750E+02, 1.893E+02
 2.850E+02, 5.028E+01, 4.750E+02, 1.993E+02
 3.000E+02, 5.304E+01, 4.750E+02, 2.089E+02
 3.150E+02, 5.600E+01, 4.750E+02, 2.183E+02
 3.300E+02, 5.914E+01, 4.750E+02, 2.274E+02
 3.450E+02, 6.248E+01, 4.750E+02, 2.362E+02
 3.600E+02, 6.606E+01, 4.750E+02, 2.447E+02
 3.750E+02, 6.989E+01, 4.750E+02, 2.529E+02
 3.900E+02, 7.385E+01, 4.750E+02, 2.609E+02
 4.050E+02, 7.798E+01, 4.750E+02, 2.687E+02
 4.200E+02, 8.231E+01, 4.750E+02, 2.762E+02
 4.350E+02, 8.687E+01, 4.750E+02, 2.834E+02
 4.500E+02, 9.159E+01, 4.750E+02, 2.904E+02
 4.650E+02, 9.646E+01, 4.750E+02, 2.971E+02
 4.800E+02, 1.015E+02, 4.750E+02, 3.036E+02
 4.950E+02, 1.066E+02, 4.750E+02, 3.098E+02
 5.100E+02, 1.119E+02, 4.750E+02, 3.157E+02
 5.250E+02, 1.173E+02, 4.750E+02, 3.213E+02
 5.400E+02, 1.228E+02, 4.750E+02, 3.268E+02
 5.550E+02, 1.285E+02, 4.750E+02, 3.320E+02
 5.700E+02, 1.342E+02, 4.750E+02, 3.369E+02
 5.850E+02, 1.400E+02, 4.750E+02, 3.416E+02
 6.000E+02, 1.458E+02, 4.750E+02, 3.462E+02
 6.150E+02, 1.517E+02, 4.750E+02, 3.506E+02
 6.300E+02, 1.576E+02, 4.750E+02, 3.548E+02
 6.450E+02, 1.635E+02, 4.750E+02, 3.587E+02
 6.600E+02, 1.694E+02, 4.750E+02, 3.625E+02
 6.750E+02, 1.754E+02, 4.750E+02, 3.661E+02
 6.900E+02, 1.814E+02, 4.750E+02, 3.696E+02
 7.050E+02, 1.873E+02, 4.750E+02, 3.729E+02
 7.200E+02, 1.932E+02, 4.750E+02, 3.761E+02
 7.350E+02, 1.991E+02, 4.750E+02, 3.791E+02
 7.500E+02, 2.050E+02, 4.750E+02, 3.819E+02
 7.650E+02, 2.108E+02, 4.750E+02, 3.846E+02
 7.800E+02, 2.165E+02, 4.750E+02, 3.871E+02
 7.950E+02, 2.223E+02, 4.750E+02, 3.894E+02
 8.100E+02, 2.279E+02, 4.750E+02, 3.915E+02
 8.250E+02, 2.334E+02, 4.750E+02, 3.936E+02
 8.400E+02, 2.388E+02, 4.750E+02, 3.957E+02
 8.550E+02, 2.441E+02, 4.750E+02, 3.978E+02
 8.700E+02, 2.494E+02, 4.750E+02, 3.996E+02
 8.850E+02, 2.545E+02, 4.750E+02, 4.015E+02
 9.000E+02, 2.596E+02, 4.750E+02, 4.032E+02
 9.150E+02, 2.646E+02, 4.750E+02, 4.049E+02
 9.300E+02, 2.694E+02, 4.750E+02, 4.065E+02
 9.450E+02, 2.743E+02, 4.750E+02, 4.081E+02
 9.600E+02, 2.790E+02, 4.750E+02, 4.096E+02
 9.750E+02, 2.836E+02, 4.750E+02, 4.110E+02
 9.900E+02, 2.880E+02, 4.750E+02, 4.122E+02
 1.005E+03, 2.923E+02, 4.750E+02, 4.135E+02
 1.020E+03, 2.966E+02, 4.750E+02, 4.147E+02
 1.035E+03, 3.008E+02, 4.750E+02, 4.158E+02
 1.050E+03, 3.048E+02, 4.750E+02, 4.168E+02
 1.065E+03, 3.088E+02, 4.750E+02, 4.179E+02
 1.080E+03, 3.127E+02, 4.750E+02, 4.188E+02
 1.095E+03, 3.165E+02, 4.750E+02, 4.198E+02
 1.110E+03, 3.201E+02, 4.750E+02, 4.207E+02
 1.125E+03, 3.237E+02, 4.750E+02, 4.215E+02
 1.140E+03, 3.272E+02, 4.750E+02, 4.223E+02
 1.155E+03, 3.306E+02, 4.750E+02, 4.231E+02
 1.170E+03, 3.339E+02, 4.750E+02, 4.239E+02
 1.185E+03, 3.372E+02, 4.750E+02, 4.247E+02
 1.200E+03, 3.403E+02, 4.750E+02, 4.256E+02
 1.215E+03, 3.434E+02, 4.750E+02, 4.262E+02
 1.230E+03, 3.463E+02, 4.750E+02, 4.269E+02
 1.245E+03, 3.491E+02, 4.750E+02, 4.275E+02
 1.260E+03, 3.519E+02, 4.750E+02, 4.280E+02
 1.275E+03, 3.545E+02, 4.750E+02, 4.285E+02
 1.290E+03, 3.571E+02, 4.750E+02, 4.291E+02
 1.305E+03, 3.596E+02, 4.750E+02, 4.297E+02
 1.320E+03, 3.621E+02, 4.750E+02, 4.303E+02
 1.335E+03, 3.645E+02, 4.750E+02, 4.308E+02
 1.350E+03, 3.668E+02, 4.750E+02, 4.312E+02
 1.365E+03, 3.691E+02, 4.750E+02, 4.317E+02
 1.380E+03, 3.713E+02, 4.750E+02, 4.321E+02
 1.395E+03, 3.735E+02, 4.750E+02, 4.326E+02
 1.410E+03, 3.755E+02, 4.750E+02, 4.328E+02
 1.425E+03, 3.774E+02, 4.750E+02, 4.332E+02
 1.440E+03, 3.794E+02, 4.750E+02, 4.337E+02
 1.455E+03, 3.814E+02, 4.750E+02, 4.342E+02
 1.470E+03, 3.833E+02, 4.750E+02, 4.347E+02
 1.485E+03, 3.851E+02, 4.750E+02, 4.350E+02
 1.500E+03, 3.867E+02, 4.750E+02, 4.352E+02
 1.515E+03, 3.883E+02, 4.750E+02, 4.355E+02
 1.530E+03, 3.899E+02, 4.750E+02, 4.360E+02
 1.545E+03, 3.916E+02, 4.750E+02, 4.363E+02
 1.560E+03, 3.931E+02, 4.750E+02, 4.366E+02
 1.575E+03, 3.947E+02, 4.750E+02, 4.370E+02
 1.590E+03, 3.961E+02, 4.750E+02, 4.373E+02
 1.605E+03, 3.976E+02, 4.750E+02, 4.377E+02
 1.620E+03, 3.990E+02, 4.750E+02, 4.379E+02
 1.635E+03, 4.003E+02, 4.750E+02, 4.382E+02
 1.650E+03, 4.017E+02, 4.750E+02, 4.385E+02
 1.665E+03, 4.029E+02, 4.750E+02, 4.386E+02
 1.680E+03, 4.040E+02, 4.750E+02, 4.387E+02
 1.695E+03, 4.051E+02, 4.750E+02, 4.389E+02
 1.710E+03, 4.061E+02, 4.750E+02, 4.390E+02
 1.725E+03, 4.072E+02, 4.750E+02, 4.392E+02
 1.740E+03, 4.082E+02, 4.750E+02, 4.394E+02
 1.755E+03, 4.092E+02, 4.750E+02, 4.397E+02
 1.770E+03, 4.103E+02, 4.750E+02, 4.399E+02
 1.785E+03, 4.114E+02, 4.750E+02, 4.402E+02
 1.800E+03, 4.123E+02, 4.750E+02, 4.404E+02
 1.815E+03, 4.133E+02, 4.750E+02, 4.407E+02
 1.830E+03, 4.142E+02, 4.750E+02, 4.409E+02
 1.845E+03, 4.151E+02, 4.750E+02, 4.411E+02
 1.860E+03, 4.159E+02, 4.750E+02, 4.413E+02
 1.875E+03, 4.167E+02, 4.750E+02, 4.414E+02
 1.890E+03, 4.174E+02, 4.750E+02, 4.416E+02
 1.905E+03, 4.182E+02, 4.750E+02, 4.417E+02
 1.920E+03, 4.189E+02, 4.750E+02, 4.418E+02
 1.935E+03, 4.196E+02, 4.750E+02, 4.419E+02
 1.950E+03, 4.203E+02, 4.750E+02, 4.420E+02
 1.965E+03, 4.209E+02, 4.750E+02, 4.420E+02
 1.980E+03, 4.215E+02, 4.750E+02, 4.422E+02
 1.995E+03, 4.221E+02, 4.750E+02, 4.423E+02
 2.010E+03, 4.227E+02, 4.750E+02, 4.424E+02
 2.025E+03, 4.232E+02, 4.750E+02, 4.425E+02
 2.040E+03, 4.237E+02, 4.750E+02, 4.424E+02
 2.055E+03, 4.241E+02, 4.750E+02, 4.423E+02
 2.070E+03, 4.244E+02, 4.750E+02, 4.423E+02
 2.085E+03, 4.249E+02, 4.750E+02, 4.425E+02
 2.100E+03, 4.254E+02, 4.750E+02, 4.424E+02
 2.115E+03, 4.258E+02, 4.750E+02, 4.425E+02
 2.130E+03, 4.263E+02, 4.750E+02, 4.428E+02
 2.145E+03, 4.268E+02, 4.750E+02, 4.429E+02
 2.160E+03, 4.273E+02, 4.750E+02, 4.428E+02
 2.175E+03, 4.276E+02, 4.750E+02, 4.428E+02
 2.190E+03, 4.280E+02, 4.750E+02, 4.428E+02
 2.205E+03, 4.283E+02, 4.750E+02, 4.428E+02
 2.220E+03, 4.285E+02, 4.750E+02, 4.427E+02
 2.235E+03, 4.287E+02, 4.750E+02, 4.427E+02
 2.250E+03, 4.290E+02, 4.750E+02, 4.427E+02
 2.265E+03, 4.293E+02, 4.750E+02, 4.428E+02
 2.280E+03, 4.297E+02, 4.750E+02, 4.429E+02
 2.295E+03, 4.300E+02, 4.750E+02, 4.430E+02
 2.310E+03, 4.303E+02, 4.750E+02, 4.431E+02
 2.325E+03, 4.307E+02, 4.750E+02, 4.432E+02
 2.340E+03, 4.309E+02, 4.750E+02, 4.432E+02
 2.355E+03, 4.311E+02, 4.750E+02, 4.431E+02
 2.370E+03, 4.313E+02, 4.750E+02, 4.432E+02
 2.385E+03, 4.315E+02, 4.750E+02, 4.433E+02
 2.400E+03, 4.317E+02, 4.750E+02, 4.433E+02
 2.415E+03, 4.320E+02, 4.750E+02, 4.434E+02
 2.430E+03, 4.323E+02, 4.750E+02, 4.436E+02
 2.445E+03, 4.326E+02, 4.750E+02, 4.437E+02
 2.460E+03, 4.328E+02, 4.750E+02, 4.438E+02
 2.475E+03, 4.331E+02, 4.750E+02, 4.439E+02
 2.490E+03, 4.334E+02, 4.750E+02, 4.440E+02
 2.505E+03, 4.336E+02, 4.750E+02, 4.440E+02
 2.520E+03, 4.339E+02, 4.750E+02, 4.441E+02
 2.535E+03, 4.341E+02, 4.750E+02, 4.440E+02
 2.550E+03, 4.341E+02, 4.750E+02, 4.441E+02
 2.565E+03, 4.343E+02, 4.750E+02, 4.440E+02
 2.580E+03, 4.342E+02, 4.750E+02, 4.438E+02
 2.595E+03, 4.342E+02, 4.750E+02, 4.438E+02
 2.610E+03, 4.344E+02, 4.750E+02, 4.439E+02
 2.625E+03, 4.346E+02, 4.750E+02, 4.440E+02
 2.640E+03, 4.348E+02, 4.750E+02, 4.442E+02
 2.655E+03, 4.351E+02, 4.750E+02, 4.442E+02
 2.670E+03, 4.352E+02, 4.750E+02, 4.441E+02
 2.685E+03, 4.353E+02, 4.750E+02, 4.443E+02
 2.700E+03, 4.355E+02, 4.750E+02, 4.444E+02
 2.715E+03, 4.356E+02, 4.750E+02, 4.444E+02
 2.730E+03, 4.356E+02, 4.750E+02, 4.444E+02
 2.745E+03, 4.358E+02, 4.750E+02, 4.445E+02
 2.760E+03, 4.359E+02, 4.750E+02, 4.444E+02
 2.775E+03, 4.360E+02, 4.750E+02, 4.445E+02
 2.790E+03, 4.361E+02, 4.750E+02, 4.444E+02
 2.805E+03, 4.361E+02, 4.750E+02, 4.443E+02
 2.820E+03, 4.361E+02, 4.750E+02, 4.443E+02
 2.835E+03, 4.362E+02, 4.750E+02, 4.443E+02
 2.850E+03, 4.364E+02, 4.750E+02, 4.444E+02
 2.865E+03, 4.365E+02, 4.750E+02, 4.445E+02
 2.880E+03, 4.367E+02, 4.750E+02, 4.445E+02
 2.895E+03, 4.368E+02, 4.750E+02, 4.446E+02
 2.910E+03, 4.369E+02, 4.750E+02, 4.446E+02
 2.925E+03, 4.370E+02, 4.750E+02, 4.447E+02
 2.940E+03, 4.370E+02, 4.750E+02, 4.448E+02
 2.955E+03, 4.371E+02, 4.750E+02, 4.448E+02
 2.970E+03, 4.372E+02, 4.750E+02, 4.449E+02
 2.985E+03, 4.373E+02, 4.715E+02, 4.447E+02
 3.000E+03, 4.373E+02, 4.646E+02, 4.442E+02
 3.015E+03, 4.373E+02, 4.576E+02, 4.433E+02
 3.030E+03, 4.372E+02, 4.507E+02, 4.420E+02
 3.045E+03, 4.369E+02, 4.438E+02, 4.403E+02
 3.060E+03, 4.368E+02, 4.368E+02, 4.386E+02
 3.075E+03, 4.366E+02, 4.299E+02, 4.366E+02
 3.090E+03, 4.363E+02, 4.229E+02, 4.343E+02
 3.105E+03, 4.359E+02, 4.160E+02, 4.318E+02
 3.120E+03, 4.353E+02, 4.091E+02, 4.291E+02
 3.135E+03, 4.347E+02, 4.021E+02, 4.262E+02
 3.150E+03, 4.339E+02, 3.952E+02, 4.232E+02
 3.165E+03, 4.330E+02, 3.883E+02, 4.201E+02
 3.180E+03, 4.320E+02, 3.813E+02, 4.169E+02
 3.195E+03, 4.308E+02, 3.744E+02, 4.134E+02
 3.210E+03, 4.296E+02, 3.674E+02, 4.100E+02
 3.225E+03, 4.282E+02, 3.605E+02, 4.064E+02
 3.240E+03, 4.269E+02, 3.536E+02, 4.029E+02
 3.255E+03, 4.255E+02, 3.466E+02, 3.993E+02
 3.270E+03, 4.239E+02, 3.397E+02, 3.954E+02
 3.285E+03, 4.222E+02, 3.328E+02, 3.916E+02
 3.300E+03, 4.204E+02, 3.258E+02, 3.878E+02
 3.315E+03, 4.187E+02, 3.189E+02, 3.839E+02
 3.330E+03, 4.169E+02, 3.120E+02, 3.799E+02
 3.345E+03, 4.148E+02, 3.050E+02, 3.759E+02
 3.360E+03, 4.126E+02, 2.981E+02, 3.718E+02
 3.375E+03, 4.104E+02, 2.911E+02, 3.679E+02
 3.390E+03, 4.083E+02, 2.842E+02, 3.639E+02
 3.405E+03, 4.062E+02, 2.773E+02, 3.599E+02
 3.420E+03, 4.039E+02, 2.703E+02, 3.559E+02
 3.435E+03, 4.015E+02, 2.634E+02, 3.519E+02
 3.450E+03, 3.993E+02, 2.564E+02, 3.480E+02
 3.465E+03, 3.970E+02, 2.530E+02, 3.441E+02
 3.480E+03, 3.946E+02, 2.530E+02, 3.402E+02
 3.495E+03, 3.922E+02, 2.530E+02, 3.367E+02
 3.510E+03, 3.900E+02, 2.530E+02, 3.333E+02
 3.525E+03, 3.877E+02, 2.530E+02, 3.300E+02
 3.540E+03, 3.855E+02, 2.530E+02, 3.269E+02
 3.555E+03, 3.832E+02, 2.530E+02, 3.240E+02
 3.570E+03, 3.810E+02, 2.530E+02, 3.212E+02
 3.585E+03, 3.788E+02, 2.530E+02, 3.185E+02
 3.600E+03, 3.763E+02, 2.530E+02, 3.157E+02
