s,C,C
Time,"Cable Temp","Shroud Temp"
 0.000E+00, 2.800E+01, 2.800E+01
 1.501E+01, 2.819E+01, 6.227E+01
 3.007E+01, 3.010E+01, 1.301E+02
 4.502E+01, 3.496E+01, 1.979E+02
 6.003E+01, 4.345E+01, 2.655E+02
 7.503E+01, 5.643E+01, 3.334E+02
 9.004E+01, 7.556E+01, 4.012E+02
 1.050E+02, 1.023E+02, 4.651E+02
 1.200E+02, 1.307E+02, 4.800E+02
 1.350E+02, 1.527E+02, 4.800E+02
 1.500E+02, 1.709E+02, 4.800E+02
 1.650E+02, 1.867E+02, 4.800E+02
 1.800E+02, 2.010E+02, 4.800E+02
 1.950E+02, 2.141E+02, 4.800E+02
 2.100E+02, 2.262E+02, 4.800E+02
 2.250E+02, 2.375E+02, 4.800E+02
 2.400E+02, 2.482E+02, 4.800E+02
 2.550E+02, 2.580E+02, 4.800E+02
 2.700E+02, 2.671E+02, 4.800E+02
 2.850E+02, 2.761E+02, 4.800E+02
 3.000E+02, 2.845E+02, 4.800E+02
 3.150E+02, 2.923E+02, 4.800E+02
 3.300E+02, 2.997E+02, 4.800E+02
 3.450E+02, 3.067E+02, 4.800E+02
 3.600E+02, 3.134E+02, 4.800E+02
 3.750E+02, 3.195E+02, 4.800E+02
 3.900E+02, 3.256E+02, 4.800E+02
 4.050E+02, 3.312E+02, 4.800E+02
 4.200E+02, 3.369E+02, 4.800E+02
 4.350E+02, 3.426E+02, 4.800E+02
 4.500E+02, 3.475E+02, 4.800E+02
 4.650E+02, 3.516E+02, 4.800E+02
 4.800E+02, 3.559E+02, 4.800E+02
 4.950E+02, 3.601E+02, 4.800E+02
 5.100E+02, 3.642E+02, 4.800E+02
 5.250E+02, 3.684E+02, 4.800E+02
 5.400E+02, 3.715E+02, 4.800E+02
 5.550E+02, 3.755E+02, 4.800E+02
 5.700E+02, 3.787E+02, 4.800E+02
 5.850E+02, 3.816E+02, 4.800E+02
 6.000E+02, 3.840E+02, 4.800E+02
 6.150E+02, 3.869E+02, 4.800E+02
 6.300E+02, 3.896E+02, 4.800E+02
 6.450E+02, 3.919E+02, 4.800E+02
 6.600E+02, 3.942E+02, 4.800E+02
 6.750E+02, 3.972E+02, 4.800E+02
 6.900E+02, 3.990E+02, 4.800E+02
 7.050E+02, 4.009E+02, 4.800E+02
 7.200E+02, 4.025E+02, 4.800E+02
 7.350E+02, 4.038E+02, 4.800E+02
 7.500E+02, 4.053E+02, 4.800E+02
 7.650E+02, 4.069E+02, 4.800E+02
 7.800E+02, 4.088E+02, 4.800E+02
 7.950E+02, 4.095E+02, 4.800E+02
 8.100E+02, 4.106E+02, 4.800E+02
 8.250E+02, 4.119E+02, 4.800E+02
 8.400E+02, 4.133E+02, 4.800E+02
 8.550E+02, 4.145E+02, 4.800E+02
 8.700E+02, 4.159E+02, 4.800E+02
 8.850E+02, 4.163E+02, 4.800E+02
 9.000E+02, 4.167E+02, 4.800E+02
 9.150E+02, 4.180E+02, 4.800E+02
 9.300E+02, 4.188E+02, 4.800E+02
 9.450E+02, 4.193E+02, 4.800E+02
 9.600E+02, 4.203E+02, 4.800E+02
 9.750E+02, 4.206E+02, 4.800E+02
 9.900E+02, 4.213E+02, 4.800E+02
 1.005E+03, 4.227E+02, 4.800E+02
 1.020E+03, 4.236E+02, 4.800E+02
 1.035E+03, 4.237E+02, 4.800E+02
 1.050E+03, 4.239E+02, 4.800E+02
 1.065E+03, 4.245E+02, 4.800E+02
 1.080E+03, 4.239E+02, 4.800E+02
 1.095E+03, 4.251E+02, 4.800E+02
 1.110E+03, 4.254E+02, 4.800E+02
 1.125E+03, 4.252E+02, 4.800E+02
 1.140E+03, 4.263E+02, 4.800E+02
 1.155E+03, 4.269E+02, 4.800E+02
 1.170E+03, 4.275E+02, 4.800E+02
 1.185E+03, 4.275E+02, 4.800E+02
 1.200E+03, 4.285E+02, 4.800E+02
 1.215E+03, 4.282E+02, 4.800E+02
 1.230E+03, 4.282E+02, 4.800E+02
 1.245E+03, 4.287E+02, 4.800E+02
 1.260E+03, 4.286E+02, 4.800E+02
 1.275E+03, 4.288E+02, 4.800E+02
 1.290E+03, 4.300E+02, 4.800E+02
 1.305E+03, 4.295E+02, 4.800E+02
 1.320E+03, 4.297E+02, 4.800E+02
 1.335E+03, 4.295E+02, 4.800E+02
 1.350E+03, 4.295E+02, 4.800E+02
 1.365E+03, 4.303E+02, 4.800E+02
 1.380E+03, 4.304E+02, 4.800E+02
 1.395E+03, 4.300E+02, 4.800E+02
 1.410E+03, 4.307E+02, 4.800E+02
 1.425E+03, 4.306E+02, 4.780E+02
 1.440E+03, 4.296E+02, 4.694E+02
 1.455E+03, 4.268E+02, 4.604E+02
 1.470E+03, 4.238E+02, 4.513E+02
 1.485E+03, 4.200E+02, 4.423E+02
 1.500E+03, 4.157E+02, 4.333E+02
 1.515E+03, 4.114E+02, 4.242E+02
 1.530E+03, 4.067E+02, 4.152E+02
 1.545E+03, 4.022E+02, 4.061E+02
 1.560E+03, 3.980E+02, 3.971E+02
 1.575E+03, 3.937E+02, 3.881E+02
 1.590E+03, 3.890E+02, 3.790E+02
 1.605E+03, 3.838E+02, 3.700E+02
 1.620E+03, 3.785E+02, 3.609E+02
 1.635E+03, 3.737E+02, 3.519E+02
 1.650E+03, 3.684E+02, 3.429E+02
 1.665E+03, 3.632E+02, 3.338E+02
 1.680E+03, 3.582E+02, 3.248E+02
 1.695E+03, 3.525E+02, 3.157E+02
 1.710E+03, 3.468E+02, 3.067E+02
 1.725E+03, 3.413E+02, 2.997E+02
 1.740E+03, 3.368E+02, 2.992E+02
 1.755E+03, 3.332E+02, 2.992E+02
 1.770E+03, 3.296E+02, 2.992E+02
 1.785E+03, 3.264E+02, 2.992E+02
 1.800E+03, 3.233E+02, 2.992E+02
