s,kW/m2,,
Time,"flux","d43","w"
 0.0000000E+000, 1.9665845E+000, 0.0000000E+000, 0.0000000E+000
 1.0000000E-001, 1.9665899E+000, 0.0000000E+000, 0.0000000E+000
 2.0000000E-001, 1.9665968E+000, 0.0000000E+000, 0.0000000E+000
 3.5000000E-001, 1.9666105E+000, 0.0000000E+000, 0.0000000E+000
 4.5000000E-001, 1.9666311E+000, 0.0000000E+000, 0.0000000E+000
 5.5000000E-001, 1.9666506E+000, 0.0000000E+000, 0.0000000E+000
 6.0000000E-001, 1.9666703E+000, 0.0000000E+000, 0.0000000E+000
 7.0000000E-001, 1.9666835E+000, 0.0000000E+000, 0.0000000E+000
 8.0000000E-001, 1.9667062E+000, 0.0000000E+000, 0.0000000E+000
 9.0000000E-001, 1.9667293E+000, 0.0000000E+000, 0.0000000E+000
 1.0000000E+000, 1.9667524E+000, 0.0000000E+000, 0.0000000E+000
 1.1000000E+000, 1.9667756E+000, 0.0000000E+000, 0.0000000E+000
 1.2000000E+000, 1.9667994E+000, 0.0000000E+000, 0.0000000E+000
 1.3000000E+000, 1.9668237E+000, 0.0000000E+000, 0.0000000E+000
 1.4000000E+000, 1.9668482E+000, 0.0000000E+000, 0.0000000E+000
 1.5000000E+000, 1.9668728E+000, 0.0000000E+000, 0.0000000E+000
 1.6000000E+000, 1.9668972E+000, 0.0000000E+000, 0.0000000E+000
 1.7000000E+000, 1.9669219E+000, 0.0000000E+000, 0.0000000E+000
 1.8000000E+000, 1.9669472E+000, 0.0000000E+000, 0.0000000E+000
 1.9000000E+000, 1.9669727E+000, 0.0000000E+000, 0.0000000E+000
 2.0000000E+000, 1.9669982E+000, 0.0000000E+000, 0.0000000E+000
 2.1000000E+000, 1.9670233E+000, 0.0000000E+000, 0.0000000E+000
 2.2500000E+000, 1.9670538E+000, 0.0000000E+000, 0.0000000E+000
 2.3500000E+000, 1.9670872E+000, 0.0000000E+000, 0.0000000E+000
 2.4500000E+000, 1.9671133E+000, 0.0000000E+000, 0.0000000E+000
 2.5500000E+000, 1.9671394E+000, 0.0000000E+000, 0.0000000E+000
 2.6500000E+000, 1.9671646E+000, 0.0000000E+000, 0.0000000E+000
 2.7500000E+000, 1.9671904E+000, 0.0000000E+000, 0.0000000E+000
 2.8500000E+000, 1.9672166E+000, 0.0000000E+000, 0.0000000E+000
 2.9500000E+000, 1.9672429E+000, 0.0000000E+000, 0.0000000E+000
 3.0500000E+000, 1.9672697E+000, 0.0000000E+000, 0.0000000E+000
 3.1500000E+000, 1.9672956E+000, 0.0000000E+000, 0.0000000E+000
 3.2500000E+000, 1.9673212E+000, 0.0000000E+000, 0.0000000E+000
 3.3500000E+000, 1.9673475E+000, 0.0000000E+000, 0.0000000E+000
 3.4500000E+000, 1.9673740E+000, 0.0000000E+000, 0.0000000E+000
 3.5500000E+000, 1.9674009E+000, 0.0000000E+000, 0.0000000E+000
 3.6500000E+000, 1.9674276E+000, 0.0000000E+000, 0.0000000E+000
 3.7500000E+000, 1.9674531E+000, 0.0000000E+000, 0.0000000E+000
 3.8500000E+000, 1.9674791E+000, 0.0000000E+000, 0.0000000E+000
 3.9500000E+000, 1.9675058E+000, 0.0000000E+000, 0.0000000E+000
 4.0500000E+000, 1.9636420E+000, 0.0000000E+000, 0.0000000E+000
 4.1500000E+000, 1.6064791E+000, 0.0000000E+000, 0.0000000E+000
 4.2070230E+000, 7.3291501E-001, 4.2984643E-004,-9.7371327E+000
 4.3069039E+000, 2.4499878E-003, 3.6288468E-004,-7.0725327E+000
 4.4028594E+000, 8.3241168E-004, 2.3680038E-004,-5.5233293E+000
 4.5116089E+000, 6.1155507E-004, 2.0725093E-004,-5.9976711E+000
 4.6089504E+000, 5.2358151E-004, 2.0162643E-004,-5.9418417E+000
 4.7121559E+000, 4.5413579E-004, 2.0368067E-004,-5.9730530E+000
 4.8024606E+000, 4.1392425E-004, 1.9949375E-004,-6.0574108E+000
 4.9056661E+000, 3.8890977E-004, 1.9520854E-004,-6.0869303E+000
 5.0088715E+000, 3.7332192E-004, 1.9474512E-004,-6.1349158E+000
 5.1120770E+000, 3.6070309E-004, 1.9562583E-004,-6.1668818E+000
 5.2023817E+000, 3.5965422E-004, 1.9472847E-004,-6.1933418E+000
 5.3037168E+000, 3.6282833E-004, 1.9607563E-004,-6.2040772E+000
 5.4118075E+000, 3.7127854E-004, 1.9520897E-004,-6.2168028E+000
 5.5108907E+000, 3.6713581E-004, 1.9762970E-004,-6.2121106E+000
 5.6099739E+000, 3.5988939E-004, 1.9859188E-004,-6.2237448E+000
 5.7090570E+000, 3.5681344E-004, 1.9911933E-004,-6.2423714E+000
 5.8081402E+000, 3.5155577E-004, 1.9985036E-004,-6.2468325E+000
 5.9072233E+000, 3.5145381E-004, 2.0315527E-004,-6.2769061E+000
 6.0063065E+000, 3.4748034E-004, 2.0362645E-004,-6.2943725E+000
 6.1053897E+000, 3.3888401E-004, 2.0453649E-004,-6.3083295E+000
 6.2044728E+000, 3.2630324E-004, 2.0428563E-004,-6.3123386E+000
 6.3035560E+000, 3.1703582E-004, 2.0374753E-004,-6.3265304E+000
 6.4026392E+000, 3.0659485E-004, 2.0241635E-004,-6.3293519E+000
 6.5017223E+000, 2.9686565E-004, 2.0140485E-004,-6.3346333E+000
 6.6008055E+000, 2.8705196E-004, 2.0099644E-004,-6.3368005E+000
 6.7122741E+000, 2.7948989E-004, 2.0071930E-004,-6.3458485E+000
 6.8113572E+000, 2.7281363E-004, 2.0055472E-004,-6.3492714E+000
 6.9104404E+000, 2.6544366E-004, 2.0040828E-004,-6.3548969E+000
 7.0095236E+000, 2.5925642E-004, 2.0168515E-004,-6.3589892E+000
 7.1086067E+000, 2.4984995E-004, 2.0168628E-004,-6.3548123E+000
 7.2076899E+000, 2.4182515E-004, 2.0054877E-004,-6.3564785E+000
 7.3067730E+000, 2.3731443E-004, 2.0044113E-004,-6.3642684E+000
 7.4058562E+000, 2.2866409E-004, 1.9957846E-004,-6.3650992E+000
 7.5049394E+000, 2.2173981E-004, 1.9954760E-004,-6.3672726E+000
 7.6040225E+000, 2.1071348E-004, 1.9957650E-004,-6.3692697E+000
 7.7031057E+000, 2.0517211E-004, 1.9920085E-004,-6.3736243E+000
 7.8021889E+000, 2.0227444E-004, 1.9881956E-004,-6.3743881E+000
 7.9012720E+000, 1.9843101E-004, 1.9917654E-004,-6.3747046E+000
 8.0003552E+000, 1.9402738E-004, 1.9942208E-004,-6.3699489E+000
 8.1118238E+000, 1.8211619E-004, 1.9918590E-004,-6.3640827E+000
 8.2109069E+000, 1.7494087E-004, 1.9898752E-004,-6.3596547E+000
 8.3099901E+000, 1.7292562E-004, 1.9849735E-004,-6.3582455E+000
 8.4090733E+000, 1.6717988E-004, 1.9832837E-004,-6.3586831E+000
 8.5081564E+000, 1.6209354E-004, 1.9782615E-004,-6.3592960E+000
 8.6072396E+000, 1.5743813E-004, 1.9820446E-004,-6.3611525E+000
 8.7063228E+000, 1.4137155E-004, 1.9777261E-004,-6.3623109E+000
 8.8054059E+000, 1.3536125E-004, 1.9746135E-004,-6.3642927E+000
 8.9044891E+000, 1.2739652E-004, 1.9802856E-004,-6.3649667E+000
 9.0035722E+000, 2.0504496E-004, 1.9827037E-004,-6.3652794E+000
 9.1026554E+000, 1.3946779E-001, 1.9804233E-004,-6.3663863E+000
 9.2017386E+000, 1.0934939E+000, 1.9764682E-004,-6.3661310E+000
 9.3008217E+000, 1.5390805E+000, 1.9771989E-004,-6.3654822E+000
 9.4122903E+000, 1.5330044E+000, 1.9711229E-004,-6.3645987E+000
 9.5113735E+000, 1.5402348E+000, 1.9728657E-004,-6.3640191E+000
 9.6104566E+000, 1.5366002E+000, 1.9853090E-004,-6.3650268E+000
 9.7095398E+000, 1.5249866E+000, 1.9845283E-004,-6.3696661E+000
 9.8086230E+000, 1.5261432E+000, 1.9770141E-004,-6.3738616E+000
 9.9077061E+000, 1.5283100E+000, 1.9791021E-004,-6.3724070E+000
 1.0006789E+001, 1.5309786E+000, 1.9797017E-004,-6.3729548E+000
 1.0105872E+001, 1.5469422E+000, 1.9779675E-004,-6.3732965E+000
 1.0204956E+001, 1.5366637E+000, 1.9729668E-004,-6.3732201E+000
 1.0304039E+001, 1.5253157E+000, 1.9705264E-004,-6.3712089E+000
 1.0403122E+001, 1.5340918E+000, 1.9679050E-004,-6.3688023E+000
 1.0502205E+001, 1.5334403E+000, 1.9659936E-004,-6.3690028E+000
 1.0601288E+001, 1.5434706E+000, 1.9648944E-004,-6.3717689E+000
 1.0700371E+001, 1.5353320E+000, 1.9649964E-004,-6.3737796E+000
 1.0811840E+001, 1.5328563E+000, 1.9668041E-004,-6.3744094E+000
 1.0910923E+001, 1.5366836E+000, 1.9658307E-004,-6.3749756E+000
 1.1010006E+001, 1.5327881E+000, 1.9665946E-004,-6.3756954E+000
 1.1109089E+001, 1.5371775E+000, 1.9664773E-004,-6.3732399E+000
 1.1208173E+001, 1.5265127E+000, 1.9643194E-004,-6.3724436E+000
 1.1307256E+001, 1.5340936E+000, 1.9619743E-004,-6.3759916E+000
 1.1406339E+001, 1.5340545E+000, 1.9588924E-004,-6.3781966E+000
 1.1505422E+001, 1.5193966E+000, 1.9560016E-004,-6.3754338E+000
 1.1604505E+001, 1.5206063E+000, 1.9536177E-004,-6.3757884E+000
 1.1703588E+001, 1.5335655E+000, 1.9498915E-004,-6.3783269E+000
 1.1802672E+001, 1.5409131E+000, 1.9486404E-004,-6.3773432E+000
 1.1905804E+001, 1.5351505E+000, 1.9477487E-004,-6.3739187E+000
 1.2002473E+001, 1.5281721E+000, 1.9519770E-004,-6.3764220E+000
 1.2112434E+001, 1.5405996E+000, 1.9574151E-004,-6.3765907E+000
 1.2205478E+001, 1.5505107E+000, 1.9582600E-004,-6.3746263E+000
 1.2311815E+001, 1.5433727E+000, 1.9585505E-004,-6.3744139E+000
 1.2404859E+001, 1.5359898E+000, 1.9580780E-004,-6.3748910E+000
 1.2511195E+001, 1.5312108E+000, 1.9596579E-004,-6.3763313E+000
 1.2606848E+001, 1.5412572E+000, 1.9604871E-004,-6.3753070E+000
 1.2700975E+001, 1.5395924E+000, 1.9649853E-004,-6.3746774E+000
 1.2806867E+001, 1.5376288E+000, 1.9682524E-004,-6.3723662E+000
 1.2900994E+001, 1.5405432E+000, 1.9657080E-004,-6.3683370E+000
 1.3006887E+001, 1.5342038E+000, 1.9711447E-004,-6.3687247E+000
 1.3101013E+001, 1.5486451E+000, 1.9727914E-004,-6.3677234E+000
 1.3209259E+001, 1.5322912E+000, 1.9759879E-004,-6.3679420E+000
 1.3312799E+001, 1.5275408E+000, 1.9756869E-004,-6.3671429E+000
 1.3405903E+001, 1.5278918E+000, 1.9748370E-004,-6.3643572E+000
 1.3512404E+001, 1.5243295E+000, 1.9731228E-004,-6.3655498E+000
 1.3605746E+001, 1.5333699E+000, 1.9732446E-004,-6.3650640E+000
 1.3708135E+001, 1.5341353E+000, 1.9732012E-004,-6.3641763E+000
 1.3803122E+001, 1.5238349E+000, 1.9699624E-004,-6.3621962E+000
 1.3900415E+001, 1.5302332E+000, 1.9686965E-004,-6.3644888E+000
 1.4002998E+001, 1.5343872E+000, 1.9709291E-004,-6.3639237E+000
 1.4105580E+001, 1.5243506E+000, 1.9679915E-004,-6.3659323E+000
 1.4208163E+001, 1.5283548E+000, 1.9642895E-004,-6.3691594E+000
 1.4310746E+001, 1.5374682E+000, 1.9642228E-004,-6.3701369E+000
 1.4400505E+001, 1.5441970E+000, 1.9630635E-004,-6.3694139E+000
 1.4503088E+001, 1.5368036E+000, 1.9631450E-004,-6.3699847E+000
 1.4605670E+001, 1.5259869E+000, 1.9655915E-004,-6.3704267E+000
 1.4706920E+001, 1.5179037E+000, 1.9690468E-004,-6.3695421E+000
 1.4810329E+001, 1.5077568E+000, 1.9735267E-004,-6.3723236E+000
 1.4902248E+001, 1.5166946E+000, 1.9766620E-004,-6.3762170E+000
 1.5000000E+001, 1.5158753E+000, 1.9746934E-004,-6.3746252E+000
