s,kW/m2,,
Time,"flux","d43","w"
 0.0000000E+000, 1.9665845E+000, 0.0000000E+000, 0.0000000E+000
 1.0000000E-001, 1.9665899E+000, 0.0000000E+000, 0.0000000E+000
 2.0000000E-001, 1.9665968E+000, 0.0000000E+000, 0.0000000E+000
 3.5000000E-001, 1.9666105E+000, 0.0000000E+000, 0.0000000E+000
 4.5000000E-001, 1.9666311E+000, 0.0000000E+000, 0.0000000E+000
 5.5000000E-001, 1.9666506E+000, 0.0000000E+000, 0.0000000E+000
 6.0000000E-001, 1.9666703E+000, 0.0000000E+000, 0.0000000E+000
 7.0000000E-001, 1.9666835E+000, 0.0000000E+000, 0.0000000E+000
 8.0000000E-001, 1.9667062E+000, 0.0000000E+000, 0.0000000E+000
 9.0000000E-001, 1.9667293E+000, 0.0000000E+000, 0.0000000E+000
 1.0000000E+000, 1.9667524E+000, 0.0000000E+000, 0.0000000E+000
 1.1000000E+000, 1.9667756E+000, 0.0000000E+000, 0.0000000E+000
 1.2000000E+000, 1.9667994E+000, 0.0000000E+000, 0.0000000E+000
 1.3000000E+000, 1.9668237E+000, 0.0000000E+000, 0.0000000E+000
 1.4000000E+000, 1.9668482E+000, 0.0000000E+000, 0.0000000E+000
 1.5000000E+000, 1.9668728E+000, 0.0000000E+000, 0.0000000E+000
 1.6000000E+000, 1.9668972E+000, 0.0000000E+000, 0.0000000E+000
 1.7000000E+000, 1.9669219E+000, 0.0000000E+000, 0.0000000E+000
 1.8000000E+000, 1.9669472E+000, 0.0000000E+000, 0.0000000E+000
 1.9000000E+000, 1.9669727E+000, 0.0000000E+000, 0.0000000E+000
 2.0000000E+000, 1.9669982E+000, 0.0000000E+000, 0.0000000E+000
 2.1000000E+000, 1.9670233E+000, 0.0000000E+000, 0.0000000E+000
 2.2500000E+000, 1.9670538E+000, 0.0000000E+000, 0.0000000E+000
 2.3500000E+000, 1.9670872E+000, 0.0000000E+000, 0.0000000E+000
 2.4500000E+000, 1.9671133E+000, 0.0000000E+000, 0.0000000E+000
 2.5500000E+000, 1.9671394E+000, 0.0000000E+000, 0.0000000E+000
 2.6500000E+000, 1.9671646E+000, 0.0000000E+000, 0.0000000E+000
 2.7500000E+000, 1.9671904E+000, 0.0000000E+000, 0.0000000E+000
 2.8500000E+000, 1.9672166E+000, 0.0000000E+000, 0.0000000E+000
 2.9500000E+000, 1.9672429E+000, 0.0000000E+000, 0.0000000E+000
 3.0500000E+000, 1.9672697E+000, 0.0000000E+000, 0.0000000E+000
 3.1500000E+000, 1.9672956E+000, 0.0000000E+000, 0.0000000E+000
 3.2500000E+000, 1.9673212E+000, 0.0000000E+000, 0.0000000E+000
 3.3500000E+000, 1.9673475E+000, 0.0000000E+000, 0.0000000E+000
 3.4500000E+000, 1.9673740E+000, 0.0000000E+000, 0.0000000E+000
 3.5500000E+000, 1.9674009E+000, 0.0000000E+000, 0.0000000E+000
 3.6500000E+000, 1.9674276E+000, 0.0000000E+000, 0.0000000E+000
 3.7500000E+000, 1.9674531E+000, 0.0000000E+000, 0.0000000E+000
 3.8500000E+000, 1.9674791E+000, 0.0000000E+000, 0.0000000E+000
 3.9500000E+000, 1.9675058E+000, 0.0000000E+000, 0.0000000E+000
 4.0500000E+000, 1.9636420E+000, 0.0000000E+000, 0.0000000E+000
 4.1500000E+000, 1.6064791E+000, 0.0000000E+000, 0.0000000E+000
 4.2500000E+000, 1.1809957E+000, 2.0226064E-004,-1.7055162E+000
 4.3500000E+000, 8.1400969E-001, 3.4496499E-004,-2.2679802E+000
 4.4500000E+000, 3.5765454E-001, 3.1997635E-004,-2.0309562E+000
 4.5500000E+000, 1.4846506E-003, 2.9642027E-004,-1.7363896E+000
 4.6500000E+000, 1.4735816E-003, 2.7107934E-004,-1.5176562E+000
 4.7500000E+000, 1.3809386E-003, 2.4730181E-004,-1.3676223E+000
 4.8500000E+000, 1.2247521E-003, 2.1984284E-004,-1.2477965E+000
 4.9500000E+000, 1.0521662E-003, 1.9021700E-004,-1.1561498E+000
 5.0500000E+000, 9.1240497E-004, 1.6674875E-004,-1.1631085E+000
 5.1500000E+000, 8.8643173E-004, 1.5376048E-004,-1.2782587E+000
 5.2500000E+000, 8.5699205E-004, 1.5067332E-004,-1.4173825E+000
 5.3500000E+000, 8.3057822E-004, 1.4645781E-004,-1.5600370E+000
 5.4500000E+000, 8.1380974E-004, 1.4309193E-004,-1.6457866E+000
 5.5395766E+000, 7.9962327E-004, 1.4091523E-004,-1.6816898E+000
 5.6291532E+000, 7.8549253E-004, 1.3944651E-004,-1.7013977E+000
 5.7187298E+000, 7.6780984E-004, 1.3835319E-004,-1.7251795E+000
 5.8083064E+000, 7.5198964E-004, 1.3693511E-004,-1.7545980E+000
 5.9426714E+000, 7.3757554E-004, 1.3610226E-004,-1.7840189E+000
 6.0322480E+000, 7.2704236E-004, 1.3615937E-004,-1.8016988E+000
 6.1218246E+000, 7.1896260E-004, 1.3563646E-004,-1.8090259E+000
 6.2068739E+000, 7.1047981E-004, 1.3539400E-004,-1.8140689E+000
 6.3276570E+000, 7.0107574E-004, 1.3476161E-004,-1.8200774E+000
 6.4081791E+000, 6.9598882E-004, 1.3478571E-004,-1.8270429E+000
 6.5329883E+000, 6.9481879E-004, 1.3454413E-004,-1.8326590E+000
 6.6304200E+000, 6.9518189E-004, 1.3364940E-004,-1.8383088E+000
 6.7278517E+000, 6.9497277E-004, 1.3348448E-004,-1.8417506E+000
 6.8252834E+000, 6.9376634E-004, 1.3296055E-004,-1.8459390E+000
 6.9227151E+000, 6.9241405E-004, 1.3235046E-004,-1.8498713E+000
 7.0201468E+000, 6.9014871E-004, 1.3249914E-004,-1.8545407E+000
 7.1188626E+000, 6.8745342E-004, 1.3247204E-004,-1.8577589E+000
 7.2188626E+000, 6.8442423E-004, 1.3249053E-004,-1.8605243E+000
 7.3188626E+000, 6.8009275E-004, 1.3211930E-004,-1.8625377E+000
 7.4188626E+000, 6.7526692E-004, 1.3170036E-004,-1.8640699E+000
 7.5188626E+000, 6.7096913E-004, 1.3141038E-004,-1.8655265E+000
 7.6188626E+000, 6.6671527E-004, 1.3093159E-004,-1.8672489E+000
 7.7188626E+000, 6.6147134E-004, 1.3063984E-004,-1.8688962E+000
 7.8188626E+000, 6.5564807E-004, 1.3055118E-004,-1.8705717E+000
 7.9188626E+000, 6.5034016E-004, 1.3043841E-004,-1.8720293E+000
 8.0188626E+000, 6.4533879E-004, 1.3067962E-004,-1.8730070E+000
 8.1188626E+000, 6.4011489E-004, 1.3074638E-004,-1.8734073E+000
 8.2188626E+000, 6.3467585E-004, 1.3067344E-004,-1.8735693E+000
 8.3188626E+000, 6.2908789E-004, 1.3057409E-004,-1.8735861E+000
 8.4188626E+000, 6.2382351E-004, 1.3070068E-004,-1.8735073E+000
 8.5188626E+000, 6.1920637E-004, 1.3101281E-004,-1.8738807E+000
 8.6188626E+000, 6.1458327E-004, 1.3114376E-004,-1.8742235E+000
 8.7188626E+000, 6.0931450E-004, 1.3097470E-004,-1.8749041E+000
 8.8188626E+000, 6.0365408E-004, 1.3088022E-004,-1.8755520E+000
 8.9188626E+000, 5.9836005E-004, 1.3114259E-004,-1.8762624E+000
 9.0188626E+000, 4.1547202E-003, 1.3116648E-004,-1.8768633E+000
 9.1188626E+000, 1.7415940E-001, 1.3128085E-004,-1.8776229E+000
 9.2188626E+000, 5.4007409E-001, 1.3133960E-004,-1.8781671E+000
 9.3188626E+000, 8.9608491E-001, 1.3139917E-004,-1.8785654E+000
 9.4188626E+000, 1.2136486E+000, 1.3134163E-004,-1.8788980E+000
 9.5188626E+000, 1.5656717E+000, 1.3135680E-004,-1.8790138E+000
 9.6188626E+000, 1.7577327E+000, 1.3127655E-004,-1.8788458E+000
 9.7188626E+000, 1.7594612E+000, 1.3153689E-004,-1.8788458E+000
 9.8188626E+000, 1.7589841E+000, 1.3163616E-004,-1.8791843E+000
 9.9188626E+000, 1.7555569E+000, 1.3166910E-004,-1.8793331E+000
 1.0018863E+001, 1.7530137E+000, 1.3162765E-004,-1.8793800E+000
 1.0118863E+001, 1.7528216E+000, 1.3157328E-004,-1.8796483E+000
 1.0218863E+001, 1.7534481E+000, 1.3158849E-004,-1.8797055E+000
 1.0318863E+001, 1.7559743E+000, 1.3146907E-004,-1.8796741E+000
 1.0418863E+001, 1.7590970E+000, 1.3138920E-004,-1.8799772E+000
 1.0518863E+001, 1.7599654E+000, 1.3134424E-004,-1.8801635E+000
 1.0618863E+001, 1.7596950E+000, 1.3129339E-004,-1.8804735E+000
 1.0718863E+001, 1.7591873E+000, 1.3121688E-004,-1.8803594E+000
 1.0818863E+001, 1.7576154E+000, 1.3119023E-004,-1.8801179E+000
 1.0918863E+001, 1.7565047E+000, 1.3113820E-004,-1.8799663E+000
 1.1018863E+001, 1.7569947E+000, 1.3094712E-004,-1.8799886E+000
 1.1118863E+001, 1.7574689E+000, 1.3083017E-004,-1.8804544E+000
 1.1218863E+001, 1.7583904E+000, 1.3059483E-004,-1.8808778E+000
 1.1318863E+001, 1.7593543E+000, 1.3060384E-004,-1.8813228E+000
 1.1418863E+001, 1.7603207E+000, 1.3044654E-004,-1.8817658E+000
 1.1518863E+001, 1.7608794E+000, 1.3038229E-004,-1.8821817E+000
 1.1618863E+001, 1.7598547E+000, 1.3036294E-004,-1.8826558E+000
 1.1718863E+001, 1.7576690E+000, 1.3017263E-004,-1.8829539E+000
 1.1818863E+001, 1.7562698E+000, 1.3019178E-004,-1.8832711E+000
 1.1918863E+001, 1.7565488E+000, 1.3021434E-004,-1.8836096E+000
 1.2018863E+001, 1.7575236E+000, 1.3030179E-004,-1.8839957E+000
 1.2118863E+001, 1.7587453E+000, 1.3033858E-004,-1.8842627E+000
 1.2218863E+001, 1.7606335E+000, 1.3053083E-004,-1.8843502E+000
 1.2318863E+001, 1.7630516E+000, 1.3052530E-004,-1.8841169E+000
 1.2418863E+001, 1.7634702E+000, 1.3040360E-004,-1.8835089E+000
 1.2518863E+001, 1.7614224E+000, 1.3042097E-004,-1.8827732E+000
 1.2618863E+001, 1.7591778E+000, 1.3047553E-004,-1.8820543E+000
 1.2718863E+001, 1.7565013E+000, 1.3048755E-004,-1.8815539E+000
 1.2818863E+001, 1.7533704E+000, 1.3043576E-004,-1.8810884E+000
 1.2918863E+001, 1.7511272E+000, 1.3044691E-004,-1.8808622E+000
 1.3018863E+001, 1.7512696E+000, 1.3044963E-004,-1.8804486E+000
 1.3118863E+001, 1.7535221E+000, 1.3041602E-004,-1.8800824E+000
 1.3218863E+001, 1.7560415E+000, 1.3051138E-004,-1.8800689E+000
 1.3318863E+001, 1.7582537E+000, 1.3054583E-004,-1.8801813E+000
 1.3418863E+001, 1.7601518E+000, 1.3053269E-004,-1.8804586E+000
 1.3518863E+001, 1.7605527E+000, 1.3052195E-004,-1.8805254E+000
 1.3618863E+001, 1.7592339E+000, 1.3049180E-004,-1.8803556E+000
 1.3718863E+001, 1.7575134E+000, 1.3038659E-004,-1.8799067E+000
 1.3818863E+001, 1.7554125E+000, 1.3031468E-004,-1.8794361E+000
 1.3918863E+001, 1.7533214E+000, 1.3027293E-004,-1.8792936E+000
 1.4018863E+001, 1.7525426E+000, 1.3018647E-004,-1.8792239E+000
 1.4118863E+001, 1.7530149E+000, 1.3021094E-004,-1.8793976E+000
 1.4218863E+001, 1.7528382E+000, 1.3021704E-004,-1.8797156E+000
 1.4318863E+001, 1.7520148E+000, 1.3014580E-004,-1.8801677E+000
 1.4418863E+001, 1.7517844E+000, 1.3022558E-004,-1.8806164E+000
 1.4518863E+001, 1.7523489E+000, 1.3026790E-004,-1.8809734E+000
 1.4618863E+001, 1.7532816E+000, 1.3028484E-004,-1.8812617E+000
 1.4718863E+001, 1.7554912E+000, 1.3021220E-004,-1.8813376E+000
 1.4818863E+001, 1.7570193E+000, 1.3017583E-004,-1.8813786E+000
 1.4918863E+001, 1.7566214E+000, 1.3015708E-004,-1.8814049E+000
 1.5000000E+001, 1.7549097E+000, 1.3019326E-004,-1.8812800E+000
