s,kW/m2,,
Time,"flux","d43","w"
 0.0000000E+000, 1.9665845E+000, 0.0000000E+000, 0.0000000E+000
 1.0000000E-001, 1.9665913E+000, 0.0000000E+000, 0.0000000E+000
 2.0000000E-001, 1.9665997E+000, 0.0000000E+000, 0.0000000E+000
 3.5000000E-001, 1.9666136E+000, 0.0000000E+000, 0.0000000E+000
 4.5000000E-001, 1.9666333E+000, 0.0000000E+000, 0.0000000E+000
 5.5000000E-001, 1.9666515E+000, 0.0000000E+000, 0.0000000E+000
 6.0000000E-001, 1.9666703E+000, 0.0000000E+000, 0.0000000E+000
 7.0000000E-001, 1.9666835E+000, 0.0000000E+000, 0.0000000E+000
 8.0000000E-001, 1.9667062E+000, 0.0000000E+000, 0.0000000E+000
 9.0000000E-001, 1.9667293E+000, 0.0000000E+000, 0.0000000E+000
 1.0000000E+000, 1.9667524E+000, 0.0000000E+000, 0.0000000E+000
 1.1000000E+000, 1.9667756E+000, 0.0000000E+000, 0.0000000E+000
 1.2000000E+000, 1.9667994E+000, 0.0000000E+000, 0.0000000E+000
 1.3000000E+000, 1.9668237E+000, 0.0000000E+000, 0.0000000E+000
 1.4000000E+000, 1.9668482E+000, 0.0000000E+000, 0.0000000E+000
 1.5000000E+000, 1.9668728E+000, 0.0000000E+000, 0.0000000E+000
 1.6000000E+000, 1.9668971E+000, 0.0000000E+000, 0.0000000E+000
 1.7000000E+000, 1.9669219E+000, 0.0000000E+000, 0.0000000E+000
 1.8000000E+000, 1.9669472E+000, 0.0000000E+000, 0.0000000E+000
 1.9000000E+000, 1.9669727E+000, 0.0000000E+000, 0.0000000E+000
 2.0000000E+000, 1.9669982E+000, 0.0000000E+000, 0.0000000E+000
 2.1000000E+000, 1.9670233E+000, 0.0000000E+000, 0.0000000E+000
 2.2500000E+000, 1.9670538E+000, 0.0000000E+000, 0.0000000E+000
 2.3500000E+000, 1.9670872E+000, 0.0000000E+000, 0.0000000E+000
 2.4500000E+000, 1.9671133E+000, 0.0000000E+000, 0.0000000E+000
 2.5500000E+000, 1.9671394E+000, 0.0000000E+000, 0.0000000E+000
 2.6500000E+000, 1.9671646E+000, 0.0000000E+000, 0.0000000E+000
 2.7500000E+000, 1.9671904E+000, 0.0000000E+000, 0.0000000E+000
 2.8500000E+000, 1.9672166E+000, 0.0000000E+000, 0.0000000E+000
 2.9500000E+000, 1.9672428E+000, 0.0000000E+000, 0.0000000E+000
 3.0500000E+000, 1.9672697E+000, 0.0000000E+000, 0.0000000E+000
 3.1500000E+000, 1.9672956E+000, 0.0000000E+000, 0.0000000E+000
 3.2500000E+000, 1.9673212E+000, 0.0000000E+000, 0.0000000E+000
 3.3500000E+000, 1.9673475E+000, 0.0000000E+000, 0.0000000E+000
 3.4500000E+000, 1.9673740E+000, 0.0000000E+000, 0.0000000E+000
 3.5500000E+000, 1.9674009E+000, 0.0000000E+000, 0.0000000E+000
 3.6500000E+000, 1.9674276E+000, 0.0000000E+000, 0.0000000E+000
 3.7500000E+000, 1.9674531E+000, 0.0000000E+000, 0.0000000E+000
 3.8500000E+000, 1.9674791E+000, 0.0000000E+000, 0.0000000E+000
 3.9500000E+000, 1.9675058E+000, 0.0000000E+000, 0.0000000E+000
 4.0500000E+000, 1.9636420E+000, 0.0000000E+000, 0.0000000E+000
 4.1500000E+000, 1.6064791E+000, 0.0000000E+000, 0.0000000E+000
 4.2500000E+000, 1.1813143E+000, 4.3621277E-004,-5.7000363E+000
 4.3500000E+000, 8.1477921E-001, 3.9750876E-004,-4.2340754E+000
 4.4365102E+000, 3.5883438E-001, 4.0442342E-004,-4.1885411E+000
 4.5054260E+000, 2.8774625E-003, 3.5543935E-004,-2.8610305E+000
 4.6052112E+000, 2.7041158E-003, 2.9151231E-004,-2.2551748E+000
 4.7286884E+000, 1.7651321E-003, 2.5748459E-004,-2.4717097E+000
 4.8177612E+000, 8.8337941E-004, 2.4252261E-004,-2.7496182E+000
 4.9270979E+000, 6.7027519E-004, 2.3279356E-004,-2.8236380E+000
 5.0091005E+000, 5.9209803E-004, 2.3167947E-004,-2.8994741E+000
 5.1184372E+000, 5.5498890E-004, 2.3170159E-004,-2.9660762E+000
 5.2004397E+000, 5.3157335E-004, 2.2776857E-004,-2.9994099E+000
 5.3097765E+000, 5.1225270E-004, 2.2910615E-004,-3.0339854E+000
 5.4191132E+000, 4.9921074E-004, 2.2871940E-004,-3.0548697E+000
 5.5158391E+000, 5.0194798E-004, 2.2702112E-004,-3.0745260E+000
 5.6125649E+000, 5.0416396E-004, 2.2499542E-004,-3.0901407E+000
 5.7117089E+000, 5.1345613E-004, 2.2495521E-004,-3.1049191E+000
 5.8234273E+000, 5.1646738E-004, 2.2247931E-004,-3.1142797E+000
 5.9112060E+000, 5.2216244E-004, 2.2168217E-004,-3.1271002E+000
 6.0282444E+000, 5.2332384E-004, 2.2075440E-004,-3.1376671E+000
 6.1160231E+000, 5.2335860E-004, 2.2011418E-004,-3.1451760E+000
 6.2038018E+000, 5.2063749E-004, 2.2031462E-004,-3.1511118E+000
 6.3208401E+000, 5.1256415E-004, 2.1995011E-004,-3.1581563E+000
 6.4086188E+000, 5.0522866E-004, 2.1917192E-004,-3.1631709E+000
 6.5256571E+000, 4.9648546E-004, 2.1801494E-004,-3.1642649E+000
 6.6134359E+000, 4.8619691E-004, 2.1692004E-004,-3.1661348E+000
 6.7012146E+000, 4.7905676E-004, 2.1707244E-004,-3.1690087E+000
 6.8182529E+000, 4.7166128E-004, 2.1617089E-004,-3.1722548E+000
 6.9060316E+000, 4.6631421E-004, 2.1488832E-004,-3.1748079E+000
 7.0230699E+000, 4.6053311E-004, 2.1565932E-004,-3.1787675E+000
 7.1108486E+000, 4.5410041E-004, 2.1727130E-004,-3.1818406E+000
 7.2278870E+000, 4.4859900E-004, 2.1700335E-004,-3.1832754E+000
 7.3156657E+000, 4.4179429E-004, 2.1624685E-004,-3.1838762E+000
 7.4034444E+000, 4.3743548E-004, 2.1581884E-004,-3.1843263E+000
 7.5204827E+000, 4.3123674E-004, 2.1567679E-004,-3.1891753E+000
 7.6082614E+000, 4.2342045E-004, 2.1567050E-004,-3.1902704E+000
 7.7252997E+000, 4.1628610E-004, 2.1542718E-004,-3.1897012E+000
 7.8130785E+000, 4.0965742E-004, 2.1465801E-004,-3.1871961E+000
 7.9008572E+000, 4.0266411E-004, 2.1440863E-004,-3.1862618E+000
 8.0178955E+000, 3.9626112E-004, 2.1558908E-004,-3.1866183E+000
 8.1056742E+000, 3.9197322E-004, 2.1646375E-004,-3.1861533E+000
 8.2227125E+000, 3.8614182E-004, 2.1637156E-004,-3.1840820E+000
 8.3104912E+000, 3.8255745E-004, 2.1582981E-004,-3.1823472E+000
 8.4275295E+000, 3.7433599E-004, 2.1537403E-004,-3.1821320E+000
 8.5153083E+000, 3.6973059E-004, 2.1587091E-004,-3.1817445E+000
 8.6030870E+000, 3.6049027E-004, 2.1743741E-004,-3.1826570E+000
 8.7201253E+000, 3.5444786E-004, 2.1683571E-004,-3.1816198E+000
 8.8079040E+000, 3.4710751E-004, 2.1619441E-004,-3.1800980E+000
 8.9249423E+000, 3.3860085E-004, 2.1684701E-004,-3.1819191E+000
 9.0127211E+000, 1.5597564E-003, 2.1711581E-004,-3.1826745E+000
 9.1004998E+000, 7.4671443E-002, 2.1671757E-004,-3.1838598E+000
 9.2175381E+000, 5.8048289E-001, 2.1625719E-004,-3.1852319E+000
 9.3053168E+000, 1.1864063E+000, 2.1665329E-004,-3.1861361E+000
 9.4223551E+000, 1.5607974E+000, 2.1657417E-004,-3.1859203E+000
 9.5101338E+000, 1.6036244E+000, 2.1646210E-004,-3.1851486E+000
 9.6271721E+000, 1.6072625E+000, 2.1790944E-004,-3.1859076E+000
 9.7149509E+000, 1.6058285E+000, 2.1790571E-004,-3.1851318E+000
 9.8027296E+000, 1.6044763E+000, 2.1756997E-004,-3.1849823E+000
 9.9197679E+000, 1.5977504E+000, 2.1694272E-004,-3.1854790E+000
 1.0007547E+001, 1.5982183E+000, 2.1634139E-004,-3.1860560E+000
 1.0124585E+001, 1.6023697E+000, 2.1619866E-004,-3.1874270E+000
 1.0212364E+001, 1.6087389E+000, 2.1585871E-004,-3.1874243E+000
 1.0300142E+001, 1.6105346E+000, 2.1526152E-004,-3.1872820E+000
 1.0417181E+001, 1.6086565E+000, 2.1482636E-004,-3.1849890E+000
 1.0504959E+001, 1.6029836E+000, 2.1505208E-004,-3.1818032E+000
 1.0621998E+001, 1.5990395E+000, 2.1538895E-004,-3.1813098E+000
 1.0709776E+001, 1.6025198E+000, 2.1547645E-004,-3.1848772E+000
 1.0826815E+001, 1.6041873E+000, 2.1572537E-004,-3.1871578E+000
 1.0914593E+001, 1.6078107E+000, 2.1593255E-004,-3.1878377E+000
 1.1002372E+001, 1.6055045E+000, 2.1596790E-004,-3.1875988E+000
 1.1119411E+001, 1.6099272E+000, 2.1598418E-004,-3.1872171E+000
 1.1207189E+001, 1.6103647E+000, 2.1586873E-004,-3.1880509E+000
 1.1324228E+001, 1.6119859E+000, 2.1584855E-004,-3.1873105E+000
 1.1412006E+001, 1.6056654E+000, 2.1619431E-004,-3.1886463E+000
 1.1529045E+001, 1.6025214E+000, 2.1610351E-004,-3.1897268E+000
 1.1616823E+001, 1.5981460E+000, 2.1545128E-004,-3.1895504E+000
 1.1704602E+001, 1.5985173E+000, 2.1553151E-004,-3.1899842E+000
 1.1821640E+001, 1.5993381E+000, 2.1544100E-004,-3.1907477E+000
 1.1909419E+001, 1.6042755E+000, 2.1519941E-004,-3.1906874E+000
 1.2026457E+001, 1.6025132E+000, 2.1536012E-004,-3.1897642E+000
 1.2114236E+001, 1.6095506E+000, 2.1525376E-004,-3.1883553E+000
 1.2202015E+001, 1.6118052E+000, 2.1538940E-004,-3.1876039E+000
 1.2319053E+001, 1.6200502E+000, 2.1591335E-004,-3.1868996E+000
 1.2406832E+001, 1.6143439E+000, 2.1619728E-004,-3.1853194E+000
 1.2523870E+001, 1.6084688E+000, 2.1653303E-004,-3.1848374E+000
 1.2611649E+001, 1.6037630E+000, 2.1672512E-004,-3.1856745E+000
 1.2728687E+001, 1.6033654E+000, 2.1743812E-004,-3.1861034E+000
 1.2816466E+001, 1.6049463E+000, 2.1777158E-004,-3.1860087E+000
 1.2904245E+001, 1.6099521E+000, 2.1752880E-004,-3.1858428E+000
 1.3021283E+001, 1.6178252E+000, 2.1821962E-004,-3.1862109E+000
 1.3109062E+001, 1.6180259E+000, 2.1834963E-004,-3.1855738E+000
 1.3226100E+001, 1.6116747E+000, 2.1851262E-004,-3.1859764E+000
 1.3313879E+001, 1.6090168E+000, 2.1857823E-004,-3.1871131E+000
 1.3401657E+001, 1.6093655E+000, 2.1813410E-004,-3.1859040E+000
 1.3518696E+001, 1.6064565E+000, 2.1783583E-004,-3.1846261E+000
 1.3606474E+001, 1.6063086E+000, 2.1733462E-004,-3.1832793E+000
 1.3723513E+001, 1.6071362E+000, 2.1709626E-004,-3.1837414E+000
 1.3811291E+001, 1.6081783E+000, 2.1721343E-004,-3.1848242E+000
 1.3928330E+001, 1.6029281E+000, 2.1713448E-004,-3.1850953E+000
 1.4016108E+001, 1.6006996E+000, 2.1711497E-004,-3.1856621E+000
 1.4103887E+001, 1.5978049E+000, 2.1695712E-004,-3.1860459E+000
 1.4220926E+001, 1.5970365E+000, 2.1670480E-004,-3.1863806E+000
 1.4308704E+001, 1.5925117E+000, 2.1692125E-004,-3.1871774E+000
 1.4425743E+001, 1.5990358E+000, 2.1662632E-004,-3.1883364E+000
 1.4513521E+001, 1.6044111E+000, 2.1694179E-004,-3.1893691E+000
 1.4601300E+001, 1.6067293E+000, 2.1669915E-004,-3.1894191E+000
 1.4718338E+001, 1.6020929E+000, 2.1676923E-004,-3.1886022E+000
 1.4806117E+001, 1.5913098E+000, 2.1732670E-004,-3.1875378E+000
 1.4923155E+001, 1.5903927E+000, 2.1724445E-004,-3.1876539E+000
 1.5000000E+001, 1.5923326E+000, 2.1689053E-004,-3.1873117E+000
