s,kW/m2,,
Time,"flux","d43","w"
 0.0000000E+000, 1.9665845E+000, 0.0000000E+000, 0.0000000E+000
 1.0000000E-001, 1.9665899E+000, 0.0000000E+000, 0.0000000E+000
 2.0000000E-001, 1.9665968E+000, 0.0000000E+000, 0.0000000E+000
 3.5000000E-001, 1.9666105E+000, 0.0000000E+000, 0.0000000E+000
 4.5000000E-001, 1.9666311E+000, 0.0000000E+000, 0.0000000E+000
 5.5000000E-001, 1.9666506E+000, 0.0000000E+000, 0.0000000E+000
 6.0000000E-001, 1.9666703E+000, 0.0000000E+000, 0.0000000E+000
 7.0000000E-001, 1.9666835E+000, 0.0000000E+000, 0.0000000E+000
 8.0000000E-001, 1.9667062E+000, 0.0000000E+000, 0.0000000E+000
 9.0000000E-001, 1.9667293E+000, 0.0000000E+000, 0.0000000E+000
 1.0000000E+000, 1.9667524E+000, 0.0000000E+000, 0.0000000E+000
 1.1000000E+000, 1.9667756E+000, 0.0000000E+000, 0.0000000E+000
 1.2000000E+000, 1.9667994E+000, 0.0000000E+000, 0.0000000E+000
 1.3000000E+000, 1.9668237E+000, 0.0000000E+000, 0.0000000E+000
 1.4000000E+000, 1.9668482E+000, 0.0000000E+000, 0.0000000E+000
 1.5000000E+000, 1.9668728E+000, 0.0000000E+000, 0.0000000E+000
 1.6000000E+000, 1.9668972E+000, 0.0000000E+000, 0.0000000E+000
 1.7000000E+000, 1.9669219E+000, 0.0000000E+000, 0.0000000E+000
 1.8000000E+000, 1.9669472E+000, 0.0000000E+000, 0.0000000E+000
 1.9000000E+000, 1.9669727E+000, 0.0000000E+000, 0.0000000E+000
 2.0000000E+000, 1.9669982E+000, 0.0000000E+000, 0.0000000E+000
 2.1000000E+000, 1.9670233E+000, 0.0000000E+000, 0.0000000E+000
 2.2500000E+000, 1.9670538E+000, 0.0000000E+000, 0.0000000E+000
 2.3500000E+000, 1.9670872E+000, 0.0000000E+000, 0.0000000E+000
 2.4500000E+000, 1.9671133E+000, 0.0000000E+000, 0.0000000E+000
 2.5500000E+000, 1.9671394E+000, 0.0000000E+000, 0.0000000E+000
 2.6500000E+000, 1.9671646E+000, 0.0000000E+000, 0.0000000E+000
 2.7500000E+000, 1.9671904E+000, 0.0000000E+000, 0.0000000E+000
 2.8500000E+000, 1.9672166E+000, 0.0000000E+000, 0.0000000E+000
 2.9500000E+000, 1.9672429E+000, 0.0000000E+000, 0.0000000E+000
 3.0500000E+000, 1.9672697E+000, 0.0000000E+000, 0.0000000E+000
 3.1500000E+000, 1.9672956E+000, 0.0000000E+000, 0.0000000E+000
 3.2500000E+000, 1.9673212E+000, 0.0000000E+000, 0.0000000E+000
 3.3500000E+000, 1.9673475E+000, 0.0000000E+000, 0.0000000E+000
 3.4500000E+000, 1.9673740E+000, 0.0000000E+000, 0.0000000E+000
 3.5500000E+000, 1.9674009E+000, 0.0000000E+000, 0.0000000E+000
 3.6500000E+000, 1.9674276E+000, 0.0000000E+000, 0.0000000E+000
 3.7500000E+000, 1.9674531E+000, 0.0000000E+000, 0.0000000E+000
 3.8500000E+000, 1.9674791E+000, 0.0000000E+000, 0.0000000E+000
 3.9500000E+000, 1.9675058E+000, 0.0000000E+000, 0.0000000E+000
 4.0500000E+000, 1.9636420E+000, 0.0000000E+000, 0.0000000E+000
 4.1500000E+000, 1.6064791E+000, 0.0000000E+000, 0.0000000E+000
 4.2053361E+000, 1.0584431E+000, 0.0000000E+000, 0.0000000E+000
 4.3096495E+000, 2.7202963E-001, 3.7318961E-004,-6.4027990E+000
 4.4121446E+000, 1.3243517E-003, 2.7259177E-004,-4.0713626E+000
 4.5127331E+000, 8.9887840E-004, 2.0905923E-004,-4.2493012E+000
 4.6133217E+000, 8.6100866E-004, 2.0208189E-004,-4.4859959E+000
 4.7081623E+000, 8.3224281E-004, 2.0286217E-004,-4.5797182E+000
 4.8030029E+000, 8.0909981E-004, 1.9808623E-004,-4.5634080E+000
 4.9136503E+000, 7.8673998E-004, 1.9207322E-004,-4.5599434E+000
 5.0084909E+000, 7.7157513E-004, 1.9186333E-004,-4.5726254E+000
 5.1096542E+000, 7.5997089E-004, 1.9267151E-004,-4.5967872E+000
 5.2139789E+000, 7.4907433E-004, 1.9312296E-004,-4.6153624E+000
 5.3009161E+000, 7.4082245E-004, 1.9411226E-004,-4.6175750E+000
 5.4052408E+000, 7.3457113E-004, 1.9374621E-004,-4.6057195E+000
 5.5095655E+000, 7.3026861E-004, 1.9519164E-004,-4.6099314E+000
 5.6138902E+000, 7.2457507E-004, 1.9850033E-004,-4.6205548E+000
 5.7008274E+000, 7.1912476E-004, 2.0039950E-004,-4.6282110E+000
 5.8051521E+000, 7.1428798E-004, 2.0146953E-004,-4.6332263E+000
 5.9094768E+000, 7.1065251E-004, 2.0345412E-004,-4.6453182E+000
 6.0138014E+000, 7.0636505E-004, 2.0524357E-004,-4.6594831E+000
 6.1007387E+000, 7.0085947E-004, 2.0488434E-004,-4.6649484E+000
 6.2050633E+000, 6.9371905E-004, 2.0471353E-004,-4.6728444E+000
 6.3093880E+000, 6.8630698E-004, 2.0421528E-004,-4.6697364E+000
 6.4153777E+000, 6.7817123E-004, 2.0404168E-004,-4.6652528E+000
 6.5125998E+000, 6.7044610E-004, 2.0383125E-004,-4.6732020E+000
 6.6163033E+000, 6.6378994E-004, 2.0459373E-004,-4.6787678E+000
 6.7054236E+000, 6.5658439E-004, 2.0458698E-004,-4.6757920E+000
 6.8123679E+000, 6.4967585E-004, 2.0442764E-004,-4.6791458E+000
 6.9014882E+000, 6.4425482E-004, 2.0435972E-004,-4.6789003E+000
 7.0084325E+000, 6.3806092E-004, 2.0478137E-004,-4.6788635E+000
 7.1153768E+000, 6.3049726E-004, 2.0492949E-004,-4.6760811E+000
 7.2044971E+000, 6.2307082E-004, 2.0390203E-004,-4.6692355E+000
 7.3114414E+000, 6.1621709E-004, 2.0490805E-004,-4.6700270E+000
 7.4005617E+000, 6.0968188E-004, 2.0372541E-004,-4.6735962E+000
 7.5075060E+000, 6.0254257E-004, 2.0462099E-004,-4.6762258E+000
 7.6144503E+000, 5.9431857E-004, 2.0522408E-004,-4.6703627E+000
 7.7035706E+000, 5.8799942E-004, 2.0481645E-004,-4.6667138E+000
 7.8105149E+000, 5.8192039E-004, 2.0484407E-004,-4.6694672E+000
 7.9174593E+000, 5.7429630E-004, 2.0488193E-004,-4.6680049E+000
 8.0065795E+000, 5.6879344E-004, 2.0475130E-004,-4.6672094E+000
 8.1135238E+000, 5.6282344E-004, 2.0463690E-004,-4.6576877E+000
 8.2026441E+000, 5.5714257E-004, 2.0461666E-004,-4.6536311E+000
 8.3095884E+000, 5.5143510E-004, 2.0434927E-004,-4.6564530E+000
 8.4165328E+000, 5.4475608E-004, 2.0443769E-004,-4.6560438E+000
 8.5056530E+000, 5.4105208E-004, 2.0444521E-004,-4.6537259E+000
 8.6125973E+000, 5.3510885E-004, 2.0426987E-004,-4.6511574E+000
 8.7017176E+000, 5.2770307E-004, 2.0333222E-004,-4.6531773E+000
 8.8086619E+000, 5.2272539E-004, 2.0268934E-004,-4.6533888E+000
 8.9156063E+000, 5.1612418E-004, 2.0285103E-004,-4.6540807E+000
 9.0047265E+000, 5.0981957E-004, 2.0270815E-004,-4.6531664E+000
 9.1116708E+000, 1.6332965E-001, 2.0245131E-004,-4.6542301E+000
 9.2007911E+000, 1.0146969E+000, 2.0186819E-004,-4.6546118E+000
 9.3077354E+000, 1.7425525E+000, 2.0176642E-004,-4.6533773E+000
 9.4146798E+000, 1.8247021E+000, 2.0101929E-004,-4.6515944E+000
 9.5038000E+000, 1.8260308E+000, 2.0081404E-004,-4.6486711E+000
 9.6107443E+000, 1.8255554E+000, 2.0151987E-004,-4.6499043E+000
 9.7176887E+000, 1.8200612E+000, 2.0141093E-004,-4.6497876E+000
 9.8068089E+000, 1.8161243E+000, 2.0110520E-004,-4.6501158E+000
 9.9137533E+000, 1.8169111E+000, 2.0225661E-004,-4.6504433E+000
 1.0002874E+001, 1.8193893E+000, 2.0313472E-004,-4.6512743E+000
 1.0109818E+001, 1.8250447E+000, 2.0318924E-004,-4.6499226E+000
 1.0216762E+001, 1.8251370E+000, 2.0301269E-004,-4.6496324E+000
 1.0305882E+001, 1.8211557E+000, 2.0320590E-004,-4.6462554E+000
 1.0412827E+001, 1.8226521E+000, 2.0292475E-004,-4.6421475E+000
 1.0501947E+001, 1.8230940E+000, 2.0275892E-004,-4.6401353E+000
 1.0608891E+001, 1.8233256E+000, 2.0277924E-004,-4.6423317E+000
 1.0715836E+001, 1.8227696E+000, 2.0278981E-004,-4.6460219E+000
 1.0804956E+001, 1.8210860E+000, 2.0274014E-004,-4.6476711E+000
 1.0911900E+001, 1.8222057E+000, 2.0251544E-004,-4.6469279E+000
 1.1001021E+001, 1.8212609E+000, 2.0261336E-004,-4.6467864E+000
 1.1107965E+001, 1.8217433E+000, 2.0258347E-004,-4.6462344E+000
 1.1214909E+001, 1.8206941E+000, 2.0242515E-004,-4.6462649E+000
 1.1304029E+001, 1.8201642E+000, 2.0246872E-004,-4.6466628E+000
 1.1410974E+001, 1.8219100E+000, 2.0231630E-004,-4.6499273E+000
 1.1500094E+001, 1.8208930E+000, 2.0209498E-004,-4.6505555E+000
 1.1607038E+001, 1.8201331E+000, 2.0202660E-004,-4.6493752E+000
 1.1713983E+001, 1.8209772E+000, 2.0167269E-004,-4.6502525E+000
 1.1803103E+001, 1.8230744E+000, 2.0149144E-004,-4.6504064E+000
 1.1910047E+001, 1.8247118E+000, 2.0147932E-004,-4.6470966E+000
 1.2016992E+001, 1.8238056E+000, 2.0193813E-004,-4.6463189E+000
 1.2106112E+001, 1.8278092E+000, 2.0218070E-004,-4.6463095E+000
 1.2213056E+001, 1.8293322E+000, 2.0202649E-004,-4.6439921E+000
 1.2302176E+001, 1.8265022E+000, 2.0187114E-004,-4.6425384E+000
 1.2409121E+001, 1.8253719E+000, 2.0206936E-004,-4.6408537E+000
 1.2516065E+001, 1.8240966E+000, 2.0198265E-004,-4.6407047E+000
 1.2605185E+001, 1.8242694E+000, 2.0172722E-004,-4.6384466E+000
 1.2712130E+001, 1.8254917E+000, 2.0207753E-004,-4.6371837E+000
 1.2801250E+001, 1.8251812E+000, 2.0274382E-004,-4.6378844E+000
 1.2908194E+001, 1.8289226E+000, 2.0267942E-004,-4.6362328E+000
 1.3015139E+001, 1.8300296E+000, 2.0313944E-004,-4.6361088E+000
 1.3104259E+001, 1.8301868E+000, 2.0343088E-004,-4.6370972E+000
 1.3215370E+001, 1.8287738E+000, 2.0325426E-004,-4.6367625E+000
 1.3301540E+001, 1.8217257E+000, 2.0292351E-004,-4.6344086E+000
 1.3404943E+001, 1.8208748E+000, 2.0267887E-004,-4.6323946E+000
 1.3508347E+001, 1.8197748E+000, 2.0262733E-004,-4.6299852E+000
 1.3611750E+001, 1.8210507E+000, 2.0273729E-004,-4.6304677E+000
 1.3701366E+001, 1.8216571E+000, 2.0261232E-004,-4.6302467E+000
 1.3802706E+001, 1.8176062E+000, 2.0249370E-004,-4.6298946E+000
 1.3905734E+001, 1.8166021E+000, 2.0205548E-004,-4.6297426E+000
 1.4017207E+001, 1.8245625E+000, 2.0211367E-004,-4.6315445E+000
 1.4115561E+001, 1.8198605E+000, 2.0219504E-004,-4.6306808E+000
 1.4213915E+001, 1.8148044E+000, 2.0188684E-004,-4.6356453E+000
 1.4312269E+001, 1.8158530E+000, 2.0184303E-004,-4.6367208E+000
 1.4413901E+001, 1.8188553E+000, 2.0177721E-004,-4.6351187E+000
 1.4504059E+001, 1.8204835E+000, 2.0193153E-004,-4.6341001E+000
 1.4612248E+001, 1.8202825E+000, 2.0228017E-004,-4.6336314E+000
 1.4702405E+001, 1.8192985E+000, 2.0252505E-004,-4.6340855E+000
 1.4810595E+001, 1.8145058E+000, 2.0284800E-004,-4.6338689E+000
 1.4900752E+001, 1.8132325E+000, 2.0308528E-004,-4.6354122E+000
 1.5000000E+001, 1.8179452E+000, 2.0317074E-004,-4.6367034E+000
