s,kW/m2,,
Time,"flux","d43","w"
 0.0000000E+000, 1.9665845E+000, 0.0000000E+000, 0.0000000E+000
 1.0000000E-001, 1.9665913E+000, 0.0000000E+000, 0.0000000E+000
 2.0000000E-001, 1.9665997E+000, 0.0000000E+000, 0.0000000E+000
 3.5000000E-001, 1.9666136E+000, 0.0000000E+000, 0.0000000E+000
 4.5000000E-001, 1.9666333E+000, 0.0000000E+000, 0.0000000E+000
 5.5000000E-001, 1.9666515E+000, 0.0000000E+000, 0.0000000E+000
 6.0000000E-001, 1.9666703E+000, 0.0000000E+000, 0.0000000E+000
 7.0000000E-001, 1.9666835E+000, 0.0000000E+000, 0.0000000E+000
 8.0000000E-001, 1.9667062E+000, 0.0000000E+000, 0.0000000E+000
 9.0000000E-001, 1.9667293E+000, 0.0000000E+000, 0.0000000E+000
 1.0000000E+000, 1.9667524E+000, 0.0000000E+000, 0.0000000E+000
 1.1000000E+000, 1.9667756E+000, 0.0000000E+000, 0.0000000E+000
 1.2000000E+000, 1.9667994E+000, 0.0000000E+000, 0.0000000E+000
 1.3000000E+000, 1.9668237E+000, 0.0000000E+000, 0.0000000E+000
 1.4000000E+000, 1.9668482E+000, 0.0000000E+000, 0.0000000E+000
 1.5000000E+000, 1.9668728E+000, 0.0000000E+000, 0.0000000E+000
 1.6000000E+000, 1.9668971E+000, 0.0000000E+000, 0.0000000E+000
 1.7000000E+000, 1.9669219E+000, 0.0000000E+000, 0.0000000E+000
 1.8000000E+000, 1.9669472E+000, 0.0000000E+000, 0.0000000E+000
 1.9000000E+000, 1.9669727E+000, 0.0000000E+000, 0.0000000E+000
 2.0000000E+000, 1.9669982E+000, 0.0000000E+000, 0.0000000E+000
 2.1000000E+000, 1.9670233E+000, 0.0000000E+000, 0.0000000E+000
 2.2500000E+000, 1.9670538E+000, 0.0000000E+000, 0.0000000E+000
 2.3500000E+000, 1.9670872E+000, 0.0000000E+000, 0.0000000E+000
 2.4500000E+000, 1.9671133E+000, 0.0000000E+000, 0.0000000E+000
 2.5500000E+000, 1.9671394E+000, 0.0000000E+000, 0.0000000E+000
 2.6500000E+000, 1.9671646E+000, 0.0000000E+000, 0.0000000E+000
 2.7500000E+000, 1.9671904E+000, 0.0000000E+000, 0.0000000E+000
 2.8500000E+000, 1.9672166E+000, 0.0000000E+000, 0.0000000E+000
 2.9500000E+000, 1.9672428E+000, 0.0000000E+000, 0.0000000E+000
 3.0500000E+000, 1.9672697E+000, 0.0000000E+000, 0.0000000E+000
 3.1500000E+000, 1.9672956E+000, 0.0000000E+000, 0.0000000E+000
 3.2500000E+000, 1.9673212E+000, 0.0000000E+000, 0.0000000E+000
 3.3500000E+000, 1.9673475E+000, 0.0000000E+000, 0.0000000E+000
 3.4500000E+000, 1.9673740E+000, 0.0000000E+000, 0.0000000E+000
 3.5500000E+000, 1.9674009E+000, 0.0000000E+000, 0.0000000E+000
 3.6500000E+000, 1.9674276E+000, 0.0000000E+000, 0.0000000E+000
 3.7500000E+000, 1.9674531E+000, 0.0000000E+000, 0.0000000E+000
 3.8500000E+000, 1.9674791E+000, 0.0000000E+000, 0.0000000E+000
 3.9500000E+000, 1.9675058E+000, 0.0000000E+000, 0.0000000E+000
 4.0500000E+000, 1.9636420E+000, 0.0000000E+000, 0.0000000E+000
 4.1500000E+000, 1.6064791E+000, 0.0000000E+000, 0.0000000E+000
 4.2500000E+000, 1.1811666E+000, 1.9539934E-004,-6.1425978E+000
 4.3500000E+000, 8.1443005E-001, 3.1871412E-004,-3.9541233E+000
 4.4368159E+000, 3.5829890E-001, 2.9284257E-004,-3.3884510E+000
 4.5224925E+000, 2.2350331E-003, 2.3146640E-004,-2.2600925E+000
 4.6253016E+000, 2.0969693E-003, 1.9239292E-004,-2.1530864E+000
 4.7201001E+000, 1.6194997E-003, 1.7391078E-004,-2.4617928E+000
 4.8108932E+000, 9.4175139E-004, 1.5981062E-004,-2.6245293E+000
 4.9016864E+000, 7.3092024E-004, 1.5704147E-004,-2.7144915E+000
 5.0095337E+000, 6.6593001E-004, 1.5353855E-004,-2.7847789E+000
 5.1173811E+000, 6.2030551E-004, 1.5091779E-004,-2.8579844E+000
 5.2252284E+000, 5.9252576E-004, 1.4816761E-004,-2.9344043E+000
 5.3061139E+000, 5.7024524E-004, 1.4798038E-004,-2.9639211E+000
 5.4109681E+000, 5.5600691E-004, 1.4593750E-004,-2.9752066E+000
 5.5068429E+000, 5.5006814E-004, 1.4729181E-004,-2.9942297E+000
 5.6027178E+000, 5.4764646E-004, 1.4778981E-004,-3.0079947E+000
 5.7009895E+000, 5.4834086E-004, 1.4847799E-004,-3.0225078E+000
 5.8064518E+000, 5.4949867E-004, 1.5038916E-004,-3.0340238E+000
 5.9119141E+000, 5.5220980E-004, 1.5092152E-004,-3.0527163E+000
 6.0173764E+000, 5.5528600E-004, 1.5070339E-004,-3.0715497E+000
 6.1228387E+000, 5.5734407E-004, 1.5006832E-004,-3.0809565E+000
 6.2019355E+000, 5.5725806E-004, 1.4963392E-004,-3.0935885E+000
 6.3073978E+000, 5.5284437E-004, 1.5076263E-004,-3.1115164E+000
 6.4128601E+000, 5.5000946E-004, 1.5015260E-004,-3.1216506E+000
 6.5183224E+000, 5.4436971E-004, 1.4984579E-004,-3.1210112E+000
 6.6237847E+000, 5.3655220E-004, 1.4946584E-004,-3.1225033E+000
 6.7028815E+000, 5.2970873E-004, 1.4893481E-004,-3.1248564E+000
 6.8162535E+000, 5.2336081E-004, 1.4847609E-004,-3.1296700E+000
 6.9032599E+000, 5.1714180E-004, 1.4787625E-004,-3.1355339E+000
 7.0192684E+000, 5.0889630E-004, 1.4742422E-004,-3.1400361E+000
 7.1062748E+000, 5.0237208E-004, 1.4704864E-004,-3.1419895E+000
 7.2222834E+000, 4.9391355E-004, 1.4722885E-004,-3.1432162E+000
 7.3092898E+000, 4.8787069E-004, 1.4683214E-004,-3.1411365E+000
 7.4252983E+000, 4.7867043E-004, 1.4683709E-004,-3.1386362E+000
 7.5123047E+000, 4.6874063E-004, 1.4661219E-004,-3.1384879E+000
 7.6283133E+000, 4.6043329E-004, 1.4699651E-004,-3.1393028E+000
 7.7153197E+000, 4.5388497E-004, 1.4704662E-004,-3.1374802E+000
 7.8023261E+000, 4.4791597E-004, 1.4717275E-004,-3.1340414E+000
 7.9183347E+000, 4.3996400E-004, 1.4710813E-004,-3.1304593E+000
 8.0053411E+000, 4.3519555E-004, 1.4744691E-004,-3.1307173E+000
 8.1213496E+000, 4.3088582E-004, 1.4754492E-004,-3.1307999E+000
 8.2083560E+000, 4.2711358E-004, 1.4734201E-004,-3.1299217E+000
 8.3243646E+000, 4.2083047E-004, 1.4730323E-004,-3.1280637E+000
 8.4113710E+000, 4.1453284E-004, 1.4754187E-004,-3.1291627E+000
 8.5273795E+000, 4.0912229E-004, 1.4844492E-004,-3.1304107E+000
 8.6143860E+000, 4.0192084E-004, 1.4906057E-004,-3.1293911E+000
 8.7013924E+000, 3.9562097E-004, 1.4934147E-004,-3.1291458E+000
 8.8174009E+000, 3.8418225E-004, 1.4980575E-004,-3.1300611E+000
 8.9044073E+000, 3.7721079E-004, 1.4962879E-004,-3.1287459E+000
 9.0204159E+000, 2.0341440E-003, 1.4920517E-004,-3.1287628E+000
 9.1074223E+000, 1.2891655E-001, 1.4888632E-004,-3.1304374E+000
 9.2234308E+000, 7.0693858E-001, 1.4859256E-004,-3.1337955E+000
 9.3046290E+000, 1.3021353E+000, 1.4850543E-004,-3.1348119E+000
 9.4090211E+000, 1.6545019E+000, 1.4839113E-004,-3.1335200E+000
 9.5238523E+000, 1.7080384E+000, 1.4816773E-004,-3.1326075E+000
 9.6099758E+000, 1.7132689E+000, 1.4839255E-004,-3.1329684E+000
 9.7248070E+000, 1.7111152E+000, 1.4821819E-004,-3.1336259E+000
 9.8109305E+000, 1.7010132E+000, 1.4868237E-004,-3.1333392E+000
 9.9257618E+000, 1.6994578E+000, 1.4884094E-004,-3.1321172E+000
 1.0011885E+001, 1.7028855E+000, 1.4872798E-004,-3.1349386E+000
 1.0126716E+001, 1.7105312E+000, 1.4890102E-004,-3.1368071E+000
 1.0212840E+001, 1.7078382E+000, 1.4885585E-004,-3.1358122E+000
 1.0327671E+001, 1.7035769E+000, 1.4853810E-004,-3.1334981E+000
 1.0413795E+001, 1.7002115E+000, 1.4850728E-004,-3.1290278E+000
 1.0502789E+001, 1.6972870E+000, 1.4878155E-004,-3.1271996E+000
 1.0629103E+001, 1.6964584E+000, 1.4880641E-004,-3.1257093E+000
 1.0723839E+001, 1.6960425E+000, 1.4881119E-004,-3.1262146E+000
 1.0818575E+001, 1.6980600E+000, 1.4890972E-004,-3.1269715E+000
 1.0909727E+001, 1.6982012E+000, 1.4886635E-004,-3.1269094E+000
 1.1021705E+001, 1.6980090E+000, 1.4876330E-004,-3.1236660E+000
 1.1105689E+001, 1.6997604E+000, 1.4873378E-004,-3.1224141E+000
 1.1217668E+001, 1.7013153E+000, 1.4873869E-004,-3.1226760E+000
 1.1301652E+001, 1.7022104E+000, 1.4885085E-004,-3.1214260E+000
 1.1413631E+001, 1.6960178E+000, 1.4923075E-004,-3.1218407E+000
 1.1525610E+001, 1.6983940E+000, 1.4942999E-004,-3.1229999E+000
 1.1609594E+001, 1.6977177E+000, 1.4944344E-004,-3.1230552E+000
 1.1721572E+001, 1.7006459E+000, 1.4949076E-004,-3.1241513E+000
 1.1805557E+001, 1.7020459E+000, 1.4949884E-004,-3.1268902E+000
 1.1917535E+001, 1.7084619E+000, 1.4955574E-004,-3.1263464E+000
 1.2001519E+001, 1.7135138E+000, 1.4964153E-004,-3.1243125E+000
 1.2113498E+001, 1.7124296E+000, 1.4952402E-004,-3.1241182E+000
 1.2225477E+001, 1.7128107E+000, 1.4951729E-004,-3.1239184E+000
 1.2309461E+001, 1.7120351E+000, 1.4987327E-004,-3.1217275E+000
 1.2421440E+001, 1.7079835E+000, 1.4994417E-004,-3.1202868E+000
 1.2505424E+001, 1.7001013E+000, 1.5002764E-004,-3.1221965E+000
 1.2617402E+001, 1.6988256E+000, 1.4989962E-004,-3.1224193E+000
 1.2701386E+001, 1.7016146E+000, 1.5037333E-004,-3.1229068E+000
 1.2813365E+001, 1.7060544E+000, 1.5069972E-004,-3.1232462E+000
 1.2925344E+001, 1.7123421E+000, 1.5044432E-004,-3.1225750E+000
 1.3009328E+001, 1.7144539E+000, 1.5025046E-004,-3.1202493E+000
 1.3121307E+001, 1.7164012E+000, 1.5032825E-004,-3.1197899E+000
 1.3205291E+001, 1.7133703E+000, 1.5054747E-004,-3.1213070E+000
 1.3317269E+001, 1.7125992E+000, 1.5062733E-004,-3.1216909E+000
 1.3401253E+001, 1.7086732E+000, 1.5052810E-004,-3.1205146E+000
 1.3513232E+001, 1.7016944E+000, 1.5041647E-004,-3.1176177E+000
 1.3625211E+001, 1.6989492E+000, 1.5033826E-004,-3.1158933E+000
 1.3709195E+001, 1.7027688E+000, 1.5031047E-004,-3.1178228E+000
 1.3821174E+001, 1.7085831E+000, 1.5024870E-004,-3.1188885E+000
 1.3905158E+001, 1.7016153E+000, 1.5019389E-004,-3.1189410E+000
 1.4017136E+001, 1.6988578E+000, 1.5022491E-004,-3.1192698E+000
 1.4101120E+001, 1.6958103E+000, 1.5033076E-004,-3.1199370E+000
 1.4213099E+001, 1.6978105E+000, 1.5022949E-004,-3.1195392E+000
 1.4325078E+001, 1.6951959E+000, 1.5007854E-004,-3.1195058E+000
 1.4409062E+001, 1.7033783E+000, 1.5016090E-004,-3.1201002E+000
 1.4521041E+001, 1.7053900E+000, 1.5019553E-004,-3.1202048E+000
 1.4605025E+001, 1.7039042E+000, 1.5000393E-004,-3.1197341E+000
 1.4717003E+001, 1.6974921E+000, 1.4999435E-004,-3.1192621E+000
 1.4800987E+001, 1.6911832E+000, 1.5017889E-004,-3.1177271E+000
 1.4912966E+001, 1.6927749E+000, 1.5019482E-004,-3.1172267E+000
 1.5000000E+001, 1.6950857E+000, 1.5000184E-004,-3.1173137E+000
