s,kW/m2,,
Time,"flux","d43","w"
 0.0000000E+000, 1.6754403E+000, 0.0000000E+000, 0.0000000E+000
 1.0000000E-001, 1.6754546E+000, 0.0000000E+000, 0.0000000E+000
 2.0000000E-001, 1.6754699E+000, 0.0000000E+000, 0.0000000E+000
 3.5000000E-001, 1.6754977E+000, 0.0000000E+000, 0.0000000E+000
 4.5000000E-001, 1.6755408E+000, 0.0000000E+000, 0.0000000E+000
 5.5000000E-001, 1.6755843E+000, 0.0000000E+000, 0.0000000E+000
 6.0000000E-001, 1.6756293E+000, 0.0000000E+000, 0.0000000E+000
 7.0000000E-001, 1.6756577E+000, 0.0000000E+000, 0.0000000E+000
 8.0000000E-001, 1.6757083E+000, 0.0000000E+000, 0.0000000E+000
 9.0000000E-001, 1.6757595E+000, 0.0000000E+000, 0.0000000E+000
 1.0000000E+000, 1.6758106E+000, 0.0000000E+000, 0.0000000E+000
 1.1000000E+000, 1.6758615E+000, 0.0000000E+000, 0.0000000E+000
 1.2000000E+000, 1.6759136E+000, 0.0000000E+000, 0.0000000E+000
 1.3000000E+000, 1.6759669E+000, 0.0000000E+000, 0.0000000E+000
 1.4000000E+000, 1.6760207E+000, 0.0000000E+000, 0.0000000E+000
 1.5000000E+000, 1.6760743E+000, 0.0000000E+000, 0.0000000E+000
 1.6000000E+000, 1.6761270E+000, 0.0000000E+000, 0.0000000E+000
 1.7000000E+000, 1.6761804E+000, 0.0000000E+000, 0.0000000E+000
 1.8000000E+000, 1.6762347E+000, 0.0000000E+000, 0.0000000E+000
 1.9000000E+000, 1.6762894E+000, 0.0000000E+000, 0.0000000E+000
 2.0000000E+000, 1.6763443E+000, 0.0000000E+000, 0.0000000E+000
 2.1000000E+000, 1.6763978E+000, 0.0000000E+000, 0.0000000E+000
 2.2500000E+000, 1.6764616E+000, 0.0000000E+000, 0.0000000E+000
 2.3500000E+000, 1.6765327E+000, 0.0000000E+000, 0.0000000E+000
 2.4500000E+000, 1.6765876E+000, 0.0000000E+000, 0.0000000E+000
 2.5500000E+000, 1.6766438E+000, 0.0000000E+000, 0.0000000E+000
 2.6500000E+000, 1.6766975E+000, 0.0000000E+000, 0.0000000E+000
 2.7500000E+000, 1.6767504E+000, 0.0000000E+000, 0.0000000E+000
 2.8500000E+000, 1.6768048E+000, 0.0000000E+000, 0.0000000E+000
 2.9500000E+000, 1.6768597E+000, 0.0000000E+000, 0.0000000E+000
 3.0500000E+000, 1.6769154E+000, 0.0000000E+000, 0.0000000E+000
 3.1500000E+000, 1.6769707E+000, 0.0000000E+000, 0.0000000E+000
 3.2500000E+000, 1.6770229E+000, 0.0000000E+000, 0.0000000E+000
 3.3500000E+000, 1.6770885E+000, 0.0000000E+000, 0.0000000E+000
 3.4500000E+000, 1.6771564E+000, 0.0000000E+000, 0.0000000E+000
 3.5500000E+000, 1.6772166E+000, 0.0000000E+000, 0.0000000E+000
 3.6500000E+000, 1.6772763E+000, 0.0000000E+000, 0.0000000E+000
 3.7500000E+000, 1.6773267E+000, 0.0000000E+000, 0.0000000E+000
 3.8500000E+000, 1.6773622E+000, 0.0000000E+000, 0.0000000E+000
 3.9500000E+000, 1.6774010E+000, 0.0000000E+000, 0.0000000E+000
 4.0500000E+000, 1.6741402E+000, 0.0000000E+000, 0.0000000E+000
 4.1500000E+000, 1.3702676E+000, 0.0000000E+000, 0.0000000E+000
 4.2500000E+000, 1.0077065E+000, 2.0224493E-004,-1.6841091E+000
 4.3500000E+000, 6.9383206E-001, 3.4493797E-004,-2.2201777E+000
 4.4500000E+000, 3.0564590E-001, 3.2545141E-004,-2.0283722E+000
 4.5500000E+000, 2.5101201E-003, 3.0780213E-004,-1.7827416E+000
 4.6500000E+000, 2.4918745E-003, 2.8490383E-004,-1.5693092E+000
 4.7500000E+000, 2.3997949E-003, 2.6024351E-004,-1.3562117E+000
 4.8500000E+000, 2.2501045E-003, 2.3843194E-004,-1.2816680E+000
 4.9500000E+000, 2.0845601E-003, 2.0113197E-004,-1.1243567E+000
 5.0500000E+000, 1.9521572E-003, 1.7521485E-004,-1.0897191E+000
 5.1500000E+000, 1.9138041E-003, 1.5734820E-004,-1.1722898E+000
 5.2500000E+000, 1.8723467E-003, 1.5211715E-004,-1.3154674E+000
 5.3500000E+000, 1.8330832E-003, 1.4762492E-004,-1.4749652E+000
 5.4500000E+000, 1.8043763E-003, 1.4398059E-004,-1.5831994E+000
 5.5500000E+000, 1.7778842E-003, 1.4225058E-004,-1.6363681E+000
 5.6500000E+000, 1.7521212E-003, 1.4209885E-004,-1.6614752E+000
 5.7448524E+000, 1.7207304E-003, 1.4168232E-004,-1.6823982E+000
 5.8345572E+000, 1.6929105E-003, 1.4036116E-004,-1.7131333E+000
 5.9242620E+000, 1.6682038E-003, 1.3987551E-004,-1.7410189E+000
 6.0139668E+000, 1.6473502E-003, 1.3953181E-004,-1.7652356E+000
 6.1036716E+000, 1.6285671E-003, 1.3894928E-004,-1.7804882E+000
 6.2382288E+000, 1.6039989E-003, 1.3826503E-004,-1.7887576E+000
 6.3279336E+000, 1.5803487E-003, 1.3731645E-004,-1.7943027E+000
 6.4176384E+000, 1.5636792E-003, 1.3659087E-004,-1.7997312E+000
 6.5073432E+000, 1.5502259E-003, 1.3571789E-004,-1.8053024E+000
 6.6463857E+000, 1.5381958E-003, 1.3510490E-004,-1.8130790E+000
 6.7450610E+000, 1.5274550E-003, 1.3459873E-004,-1.8187406E+000
 6.8437363E+000, 1.5158954E-003, 1.3413311E-004,-1.8217374E+000
 6.9430739E+000, 1.5038601E-003, 1.3370155E-004,-1.8246815E+000
 7.0430739E+000, 1.4922494E-003, 1.3377078E-004,-1.8277295E+000
 7.1430739E+000, 1.4803167E-003, 1.3385530E-004,-1.8298196E+000
 7.2430739E+000, 1.4691952E-003, 1.3406336E-004,-1.8319568E+000
 7.3430739E+000, 1.4556304E-003, 1.3380599E-004,-1.8341891E+000
 7.4430739E+000, 1.4407217E-003, 1.3334508E-004,-1.8356140E+000
 7.5430739E+000, 1.4261542E-003, 1.3289910E-004,-1.8372332E+000
 7.6430739E+000, 1.4133154E-003, 1.3251802E-004,-1.8388100E+000
 7.7430739E+000, 1.4001942E-003, 1.3273070E-004,-1.8405200E+000
 7.8430739E+000, 1.3851089E-003, 1.3289339E-004,-1.8417995E+000
 7.9430739E+000, 1.3699593E-003, 1.3286771E-004,-1.8429944E+000
 8.0430739E+000, 1.3542466E-003, 1.3304508E-004,-1.8436739E+000
 8.1430739E+000, 1.3377940E-003, 1.3326844E-004,-1.8439705E+000
 8.2430739E+000, 1.3212248E-003, 1.3346119E-004,-1.8444446E+000
 8.3430739E+000, 1.3026806E-003, 1.3354427E-004,-1.8444349E+000
 8.4430739E+000, 1.2824599E-003, 1.3380965E-004,-1.8444216E+000
 8.5430739E+000, 1.2612180E-003, 1.3411167E-004,-1.8446788E+000
 8.6430739E+000, 1.2390856E-003, 1.3468389E-004,-1.8449441E+000
 8.7430739E+000, 1.2145393E-003, 1.3446218E-004,-1.8456324E+000
 8.8430739E+000, 1.1874273E-003, 1.3441971E-004,-1.8463712E+000
 8.9430739E+000, 1.1610969E-003, 1.3484361E-004,-1.8475213E+000
 9.0430739E+000, 1.1406792E-003, 1.3471024E-004,-1.8483896E+000
 9.1430739E+000, 2.6441206E-001, 1.3490642E-004,-1.8493700E+000
 9.2430739E+000, 5.4746370E-001, 1.3513089E-004,-1.8498660E+000
 9.3430739E+000, 8.8390750E-001, 1.3512580E-004,-1.8508508E+000
 9.4430739E+000, 1.1492575E+000, 1.3507143E-004,-1.8518725E+000
 9.5430739E+000, 1.4223195E+000, 1.3499370E-004,-1.8525818E+000
 9.6430739E+000, 1.4890281E+000, 1.3497095E-004,-1.8530050E+000
 9.7430739E+000, 1.4903426E+000, 1.3519313E-004,-1.8534487E+000
 9.8430739E+000, 1.4919440E+000, 1.3526722E-004,-1.8540904E+000
 9.9430739E+000, 1.4899739E+000, 1.3512858E-004,-1.8541601E+000
 1.0043074E+001, 1.4864546E+000, 1.3494450E-004,-1.8543347E+000
 1.0143074E+001, 1.4860152E+000, 1.3485035E-004,-1.8547765E+000
 1.0243074E+001, 1.4867197E+000, 1.3478421E-004,-1.8555276E+000
 1.0343074E+001, 1.4880385E+000, 1.3456954E-004,-1.8562601E+000
 1.0443074E+001, 1.4905559E+000, 1.3445213E-004,-1.8570153E+000
 1.0543074E+001, 1.4905466E+000, 1.3430342E-004,-1.8575203E+000
 1.0643074E+001, 1.4906980E+000, 1.3412570E-004,-1.8576948E+000
 1.0743074E+001, 1.4904191E+000, 1.3399119E-004,-1.8576018E+000
 1.0843074E+001, 1.4880622E+000, 1.3381200E-004,-1.8570836E+000
 1.0943074E+001, 1.4862108E+000, 1.3371801E-004,-1.8568973E+000
 1.1043074E+001, 1.4870664E+000, 1.3347738E-004,-1.8571642E+000
 1.1143074E+001, 1.4884862E+000, 1.3334757E-004,-1.8575615E+000
 1.1243074E+001, 1.4888029E+000, 1.3312124E-004,-1.8580600E+000
 1.1343074E+001, 1.4910748E+000, 1.3290191E-004,-1.8585974E+000
 1.1443074E+001, 1.4910820E+000, 1.3255981E-004,-1.8589554E+000
 1.1543074E+001, 1.4930699E+000, 1.3247370E-004,-1.8591767E+000
 1.1643074E+001, 1.4919714E+000, 1.3221564E-004,-1.8591271E+000
 1.1743074E+001, 1.4903295E+000, 1.3191100E-004,-1.8588981E+000
 1.1843074E+001, 1.4887181E+000, 1.3199656E-004,-1.8591629E+000
 1.1943074E+001, 1.4887938E+000, 1.3189113E-004,-1.8593449E+000
 1.2043074E+001, 1.4886834E+000, 1.3180918E-004,-1.8595141E+000
 1.2143074E+001, 1.4896029E+000, 1.3187936E-004,-1.8595836E+000
 1.2243074E+001, 1.4907989E+000, 1.3187193E-004,-1.8591652E+000
 1.2343074E+001, 1.4927781E+000, 1.3173383E-004,-1.8585558E+000
 1.2443074E+001, 1.4932896E+000, 1.3156243E-004,-1.8575784E+000
 1.2543074E+001, 1.4928043E+000, 1.3144181E-004,-1.8565166E+000
 1.2643074E+001, 1.4902214E+000, 1.3152126E-004,-1.8554666E+000
 1.2743074E+001, 1.4885001E+000, 1.3149433E-004,-1.8540253E+000
 1.2843074E+001, 1.4846589E+000, 1.3147383E-004,-1.8528466E+000
 1.2943074E+001, 1.4849540E+000, 1.3149114E-004,-1.8520423E+000
 1.3043074E+001, 1.4838354E+000, 1.3142847E-004,-1.8515302E+000
 1.3143074E+001, 1.4856239E+000, 1.3144131E-004,-1.8513099E+000
 1.3243074E+001, 1.4873205E+000, 1.3144198E-004,-1.8513903E+000
 1.3343074E+001, 1.4897365E+000, 1.3140825E-004,-1.8512965E+000
 1.3443074E+001, 1.4897281E+000, 1.3132782E-004,-1.8510700E+000
 1.3543074E+001, 1.4908144E+000, 1.3124247E-004,-1.8503184E+000
 1.3643074E+001, 1.4891195E+000, 1.3106903E-004,-1.8492079E+000
 1.3743074E+001, 1.4877875E+000, 1.3094817E-004,-1.8479549E+000
 1.3843074E+001, 1.4852474E+000, 1.3088960E-004,-1.8468273E+000
 1.3943074E+001, 1.4834298E+000, 1.3074917E-004,-1.8461660E+000
 1.4043074E+001, 1.4825016E+000, 1.3069531E-004,-1.8457375E+000
 1.4143074E+001, 1.4841577E+000, 1.3071799E-004,-1.8456330E+000
 1.4243074E+001, 1.4844528E+000, 1.3066840E-004,-1.8458428E+000
 1.4343074E+001, 1.4840145E+000, 1.3065742E-004,-1.8462833E+000
 1.4443074E+001, 1.4844981E+000, 1.3079605E-004,-1.8468591E+000
 1.4543074E+001, 1.4852485E+000, 1.3084046E-004,-1.8471512E+000
 1.4643074E+001, 1.4854382E+000, 1.3089809E-004,-1.8472033E+000
 1.4743074E+001, 1.4868195E+000, 1.3088916E-004,-1.8469745E+000
 1.4843074E+001, 1.4881414E+000, 1.3087252E-004,-1.8464195E+000
 1.4943074E+001, 1.4862700E+000, 1.3082136E-004,-1.8460465E+000
 1.5000000E+001, 1.4834819E+000, 1.3081493E-004,-1.8459900E+000
