s,kW/m2,,
Time,"flux","d43","w"
 0.0000000E+000, 1.9665845E+000, 0.0000000E+000, 0.0000000E+000
 1.0000000E-001, 1.9665899E+000, 0.0000000E+000, 0.0000000E+000
 2.0000000E-001, 1.9665968E+000, 0.0000000E+000, 0.0000000E+000
 3.5000000E-001, 1.9666105E+000, 0.0000000E+000, 0.0000000E+000
 4.5000000E-001, 1.9666311E+000, 0.0000000E+000, 0.0000000E+000
 5.5000000E-001, 1.9666506E+000, 0.0000000E+000, 0.0000000E+000
 6.0000000E-001, 1.9666703E+000, 0.0000000E+000, 0.0000000E+000
 7.0000000E-001, 1.9666835E+000, 0.0000000E+000, 0.0000000E+000
 8.0000000E-001, 1.9667062E+000, 0.0000000E+000, 0.0000000E+000
 9.0000000E-001, 1.9667293E+000, 0.0000000E+000, 0.0000000E+000
 1.0000000E+000, 1.9667524E+000, 0.0000000E+000, 0.0000000E+000
 1.1000000E+000, 1.9667756E+000, 0.0000000E+000, 0.0000000E+000
 1.2000000E+000, 1.9667994E+000, 0.0000000E+000, 0.0000000E+000
 1.3000000E+000, 1.9668237E+000, 0.0000000E+000, 0.0000000E+000
 1.4000000E+000, 1.9668482E+000, 0.0000000E+000, 0.0000000E+000
 1.5000000E+000, 1.9668728E+000, 0.0000000E+000, 0.0000000E+000
 1.6000000E+000, 1.9668972E+000, 0.0000000E+000, 0.0000000E+000
 1.7000000E+000, 1.9669219E+000, 0.0000000E+000, 0.0000000E+000
 1.8000000E+000, 1.9669472E+000, 0.0000000E+000, 0.0000000E+000
 1.9000000E+000, 1.9669727E+000, 0.0000000E+000, 0.0000000E+000
 2.0000000E+000, 1.9669982E+000, 0.0000000E+000, 0.0000000E+000
 2.1000000E+000, 1.9670233E+000, 0.0000000E+000, 0.0000000E+000
 2.2500000E+000, 1.9670538E+000, 0.0000000E+000, 0.0000000E+000
 2.3500000E+000, 1.9670872E+000, 0.0000000E+000, 0.0000000E+000
 2.4500000E+000, 1.9671133E+000, 0.0000000E+000, 0.0000000E+000
 2.5500000E+000, 1.9671394E+000, 0.0000000E+000, 0.0000000E+000
 2.6500000E+000, 1.9671646E+000, 0.0000000E+000, 0.0000000E+000
 2.7500000E+000, 1.9671904E+000, 0.0000000E+000, 0.0000000E+000
 2.8500000E+000, 1.9672166E+000, 0.0000000E+000, 0.0000000E+000
 2.9500000E+000, 1.9672429E+000, 0.0000000E+000, 0.0000000E+000
 3.0500000E+000, 1.9672697E+000, 0.0000000E+000, 0.0000000E+000
 3.1500000E+000, 1.9672956E+000, 0.0000000E+000, 0.0000000E+000
 3.2500000E+000, 1.9673212E+000, 0.0000000E+000, 0.0000000E+000
 3.3500000E+000, 1.9673475E+000, 0.0000000E+000, 0.0000000E+000
 3.4500000E+000, 1.9673740E+000, 0.0000000E+000, 0.0000000E+000
 3.5500000E+000, 1.9674009E+000, 0.0000000E+000, 0.0000000E+000
 3.6500000E+000, 1.9674276E+000, 0.0000000E+000, 0.0000000E+000
 3.7500000E+000, 1.9674531E+000, 0.0000000E+000, 0.0000000E+000
 3.8500000E+000, 1.9674791E+000, 0.0000000E+000, 0.0000000E+000
 3.9500000E+000, 1.9675058E+000, 0.0000000E+000, 0.0000000E+000
 4.0500000E+000, 1.9636420E+000, 0.0000000E+000, 0.0000000E+000
 4.1500000E+000, 1.6064791E+000, 0.0000000E+000, 0.0000000E+000
 4.2500000E+000, 1.1810583E+000, 0.0000000E+000, 0.0000000E+000
 4.3500000E+000, 8.1417108E-001, 2.8619490E-004,-2.2556116E+000
 4.4500000E+000, 3.5791768E-001, 2.5841258E-004,-1.7955937E+000
 4.5500000E+000, 1.8377652E-003, 2.3554818E-004,-1.5050638E+000
 4.6381482E+000, 1.8219112E-003, 2.2180245E-004,-1.4572224E+000
 4.7262965E+000, 1.6603056E-003, 2.0107736E-004,-1.3981229E+000
 4.8053538E+000, 1.3952730E-003, 1.5957657E-004,-1.3492142E+000
 4.9151052E+000, 1.0329228E-003, 1.2424670E-004,-1.6229359E+000
 5.0204394E+000, 8.4265555E-004, 1.1493675E-004,-1.9154648E+000
 5.1257735E+000, 7.7678983E-004, 1.1233288E-004,-2.0194978E+000
 5.2311077E+000, 7.3938270E-004, 1.1039237E-004,-2.0532448E+000
 5.3013305E+000, 7.1363787E-004, 1.0829939E-004,-2.1031141E+000
 5.4267312E+000, 6.8472830E-004, 1.0702712E-004,-2.1630259E+000
 5.5207817E+000, 6.5138958E-004, 1.0542331E-004,-2.1950450E+000
 5.6148322E+000, 6.3561842E-004, 1.0559529E-004,-2.2011637E+000
 5.7088827E+000, 6.1864336E-004, 1.0559247E-004,-2.2099393E+000
 5.8029333E+000, 6.0406226E-004, 1.0536545E-004,-2.2195072E+000
 5.9001188E+000, 5.8840906E-004, 1.0497683E-004,-2.2248045E+000
 6.0035744E+000, 5.8470950E-004, 1.0450205E-004,-2.2302321E+000
 6.1070300E+000, 5.8381323E-004, 1.0427410E-004,-2.2402536E+000
 6.2104856E+000, 5.8130565E-004, 1.0446839E-004,-2.2506560E+000
 6.3139411E+000, 5.8362050E-004, 1.0449676E-004,-2.2564602E+000
 6.4277423E+000, 5.8432632E-004, 1.0439085E-004,-2.2608726E+000
 6.5036097E+000, 5.8544663E-004, 1.0412053E-004,-2.2649952E+000
 6.6174108E+000, 5.8643343E-004, 1.0416336E-004,-2.2677976E+000
 6.7312120E+000, 5.8587822E-004, 1.0416349E-004,-2.2694838E+000
 6.8070794E+000, 5.8527802E-004, 1.0400588E-004,-2.2707661E+000
 6.9208805E+000, 5.8552340E-004, 1.0392410E-004,-2.2732853E+000
 7.0346817E+000, 5.8390371E-004, 1.0391256E-004,-2.2754002E+000
 7.1105491E+000, 5.8071250E-004, 1.0378380E-004,-2.2761873E+000
 7.2319370E+000, 5.7740732E-004, 1.0372183E-004,-2.2771629E+000
 7.3153912E+000, 5.7321633E-004, 1.0361146E-004,-2.2783076E+000
 7.4405724E+000, 5.6739546E-004, 1.0329153E-004,-2.2790250E+000
 7.5240266E+000, 5.6305290E-004, 1.0289012E-004,-2.2808469E+000
 7.6074807E+000, 5.5960194E-004, 1.0286375E-004,-2.2819136E+000
 7.7326620E+000, 5.5207663E-004, 1.0297151E-004,-2.2822788E+000
 7.8161162E+000, 5.4653498E-004, 1.0297443E-004,-2.2815158E+000
 7.9412974E+000, 5.4087796E-004, 1.0282239E-004,-2.2810157E+000
 8.0247516E+000, 5.3346316E-004, 1.0276136E-004,-2.2808229E+000
 8.1082057E+000, 5.2943566E-004, 1.0265333E-004,-2.2800993E+000
 8.2333870E+000, 5.2388076E-004, 1.0242225E-004,-2.2783672E+000
 8.3168412E+000, 5.1816869E-004, 1.0233162E-004,-2.2761743E+000
 8.4002953E+000, 5.1425040E-004, 1.0222263E-004,-2.2748530E+000
 8.5254766E+000, 5.1038315E-004, 1.0228660E-004,-2.2745355E+000
 8.6089308E+000, 5.0516627E-004, 1.0233363E-004,-2.2752676E+000
 8.7341120E+000, 4.9947687E-004, 1.0226469E-004,-2.2758983E+000
 8.8175662E+000, 4.9340475E-004, 1.0215564E-004,-2.2763167E+000
 8.9010203E+000, 4.8853972E-004, 1.0218226E-004,-2.2765360E+000
 9.0262016E+000, 4.8329517E-004, 1.0216425E-004,-2.2759212E+000
 9.1096558E+000, 9.2660775E-002, 1.0219400E-004,-2.2750976E+000
 9.2348370E+000, 5.1700209E-001, 1.0231061E-004,-2.2745638E+000
 9.3182912E+000, 9.2295113E-001, 1.0229427E-004,-2.2744886E+000
 9.4017454E+000, 1.2679739E+000, 1.0229160E-004,-2.2747022E+000
 9.5269266E+000, 1.5854431E+000, 1.0226063E-004,-2.2749339E+000
 9.6103808E+000, 1.6540559E+000, 1.0223516E-004,-2.2745793E+000
 9.7355620E+000, 1.6562965E+000, 1.0232680E-004,-2.2737923E+000
 9.8190162E+000, 1.6556496E+000, 1.0228183E-004,-2.2732124E+000
 9.9024704E+000, 1.6536111E+000, 1.0214398E-004,-2.2727525E+000
 1.0027652E+001, 1.6547880E+000, 1.0198626E-004,-2.2729787E+000
 1.0111106E+001, 1.6588209E+000, 1.0185953E-004,-2.2738419E+000
 1.0236287E+001, 1.6620549E+000, 1.0183181E-004,-2.2743732E+000
 1.0319741E+001, 1.6677099E+000, 1.0174482E-004,-2.2750324E+000
 1.0403195E+001, 1.6717637E+000, 1.0186081E-004,-2.2754545E+000
 1.0528377E+001, 1.6720599E+000, 1.0181783E-004,-2.2754813E+000
 1.0611831E+001, 1.6690545E+000, 1.0190872E-004,-2.2749204E+000
 1.0737012E+001, 1.6632936E+000, 1.0179903E-004,-2.2739896E+000
 1.0820466E+001, 1.6609096E+000, 1.0170240E-004,-2.2732489E+000
 1.0903920E+001, 1.6606067E+000, 1.0166535E-004,-2.2732998E+000
 1.1029102E+001, 1.6603679E+000, 1.0157504E-004,-2.2736317E+000
 1.1112556E+001, 1.6616049E+000, 1.0154410E-004,-2.2741330E+000
 1.1237737E+001, 1.6636546E+000, 1.0155458E-004,-2.2747513E+000
 1.1321191E+001, 1.6624021E+000, 1.0143045E-004,-2.2752269E+000
 1.1404645E+001, 1.6613868E+000, 1.0138363E-004,-2.2753728E+000
 1.1529827E+001, 1.6581574E+000, 1.0144372E-004,-2.2752603E+000
 1.1613281E+001, 1.6527165E+000, 1.0143540E-004,-2.2751614E+000
 1.1738462E+001, 1.6456851E+000, 1.0134661E-004,-2.2753087E+000
 1.1821916E+001, 1.6435855E+000, 1.0140697E-004,-2.2759030E+000
 1.1905370E+001, 1.6464858E+000, 1.0140878E-004,-2.2767040E+000
 1.2030552E+001, 1.6480280E+000, 1.0138567E-004,-2.2771980E+000
 1.2114006E+001, 1.6456652E+000, 1.0149887E-004,-2.2772472E+000
 1.2239187E+001, 1.6469956E+000, 1.0155185E-004,-2.2772734E+000
 1.2322641E+001, 1.6499476E+000, 1.0158711E-004,-2.2772962E+000
 1.2406095E+001, 1.6517802E+000, 1.0154538E-004,-2.2770381E+000
 1.2531277E+001, 1.6493094E+000, 1.0163020E-004,-2.2763805E+000
 1.2614731E+001, 1.6461619E+000, 1.0167729E-004,-2.2758163E+000
 1.2739912E+001, 1.6415197E+000, 1.0162301E-004,-2.2752546E+000
 1.2823366E+001, 1.6381847E+000, 1.0159097E-004,-2.2751796E+000
 1.2906820E+001, 1.6423432E+000, 1.0159639E-004,-2.2753456E+000
 1.3032002E+001, 1.6509666E+000, 1.0158771E-004,-2.2753568E+000
 1.3115456E+001, 1.6554633E+000, 1.0164808E-004,-2.2752674E+000
 1.3240637E+001, 1.6597338E+000, 1.0166137E-004,-2.2749385E+000
 1.3324091E+001, 1.6635652E+000, 1.0173490E-004,-2.2749206E+000
 1.3407545E+001, 1.6656919E+000, 1.0178922E-004,-2.2751571E+000
 1.3532727E+001, 1.6645182E+000, 1.0180502E-004,-2.2752447E+000
 1.3616181E+001, 1.6589966E+000, 1.0183880E-004,-2.2749106E+000
 1.3741362E+001, 1.6557957E+000, 1.0194838E-004,-2.2744117E+000
 1.3824816E+001, 1.6542148E+000, 1.0203627E-004,-2.2742586E+000
 1.3908270E+001, 1.6544098E+000, 1.0201179E-004,-2.2744234E+000
 1.4033452E+001, 1.6558445E+000, 1.0204917E-004,-2.2745709E+000
 1.4116906E+001, 1.6580026E+000, 1.0212776E-004,-2.2747505E+000
 1.4200360E+001, 1.6584535E+000, 1.0211765E-004,-2.2748519E+000
 1.4325541E+001, 1.6559458E+000, 1.0213533E-004,-2.2749442E+000
 1.4408995E+001, 1.6545054E+000, 1.0218499E-004,-2.2750000E+000
 1.4534177E+001, 1.6554155E+000, 1.0211479E-004,-2.2753174E+000
 1.4617631E+001, 1.6567252E+000, 1.0207458E-004,-2.2757822E+000
 1.4701085E+001, 1.6582171E+000, 1.0200412E-004,-2.2759732E+000
 1.4826266E+001, 1.6599767E+000, 1.0204443E-004,-2.2760946E+000
 1.4909720E+001, 1.6548167E+000, 1.0201585E-004,-2.2758465E+000
 1.5000000E+001, 1.6484517E+000, 1.0207534E-004,-2.2754473E+000
