s,C,C,C
Time,Cable Temp,Shroud Temp,Conduit
 0.000E+00, 3.100E+01, 3.100E+01, 3.100E+01
 1.500E+01, 3.100E+01, 6.872E+01, 3.106E+01
 3.001E+01, 3.102E+01, 1.433E+02, 3.160E+01
 4.503E+01, 3.106E+01, 2.180E+02, 3.303E+01
 6.002E+01, 3.114E+01, 2.885E+02, 3.584E+01
 7.501E+01, 3.121E+01, 3.050E+02, 3.976E+01
 9.002E+01, 3.135E+01, 3.050E+02, 4.377E+01
 1.050E+02, 3.157E+01, 3.050E+02, 4.774E+01
 1.200E+02, 3.178E+01, 3.050E+02, 5.167E+01
 1.350E+02, 3.208E+01, 3.050E+02, 5.558E+01
 1.500E+02, 3.247E+01, 3.050E+02, 5.946E+01
 1.650E+02, 3.288E+01, 3.050E+02, 6.329E+01
 1.800E+02, 3.329E+01, 3.050E+02, 6.711E+01
 1.950E+02, 3.382E+01, 3.050E+02, 7.091E+01
 2.100E+02, 3.447E+01, 3.050E+02, 7.466E+01
 2.250E+02, 3.509E+01, 3.050E+02, 7.838E+01
 2.400E+02, 3.576E+01, 3.050E+02, 8.206E+01
 2.550E+02, 3.649E+01, 3.050E+02, 8.572E+01
 2.700E+02, 3.726E+01, 3.050E+02, 8.934E+01
 2.850E+02, 3.810E+01, 3.050E+02, 9.291E+01
 3.000E+02, 3.894E+01, 3.050E+02, 9.644E+01
 3.150E+02, 3.981E+01, 3.050E+02, 9.993E+01
 3.300E+02, 4.074E+01, 3.050E+02, 1.034E+02
 3.450E+02, 4.171E+01, 3.050E+02, 1.068E+02
 3.600E+02, 4.271E+01, 3.050E+02, 1.102E+02
 3.750E+02, 4.376E+01, 3.050E+02, 1.135E+02
 3.900E+02, 4.491E+01, 3.050E+02, 1.168E+02
 4.050E+02, 4.613E+01, 3.050E+02, 1.201E+02
 4.200E+02, 4.737E+01, 3.050E+02, 1.233E+02
 4.350E+02, 4.859E+01, 3.050E+02, 1.265E+02
 4.500E+02, 4.981E+01, 3.050E+02, 1.296E+02
 4.650E+02, 5.115E+01, 3.050E+02, 1.327E+02
 4.800E+02, 5.253E+01, 3.050E+02, 1.358E+02
 4.950E+02, 5.397E+01, 3.050E+02, 1.388E+02
 5.100E+02, 5.541E+01, 3.050E+02, 1.417E+02
 5.250E+02, 5.681E+01, 3.050E+02, 1.446E+02
 5.400E+02, 5.832E+01, 3.050E+02, 1.475E+02
 5.550E+02, 5.987E+01, 3.050E+02, 1.503E+02
 5.700E+02, 6.135E+01, 3.050E+02, 1.531E+02
 5.850E+02, 6.298E+01, 3.050E+02, 1.558E+02
 6.000E+02, 6.457E+01, 3.050E+02, 1.585E+02
 6.150E+02, 6.619E+01, 3.050E+02, 1.612E+02
 6.300E+02, 6.780E+01, 3.050E+02, 1.638E+02
 6.450E+02, 6.950E+01, 3.050E+02, 1.663E+02
 6.600E+02, 7.127E+01, 3.050E+02, 1.688E+02
 6.750E+02, 7.302E+01, 3.050E+02, 1.713E+02
 6.900E+02, 7.474E+01, 3.050E+02, 1.737E+02
 7.050E+02, 7.654E+01, 3.050E+02, 1.760E+02
 7.200E+02, 7.837E+01, 3.050E+02, 1.783E+02
 7.350E+02, 8.019E+01, 3.050E+02, 1.806E+02
 7.500E+02, 8.203E+01, 3.050E+02, 1.828E+02
 7.650E+02, 8.392E+01, 3.050E+02, 1.850E+02
 7.800E+02, 8.583E+01, 3.050E+02, 1.872E+02
 7.950E+02, 8.772E+01, 3.050E+02, 1.893E+02
 8.100E+02, 8.963E+01, 3.050E+02, 1.913E+02
 8.250E+02, 9.158E+01, 3.050E+02, 1.934E+02
 8.400E+02, 9.359E+01, 3.050E+02, 1.954E+02
 8.550E+02, 9.562E+01, 3.050E+02, 1.973E+02
 8.700E+02, 9.762E+01, 3.050E+02, 1.992E+02
 8.850E+02, 9.964E+01, 3.050E+02, 2.010E+02
 9.000E+02, 1.016E+02, 3.050E+02, 2.027E+02
 9.150E+02, 1.036E+02, 3.050E+02, 2.045E+02
 9.300E+02, 1.055E+02, 3.050E+02, 2.062E+02
 9.450E+02, 1.076E+02, 3.050E+02, 2.078E+02
 9.600E+02, 1.096E+02, 3.050E+02, 2.094E+02
 9.750E+02, 1.116E+02, 3.050E+02, 2.110E+02
 9.900E+02, 1.136E+02, 3.050E+02, 2.125E+02
 1.005E+03, 1.157E+02, 3.050E+02, 2.140E+02
 1.020E+03, 1.177E+02, 3.050E+02, 2.155E+02
 1.035E+03, 1.196E+02, 3.050E+02, 2.169E+02
 1.050E+03, 1.216E+02, 3.050E+02, 2.183E+02
 1.065E+03, 1.236E+02, 3.050E+02, 2.196E+02
 1.080E+03, 1.256E+02, 3.050E+02, 2.210E+02
 1.095E+03, 1.277E+02, 3.050E+02, 2.224E+02
 1.110E+03, 1.298E+02, 3.050E+02, 2.237E+02
 1.125E+03, 1.318E+02, 3.050E+02, 2.250E+02
 1.140E+03, 1.338E+02, 3.050E+02, 2.262E+02
 1.155E+03, 1.359E+02, 3.050E+02, 2.274E+02
 1.170E+03, 1.379E+02, 3.050E+02, 2.286E+02
 1.185E+03, 1.400E+02, 3.050E+02, 2.298E+02
 1.200E+03, 1.420E+02, 3.050E+02, 2.309E+02
 1.215E+03, 1.440E+02, 3.050E+02, 2.319E+02
 1.230E+03, 1.459E+02, 3.050E+02, 2.329E+02
 1.245E+03, 1.478E+02, 3.050E+02, 2.339E+02
 1.260E+03, 1.497E+02, 3.050E+02, 2.349E+02
 1.275E+03, 1.517E+02, 3.050E+02, 2.359E+02
 1.290E+03, 1.535E+02, 3.050E+02, 2.368E+02
 1.305E+03, 1.553E+02, 3.050E+02, 2.377E+02
 1.320E+03, 1.571E+02, 3.050E+02, 2.386E+02
 1.335E+03, 1.589E+02, 3.050E+02, 2.395E+02
 1.350E+03, 1.607E+02, 3.050E+02, 2.404E+02
 1.365E+03, 1.626E+02, 3.050E+02, 2.413E+02
 1.380E+03, 1.645E+02, 3.050E+02, 2.422E+02
 1.395E+03, 1.665E+02, 3.050E+02, 2.430E+02
 1.410E+03, 1.684E+02, 3.050E+02, 2.439E+02
 1.425E+03, 1.702E+02, 3.050E+02, 2.447E+02
 1.440E+03, 1.720E+02, 3.050E+02, 2.455E+02
 1.455E+03, 1.737E+02, 3.050E+02, 2.462E+02
 1.470E+03, 1.753E+02, 3.050E+02, 2.469E+02
 1.485E+03, 1.769E+02, 3.050E+02, 2.476E+02
 1.500E+03, 1.786E+02, 3.050E+02, 2.483E+02
 1.515E+03, 1.803E+02, 3.050E+02, 2.491E+02
 1.530E+03, 1.820E+02, 3.050E+02, 2.497E+02
 1.545E+03, 1.837E+02, 3.050E+02, 2.504E+02
 1.560E+03, 1.854E+02, 3.050E+02, 2.511E+02
 1.575E+03, 1.870E+02, 3.050E+02, 2.517E+02
 1.590E+03, 1.886E+02, 3.050E+02, 2.524E+02
 1.605E+03, 1.902E+02, 3.050E+02, 2.530E+02
 1.620E+03, 1.916E+02, 3.050E+02, 2.534E+02
 1.635E+03, 1.930E+02, 3.050E+02, 2.539E+02
 1.650E+03, 1.943E+02, 3.050E+02, 2.544E+02
 1.665E+03, 1.957E+02, 3.050E+02, 2.549E+02
 1.680E+03, 1.972E+02, 3.050E+02, 2.555E+02
 1.695E+03, 1.986E+02, 3.050E+02, 2.561E+02
 1.710E+03, 2.001E+02, 3.050E+02, 2.566E+02
 1.725E+03, 2.015E+02, 3.050E+02, 2.572E+02
 1.740E+03, 2.029E+02, 3.050E+02, 2.577E+02
 1.755E+03, 2.043E+02, 3.050E+02, 2.581E+02
 1.770E+03, 2.055E+02, 3.050E+02, 2.585E+02
 1.785E+03, 2.067E+02, 3.050E+02, 2.588E+02
 1.800E+03, 2.078E+02, 3.050E+02, 2.592E+02
 1.815E+03, 2.090E+02, 3.050E+02, 2.596E+02
 1.830E+03, 2.103E+02, 3.050E+02, 2.601E+02
 1.845E+03, 2.116E+02, 3.050E+02, 2.605E+02
 1.860E+03, 2.129E+02, 3.050E+02, 2.609E+02
 1.875E+03, 2.141E+02, 3.050E+02, 2.614E+02
 1.890E+03, 2.154E+02, 3.049E+02, 2.618E+02
 1.905E+03, 2.166E+02, 3.021E+02, 2.621E+02
 1.920E+03, 2.177E+02, 2.980E+02, 2.623E+02
 1.935E+03, 2.187E+02, 2.939E+02, 2.623E+02
 1.950E+03, 2.196E+02, 2.898E+02, 2.623E+02
 1.965E+03, 2.207E+02, 2.857E+02, 2.621E+02
 1.980E+03, 2.217E+02, 2.816E+02, 2.619E+02
 1.995E+03, 2.228E+02, 2.775E+02, 2.616E+02
 2.010E+03, 2.238E+02, 2.733E+02, 2.612E+02
 2.025E+03, 2.247E+02, 2.692E+02, 2.607E+02
 2.040E+03, 2.257E+02, 2.651E+02, 2.601E+02
 2.055E+03, 2.265E+02, 2.610E+02, 2.594E+02
 2.070E+03, 2.273E+02, 2.569E+02, 2.586E+02
 2.085E+03, 2.280E+02, 2.528E+02, 2.577E+02
 2.100E+03, 2.286E+02, 2.487E+02, 2.568E+02
 2.115E+03, 2.292E+02, 2.446E+02, 2.558E+02
 2.130E+03, 2.298E+02, 2.405E+02, 2.548E+02
 2.145E+03, 2.304E+02, 2.363E+02, 2.537E+02
 2.160E+03, 2.309E+02, 2.322E+02, 2.525E+02
 2.175E+03, 2.314E+02, 2.281E+02, 2.513E+02
 2.190E+03, 2.318E+02, 2.240E+02, 2.500E+02
 2.205E+03, 2.322E+02, 2.199E+02, 2.487E+02
 2.220E+03, 2.325E+02, 2.158E+02, 2.474E+02
 2.235E+03, 2.328E+02, 2.117E+02, 2.460E+02
 2.250E+03, 2.330E+02, 2.076E+02, 2.446E+02
 2.265E+03, 2.332E+02, 2.035E+02, 2.432E+02
 2.280E+03, 2.334E+02, 1.994E+02, 2.417E+02
 2.295E+03, 2.335E+02, 1.952E+02, 2.402E+02
 2.310E+03, 2.335E+02, 1.911E+02, 2.386E+02
 2.325E+03, 2.335E+02, 1.870E+02, 2.371E+02
 2.340E+03, 2.335E+02, 1.829E+02, 2.355E+02
 2.355E+03, 2.334E+02, 1.788E+02, 2.338E+02
 2.370E+03, 2.333E+02, 1.747E+02, 2.322E+02
 2.385E+03, 2.331E+02, 1.706E+02, 2.305E+02
 2.400E+03, 2.328E+02, 1.680E+02, 2.289E+02
 2.415E+03, 2.326E+02, 1.680E+02, 2.272E+02
 2.430E+03, 2.324E+02, 1.680E+02, 2.256E+02
 2.445E+03, 2.321E+02, 1.680E+02, 2.241E+02
 2.460E+03, 2.318E+02, 1.680E+02, 2.226E+02
 2.475E+03, 2.315E+02, 1.680E+02, 2.212E+02
 2.490E+03, 2.311E+02, 1.680E+02, 2.198E+02
 2.505E+03, 2.308E+02, 1.680E+02, 2.184E+02
 2.520E+03, 2.304E+02, 1.680E+02, 2.171E+02
 2.535E+03, 2.300E+02, 1.680E+02, 2.158E+02
 2.550E+03, 2.295E+02, 1.680E+02, 2.145E+02
 2.565E+03, 2.291E+02, 1.680E+02, 2.133E+02
 2.580E+03, 2.286E+02, 1.680E+02, 2.121E+02
 2.595E+03, 2.281E+02, 1.680E+02, 2.109E+02
 2.610E+03, 2.276E+02, 1.680E+02, 2.098E+02
 2.625E+03, 2.271E+02, 1.680E+02, 2.087E+02
 2.640E+03, 2.266E+02, 1.680E+02, 2.077E+02
 2.655E+03, 2.262E+02, 1.680E+02, 2.066E+02
 2.670E+03, 2.256E+02, 1.680E+02, 2.056E+02
 2.685E+03, 2.251E+02, 1.680E+02, 2.046E+02
 2.700E+03, 2.246E+02, 1.680E+02, 2.036E+02
 2.715E+03, 2.240E+02, 1.680E+02, 2.027E+02
 2.730E+03, 2.234E+02, 1.680E+02, 2.018E+02
 2.745E+03, 2.229E+02, 1.680E+02, 2.009E+02
 2.760E+03, 2.223E+02, 1.680E+02, 2.000E+02
 2.775E+03, 2.218E+02, 1.680E+02, 1.991E+02
 2.790E+03, 2.212E+02, 1.680E+02, 1.983E+02
 2.805E+03, 2.206E+02, 1.680E+02, 1.974E+02
 2.820E+03, 2.200E+02, 1.680E+02, 1.966E+02
 2.835E+03, 2.194E+02, 1.680E+02, 1.959E+02
 2.850E+03, 2.188E+02, 1.680E+02, 1.951E+02
 2.865E+03, 2.182E+02, 1.680E+02, 1.943E+02
 2.880E+03, 2.177E+02, 1.680E+02, 1.936E+02
 2.895E+03, 2.171E+02, 1.680E+02, 1.929E+02
 2.910E+03, 2.165E+02, 1.680E+02, 1.922E+02
 2.925E+03, 2.159E+02, 1.680E+02, 1.915E+02
 2.940E+03, 2.153E+02, 1.680E+02, 1.908E+02
 2.955E+03, 2.147E+02, 1.680E+02, 1.902E+02
 2.970E+03, 2.141E+02, 1.680E+02, 1.895E+02
 2.985E+03, 2.135E+02, 1.680E+02, 1.889E+02
 3.000E+03, 2.129E+02, 1.680E+02, 1.883E+02
 3.015E+03, 2.124E+02, 1.680E+02, 1.876E+02
 3.030E+03, 2.118E+02, 1.680E+02, 1.870E+02
 3.045E+03, 2.112E+02, 1.680E+02, 1.865E+02
 3.060E+03, 2.106E+02, 1.680E+02, 1.859E+02
 3.075E+03, 2.100E+02, 1.680E+02, 1.853E+02
 3.090E+03, 2.093E+02, 1.680E+02, 1.847E+02
 3.105E+03, 2.087E+02, 1.680E+02, 1.842E+02
 3.120E+03, 2.081E+02, 1.680E+02, 1.836E+02
 3.135E+03, 2.076E+02, 1.680E+02, 1.831E+02
 3.150E+03, 2.070E+02, 1.680E+02, 1.826E+02
 3.165E+03, 2.065E+02, 1.680E+02, 1.821E+02
 3.180E+03, 2.060E+02, 1.680E+02, 1.816E+02
 3.195E+03, 2.054E+02, 1.680E+02, 1.812E+02
 3.210E+03, 2.048E+02, 1.680E+02, 1.807E+02
 3.225E+03, 2.043E+02, 1.680E+02, 1.802E+02
 3.240E+03, 2.037E+02, 1.680E+02, 1.798E+02
 3.255E+03, 2.032E+02, 1.680E+02, 1.793E+02
 3.270E+03, 2.027E+02, 1.680E+02, 1.789E+02
 3.285E+03, 2.021E+02, 1.680E+02, 1.785E+02
 3.300E+03, 2.016E+02, 1.680E+02, 1.780E+02
 3.315E+03, 2.011E+02, 1.680E+02, 1.776E+02
 3.330E+03, 2.005E+02, 1.680E+02, 1.772E+02
 3.345E+03, 2.000E+02, 1.680E+02, 1.768E+02
 3.360E+03, 1.995E+02, 1.680E+02, 1.764E+02
 3.375E+03, 1.990E+02, 1.680E+02, 1.760E+02
 3.390E+03, 1.985E+02, 1.680E+02, 1.757E+02
 3.405E+03, 1.980E+02, 1.680E+02, 1.753E+02
 3.420E+03, 1.975E+02, 1.680E+02, 1.749E+02
 3.435E+03, 1.970E+02, 1.680E+02, 1.746E+02
 3.450E+03, 1.965E+02, 1.680E+02, 1.742E+02
 3.465E+03, 1.960E+02, 1.680E+02, 1.739E+02
 3.480E+03, 1.955E+02, 1.680E+02, 1.735E+02
 3.495E+03, 1.950E+02, 1.680E+02, 1.732E+02
 3.510E+03, 1.945E+02, 1.680E+02, 1.729E+02
 3.525E+03, 1.940E+02, 1.680E+02, 1.725E+02
 3.540E+03, 1.935E+02, 1.680E+02, 1.722E+02
 3.555E+03, 1.931E+02, 1.680E+02, 1.719E+02
 3.570E+03, 1.926E+02, 1.680E+02, 1.716E+02
 3.585E+03, 1.921E+02, 1.680E+02, 1.713E+02
 3.600E+03, 1.916E+02, 1.680E+02, 1.710E+02
