s,C,C,C
Time,"Cable Temp","Shroud Temp","Conduit"
 0.000E+00, 3.100E+01, 3.100E+01, 3.100E+01
 1.506E+01, 3.100E+01, 7.158E+01, 3.107E+01
 3.004E+01, 3.101E+01, 1.517E+02, 3.172E+01
 4.501E+01, 3.112E+01, 2.317E+02, 3.354E+01
 6.000E+01, 3.122E+01, 3.072E+02, 3.721E+01
 7.502E+01, 3.156E+01, 3.250E+02, 4.242E+01
 9.002E+01, 3.202E+01, 3.250E+02, 4.769E+01
 1.050E+02, 3.251E+01, 3.250E+02, 5.289E+01
 1.200E+02, 3.298E+01, 3.250E+02, 5.801E+01
 1.350E+02, 3.352E+01, 3.250E+02, 6.305E+01
 1.500E+02, 3.410E+01, 3.250E+02, 6.802E+01
 1.650E+02, 3.485E+01, 3.250E+02, 7.290E+01
 1.800E+02, 3.587E+01, 3.250E+02, 7.769E+01
 1.950E+02, 3.687E+01, 3.250E+02, 8.239E+01
 2.100E+02, 3.777E+01, 3.250E+02, 8.702E+01
 2.250E+02, 3.893E+01, 3.250E+02, 9.157E+01
 2.400E+02, 4.001E+01, 3.250E+02, 9.606E+01
 2.550E+02, 4.105E+01, 3.250E+02, 1.005E+02
 2.700E+02, 4.218E+01, 3.250E+02, 1.048E+02
 2.850E+02, 4.346E+01, 3.250E+02, 1.091E+02
 3.000E+02, 4.470E+01, 3.250E+02, 1.133E+02
 3.150E+02, 4.609E+01, 3.250E+02, 1.175E+02
 3.300E+02, 4.753E+01, 3.250E+02, 1.215E+02
 3.450E+02, 4.894E+01, 3.250E+02, 1.255E+02
 3.600E+02, 5.063E+01, 3.250E+02, 1.294E+02
 3.750E+02, 5.233E+01, 3.250E+02, 1.331E+02
 3.900E+02, 5.398E+01, 3.250E+02, 1.369E+02
 4.050E+02, 5.566E+01, 3.250E+02, 1.406E+02
 4.200E+02, 5.757E+01, 3.250E+02, 1.442E+02
 4.350E+02, 5.947E+01, 3.250E+02, 1.477E+02
 4.500E+02, 6.120E+01, 3.250E+02, 1.512E+02
 4.650E+02, 6.304E+01, 3.250E+02, 1.546E+02
 4.800E+02, 6.510E+01, 3.250E+02, 1.579E+02
 4.950E+02, 6.741E+01, 3.250E+02, 1.612E+02
 5.100E+02, 6.935E+01, 3.250E+02, 1.644E+02
 5.250E+02, 7.139E+01, 3.250E+02, 1.675E+02
 5.400E+02, 7.362E+01, 3.250E+02, 1.706E+02
 5.550E+02, 7.585E+01, 3.250E+02, 1.736E+02
 5.700E+02, 7.824E+01, 3.250E+02, 1.765E+02
 5.850E+02, 8.055E+01, 3.250E+02, 1.794E+02
 6.000E+02, 8.291E+01, 3.250E+02, 1.822E+02
 6.150E+02, 8.514E+01, 3.250E+02, 1.850E+02
 6.300E+02, 8.738E+01, 3.250E+02, 1.878E+02
 6.450E+02, 8.969E+01, 3.250E+02, 1.904E+02
 6.600E+02, 9.213E+01, 3.250E+02, 1.931E+02
 6.750E+02, 9.455E+01, 3.250E+02, 1.956E+02
 6.900E+02, 9.724E+01, 3.250E+02, 1.981E+02
 7.050E+02, 9.995E+01, 3.250E+02, 2.005E+02
 7.200E+02, 1.025E+02, 3.250E+02, 2.029E+02
 7.350E+02, 1.049E+02, 3.250E+02, 2.052E+02
 7.500E+02, 1.075E+02, 3.250E+02, 2.075E+02
 7.650E+02, 1.100E+02, 3.250E+02, 2.097E+02
 7.800E+02, 1.124E+02, 3.250E+02, 2.119E+02
 7.950E+02, 1.149E+02, 3.250E+02, 2.140E+02
 8.100E+02, 1.176E+02, 3.250E+02, 2.161E+02
 8.250E+02, 1.203E+02, 3.250E+02, 2.180E+02
 8.400E+02, 1.229E+02, 3.250E+02, 2.200E+02
 8.550E+02, 1.255E+02, 3.250E+02, 2.219E+02
 8.700E+02, 1.281E+02, 3.250E+02, 2.238E+02
 8.850E+02, 1.305E+02, 3.250E+02, 2.257E+02
 9.000E+02, 1.333E+02, 3.250E+02, 2.274E+02
 9.150E+02, 1.359E+02, 3.250E+02, 2.291E+02
 9.300E+02, 1.386E+02, 3.250E+02, 2.308E+02
 9.450E+02, 1.410E+02, 3.250E+02, 2.324E+02
 9.600E+02, 1.435E+02, 3.250E+02, 2.341E+02
 9.750E+02, 1.460E+02, 3.250E+02, 2.357E+02
 9.900E+02, 1.486E+02, 3.250E+02, 2.372E+02
 1.005E+03, 1.511E+02, 3.250E+02, 2.387E+02
 1.020E+03, 1.536E+02, 3.250E+02, 2.401E+02
 1.035E+03, 1.560E+02, 3.250E+02, 2.415E+02
 1.050E+03, 1.584E+02, 3.250E+02, 2.429E+02
 1.065E+03, 1.609E+02, 3.250E+02, 2.442E+02
 1.080E+03, 1.633E+02, 3.250E+02, 2.454E+02
 1.095E+03, 1.658E+02, 3.250E+02, 2.466E+02
 1.110E+03, 1.681E+02, 3.250E+02, 2.478E+02
 1.125E+03, 1.704E+02, 3.250E+02, 2.490E+02
 1.140E+03, 1.727E+02, 3.250E+02, 2.503E+02
 1.155E+03, 1.749E+02, 3.250E+02, 2.514E+02
 1.170E+03, 1.773E+02, 3.250E+02, 2.526E+02
 1.185E+03, 1.795E+02, 3.250E+02, 2.536E+02
 1.200E+03, 1.817E+02, 3.250E+02, 2.547E+02
 1.215E+03, 1.840E+02, 3.250E+02, 2.558E+02
 1.230E+03, 1.862E+02, 3.250E+02, 2.567E+02
 1.245E+03, 1.883E+02, 3.250E+02, 2.578E+02
 1.260E+03, 1.904E+02, 3.250E+02, 2.588E+02
 1.275E+03, 1.925E+02, 3.250E+02, 2.596E+02
 1.290E+03, 1.945E+02, 3.250E+02, 2.604E+02
 1.305E+03, 1.965E+02, 3.250E+02, 2.612E+02
 1.320E+03, 1.985E+02, 3.250E+02, 2.620E+02
 1.335E+03, 2.004E+02, 3.250E+02, 2.628E+02
 1.350E+03, 2.023E+02, 3.250E+02, 2.636E+02
 1.365E+03, 2.043E+02, 3.250E+02, 2.643E+02
 1.380E+03, 2.062E+02, 3.250E+02, 2.652E+02
 1.395E+03, 2.080E+02, 3.250E+02, 2.659E+02
 1.410E+03, 2.098E+02, 3.250E+02, 2.667E+02
 1.425E+03, 2.116E+02, 3.250E+02, 2.674E+02
 1.440E+03, 2.134E+02, 3.250E+02, 2.682E+02
 1.455E+03, 2.151E+02, 3.250E+02, 2.688E+02
 1.470E+03, 2.168E+02, 3.250E+02, 2.696E+02
 1.485E+03, 2.185E+02, 3.250E+02, 2.702E+02
 1.500E+03, 2.201E+02, 3.250E+02, 2.709E+02
 1.515E+03, 2.217E+02, 3.250E+02, 2.715E+02
 1.530E+03, 2.232E+02, 3.250E+02, 2.721E+02
 1.545E+03, 2.248E+02, 3.250E+02, 2.727E+02
 1.560E+03, 2.263E+02, 3.250E+02, 2.732E+02
 1.575E+03, 2.278E+02, 3.250E+02, 2.737E+02
 1.590E+03, 2.293E+02, 3.250E+02, 2.743E+02
 1.605E+03, 2.307E+02, 3.250E+02, 2.748E+02
 1.620E+03, 2.321E+02, 3.250E+02, 2.753E+02
 1.635E+03, 2.335E+02, 3.250E+02, 2.759E+02
 1.650E+03, 2.347E+02, 3.250E+02, 2.762E+02
 1.665E+03, 2.359E+02, 3.250E+02, 2.766E+02
 1.680E+03, 2.372E+02, 3.250E+02, 2.771E+02
 1.695E+03, 2.386E+02, 3.250E+02, 2.775E+02
 1.710E+03, 2.399E+02, 3.250E+02, 2.780E+02
 1.725E+03, 2.411E+02, 3.250E+02, 2.784E+02
 1.740E+03, 2.424E+02, 3.250E+02, 2.789E+02
 1.755E+03, 2.436E+02, 3.250E+02, 2.794E+02
 1.770E+03, 2.446E+02, 3.250E+02, 2.798E+02
 1.785E+03, 2.458E+02, 3.250E+02, 2.802E+02
 1.800E+03, 2.469E+02, 3.250E+02, 2.806E+02
 1.815E+03, 2.480E+02, 3.250E+02, 2.810E+02
 1.830E+03, 2.490E+02, 3.250E+02, 2.813E+02
 1.845E+03, 2.499E+02, 3.250E+02, 2.816E+02
 1.860E+03, 2.510E+02, 3.250E+02, 2.820E+02
 1.875E+03, 2.520E+02, 3.250E+02, 2.824E+02
 1.890E+03, 2.530E+02, 3.250E+02, 2.827E+02
 1.905E+03, 2.539E+02, 3.250E+02, 2.830E+02
 1.920E+03, 2.549E+02, 3.250E+02, 2.833E+02
 1.935E+03, 2.558E+02, 3.250E+02, 2.837E+02
 1.950E+03, 2.565E+02, 3.250E+02, 2.838E+02
 1.965E+03, 2.572E+02, 3.250E+02, 2.840E+02
 1.980E+03, 2.578E+02, 3.250E+02, 2.842E+02
 1.995E+03, 2.587E+02, 3.250E+02, 2.844E+02
 2.010E+03, 2.595E+02, 3.250E+02, 2.846E+02
 2.025E+03, 2.601E+02, 3.250E+02, 2.848E+02
 2.040E+03, 2.606E+02, 3.250E+02, 2.849E+02
 2.055E+03, 2.612E+02, 3.250E+02, 2.850E+02
 2.070E+03, 2.621E+02, 3.250E+02, 2.853E+02
 2.085E+03, 2.630E+02, 3.250E+02, 2.856E+02
 2.100E+03, 2.638E+02, 3.250E+02, 2.859E+02
 2.115E+03, 2.645E+02, 3.250E+02, 2.862E+02
 2.130E+03, 2.653E+02, 3.250E+02, 2.865E+02
 2.145E+03, 2.660E+02, 3.250E+02, 2.867E+02
 2.160E+03, 2.666E+02, 3.250E+02, 2.870E+02
 2.175E+03, 2.673E+02, 3.250E+02, 2.872E+02
 2.190E+03, 2.679E+02, 3.250E+02, 2.875E+02
 2.205E+03, 2.686E+02, 3.250E+02, 2.877E+02
 2.220E+03, 2.691E+02, 3.250E+02, 2.879E+02
 2.235E+03, 2.697E+02, 3.250E+02, 2.882E+02
 2.250E+03, 2.703E+02, 3.250E+02, 2.884E+02
 2.265E+03, 2.709E+02, 3.250E+02, 2.886E+02
 2.280E+03, 2.715E+02, 3.250E+02, 2.888E+02
 2.295E+03, 2.720E+02, 3.250E+02, 2.890E+02
 2.310E+03, 2.721E+02, 3.250E+02, 2.891E+02
 2.325E+03, 2.725E+02, 3.250E+02, 2.892E+02
 2.340E+03, 2.729E+02, 3.250E+02, 2.893E+02
 2.355E+03, 2.735E+02, 3.250E+02, 2.895E+02
 2.370E+03, 2.740E+02, 3.250E+02, 2.896E+02
 2.385E+03, 2.745E+02, 3.250E+02, 2.898E+02
 2.400E+03, 2.750E+02, 3.250E+02, 2.900E+02
 2.415E+03, 2.755E+02, 3.250E+02, 2.901E+02
 2.430E+03, 2.760E+02, 3.250E+02, 2.903E+02
 2.445E+03, 2.764E+02, 3.250E+02, 2.905E+02
 2.460E+03, 2.764E+02, 3.250E+02, 2.905E+02
 2.475E+03, 2.767E+02, 3.250E+02, 2.906E+02
 2.490E+03, 2.773E+02, 3.250E+02, 2.908E+02
 2.505E+03, 2.777E+02, 3.250E+02, 2.909E+02
 2.520E+03, 2.781E+02, 3.250E+02, 2.911E+02
 2.535E+03, 2.784E+02, 3.250E+02, 2.912E+02
 2.550E+03, 2.787E+02, 3.250E+02, 2.912E+02
 2.565E+03, 2.783E+02, 3.250E+02, 2.912E+02
 2.580E+03, 2.784E+02, 3.250E+02, 2.911E+02
 2.595E+03, 2.786E+02, 3.250E+02, 2.911E+02
 2.610E+03, 2.791E+02, 3.250E+02, 2.912E+02
 2.625E+03, 2.796E+02, 3.250E+02, 2.914E+02
 2.640E+03, 2.797E+02, 3.250E+02, 2.914E+02
 2.655E+03, 2.795E+02, 3.250E+02, 2.913E+02
 2.670E+03, 2.797E+02, 3.250E+02, 2.913E+02
 2.685E+03, 2.803E+02, 3.250E+02, 2.915E+02
 2.700E+03, 2.807E+02, 3.250E+02, 2.916E+02
 2.715E+03, 2.809E+02, 3.250E+02, 2.916E+02
 2.730E+03, 2.813E+02, 3.250E+02, 2.918E+02
 2.745E+03, 2.817E+02, 3.250E+02, 2.919E+02
 2.760E+03, 2.820E+02, 3.250E+02, 2.920E+02
 2.775E+03, 2.823E+02, 3.250E+02, 2.922E+02
 2.790E+03, 2.826E+02, 3.250E+02, 2.923E+02
 2.805E+03, 2.829E+02, 3.250E+02, 2.924E+02
 2.820E+03, 2.831E+02, 3.250E+02, 2.925E+02
 2.835E+03, 2.829E+02, 3.250E+02, 2.925E+02
 2.850E+03, 2.829E+02, 3.250E+02, 2.924E+02
 2.865E+03, 2.833E+02, 3.250E+02, 2.926E+02
 2.880E+03, 2.837E+02, 3.250E+02, 2.926E+02
 2.895E+03, 2.839E+02, 3.250E+02, 2.927E+02
 2.910E+03, 2.838E+02, 3.250E+02, 2.927E+02
 2.925E+03, 2.839E+02, 3.250E+02, 2.927E+02
 2.940E+03, 2.842E+02, 3.250E+02, 2.928E+02
 2.955E+03, 2.845E+02, 3.250E+02, 2.929E+02
 2.970E+03, 2.847E+02, 3.250E+02, 2.929E+02
 2.985E+03, 2.847E+02, 3.250E+02, 2.930E+02
 3.000E+03, 2.848E+02, 3.250E+02, 2.930E+02
 3.015E+03, 2.852E+02, 3.250E+02, 2.931E+02
 3.030E+03, 2.850E+02, 3.250E+02, 2.931E+02
 3.045E+03, 2.847E+02, 3.250E+02, 2.930E+02
 3.060E+03, 2.847E+02, 3.250E+02, 2.930E+02
 3.075E+03, 2.849E+02, 3.250E+02, 2.930E+02
 3.090E+03, 2.852E+02, 3.250E+02, 2.931E+02
 3.105E+03, 2.856E+02, 3.250E+02, 2.932E+02
 3.120E+03, 2.858E+02, 3.250E+02, 2.933E+02
 3.135E+03, 2.857E+02, 3.250E+02, 2.933E+02
 3.150E+03, 2.859E+02, 3.250E+02, 2.933E+02
 3.165E+03, 2.861E+02, 3.250E+02, 2.934E+02
 3.180E+03, 2.863E+02, 3.250E+02, 2.935E+02
 3.195E+03, 2.864E+02, 3.250E+02, 2.935E+02
 3.210E+03, 2.865E+02, 3.250E+02, 2.936E+02
 3.225E+03, 2.868E+02, 3.250E+02, 2.937E+02
 3.240E+03, 2.869E+02, 3.250E+02, 2.937E+02
 3.255E+03, 2.871E+02, 3.250E+02, 2.938E+02
 3.270E+03, 2.872E+02, 3.250E+02, 2.939E+02
 3.285E+03, 2.871E+02, 3.250E+02, 2.938E+02
 3.300E+03, 2.870E+02, 3.250E+02, 2.938E+02
 3.315E+03, 2.873E+02, 3.250E+02, 2.939E+02
 3.330E+03, 2.874E+02, 3.250E+02, 2.940E+02
 3.345E+03, 2.876E+02, 3.250E+02, 2.940E+02
 3.360E+03, 2.878E+02, 3.250E+02, 2.941E+02
 3.375E+03, 2.879E+02, 3.139E+02, 2.941E+02
 3.390E+03, 2.880E+02, 2.919E+02, 2.934E+02
 3.405E+03, 2.880E+02, 2.698E+02, 2.921E+02
 3.420E+03, 2.879E+02, 2.478E+02, 2.902E+02
 3.435E+03, 2.877E+02, 2.257E+02, 2.879E+02
 3.450E+03, 2.872E+02, 2.037E+02, 2.851E+02
 3.465E+03, 2.865E+02, 1.829E+02, 2.820E+02
 3.480E+03, 2.851E+02, 1.780E+02, 2.787E+02
 3.495E+03, 2.841E+02, 1.780E+02, 2.755E+02
 3.510E+03, 2.831E+02, 1.780E+02, 2.725E+02
 3.525E+03, 2.823E+02, 1.780E+02, 2.696E+02
 3.540E+03, 2.810E+02, 1.780E+02, 2.668E+02
 3.555E+03, 2.801E+02, 1.780E+02, 2.641E+02
 3.570E+03, 2.792E+02, 1.780E+02, 2.616E+02
 3.585E+03, 2.780E+02, 1.780E+02, 2.591E+02
 3.600E+03, 2.764E+02, 1.780E+02, 2.566E+02
