s,C,C,C
Time,"Cable Temp","Shroud Temp","Conduit"
 0.000E+00, 3.100E+01, 3.100E+01, 3.100E+01
 1.501E+01, 3.100E+01, 7.148E+01, 3.106E+01
 3.002E+01, 3.103E+01, 1.515E+02, 3.170E+01
 4.502E+01, 3.111E+01, 2.317E+02, 3.353E+01
 6.004E+01, 3.134E+01, 3.073E+02, 3.721E+01
 7.500E+01, 3.168E+01, 3.250E+02, 4.243E+01
 9.003E+01, 3.215E+01, 3.250E+02, 4.769E+01
 1.050E+02, 3.269E+01, 3.250E+02, 5.290E+01
 1.200E+02, 3.347E+01, 3.250E+02, 5.806E+01
 1.350E+02, 3.416E+01, 3.250E+02, 6.312E+01
 1.500E+02, 3.465E+01, 3.250E+02, 6.804E+01
 1.650E+02, 3.557E+01, 3.250E+02, 7.294E+01
 1.800E+02, 3.641E+01, 3.250E+02, 7.775E+01
 1.950E+02, 3.738E+01, 3.250E+02, 8.249E+01
 2.100E+02, 3.870E+01, 3.250E+02, 8.714E+01
 2.250E+02, 3.983E+01, 3.250E+02, 9.171E+01
 2.400E+02, 4.111E+01, 3.250E+02, 9.619E+01
 2.550E+02, 4.231E+01, 3.250E+02, 1.006E+02
 2.700E+02, 4.345E+01, 3.250E+02, 1.050E+02
 2.850E+02, 4.461E+01, 3.250E+02, 1.092E+02
 3.000E+02, 4.585E+01, 3.250E+02, 1.134E+02
 3.150E+02, 4.728E+01, 3.250E+02, 1.175E+02
 3.300E+02, 4.884E+01, 3.250E+02, 1.216E+02
 3.450E+02, 5.037E+01, 3.250E+02, 1.255E+02
 3.600E+02, 5.179E+01, 3.250E+02, 1.294E+02
 3.750E+02, 5.351E+01, 3.250E+02, 1.332E+02
 3.900E+02, 5.519E+01, 3.250E+02, 1.369E+02
 4.050E+02, 5.693E+01, 3.250E+02, 1.406E+02
 4.200E+02, 5.870E+01, 3.250E+02, 1.442E+02
 4.350E+02, 6.052E+01, 3.250E+02, 1.477E+02
 4.500E+02, 6.235E+01, 3.250E+02, 1.512E+02
 4.650E+02, 6.429E+01, 3.250E+02, 1.546E+02
 4.800E+02, 6.619E+01, 3.250E+02, 1.579E+02
 4.950E+02, 6.825E+01, 3.250E+02, 1.612E+02
 5.100E+02, 7.042E+01, 3.250E+02, 1.643E+02
 5.250E+02, 7.247E+01, 3.250E+02, 1.675E+02
 5.400E+02, 7.459E+01, 3.250E+02, 1.705E+02
 5.550E+02, 7.683E+01, 3.250E+02, 1.735E+02
 5.700E+02, 7.894E+01, 3.250E+02, 1.765E+02
 5.850E+02, 8.107E+01, 3.250E+02, 1.794E+02
 6.000E+02, 8.345E+01, 3.250E+02, 1.822E+02
 6.150E+02, 8.589E+01, 3.250E+02, 1.850E+02
 6.300E+02, 8.822E+01, 3.250E+02, 1.877E+02
 6.450E+02, 9.066E+01, 3.250E+02, 1.903E+02
 6.600E+02, 9.305E+01, 3.250E+02, 1.930E+02
 6.750E+02, 9.554E+01, 3.250E+02, 1.955E+02
 6.900E+02, 9.794E+01, 3.250E+02, 1.980E+02
 7.050E+02, 1.003E+02, 3.250E+02, 2.004E+02
 7.200E+02, 1.028E+02, 3.250E+02, 2.028E+02
 7.350E+02, 1.054E+02, 3.250E+02, 2.052E+02
 7.500E+02, 1.080E+02, 3.250E+02, 2.074E+02
 7.650E+02, 1.105E+02, 3.250E+02, 2.097E+02
 7.800E+02, 1.129E+02, 3.250E+02, 2.118E+02
 7.950E+02, 1.155E+02, 3.250E+02, 2.139E+02
 8.100E+02, 1.182E+02, 3.250E+02, 2.160E+02
 8.250E+02, 1.209E+02, 3.250E+02, 2.180E+02
 8.400E+02, 1.235E+02, 3.250E+02, 2.199E+02
 8.550E+02, 1.259E+02, 3.250E+02, 2.219E+02
 8.700E+02, 1.284E+02, 3.250E+02, 2.238E+02
 8.850E+02, 1.311E+02, 3.250E+02, 2.256E+02
 9.000E+02, 1.338E+02, 3.250E+02, 2.273E+02
 9.150E+02, 1.364E+02, 3.250E+02, 2.290E+02
 9.300E+02, 1.390E+02, 3.250E+02, 2.306E+02
 9.450E+02, 1.415E+02, 3.250E+02, 2.322E+02
 9.600E+02, 1.441E+02, 3.250E+02, 2.338E+02
 9.750E+02, 1.466E+02, 3.250E+02, 2.353E+02
 9.900E+02, 1.490E+02, 3.250E+02, 2.368E+02
 1.005E+03, 1.515E+02, 3.250E+02, 2.382E+02
 1.020E+03, 1.540E+02, 3.250E+02, 2.397E+02
 1.035E+03, 1.564E+02, 3.250E+02, 2.411E+02
 1.050E+03, 1.588E+02, 3.250E+02, 2.425E+02
 1.065E+03, 1.612E+02, 3.250E+02, 2.439E+02
 1.080E+03, 1.636E+02, 3.250E+02, 2.452E+02
 1.095E+03, 1.660E+02, 3.250E+02, 2.465E+02
 1.110E+03, 1.685E+02, 3.250E+02, 2.477E+02
 1.125E+03, 1.708E+02, 3.250E+02, 2.489E+02
 1.140E+03, 1.731E+02, 3.250E+02, 2.501E+02
 1.155E+03, 1.755E+02, 3.250E+02, 2.513E+02
 1.170E+03, 1.777E+02, 3.250E+02, 2.524E+02
 1.185E+03, 1.799E+02, 3.250E+02, 2.534E+02
 1.200E+03, 1.821E+02, 3.250E+02, 2.545E+02
 1.215E+03, 1.843E+02, 3.250E+02, 2.555E+02
 1.230E+03, 1.864E+02, 3.250E+02, 2.564E+02
 1.245E+03, 1.884E+02, 3.250E+02, 2.573E+02
 1.260E+03, 1.904E+02, 3.250E+02, 2.582E+02
 1.275E+03, 1.925E+02, 3.250E+02, 2.591E+02
 1.290E+03, 1.946E+02, 3.250E+02, 2.601E+02
 1.305E+03, 1.966E+02, 3.250E+02, 2.609E+02
 1.320E+03, 1.986E+02, 3.250E+02, 2.618E+02
 1.335E+03, 2.005E+02, 3.250E+02, 2.625E+02
 1.350E+03, 2.024E+02, 3.250E+02, 2.633E+02
 1.365E+03, 2.044E+02, 3.250E+02, 2.641E+02
 1.380E+03, 2.063E+02, 3.250E+02, 2.648E+02
 1.395E+03, 2.080E+02, 3.250E+02, 2.655E+02
 1.410E+03, 2.097E+02, 3.250E+02, 2.661E+02
 1.425E+03, 2.115E+02, 3.250E+02, 2.668E+02
 1.440E+03, 2.131E+02, 3.250E+02, 2.674E+02
 1.455E+03, 2.147E+02, 3.250E+02, 2.680E+02
 1.470E+03, 2.164E+02, 3.250E+02, 2.686E+02
 1.485E+03, 2.180E+02, 3.250E+02, 2.693E+02
 1.500E+03, 2.196E+02, 3.250E+02, 2.700E+02
 1.515E+03, 2.211E+02, 3.250E+02, 2.705E+02
 1.530E+03, 2.226E+02, 3.250E+02, 2.710E+02
 1.545E+03, 2.242E+02, 3.250E+02, 2.716E+02
 1.560E+03, 2.257E+02, 3.250E+02, 2.722E+02
 1.575E+03, 2.272E+02, 3.250E+02, 2.728E+02
 1.590E+03, 2.287E+02, 3.250E+02, 2.733E+02
 1.605E+03, 2.301E+02, 3.250E+02, 2.739E+02
 1.620E+03, 2.313E+02, 3.250E+02, 2.743E+02
 1.635E+03, 2.325E+02, 3.250E+02, 2.748E+02
 1.650E+03, 2.340E+02, 3.250E+02, 2.753E+02
 1.665E+03, 2.354E+02, 3.250E+02, 2.758E+02
 1.680E+03, 2.367E+02, 3.250E+02, 2.763E+02
 1.695E+03, 2.379E+02, 3.250E+02, 2.768E+02
 1.710E+03, 2.392E+02, 3.250E+02, 2.773E+02
 1.725E+03, 2.405E+02, 3.250E+02, 2.777E+02
 1.740E+03, 2.417E+02, 3.250E+02, 2.782E+02
 1.755E+03, 2.429E+02, 3.250E+02, 2.787E+02
 1.770E+03, 2.441E+02, 3.250E+02, 2.791E+02
 1.785E+03, 2.452E+02, 3.250E+02, 2.796E+02
 1.800E+03, 2.463E+02, 3.250E+02, 2.800E+02
 1.815E+03, 2.474E+02, 3.250E+02, 2.804E+02
 1.830E+03, 2.485E+02, 3.250E+02, 2.808E+02
 1.845E+03, 2.494E+02, 3.250E+02, 2.811E+02
 1.860E+03, 2.503E+02, 3.250E+02, 2.814E+02
 1.875E+03, 2.511E+02, 3.250E+02, 2.817E+02
 1.890E+03, 2.519E+02, 3.250E+02, 2.820E+02
 1.905E+03, 2.528E+02, 3.250E+02, 2.822E+02
 1.920E+03, 2.539E+02, 3.250E+02, 2.826E+02
 1.935E+03, 2.549E+02, 3.250E+02, 2.829E+02
 1.950E+03, 2.558E+02, 3.250E+02, 2.833E+02
 1.965E+03, 2.568E+02, 3.250E+02, 2.836E+02
 1.980E+03, 2.577E+02, 3.250E+02, 2.839E+02
 1.995E+03, 2.585E+02, 3.250E+02, 2.842E+02
 2.010E+03, 2.591E+02, 3.250E+02, 2.844E+02
 2.025E+03, 2.598E+02, 3.250E+02, 2.847E+02
 2.040E+03, 2.602E+02, 3.250E+02, 2.848E+02
 2.055E+03, 2.608E+02, 3.250E+02, 2.850E+02
 2.070E+03, 2.616E+02, 3.250E+02, 2.852E+02
 2.085E+03, 2.621E+02, 3.250E+02, 2.853E+02
 2.100E+03, 2.627E+02, 3.250E+02, 2.855E+02
 2.115E+03, 2.635E+02, 3.250E+02, 2.857E+02
 2.130E+03, 2.639E+02, 3.250E+02, 2.858E+02
 2.145E+03, 2.645E+02, 3.250E+02, 2.860E+02
 2.160E+03, 2.653E+02, 3.250E+02, 2.863E+02
 2.175E+03, 2.659E+02, 3.250E+02, 2.865E+02
 2.190E+03, 2.664E+02, 3.250E+02, 2.867E+02
 2.205E+03, 2.672E+02, 3.250E+02, 2.869E+02
 2.220E+03, 2.675E+02, 3.250E+02, 2.870E+02
 2.235E+03, 2.680E+02, 3.250E+02, 2.871E+02
 2.250E+03, 2.687E+02, 3.250E+02, 2.874E+02
 2.265E+03, 2.694E+02, 3.250E+02, 2.876E+02
 2.280E+03, 2.698E+02, 3.250E+02, 2.877E+02
 2.295E+03, 2.701E+02, 3.250E+02, 2.878E+02
 2.310E+03, 2.707E+02, 3.250E+02, 2.880E+02
 2.325E+03, 2.713E+02, 3.250E+02, 2.882E+02
 2.340E+03, 2.719E+02, 3.250E+02, 2.884E+02
 2.355E+03, 2.724E+02, 3.250E+02, 2.886E+02
 2.370E+03, 2.729E+02, 3.250E+02, 2.888E+02
 2.385E+03, 2.732E+02, 3.250E+02, 2.889E+02
 2.400E+03, 2.733E+02, 3.250E+02, 2.889E+02
 2.415E+03, 2.736E+02, 3.250E+02, 2.890E+02
 2.430E+03, 2.741E+02, 3.250E+02, 2.891E+02
 2.445E+03, 2.744E+02, 3.250E+02, 2.892E+02
 2.460E+03, 2.749E+02, 3.250E+02, 2.894E+02
 2.475E+03, 2.754E+02, 3.250E+02, 2.895E+02
 2.490E+03, 2.759E+02, 3.250E+02, 2.897E+02
 2.505E+03, 2.763E+02, 3.250E+02, 2.898E+02
 2.520E+03, 2.765E+02, 3.250E+02, 2.899E+02
 2.535E+03, 2.769E+02, 3.250E+02, 2.901E+02
 2.550E+03, 2.774E+02, 3.250E+02, 2.902E+02
 2.565E+03, 2.778E+02, 3.250E+02, 2.904E+02
 2.580E+03, 2.782E+02, 3.250E+02, 2.905E+02
 2.595E+03, 2.784E+02, 3.250E+02, 2.906E+02
 2.610E+03, 2.786E+02, 3.250E+02, 2.907E+02
 2.625E+03, 2.791E+02, 3.250E+02, 2.909E+02
 2.640E+03, 2.795E+02, 3.250E+02, 2.911E+02
 2.655E+03, 2.796E+02, 3.250E+02, 2.912E+02
 2.670E+03, 2.799E+02, 3.250E+02, 2.913E+02
 2.685E+03, 2.803E+02, 3.250E+02, 2.914E+02
 2.700E+03, 2.805E+02, 3.250E+02, 2.915E+02
 2.715E+03, 2.808E+02, 3.250E+02, 2.915E+02
 2.730E+03, 2.810E+02, 3.250E+02, 2.916E+02
 2.745E+03, 2.813E+02, 3.250E+02, 2.918E+02
 2.760E+03, 2.817E+02, 3.250E+02, 2.919E+02
 2.775E+03, 2.819E+02, 3.250E+02, 2.920E+02
 2.790E+03, 2.821E+02, 3.250E+02, 2.921E+02
 2.805E+03, 2.823E+02, 3.250E+02, 2.921E+02
 2.820E+03, 2.826E+02, 3.250E+02, 2.922E+02
 2.835E+03, 2.829E+02, 3.250E+02, 2.923E+02
 2.850E+03, 2.832E+02, 3.250E+02, 2.924E+02
 2.865E+03, 2.834E+02, 3.250E+02, 2.925E+02
 2.880E+03, 2.835E+02, 3.250E+02, 2.926E+02
 2.895E+03, 2.832E+02, 3.250E+02, 2.926E+02
 2.910E+03, 2.832E+02, 3.250E+02, 2.925E+02
 2.925E+03, 2.833E+02, 3.250E+02, 2.925E+02
 2.940E+03, 2.837E+02, 3.250E+02, 2.926E+02
 2.955E+03, 2.840E+02, 3.250E+02, 2.927E+02
 2.970E+03, 2.838E+02, 3.250E+02, 2.927E+02
 2.985E+03, 2.836E+02, 3.250E+02, 2.926E+02
 3.000E+03, 2.841E+02, 3.250E+02, 2.927E+02
 3.015E+03, 2.841E+02, 3.250E+02, 2.927E+02
 3.030E+03, 2.845E+02, 3.250E+02, 2.927E+02
 3.045E+03, 2.846E+02, 3.250E+02, 2.928E+02
 3.060E+03, 2.847E+02, 3.250E+02, 2.928E+02
 3.075E+03, 2.850E+02, 3.250E+02, 2.929E+02
 3.090E+03, 2.853E+02, 3.250E+02, 2.930E+02
 3.105E+03, 2.855E+02, 3.250E+02, 2.931E+02
 3.120E+03, 2.857E+02, 3.250E+02, 2.932E+02
 3.135E+03, 2.859E+02, 3.250E+02, 2.933E+02
 3.150E+03, 2.860E+02, 3.250E+02, 2.933E+02
 3.165E+03, 2.860E+02, 3.250E+02, 2.933E+02
 3.180E+03, 2.860E+02, 3.250E+02, 2.933E+02
 3.195E+03, 2.862E+02, 3.250E+02, 2.934E+02
 3.210E+03, 2.864E+02, 3.250E+02, 2.934E+02
 3.225E+03, 2.866E+02, 3.250E+02, 2.935E+02
 3.240E+03, 2.868E+02, 3.250E+02, 2.936E+02
 3.255E+03, 2.870E+02, 3.250E+02, 2.937E+02
 3.270E+03, 2.870E+02, 3.250E+02, 2.937E+02
 3.285E+03, 2.867E+02, 3.250E+02, 2.936E+02
 3.300E+03, 2.866E+02, 3.250E+02, 2.935E+02
 3.315E+03, 2.868E+02, 3.250E+02, 2.935E+02
 3.330E+03, 2.867E+02, 3.250E+02, 2.935E+02
 3.345E+03, 2.870E+02, 3.250E+02, 2.935E+02
 3.360E+03, 2.871E+02, 3.250E+02, 2.936E+02
 3.375E+03, 2.869E+02, 3.139E+02, 2.934E+02
 3.390E+03, 2.870E+02, 2.919E+02, 2.927E+02
 3.405E+03, 2.872E+02, 2.698E+02, 2.913E+02
 3.420E+03, 2.871E+02, 2.478E+02, 2.895E+02
 3.435E+03, 2.869E+02, 2.257E+02, 2.872E+02
 3.450E+03, 2.864E+02, 2.037E+02, 2.844E+02
 3.465E+03, 2.858E+02, 1.828E+02, 2.814E+02
 3.480E+03, 2.852E+02, 1.780E+02, 2.783E+02
 3.495E+03, 2.845E+02, 1.780E+02, 2.752E+02
 3.510E+03, 2.836E+02, 1.780E+02, 2.722E+02
 3.525E+03, 2.824E+02, 1.780E+02, 2.693E+02
 3.540E+03, 2.810E+02, 1.780E+02, 2.665E+02
 3.555E+03, 2.798E+02, 1.780E+02, 2.638E+02
 3.570E+03, 2.784E+02, 1.780E+02, 2.612E+02
 3.585E+03, 2.774E+02, 1.780E+02, 2.587E+02
 3.600E+03, 2.764E+02, 1.780E+02, 2.563E+02
