s,C,C
Time,"Cable Temp","Shroud Temp"
 0.000E+00, 2.800E+01, 2.800E+01
 1.500E+01, 2.801E+01, 6.186E+01
 3.003E+01, 2.836E+01, 1.288E+02
 4.502E+01, 2.982E+01, 1.958E+02
 6.002E+01, 3.312E+01, 2.628E+02
 7.503E+01, 3.899E+01, 3.299E+02
 9.002E+01, 4.828E+01, 3.970E+02
 1.050E+02, 6.199E+01, 4.602E+02
 1.200E+02, 8.049E+01, 4.750E+02
 1.350E+02, 1.004E+02, 4.750E+02
 1.500E+02, 1.190E+02, 4.750E+02
 1.650E+02, 1.360E+02, 4.750E+02
 1.800E+02, 1.515E+02, 4.750E+02
 1.950E+02, 1.657E+02, 4.750E+02
 2.100E+02, 1.789E+02, 4.750E+02
 2.250E+02, 1.911E+02, 4.750E+02
 2.400E+02, 2.026E+02, 4.750E+02
 2.550E+02, 2.134E+02, 4.750E+02
 2.700E+02, 2.236E+02, 4.750E+02
 2.850E+02, 2.332E+02, 4.750E+02
 3.000E+02, 2.423E+02, 4.750E+02
 3.150E+02, 2.511E+02, 4.750E+02
 3.300E+02, 2.593E+02, 4.750E+02
 3.450E+02, 2.672E+02, 4.750E+02
 3.600E+02, 2.747E+02, 4.750E+02
 3.750E+02, 2.819E+02, 4.750E+02
 3.900E+02, 2.887E+02, 4.750E+02
 4.050E+02, 2.952E+02, 4.750E+02
 4.200E+02, 3.016E+02, 4.750E+02
 4.350E+02, 3.077E+02, 4.750E+02
 4.500E+02, 3.134E+02, 4.750E+02
 4.650E+02, 3.188E+02, 4.750E+02
 4.800E+02, 3.240E+02, 4.750E+02
 4.950E+02, 3.289E+02, 4.750E+02
 5.100E+02, 3.336E+02, 4.750E+02
 5.250E+02, 3.381E+02, 4.750E+02
 5.400E+02, 3.423E+02, 4.750E+02
 5.550E+02, 3.465E+02, 4.750E+02
 5.700E+02, 3.504E+02, 4.750E+02
 5.850E+02, 3.541E+02, 4.750E+02
 6.000E+02, 3.576E+02, 4.750E+02
 6.150E+02, 3.609E+02, 4.750E+02
 6.300E+02, 3.642E+02, 4.750E+02
 6.450E+02, 3.674E+02, 4.750E+02
 6.600E+02, 3.704E+02, 4.750E+02
 6.750E+02, 3.733E+02, 4.750E+02
 6.900E+02, 3.760E+02, 4.750E+02
 7.050E+02, 3.785E+02, 4.750E+02
 7.200E+02, 3.810E+02, 4.750E+02
 7.350E+02, 3.833E+02, 4.750E+02
 7.500E+02, 3.856E+02, 4.750E+02
 7.650E+02, 3.876E+02, 4.750E+02
 7.800E+02, 3.895E+02, 4.750E+02
 7.950E+02, 3.914E+02, 4.750E+02
 8.100E+02, 3.931E+02, 4.750E+02
 8.250E+02, 3.950E+02, 4.750E+02
 8.400E+02, 3.966E+02, 4.750E+02
 8.550E+02, 3.981E+02, 4.750E+02
 8.700E+02, 3.996E+02, 4.750E+02
 8.850E+02, 4.010E+02, 4.750E+02
 9.000E+02, 4.023E+02, 4.750E+02
 9.150E+02, 4.035E+02, 4.750E+02
 9.300E+02, 4.048E+02, 4.750E+02
 9.450E+02, 4.061E+02, 4.750E+02
 9.600E+02, 4.073E+02, 4.750E+02
 9.750E+02, 4.084E+02, 4.750E+02
 9.900E+02, 4.093E+02, 4.750E+02
 1.005E+03, 4.102E+02, 4.750E+02
 1.020E+03, 4.112E+02, 4.750E+02
 1.035E+03, 4.121E+02, 4.750E+02
 1.050E+03, 4.129E+02, 4.750E+02
 1.065E+03, 4.137E+02, 4.750E+02
 1.080E+03, 4.145E+02, 4.750E+02
 1.095E+03, 4.152E+02, 4.750E+02
 1.110E+03, 4.159E+02, 4.750E+02
 1.125E+03, 4.166E+02, 4.750E+02
 1.140E+03, 4.172E+02, 4.750E+02
 1.155E+03, 4.179E+02, 4.750E+02
 1.170E+03, 4.184E+02, 4.750E+02
 1.185E+03, 4.190E+02, 4.750E+02
 1.200E+03, 4.194E+02, 4.750E+02
 1.215E+03, 4.199E+02, 4.750E+02
 1.230E+03, 4.202E+02, 4.750E+02
 1.245E+03, 4.206E+02, 4.750E+02
 1.260E+03, 4.210E+02, 4.750E+02
 1.275E+03, 4.213E+02, 4.750E+02
 1.290E+03, 4.218E+02, 4.750E+02
 1.305E+03, 4.223E+02, 4.746E+02
 1.320E+03, 4.227E+02, 4.694E+02
 1.335E+03, 4.225E+02, 4.627E+02
 1.350E+03, 4.220E+02, 4.560E+02
 1.365E+03, 4.209E+02, 4.493E+02
 1.380E+03, 4.191E+02, 4.426E+02
 1.395E+03, 4.172E+02, 4.359E+02
 1.410E+03, 4.149E+02, 4.292E+02
 1.425E+03, 4.125E+02, 4.225E+02
 1.440E+03, 4.100E+02, 4.158E+02
 1.455E+03, 4.072E+02, 4.090E+02
 1.470E+03, 4.043E+02, 4.023E+02
 1.485E+03, 4.013E+02, 3.956E+02
 1.500E+03, 3.981E+02, 3.889E+02
 1.515E+03, 3.947E+02, 3.822E+02
 1.530E+03, 3.914E+02, 3.755E+02
 1.545E+03, 3.879E+02, 3.688E+02
 1.560E+03, 3.844E+02, 3.621E+02
 1.575E+03, 3.810E+02, 3.554E+02
 1.590E+03, 3.773E+02, 3.487E+02
 1.605E+03, 3.735E+02, 3.420E+02
 1.620E+03, 3.697E+02, 3.353E+02
 1.635E+03, 3.659E+02, 3.286E+02
 1.650E+03, 3.620E+02, 3.219E+02
 1.665E+03, 3.580E+02, 3.152E+02
 1.680E+03, 3.541E+02, 3.085E+02
 1.695E+03, 3.501E+02, 3.018E+02
 1.710E+03, 3.461E+02, 2.966E+02
 1.725E+03, 3.421E+02, 2.962E+02
 1.740E+03, 3.384E+02, 2.962E+02
 1.755E+03, 3.349E+02, 2.962E+02
 1.770E+03, 3.318E+02, 2.962E+02
 1.785E+03, 3.288E+02, 2.962E+02
 1.800E+03, 3.259E+02, 2.962E+02
