s,C,C
Time,"Cable Temp","Shroud Temp"
 0.000E+00, 2.000E+01, 2.000E+01
 1.505E+01, 2.017E+01, 6.670E+01
 3.004E+01, 2.256E+01, 1.590E+02
 4.503E+01, 2.936E+01, 2.512E+02
 6.000E+01, 4.230E+01, 3.219E+02
 7.500E+01, 5.686E+01, 3.234E+02
 9.004E+01, 6.824E+01, 3.196E+02
 1.050E+02, 7.750E+01, 3.158E+02
 1.200E+02, 8.527E+01, 3.120E+02
 1.350E+02, 9.196E+01, 3.082E+02
 1.500E+02, 9.776E+01, 3.052E+02
 1.650E+02, 1.031E+02, 3.050E+02
 1.800E+02, 1.082E+02, 3.050E+02
 1.950E+02, 1.131E+02, 3.050E+02
 2.100E+02, 1.178E+02, 3.050E+02
 2.250E+02, 1.225E+02, 3.050E+02
 2.400E+02, 1.268E+02, 3.050E+02
 2.550E+02, 1.310E+02, 3.050E+02
 2.700E+02, 1.352E+02, 3.050E+02
 2.850E+02, 1.393E+02, 3.050E+02
 3.000E+02, 1.431E+02, 3.050E+02
 3.150E+02, 1.469E+02, 3.050E+02
 3.300E+02, 1.504E+02, 3.050E+02
 3.450E+02, 1.539E+02, 3.050E+02
 3.600E+02, 1.574E+02, 3.050E+02
 3.750E+02, 1.608E+02, 3.050E+02
 3.900E+02, 1.640E+02, 3.050E+02
 4.050E+02, 1.672E+02, 3.050E+02
 4.200E+02, 1.702E+02, 3.050E+02
 4.350E+02, 1.732E+02, 3.050E+02
 4.500E+02, 1.760E+02, 3.050E+02
 4.650E+02, 1.787E+02, 3.050E+02
 4.800E+02, 1.813E+02, 3.050E+02
 4.950E+02, 1.839E+02, 3.050E+02
 5.100E+02, 1.863E+02, 3.050E+02
 5.250E+02, 1.886E+02, 3.050E+02
 5.400E+02, 1.910E+02, 3.050E+02
 5.550E+02, 1.933E+02, 3.050E+02
 5.700E+02, 1.954E+02, 3.050E+02
 5.850E+02, 1.975E+02, 3.050E+02
 6.000E+02, 1.996E+02, 3.050E+02
 6.150E+02, 2.015E+02, 3.050E+02
 6.300E+02, 2.035E+02, 3.050E+02
 6.450E+02, 2.054E+02, 3.050E+02
 6.600E+02, 2.073E+02, 3.050E+02
 6.750E+02, 2.091E+02, 3.050E+02
 6.900E+02, 2.107E+02, 3.050E+02
 7.050E+02, 2.121E+02, 3.050E+02
 7.200E+02, 2.136E+02, 3.050E+02
 7.350E+02, 2.153E+02, 3.050E+02
 7.500E+02, 2.170E+02, 3.050E+02
 7.650E+02, 2.185E+02, 3.050E+02
 7.800E+02, 2.198E+02, 3.050E+02
 7.950E+02, 2.209E+02, 3.050E+02
 8.100E+02, 2.220E+02, 3.050E+02
 8.250E+02, 2.230E+02, 3.050E+02
 8.400E+02, 2.242E+02, 3.050E+02
 8.550E+02, 2.255E+02, 3.050E+02
 8.700E+02, 2.265E+02, 3.050E+02
 8.850E+02, 2.276E+02, 3.050E+02
 9.000E+02, 2.288E+02, 3.050E+02
 9.150E+02, 2.298E+02, 3.050E+02
 9.300E+02, 2.309E+02, 3.050E+02
 9.450E+02, 2.317E+02, 3.050E+02
 9.600E+02, 2.327E+02, 3.050E+02
 9.750E+02, 2.336E+02, 3.050E+02
 9.900E+02, 2.344E+02, 3.050E+02
 1.005E+03, 2.352E+02, 3.050E+02
 1.020E+03, 2.357E+02, 3.050E+02
 1.035E+03, 2.365E+02, 3.050E+02
 1.050E+03, 2.372E+02, 3.050E+02
 1.065E+03, 2.378E+02, 3.050E+02
 1.080E+03, 2.384E+02, 3.050E+02
 1.095E+03, 2.392E+02, 3.050E+02
 1.110E+03, 2.398E+02, 3.050E+02
 1.125E+03, 2.405E+02, 3.050E+02
 1.140E+03, 2.412E+02, 3.050E+02
 1.155E+03, 2.417E+02, 3.050E+02
 1.170E+03, 2.423E+02, 3.050E+02
 1.185E+03, 2.428E+02, 3.050E+02
 1.200E+03, 2.432E+02, 3.050E+02
 1.215E+03, 2.437E+02, 3.050E+02
 1.230E+03, 2.441E+02, 3.050E+02
 1.245E+03, 2.446E+02, 3.050E+02
 1.260E+03, 2.450E+02, 3.050E+02
 1.275E+03, 2.453E+02, 3.050E+02
 1.290E+03, 2.457E+02, 3.050E+02
 1.305E+03, 2.460E+02, 3.050E+02
 1.320E+03, 2.464E+02, 3.050E+02
 1.335E+03, 2.467E+02, 3.050E+02
 1.350E+03, 2.472E+02, 3.050E+02
 1.365E+03, 2.475E+02, 3.050E+02
 1.380E+03, 2.479E+02, 3.050E+02
 1.395E+03, 2.484E+02, 3.050E+02
 1.410E+03, 2.487E+02, 3.050E+02
 1.425E+03, 2.489E+02, 3.050E+02
 1.440E+03, 2.493E+02, 3.050E+02
 1.455E+03, 2.497E+02, 3.050E+02
 1.470E+03, 2.499E+02, 3.050E+02
 1.485E+03, 2.501E+02, 3.050E+02
 1.500E+03, 2.504E+02, 3.050E+02
 1.515E+03, 2.507E+02, 3.050E+02
 1.530E+03, 2.508E+02, 3.050E+02
 1.545E+03, 2.509E+02, 3.050E+02
 1.560E+03, 2.511E+02, 3.050E+02
 1.575E+03, 2.513E+02, 3.050E+02
 1.590E+03, 2.513E+02, 3.050E+02
 1.605E+03, 2.515E+02, 3.050E+02
 1.620E+03, 2.517E+02, 3.050E+02
 1.635E+03, 2.519E+02, 3.050E+02
 1.650E+03, 2.521E+02, 3.050E+02
 1.665E+03, 2.524E+02, 3.050E+02
 1.680E+03, 2.526E+02, 3.050E+02
 1.695E+03, 2.528E+02, 3.050E+02
 1.710E+03, 2.528E+02, 3.050E+02
 1.725E+03, 2.529E+02, 3.050E+02
 1.740E+03, 2.531E+02, 3.050E+02
 1.755E+03, 2.534E+02, 3.050E+02
 1.770E+03, 2.534E+02, 3.050E+02
 1.785E+03, 2.533E+02, 3.050E+02
 1.800E+03, 2.536E+02, 3.050E+02
 1.815E+03, 2.536E+02, 3.050E+02
 1.830E+03, 2.536E+02, 3.050E+02
 1.845E+03, 2.537E+02, 3.050E+02
 1.860E+03, 2.539E+02, 3.050E+02
 1.875E+03, 2.542E+02, 3.050E+02
 1.890E+03, 2.542E+02, 3.050E+02
 1.905E+03, 2.542E+02, 3.050E+02
 1.920E+03, 2.543E+02, 3.050E+02
 1.935E+03, 2.544E+02, 3.050E+02
 1.950E+03, 2.547E+02, 3.050E+02
 1.965E+03, 2.547E+02, 3.050E+02
 1.980E+03, 2.547E+02, 3.050E+02
 1.995E+03, 2.546E+02, 3.050E+02
 2.010E+03, 2.546E+02, 3.050E+02
 2.025E+03, 2.547E+02, 3.050E+02
 2.040E+03, 2.547E+02, 3.050E+02
 2.055E+03, 2.549E+02, 3.050E+02
 2.070E+03, 2.551E+02, 3.050E+02
 2.085E+03, 2.552E+02, 3.050E+02
 2.100E+03, 2.552E+02, 3.040E+02
 2.115E+03, 2.548E+02, 2.996E+02
 2.130E+03, 2.542E+02, 2.949E+02
 2.145E+03, 2.533E+02, 2.903E+02
 2.160E+03, 2.523E+02, 2.856E+02
 2.175E+03, 2.511E+02, 2.810E+02
 2.190E+03, 2.497E+02, 2.763E+02
 2.205E+03, 2.481E+02, 2.717E+02
 2.220E+03, 2.466E+02, 2.670E+02
 2.235E+03, 2.449E+02, 2.624E+02
 2.250E+03, 2.431E+02, 2.577E+02
 2.265E+03, 2.411E+02, 2.531E+02
 2.280E+03, 2.389E+02, 2.485E+02
 2.295E+03, 2.369E+02, 2.438E+02
 2.310E+03, 2.350E+02, 2.392E+02
 2.325E+03, 2.331E+02, 2.348E+02
 2.340E+03, 2.310E+02, 2.337E+02
 2.355E+03, 2.293E+02, 2.338E+02
 2.370E+03, 2.277E+02, 2.337E+02
 2.385E+03, 2.263E+02, 2.337E+02
 2.400E+03, 2.251E+02, 2.337E+02
