s,C,C
Time,"Cable Temp","Shroud Temp"
 0.000E+00, 2.400E+01, 2.400E+01
 1.503E+01, 2.401E+01, 5.861E+01
 3.000E+01, 2.429E+01, 1.270E+02
 4.501E+01, 2.543E+01, 1.958E+02
 6.001E+01, 2.801E+01, 2.653E+02
 7.500E+01, 3.266E+01, 3.066E+02
 9.001E+01, 3.907E+01, 3.189E+02
 1.050E+02, 4.611E+01, 3.183E+02
 1.200E+02, 5.291E+01, 3.138E+02
 1.350E+02, 5.913E+01, 3.092E+02
 1.500E+02, 6.473E+01, 3.047E+02
 1.650E+02, 6.975E+01, 3.006E+02
 1.800E+02, 7.433E+01, 3.000E+02
 1.950E+02, 7.860E+01, 3.000E+02
 2.100E+02, 8.270E+01, 3.000E+02
 2.250E+02, 8.667E+01, 3.000E+02
 2.400E+02, 9.053E+01, 3.000E+02
 2.550E+02, 9.431E+01, 3.000E+02
 2.700E+02, 9.800E+01, 3.000E+02
 2.850E+02, 1.016E+02, 3.000E+02
 3.000E+02, 1.050E+02, 3.000E+02
 3.150E+02, 1.084E+02, 3.000E+02
 3.300E+02, 1.117E+02, 3.000E+02
 3.450E+02, 1.149E+02, 3.000E+02
 3.600E+02, 1.180E+02, 3.000E+02
 3.750E+02, 1.210E+02, 3.000E+02
 3.900E+02, 1.240E+02, 3.000E+02
 4.050E+02, 1.269E+02, 3.000E+02
 4.200E+02, 1.297E+02, 3.000E+02
 4.350E+02, 1.325E+02, 3.000E+02
 4.500E+02, 1.353E+02, 3.000E+02
 4.650E+02, 1.379E+02, 3.000E+02
 4.800E+02, 1.405E+02, 3.000E+02
 4.950E+02, 1.430E+02, 3.000E+02
 5.100E+02, 1.455E+02, 3.000E+02
 5.250E+02, 1.478E+02, 3.000E+02
 5.400E+02, 1.501E+02, 3.000E+02
 5.550E+02, 1.523E+02, 3.000E+02
 5.700E+02, 1.546E+02, 3.000E+02
 5.850E+02, 1.568E+02, 3.000E+02
 6.000E+02, 1.589E+02, 3.000E+02
 6.150E+02, 1.610E+02, 3.000E+02
 6.300E+02, 1.630E+02, 3.000E+02
 6.450E+02, 1.650E+02, 3.000E+02
 6.600E+02, 1.669E+02, 3.000E+02
 6.750E+02, 1.688E+02, 3.000E+02
 6.900E+02, 1.706E+02, 3.000E+02
 7.050E+02, 1.724E+02, 3.000E+02
 7.200E+02, 1.741E+02, 3.000E+02
 7.350E+02, 1.757E+02, 3.000E+02
 7.500E+02, 1.774E+02, 3.000E+02
 7.650E+02, 1.791E+02, 3.000E+02
 7.800E+02, 1.806E+02, 3.000E+02
 7.950E+02, 1.822E+02, 3.000E+02
 8.100E+02, 1.837E+02, 3.000E+02
 8.250E+02, 1.851E+02, 3.000E+02
 8.400E+02, 1.865E+02, 3.000E+02
 8.550E+02, 1.879E+02, 3.000E+02
 8.700E+02, 1.893E+02, 3.000E+02
 8.850E+02, 1.907E+02, 3.000E+02
 9.000E+02, 1.919E+02, 3.000E+02
 9.150E+02, 1.931E+02, 3.000E+02
 9.300E+02, 1.943E+02, 3.000E+02
 9.450E+02, 1.955E+02, 3.000E+02
 9.600E+02, 1.966E+02, 3.000E+02
 9.750E+02, 1.977E+02, 3.000E+02
 9.900E+02, 1.988E+02, 3.000E+02
 1.005E+03, 1.999E+02, 3.000E+02
 1.020E+03, 2.009E+02, 3.000E+02
 1.035E+03, 2.018E+02, 3.000E+02
 1.050E+03, 2.027E+02, 3.000E+02
 1.065E+03, 2.036E+02, 3.000E+02
 1.080E+03, 2.045E+02, 3.000E+02
 1.095E+03, 2.053E+02, 3.000E+02
 1.110E+03, 2.062E+02, 3.000E+02
 1.125E+03, 2.070E+02, 3.000E+02
 1.140E+03, 2.078E+02, 3.000E+02
 1.155E+03, 2.086E+02, 3.000E+02
 1.170E+03, 2.095E+02, 3.000E+02
 1.185E+03, 2.103E+02, 3.000E+02
 1.200E+03, 2.111E+02, 3.000E+02
 1.215E+03, 2.118E+02, 3.000E+02
 1.230E+03, 2.125E+02, 3.000E+02
 1.245E+03, 2.131E+02, 3.000E+02
 1.260E+03, 2.138E+02, 3.000E+02
 1.275E+03, 2.144E+02, 3.000E+02
 1.290E+03, 2.150E+02, 3.000E+02
 1.305E+03, 2.155E+02, 3.000E+02
 1.320E+03, 2.161E+02, 3.000E+02
 1.335E+03, 2.166E+02, 3.000E+02
 1.350E+03, 2.172E+02, 3.000E+02
 1.365E+03, 2.177E+02, 3.000E+02
 1.380E+03, 2.181E+02, 3.000E+02
 1.395E+03, 2.186E+02, 3.000E+02
 1.410E+03, 2.191E+02, 3.000E+02
 1.425E+03, 2.196E+02, 3.000E+02
 1.440E+03, 2.200E+02, 3.000E+02
 1.455E+03, 2.204E+02, 3.000E+02
 1.470E+03, 2.208E+02, 3.000E+02
 1.485E+03, 2.213E+02, 3.000E+02
 1.500E+03, 2.217E+02, 2.964E+02
 1.515E+03, 2.220E+02, 2.891E+02
 1.530E+03, 2.220E+02, 2.819E+02
 1.545E+03, 2.217E+02, 2.746E+02
 1.560E+03, 2.212E+02, 2.674E+02
 1.575E+03, 2.204E+02, 2.601E+02
 1.590E+03, 2.195E+02, 2.529E+02
 1.605E+03, 2.183E+02, 2.457E+02
 1.620E+03, 2.171E+02, 2.384E+02
 1.635E+03, 2.156E+02, 2.312E+02
 1.650E+03, 2.140E+02, 2.239E+02
 1.665E+03, 2.124E+02, 2.167E+02
 1.680E+03, 2.107E+02, 2.094E+02
 1.695E+03, 2.088E+02, 2.038E+02
 1.710E+03, 2.070E+02, 2.034E+02
 1.725E+03, 2.052E+02, 2.034E+02
 1.740E+03, 2.036E+02, 2.034E+02
 1.755E+03, 2.020E+02, 2.034E+02
 1.770E+03, 2.006E+02, 2.034E+02
 1.785E+03, 1.992E+02, 2.034E+02
 1.800E+03, 1.979E+02, 2.034E+02
