s,C,C
Time,"Cable Temp","Shroud Temp"
 0.000E+00, 2.400E+01, 2.400E+01
 1.501E+01, 2.401E+01, 5.859E+01
 3.001E+01, 2.429E+01, 1.270E+02
 4.501E+01, 2.543E+01, 1.958E+02
 6.001E+01, 2.802E+01, 2.653E+02
 7.502E+01, 3.271E+01, 3.066E+02
 9.001E+01, 3.918E+01, 3.189E+02
 1.050E+02, 4.629E+01, 3.183E+02
 1.200E+02, 5.318E+01, 3.138E+02
 1.350E+02, 5.946E+01, 3.092E+02
 1.500E+02, 6.512E+01, 3.047E+02
 1.650E+02, 7.015E+01, 3.006E+02
 1.800E+02, 7.474E+01, 3.000E+02
 1.950E+02, 7.908E+01, 3.000E+02
 2.100E+02, 8.322E+01, 3.000E+02
 2.250E+02, 8.724E+01, 3.000E+02
 2.400E+02, 9.111E+01, 3.000E+02
 2.550E+02, 9.484E+01, 3.000E+02
 2.700E+02, 9.851E+01, 3.000E+02
 2.850E+02, 1.021E+02, 3.000E+02
 3.000E+02, 1.057E+02, 3.000E+02
 3.150E+02, 1.091E+02, 3.000E+02
 3.300E+02, 1.125E+02, 3.000E+02
 3.450E+02, 1.158E+02, 3.000E+02
 3.600E+02, 1.189E+02, 3.000E+02
 3.750E+02, 1.220E+02, 3.000E+02
 3.900E+02, 1.250E+02, 3.000E+02
 4.050E+02, 1.280E+02, 3.000E+02
 4.200E+02, 1.310E+02, 3.000E+02
 4.350E+02, 1.338E+02, 3.000E+02
 4.500E+02, 1.365E+02, 3.000E+02
 4.650E+02, 1.393E+02, 3.000E+02
 4.800E+02, 1.420E+02, 3.000E+02
 4.950E+02, 1.446E+02, 3.000E+02
 5.100E+02, 1.472E+02, 3.000E+02
 5.250E+02, 1.497E+02, 3.000E+02
 5.400E+02, 1.522E+02, 3.000E+02
 5.550E+02, 1.547E+02, 3.000E+02
 5.700E+02, 1.571E+02, 3.000E+02
 5.850E+02, 1.594E+02, 3.000E+02
 6.000E+02, 1.617E+02, 3.000E+02
 6.150E+02, 1.640E+02, 3.000E+02
 6.300E+02, 1.662E+02, 3.000E+02
 6.450E+02, 1.683E+02, 3.000E+02
 6.600E+02, 1.703E+02, 3.000E+02
 6.750E+02, 1.723E+02, 3.000E+02
 6.900E+02, 1.742E+02, 3.000E+02
 7.050E+02, 1.761E+02, 3.000E+02
 7.200E+02, 1.781E+02, 3.000E+02
 7.350E+02, 1.799E+02, 3.000E+02
 7.500E+02, 1.817E+02, 3.000E+02
 7.650E+02, 1.835E+02, 3.000E+02
 7.800E+02, 1.852E+02, 3.000E+02
 7.950E+02, 1.867E+02, 3.000E+02
 8.100E+02, 1.883E+02, 3.000E+02
 8.250E+02, 1.898E+02, 3.000E+02
 8.400E+02, 1.913E+02, 3.000E+02
 8.550E+02, 1.927E+02, 3.000E+02
 8.700E+02, 1.940E+02, 3.000E+02
 8.850E+02, 1.954E+02, 3.000E+02
 9.000E+02, 1.967E+02, 3.000E+02
 9.150E+02, 1.981E+02, 3.000E+02
 9.300E+02, 1.995E+02, 3.000E+02
 9.450E+02, 2.009E+02, 3.000E+02
 9.600E+02, 2.021E+02, 3.000E+02
 9.750E+02, 2.033E+02, 3.000E+02
 9.900E+02, 2.046E+02, 3.000E+02
 1.005E+03, 2.058E+02, 3.000E+02
 1.020E+03, 2.069E+02, 3.000E+02
 1.035E+03, 2.080E+02, 3.000E+02
 1.050E+03, 2.089E+02, 3.000E+02
 1.065E+03, 2.099E+02, 3.000E+02
 1.080E+03, 2.108E+02, 3.000E+02
 1.095E+03, 2.117E+02, 3.000E+02
 1.110E+03, 2.127E+02, 3.000E+02
 1.125E+03, 2.138E+02, 3.000E+02
 1.140E+03, 2.148E+02, 3.000E+02
 1.155E+03, 2.158E+02, 3.000E+02
 1.170E+03, 2.167E+02, 3.000E+02
 1.185E+03, 2.173E+02, 3.000E+02
 1.200E+03, 2.180E+02, 3.000E+02
 1.215E+03, 2.187E+02, 3.000E+02
 1.230E+03, 2.194E+02, 3.000E+02
 1.245E+03, 2.201E+02, 3.000E+02
 1.260E+03, 2.209E+02, 3.000E+02
 1.275E+03, 2.216E+02, 3.000E+02
 1.290E+03, 2.223E+02, 3.000E+02
 1.305E+03, 2.231E+02, 3.000E+02
 1.320E+03, 2.238E+02, 3.000E+02
 1.335E+03, 2.244E+02, 3.000E+02
 1.350E+03, 2.248E+02, 3.000E+02
 1.365E+03, 2.253E+02, 3.000E+02
 1.380E+03, 2.258E+02, 3.000E+02
 1.395E+03, 2.264E+02, 3.000E+02
 1.410E+03, 2.270E+02, 3.000E+02
 1.425E+03, 2.277E+02, 3.000E+02
 1.440E+03, 2.283E+02, 3.000E+02
 1.455E+03, 2.289E+02, 3.000E+02
 1.470E+03, 2.294E+02, 3.000E+02
 1.485E+03, 2.299E+02, 3.000E+02
 1.500E+03, 2.303E+02, 2.964E+02
 1.515E+03, 2.306E+02, 2.891E+02
 1.530E+03, 2.306E+02, 2.819E+02
 1.545E+03, 2.304E+02, 2.746E+02
 1.560E+03, 2.300E+02, 2.674E+02
 1.575E+03, 2.294E+02, 2.601E+02
 1.590E+03, 2.284E+02, 2.529E+02
 1.605E+03, 2.273E+02, 2.457E+02
 1.620E+03, 2.261E+02, 2.384E+02
 1.635E+03, 2.247E+02, 2.312E+02
 1.650E+03, 2.231E+02, 2.239E+02
 1.665E+03, 2.215E+02, 2.167E+02
 1.680E+03, 2.199E+02, 2.094E+02
 1.695E+03, 2.182E+02, 2.038E+02
 1.710E+03, 2.166E+02, 2.034E+02
 1.725E+03, 2.149E+02, 2.034E+02
 1.740E+03, 2.134E+02, 2.034E+02
 1.755E+03, 2.119E+02, 2.034E+02
 1.770E+03, 2.106E+02, 2.034E+02
 1.785E+03, 2.093E+02, 2.034E+02
 1.800E+03, 2.080E+02, 2.034E+02
