s,C,C,C
Time,"Cable Temp","Shroud Temp","Conduit"
 0.000E+00, 3.100E+01, 3.100E+01, 3.100E+01
 1.501E+01, 3.100E+01, 6.839E+01, 3.106E+01
 3.002E+01, 3.100E+01, 1.422E+02, 3.163E+01
 4.502E+01, 3.101E+01, 2.162E+02, 3.324E+01
 6.002E+01, 3.105E+01, 2.902E+02, 3.643E+01
 7.501E+01, 3.111E+01, 3.641E+02, 4.192E+01
 9.001E+01, 3.129E+01, 4.381E+02, 5.063E+01
 1.050E+02, 3.162E+01, 4.750E+02, 6.272E+01
 1.200E+02, 3.210E+01, 4.750E+02, 7.538E+01
 1.350E+02, 3.275E+01, 4.750E+02, 8.782E+01
 1.500E+02, 3.361E+01, 4.750E+02, 1.000E+02
 1.650E+02, 3.461E+01, 4.750E+02, 1.120E+02
 1.800E+02, 3.577E+01, 4.750E+02, 1.237E+02
 1.950E+02, 3.711E+01, 4.750E+02, 1.352E+02
 2.100E+02, 3.866E+01, 4.750E+02, 1.465E+02
 2.250E+02, 4.038E+01, 4.750E+02, 1.575E+02
 2.400E+02, 4.235E+01, 4.750E+02, 1.682E+02
 2.550E+02, 4.455E+01, 4.750E+02, 1.787E+02
 2.700E+02, 4.693E+01, 4.750E+02, 1.888E+02
 2.850E+02, 4.950E+01, 4.750E+02, 1.987E+02
 3.000E+02, 5.220E+01, 4.750E+02, 2.084E+02
 3.150E+02, 5.508E+01, 4.750E+02, 2.177E+02
 3.300E+02, 5.820E+01, 4.750E+02, 2.268E+02
 3.450E+02, 6.158E+01, 4.750E+02, 2.356E+02
 3.600E+02, 6.514E+01, 4.750E+02, 2.441E+02
 3.750E+02, 6.894E+01, 4.750E+02, 2.524E+02
 3.900E+02, 7.291E+01, 4.750E+02, 2.604E+02
 4.050E+02, 7.704E+01, 4.750E+02, 2.681E+02
 4.200E+02, 8.139E+01, 4.750E+02, 2.756E+02
 4.350E+02, 8.588E+01, 4.750E+02, 2.828E+02
 4.500E+02, 9.059E+01, 4.750E+02, 2.897E+02
 4.650E+02, 9.547E+01, 4.750E+02, 2.964E+02
 4.800E+02, 1.005E+02, 4.750E+02, 3.028E+02
 4.950E+02, 1.056E+02, 4.750E+02, 3.090E+02
 5.100E+02, 1.109E+02, 4.750E+02, 3.149E+02
 5.250E+02, 1.164E+02, 4.750E+02, 3.206E+02
 5.400E+02, 1.219E+02, 4.750E+02, 3.260E+02
 5.550E+02, 1.274E+02, 4.750E+02, 3.313E+02
 5.700E+02, 1.331E+02, 4.750E+02, 3.362E+02
 5.850E+02, 1.389E+02, 4.750E+02, 3.410E+02
 6.000E+02, 1.447E+02, 4.750E+02, 3.455E+02
 6.150E+02, 1.506E+02, 4.750E+02, 3.498E+02
 6.300E+02, 1.565E+02, 4.750E+02, 3.539E+02
 6.450E+02, 1.624E+02, 4.750E+02, 3.579E+02
 6.600E+02, 1.684E+02, 4.750E+02, 3.616E+02
 6.750E+02, 1.744E+02, 4.750E+02, 3.652E+02
 6.900E+02, 1.803E+02, 4.750E+02, 3.686E+02
 7.050E+02, 1.863E+02, 4.750E+02, 3.718E+02
 7.200E+02, 1.922E+02, 4.750E+02, 3.750E+02
 7.350E+02, 1.981E+02, 4.750E+02, 3.779E+02
 7.500E+02, 2.039E+02, 4.750E+02, 3.807E+02
 7.650E+02, 2.097E+02, 4.750E+02, 3.834E+02
 7.800E+02, 2.154E+02, 4.750E+02, 3.861E+02
 7.950E+02, 2.210E+02, 4.750E+02, 3.886E+02
 8.100E+02, 2.266E+02, 4.750E+02, 3.910E+02
 8.250E+02, 2.321E+02, 4.750E+02, 3.931E+02
 8.400E+02, 2.376E+02, 4.750E+02, 3.953E+02
 8.550E+02, 2.430E+02, 4.750E+02, 3.973E+02
 8.700E+02, 2.483E+02, 4.750E+02, 3.992E+02
 8.850E+02, 2.535E+02, 4.750E+02, 4.010E+02
 9.000E+02, 2.586E+02, 4.750E+02, 4.028E+02
 9.150E+02, 2.636E+02, 4.750E+02, 4.045E+02
 9.300E+02, 2.685E+02, 4.750E+02, 4.062E+02
 9.450E+02, 2.733E+02, 4.750E+02, 4.076E+02
 9.600E+02, 2.780E+02, 4.750E+02, 4.091E+02
 9.750E+02, 2.827E+02, 4.750E+02, 4.105E+02
 9.900E+02, 2.872E+02, 4.750E+02, 4.119E+02
 1.005E+03, 2.916E+02, 4.750E+02, 4.132E+02
 1.020E+03, 2.959E+02, 4.750E+02, 4.144E+02
 1.035E+03, 3.001E+02, 4.750E+02, 4.156E+02
 1.050E+03, 3.042E+02, 4.750E+02, 4.166E+02
 1.065E+03, 3.082E+02, 4.750E+02, 4.176E+02
 1.080E+03, 3.121E+02, 4.750E+02, 4.187E+02
 1.095E+03, 3.159E+02, 4.750E+02, 4.197E+02
 1.110E+03, 3.196E+02, 4.750E+02, 4.206E+02
 1.125E+03, 3.232E+02, 4.750E+02, 4.215E+02
 1.140E+03, 3.267E+02, 4.750E+02, 4.224E+02
 1.155E+03, 3.302E+02, 4.750E+02, 4.232E+02
 1.170E+03, 3.335E+02, 4.750E+02, 4.241E+02
 1.185E+03, 3.368E+02, 4.750E+02, 4.249E+02
 1.200E+03, 3.400E+02, 4.750E+02, 4.257E+02
 1.215E+03, 3.431E+02, 4.750E+02, 4.265E+02
 1.230E+03, 3.461E+02, 4.750E+02, 4.271E+02
 1.245E+03, 3.489E+02, 4.750E+02, 4.275E+02
 1.260E+03, 3.516E+02, 4.750E+02, 4.281E+02
 1.275E+03, 3.543E+02, 4.750E+02, 4.286E+02
 1.290E+03, 3.570E+02, 4.750E+02, 4.291E+02
 1.305E+03, 3.595E+02, 4.750E+02, 4.297E+02
 1.320E+03, 3.621E+02, 4.750E+02, 4.303E+02
 1.335E+03, 3.646E+02, 4.750E+02, 4.309E+02
 1.350E+03, 3.669E+02, 4.750E+02, 4.313E+02
 1.365E+03, 3.692E+02, 4.750E+02, 4.317E+02
 1.380E+03, 3.714E+02, 4.750E+02, 4.321E+02
 1.395E+03, 3.735E+02, 4.750E+02, 4.323E+02
 1.410E+03, 3.755E+02, 4.750E+02, 4.327E+02
 1.425E+03, 3.775E+02, 4.750E+02, 4.330E+02
 1.440E+03, 3.795E+02, 4.750E+02, 4.334E+02
 1.455E+03, 3.813E+02, 4.750E+02, 4.336E+02
 1.470E+03, 3.831E+02, 4.750E+02, 4.341E+02
 1.485E+03, 3.849E+02, 4.750E+02, 4.345E+02
 1.500E+03, 3.866E+02, 4.750E+02, 4.348E+02
 1.515E+03, 3.883E+02, 4.750E+02, 4.352E+02
 1.530E+03, 3.900E+02, 4.750E+02, 4.354E+02
 1.545E+03, 3.915E+02, 4.750E+02, 4.358E+02
 1.560E+03, 3.931E+02, 4.750E+02, 4.360E+02
 1.575E+03, 3.946E+02, 4.750E+02, 4.363E+02
 1.590E+03, 3.959E+02, 4.750E+02, 4.364E+02
 1.605E+03, 3.972E+02, 4.750E+02, 4.367E+02
 1.620E+03, 3.985E+02, 4.750E+02, 4.370E+02
 1.635E+03, 3.999E+02, 4.750E+02, 4.372E+02
 1.650E+03, 4.011E+02, 4.750E+02, 4.375E+02
 1.665E+03, 4.024E+02, 4.750E+02, 4.378E+02
 1.680E+03, 4.037E+02, 4.750E+02, 4.381E+02
 1.695E+03, 4.049E+02, 4.750E+02, 4.383E+02
 1.710E+03, 4.060E+02, 4.750E+02, 4.385E+02
 1.725E+03, 4.071E+02, 4.750E+02, 4.387E+02
 1.740E+03, 4.081E+02, 4.750E+02, 4.388E+02
 1.755E+03, 4.090E+02, 4.750E+02, 4.390E+02
 1.770E+03, 4.100E+02, 4.750E+02, 4.391E+02
 1.785E+03, 4.109E+02, 4.750E+02, 4.392E+02
 1.800E+03, 4.118E+02, 4.750E+02, 4.394E+02
 1.815E+03, 4.126E+02, 4.750E+02, 4.394E+02
 1.830E+03, 4.134E+02, 4.750E+02, 4.397E+02
 1.845E+03, 4.141E+02, 4.750E+02, 4.397E+02
 1.860E+03, 4.149E+02, 4.750E+02, 4.400E+02
 1.875E+03, 4.158E+02, 4.750E+02, 4.403E+02
 1.890E+03, 4.167E+02, 4.750E+02, 4.406E+02
 1.905E+03, 4.175E+02, 4.750E+02, 4.408E+02
 1.920E+03, 4.183E+02, 4.750E+02, 4.409E+02
 1.935E+03, 4.190E+02, 4.750E+02, 4.411E+02
 1.950E+03, 4.197E+02, 4.750E+02, 4.412E+02
 1.965E+03, 4.204E+02, 4.750E+02, 4.414E+02
 1.980E+03, 4.210E+02, 4.750E+02, 4.414E+02
 1.995E+03, 4.216E+02, 4.750E+02, 4.416E+02
 2.010E+03, 4.222E+02, 4.750E+02, 4.418E+02
 2.025E+03, 4.227E+02, 4.750E+02, 4.417E+02
 2.040E+03, 4.231E+02, 4.750E+02, 4.418E+02
 2.055E+03, 4.236E+02, 4.750E+02, 4.419E+02
 2.070E+03, 4.242E+02, 4.750E+02, 4.419E+02
 2.085E+03, 4.246E+02, 4.750E+02, 4.420E+02
 2.100E+03, 4.251E+02, 4.750E+02, 4.421E+02
 2.115E+03, 4.256E+02, 4.750E+02, 4.422E+02
 2.130E+03, 4.260E+02, 4.750E+02, 4.422E+02
 2.145E+03, 4.264E+02, 4.750E+02, 4.423E+02
 2.160E+03, 4.269E+02, 4.750E+02, 4.425E+02
 2.175E+03, 4.274E+02, 4.750E+02, 4.427E+02
 2.190E+03, 4.279E+02, 4.750E+02, 4.427E+02
 2.205E+03, 4.282E+02, 4.750E+02, 4.427E+02
 2.220E+03, 4.285E+02, 4.750E+02, 4.427E+02
 2.235E+03, 4.288E+02, 4.750E+02, 4.427E+02
 2.250E+03, 4.292E+02, 4.750E+02, 4.427E+02
 2.265E+03, 4.295E+02, 4.750E+02, 4.427E+02
 2.280E+03, 4.298E+02, 4.750E+02, 4.428E+02
 2.295E+03, 4.301E+02, 4.750E+02, 4.429E+02
 2.310E+03, 4.304E+02, 4.750E+02, 4.430E+02
 2.325E+03, 4.308E+02, 4.750E+02, 4.431E+02
 2.340E+03, 4.311E+02, 4.750E+02, 4.432E+02
 2.355E+03, 4.313E+02, 4.750E+02, 4.432E+02
 2.370E+03, 4.315E+02, 4.750E+02, 4.432E+02
 2.385E+03, 4.317E+02, 4.750E+02, 4.431E+02
 2.400E+03, 4.319E+02, 4.750E+02, 4.432E+02
 2.415E+03, 4.322E+02, 4.750E+02, 4.433E+02
 2.430E+03, 4.325E+02, 4.750E+02, 4.434E+02
 2.445E+03, 4.328E+02, 4.750E+02, 4.435E+02
 2.460E+03, 4.329E+02, 4.750E+02, 4.434E+02
 2.475E+03, 4.331E+02, 4.750E+02, 4.434E+02
 2.490E+03, 4.334E+02, 4.750E+02, 4.435E+02
 2.505E+03, 4.336E+02, 4.750E+02, 4.436E+02
 2.520E+03, 4.338E+02, 4.750E+02, 4.436E+02
 2.535E+03, 4.340E+02, 4.750E+02, 4.436E+02
 2.550E+03, 4.341E+02, 4.750E+02, 4.436E+02
 2.565E+03, 4.342E+02, 4.750E+02, 4.436E+02
 2.580E+03, 4.343E+02, 4.750E+02, 4.434E+02
 2.595E+03, 4.343E+02, 4.750E+02, 4.435E+02
 2.610E+03, 4.345E+02, 4.750E+02, 4.435E+02
 2.625E+03, 4.346E+02, 4.750E+02, 4.435E+02
 2.640E+03, 4.347E+02, 4.750E+02, 4.435E+02
 2.655E+03, 4.348E+02, 4.750E+02, 4.435E+02
 2.670E+03, 4.349E+02, 4.750E+02, 4.436E+02
 2.685E+03, 4.351E+02, 4.750E+02, 4.437E+02
 2.700E+03, 4.353E+02, 4.750E+02, 4.438E+02
 2.715E+03, 4.354E+02, 4.750E+02, 4.437E+02
 2.730E+03, 4.353E+02, 4.750E+02, 4.437E+02
 2.745E+03, 4.355E+02, 4.750E+02, 4.438E+02
 2.760E+03, 4.356E+02, 4.750E+02, 4.439E+02
 2.775E+03, 4.358E+02, 4.750E+02, 4.439E+02
 2.790E+03, 4.359E+02, 4.750E+02, 4.439E+02
 2.805E+03, 4.360E+02, 4.750E+02, 4.439E+02
 2.820E+03, 4.361E+02, 4.750E+02, 4.439E+02
 2.835E+03, 4.362E+02, 4.750E+02, 4.440E+02
 2.850E+03, 4.364E+02, 4.750E+02, 4.439E+02
 2.865E+03, 4.364E+02, 4.750E+02, 4.439E+02
 2.880E+03, 4.364E+02, 4.750E+02, 4.439E+02
 2.895E+03, 4.365E+02, 4.750E+02, 4.440E+02
 2.910E+03, 4.366E+02, 4.750E+02, 4.441E+02
 2.925E+03, 4.367E+02, 4.750E+02, 4.441E+02
 2.940E+03, 4.367E+02, 4.750E+02, 4.440E+02
 2.955E+03, 4.367E+02, 4.750E+02, 4.439E+02
 2.970E+03, 4.367E+02, 4.750E+02, 4.440E+02
 2.985E+03, 4.369E+02, 4.715E+02, 4.441E+02
 3.000E+03, 4.371E+02, 4.646E+02, 4.437E+02
 3.015E+03, 4.372E+02, 4.576E+02, 4.430E+02
 3.030E+03, 4.373E+02, 4.507E+02, 4.418E+02
 3.045E+03, 4.373E+02, 4.438E+02, 4.402E+02
 3.060E+03, 4.371E+02, 4.368E+02, 4.383E+02
 3.075E+03, 4.367E+02, 4.299E+02, 4.362E+02
 3.090E+03, 4.364E+02, 4.230E+02, 4.340E+02
 3.105E+03, 4.360E+02, 4.160E+02, 4.314E+02
 3.120E+03, 4.354E+02, 4.091E+02, 4.286E+02
 3.135E+03, 4.345E+02, 4.021E+02, 4.257E+02
 3.150E+03, 4.336E+02, 3.952E+02, 4.226E+02
 3.165E+03, 4.327E+02, 3.883E+02, 4.194E+02
 3.180E+03, 4.317E+02, 3.813E+02, 4.163E+02
 3.195E+03, 4.307E+02, 3.744E+02, 4.129E+02
 3.210E+03, 4.296E+02, 3.674E+02, 4.095E+02
 3.225E+03, 4.283E+02, 3.605E+02, 4.059E+02
 3.240E+03, 4.267E+02, 3.536E+02, 4.021E+02
 3.255E+03, 4.251E+02, 3.466E+02, 3.985E+02
 3.270E+03, 4.236E+02, 3.397E+02, 3.948E+02
 3.285E+03, 4.220E+02, 3.328E+02, 3.911E+02
 3.300E+03, 4.204E+02, 3.258E+02, 3.874E+02
 3.315E+03, 4.187E+02, 3.189E+02, 3.836E+02
 3.330E+03, 4.169E+02, 3.119E+02, 3.797E+02
 3.345E+03, 4.150E+02, 3.050E+02, 3.758E+02
 3.360E+03, 4.130E+02, 2.981E+02, 3.719E+02
 3.375E+03, 4.111E+02, 2.911E+02, 3.680E+02
 3.390E+03, 4.089E+02, 2.842E+02, 3.640E+02
 3.405E+03, 4.068E+02, 2.773E+02, 3.601E+02
 3.420E+03, 4.048E+02, 2.703E+02, 3.562E+02
 3.435E+03, 4.027E+02, 2.634E+02, 3.524E+02
 3.450E+03, 4.006E+02, 2.565E+02, 3.485E+02
 3.465E+03, 3.984E+02, 2.530E+02, 3.445E+02
 3.480E+03, 3.959E+02, 2.530E+02, 3.407E+02
 3.495E+03, 3.936E+02, 2.530E+02, 3.372E+02
 3.510E+03, 3.913E+02, 2.530E+02, 3.338E+02
 3.525E+03, 3.890E+02, 2.530E+02, 3.306E+02
 3.540E+03, 3.867E+02, 2.530E+02, 3.273E+02
 3.555E+03, 3.842E+02, 2.530E+02, 3.243E+02
 3.570E+03, 3.819E+02, 2.530E+02, 3.214E+02
 3.585E+03, 3.796E+02, 2.530E+02, 3.187E+02
 3.600E+03, 3.773E+02, 2.530E+02, 3.161E+02
