s,C,C
Time,"Cable Temp","Shroud Temp"
 0.000E+00, 2.800E+01, 2.800E+01
 1.503E+01, 2.801E+01, 6.192E+01
 3.004E+01, 2.837E+01, 1.289E+02
 4.500E+01, 2.985E+01, 1.958E+02
 6.000E+01, 3.314E+01, 2.628E+02
 7.504E+01, 3.899E+01, 3.299E+02
 9.003E+01, 4.826E+01, 3.970E+02
 1.050E+02, 6.193E+01, 4.602E+02
 1.200E+02, 8.039E+01, 4.750E+02
 1.350E+02, 1.002E+02, 4.750E+02
 1.500E+02, 1.188E+02, 4.750E+02
 1.650E+02, 1.358E+02, 4.750E+02
 1.800E+02, 1.513E+02, 4.750E+02
 1.950E+02, 1.656E+02, 4.750E+02
 2.100E+02, 1.787E+02, 4.750E+02
 2.250E+02, 1.910E+02, 4.750E+02
 2.400E+02, 2.025E+02, 4.750E+02
 2.550E+02, 2.133E+02, 4.750E+02
 2.700E+02, 2.235E+02, 4.750E+02
 2.850E+02, 2.331E+02, 4.750E+02
 3.000E+02, 2.422E+02, 4.750E+02
 3.150E+02, 2.508E+02, 4.750E+02
 3.300E+02, 2.591E+02, 4.750E+02
 3.450E+02, 2.671E+02, 4.750E+02
 3.600E+02, 2.746E+02, 4.750E+02
 3.750E+02, 2.817E+02, 4.750E+02
 3.900E+02, 2.884E+02, 4.750E+02
 4.050E+02, 2.948E+02, 4.750E+02
 4.200E+02, 3.011E+02, 4.750E+02
 4.350E+02, 3.070E+02, 4.750E+02
 4.500E+02, 3.127E+02, 4.750E+02
 4.650E+02, 3.181E+02, 4.750E+02
 4.800E+02, 3.232E+02, 4.750E+02
 4.950E+02, 3.282E+02, 4.750E+02
 5.100E+02, 3.328E+02, 4.750E+02
 5.250E+02, 3.372E+02, 4.750E+02
 5.400E+02, 3.415E+02, 4.750E+02
 5.550E+02, 3.456E+02, 4.750E+02
 5.700E+02, 3.496E+02, 4.750E+02
 5.850E+02, 3.533E+02, 4.750E+02
 6.000E+02, 3.568E+02, 4.750E+02
 6.150E+02, 3.603E+02, 4.750E+02
 6.300E+02, 3.636E+02, 4.750E+02
 6.450E+02, 3.667E+02, 4.750E+02
 6.600E+02, 3.697E+02, 4.750E+02
 6.750E+02, 3.726E+02, 4.750E+02
 6.900E+02, 3.753E+02, 4.750E+02
 7.050E+02, 3.778E+02, 4.750E+02
 7.200E+02, 3.802E+02, 4.750E+02
 7.350E+02, 3.825E+02, 4.750E+02
 7.500E+02, 3.847E+02, 4.750E+02
 7.650E+02, 3.868E+02, 4.750E+02
 7.800E+02, 3.887E+02, 4.750E+02
 7.950E+02, 3.906E+02, 4.750E+02
 8.100E+02, 3.924E+02, 4.750E+02
 8.250E+02, 3.941E+02, 4.750E+02
 8.400E+02, 3.958E+02, 4.750E+02
 8.550E+02, 3.974E+02, 4.750E+02
 8.700E+02, 3.988E+02, 4.750E+02
 8.850E+02, 4.001E+02, 4.750E+02
 9.000E+02, 4.014E+02, 4.750E+02
 9.150E+02, 4.028E+02, 4.750E+02
 9.300E+02, 4.040E+02, 4.750E+02
 9.450E+02, 4.052E+02, 4.750E+02
 9.600E+02, 4.063E+02, 4.750E+02
 9.750E+02, 4.074E+02, 4.750E+02
 9.900E+02, 4.085E+02, 4.750E+02
 1.005E+03, 4.094E+02, 4.750E+02
 1.020E+03, 4.104E+02, 4.750E+02
 1.035E+03, 4.113E+02, 4.750E+02
 1.050E+03, 4.120E+02, 4.750E+02
 1.065E+03, 4.127E+02, 4.750E+02
 1.080E+03, 4.134E+02, 4.750E+02
 1.095E+03, 4.142E+02, 4.750E+02
 1.110E+03, 4.149E+02, 4.750E+02
 1.125E+03, 4.157E+02, 4.750E+02
 1.140E+03, 4.163E+02, 4.750E+02
 1.155E+03, 4.169E+02, 4.750E+02
 1.170E+03, 4.174E+02, 4.750E+02
 1.185E+03, 4.179E+02, 4.750E+02
 1.200E+03, 4.185E+02, 4.750E+02
 1.215E+03, 4.190E+02, 4.750E+02
 1.230E+03, 4.195E+02, 4.750E+02
 1.245E+03, 4.199E+02, 4.750E+02
 1.260E+03, 4.204E+02, 4.750E+02
 1.275E+03, 4.209E+02, 4.750E+02
 1.290E+03, 4.212E+02, 4.750E+02
 1.305E+03, 4.216E+02, 4.746E+02
 1.320E+03, 4.219E+02, 4.694E+02
 1.335E+03, 4.217E+02, 4.627E+02
 1.350E+03, 4.210E+02, 4.560E+02
 1.365E+03, 4.197E+02, 4.493E+02
 1.380E+03, 4.181E+02, 4.426E+02
 1.395E+03, 4.162E+02, 4.359E+02
 1.410E+03, 4.141E+02, 4.292E+02
 1.425E+03, 4.116E+02, 4.225E+02
 1.440E+03, 4.090E+02, 4.158E+02
 1.455E+03, 4.062E+02, 4.091E+02
 1.470E+03, 4.034E+02, 4.023E+02
 1.485E+03, 4.004E+02, 3.956E+02
 1.500E+03, 3.973E+02, 3.889E+02
 1.515E+03, 3.941E+02, 3.822E+02
 1.530E+03, 3.907E+02, 3.755E+02
 1.545E+03, 3.873E+02, 3.688E+02
 1.560E+03, 3.837E+02, 3.621E+02
 1.575E+03, 3.800E+02, 3.554E+02
 1.590E+03, 3.764E+02, 3.487E+02
 1.605E+03, 3.726E+02, 3.420E+02
 1.620E+03, 3.688E+02, 3.353E+02
 1.635E+03, 3.649E+02, 3.286E+02
 1.650E+03, 3.610E+02, 3.219E+02
 1.665E+03, 3.572E+02, 3.152E+02
 1.680E+03, 3.531E+02, 3.085E+02
 1.695E+03, 3.491E+02, 3.018E+02
 1.710E+03, 3.450E+02, 2.966E+02
 1.725E+03, 3.410E+02, 2.962E+02
 1.740E+03, 3.371E+02, 2.962E+02
 1.755E+03, 3.336E+02, 2.962E+02
 1.770E+03, 3.304E+02, 2.962E+02
 1.785E+03, 3.274E+02, 2.962E+02
 1.800E+03, 3.246E+02, 2.962E+02
