s,C,C
Time,"Cable Temp","Shroud Temp"
 0.000E+00, 2.000E+01, 2.000E+01
 1.503E+01, 2.017E+01, 6.663E+01
 3.003E+01, 2.254E+01, 1.589E+02
 4.501E+01, 2.930E+01, 2.511E+02
 6.002E+01, 4.228E+01, 3.219E+02
 7.502E+01, 5.691E+01, 3.234E+02
 9.001E+01, 6.830E+01, 3.196E+02
 1.050E+02, 7.743E+01, 3.158E+02
 1.200E+02, 8.519E+01, 3.120E+02
 1.350E+02, 9.183E+01, 3.082E+02
 1.500E+02, 9.769E+01, 3.052E+02
 1.650E+02, 1.030E+02, 3.050E+02
 1.800E+02, 1.081E+02, 3.050E+02
 1.950E+02, 1.131E+02, 3.050E+02
 2.100E+02, 1.179E+02, 3.050E+02
 2.250E+02, 1.225E+02, 3.050E+02
 2.400E+02, 1.268E+02, 3.050E+02
 2.550E+02, 1.310E+02, 3.050E+02
 2.700E+02, 1.351E+02, 3.050E+02
 2.850E+02, 1.391E+02, 3.050E+02
 3.000E+02, 1.430E+02, 3.050E+02
 3.150E+02, 1.469E+02, 3.050E+02
 3.300E+02, 1.505E+02, 3.050E+02
 3.450E+02, 1.541E+02, 3.050E+02
 3.600E+02, 1.575E+02, 3.050E+02
 3.750E+02, 1.609E+02, 3.050E+02
 3.900E+02, 1.641E+02, 3.050E+02
 4.050E+02, 1.672E+02, 3.050E+02
 4.200E+02, 1.701E+02, 3.050E+02
 4.350E+02, 1.730E+02, 3.050E+02
 4.500E+02, 1.758E+02, 3.050E+02
 4.650E+02, 1.786E+02, 3.050E+02
 4.800E+02, 1.812E+02, 3.050E+02
 4.950E+02, 1.838E+02, 3.050E+02
 5.100E+02, 1.864E+02, 3.050E+02
 5.250E+02, 1.887E+02, 3.050E+02
 5.400E+02, 1.911E+02, 3.050E+02
 5.550E+02, 1.934E+02, 3.050E+02
 5.700E+02, 1.955E+02, 3.050E+02
 5.850E+02, 1.975E+02, 3.050E+02
 6.000E+02, 1.996E+02, 3.050E+02
 6.150E+02, 2.014E+02, 3.050E+02
 6.300E+02, 2.035E+02, 3.050E+02
 6.450E+02, 2.053E+02, 3.050E+02
 6.600E+02, 2.071E+02, 3.050E+02
 6.750E+02, 2.088E+02, 3.050E+02
 6.900E+02, 2.104E+02, 3.050E+02
 7.050E+02, 2.120E+02, 3.050E+02
 7.200E+02, 2.136E+02, 3.050E+02
 7.350E+02, 2.151E+02, 3.050E+02
 7.500E+02, 2.166E+02, 3.050E+02
 7.650E+02, 2.181E+02, 3.050E+02
 7.800E+02, 2.194E+02, 3.050E+02
 7.950E+02, 2.206E+02, 3.050E+02
 8.100E+02, 2.218E+02, 3.050E+02
 8.250E+02, 2.231E+02, 3.050E+02
 8.400E+02, 2.244E+02, 3.050E+02
 8.550E+02, 2.254E+02, 3.050E+02
 8.700E+02, 2.267E+02, 3.050E+02
 8.850E+02, 2.277E+02, 3.050E+02
 9.000E+02, 2.288E+02, 3.050E+02
 9.150E+02, 2.297E+02, 3.050E+02
 9.300E+02, 2.306E+02, 3.050E+02
 9.450E+02, 2.314E+02, 3.050E+02
 9.600E+02, 2.324E+02, 3.050E+02
 9.750E+02, 2.334E+02, 3.050E+02
 9.900E+02, 2.343E+02, 3.050E+02
 1.005E+03, 2.351E+02, 3.050E+02
 1.020E+03, 2.358E+02, 3.050E+02
 1.035E+03, 2.366E+02, 3.050E+02
 1.050E+03, 2.373E+02, 3.050E+02
 1.065E+03, 2.381E+02, 3.050E+02
 1.080E+03, 2.387E+02, 3.050E+02
 1.095E+03, 2.393E+02, 3.050E+02
 1.110E+03, 2.398E+02, 3.050E+02
 1.125E+03, 2.403E+02, 3.050E+02
 1.140E+03, 2.409E+02, 3.050E+02
 1.155E+03, 2.415E+02, 3.050E+02
 1.170E+03, 2.421E+02, 3.050E+02
 1.185E+03, 2.426E+02, 3.050E+02
 1.200E+03, 2.431E+02, 3.050E+02
 1.215E+03, 2.436E+02, 3.050E+02
 1.230E+03, 2.440E+02, 3.050E+02
 1.245E+03, 2.445E+02, 3.050E+02
 1.260E+03, 2.450E+02, 3.050E+02
 1.275E+03, 2.452E+02, 3.050E+02
 1.290E+03, 2.455E+02, 3.050E+02
 1.305E+03, 2.459E+02, 3.050E+02
 1.320E+03, 2.464E+02, 3.050E+02
 1.335E+03, 2.470E+02, 3.050E+02
 1.350E+03, 2.474E+02, 3.050E+02
 1.365E+03, 2.476E+02, 3.050E+02
 1.380E+03, 2.479E+02, 3.050E+02
 1.395E+03, 2.483E+02, 3.050E+02
 1.410E+03, 2.486E+02, 3.050E+02
 1.425E+03, 2.489E+02, 3.050E+02
 1.440E+03, 2.492E+02, 3.050E+02
 1.455E+03, 2.497E+02, 3.050E+02
 1.470E+03, 2.497E+02, 3.050E+02
 1.485E+03, 2.499E+02, 3.050E+02
 1.500E+03, 2.501E+02, 3.050E+02
 1.515E+03, 2.502E+02, 3.050E+02
 1.530E+03, 2.504E+02, 3.050E+02
 1.545E+03, 2.506E+02, 3.050E+02
 1.560E+03, 2.508E+02, 3.050E+02
 1.575E+03, 2.509E+02, 3.050E+02
 1.590E+03, 2.512E+02, 3.050E+02
 1.605E+03, 2.514E+02, 3.050E+02
 1.620E+03, 2.517E+02, 3.050E+02
 1.635E+03, 2.519E+02, 3.050E+02
 1.650E+03, 2.521E+02, 3.050E+02
 1.665E+03, 2.524E+02, 3.050E+02
 1.680E+03, 2.525E+02, 3.050E+02
 1.695E+03, 2.526E+02, 3.050E+02
 1.710E+03, 2.531E+02, 3.050E+02
 1.725E+03, 2.533E+02, 3.050E+02
 1.740E+03, 2.535E+02, 3.050E+02
 1.755E+03, 2.535E+02, 3.050E+02
 1.770E+03, 2.532E+02, 3.050E+02
 1.785E+03, 2.533E+02, 3.050E+02
 1.800E+03, 2.537E+02, 3.050E+02
 1.815E+03, 2.537E+02, 3.050E+02
 1.830E+03, 2.538E+02, 3.050E+02
 1.845E+03, 2.539E+02, 3.050E+02
 1.860E+03, 2.540E+02, 3.050E+02
 1.875E+03, 2.541E+02, 3.050E+02
 1.890E+03, 2.542E+02, 3.050E+02
 1.905E+03, 2.543E+02, 3.050E+02
 1.920E+03, 2.545E+02, 3.050E+02
 1.935E+03, 2.547E+02, 3.050E+02
 1.950E+03, 2.548E+02, 3.050E+02
 1.965E+03, 2.547E+02, 3.050E+02
 1.980E+03, 2.547E+02, 3.050E+02
 1.995E+03, 2.548E+02, 3.050E+02
 2.010E+03, 2.548E+02, 3.050E+02
 2.025E+03, 2.550E+02, 3.050E+02
 2.040E+03, 2.551E+02, 3.050E+02
 2.055E+03, 2.550E+02, 3.050E+02
 2.070E+03, 2.553E+02, 3.050E+02
 2.085E+03, 2.554E+02, 3.050E+02
 2.100E+03, 2.553E+02, 3.040E+02
 2.115E+03, 2.549E+02, 2.996E+02
 2.130E+03, 2.543E+02, 2.949E+02
 2.145E+03, 2.534E+02, 2.903E+02
 2.160E+03, 2.524E+02, 2.856E+02
 2.175E+03, 2.511E+02, 2.810E+02
 2.190E+03, 2.497E+02, 2.763E+02
 2.205E+03, 2.482E+02, 2.717E+02
 2.220E+03, 2.464E+02, 2.670E+02
 2.235E+03, 2.446E+02, 2.624E+02
 2.250E+03, 2.428E+02, 2.578E+02
 2.265E+03, 2.411E+02, 2.531E+02
 2.280E+03, 2.392E+02, 2.485E+02
 2.295E+03, 2.373E+02, 2.438E+02
 2.310E+03, 2.353E+02, 2.392E+02
 2.325E+03, 2.333E+02, 2.348E+02
 2.340E+03, 2.314E+02, 2.337E+02
 2.355E+03, 2.296E+02, 2.338E+02
 2.370E+03, 2.279E+02, 2.337E+02
 2.385E+03, 2.265E+02, 2.338E+02
 2.400E+03, 2.252E+02, 2.338E+02
