s,C,C
Time,"Cable Temp","Shroud Temp"
 0.000E+00, 2.400E+01, 2.400E+01
 1.502E+01, 2.401E+01, 7.347E+01
 3.006E+01, 2.435E+01, 1.711E+02
 4.505E+01, 2.606E+01, 2.688E+02
 6.002E+01, 3.057E+01, 3.664E+02
 7.501E+01, 3.956E+01, 4.585E+02
 9.001E+01, 5.448E+01, 4.800E+02
 1.050E+02, 7.266E+01, 4.800E+02
 1.200E+02, 9.069E+01, 4.800E+02
 1.350E+02, 1.076E+02, 4.800E+02
 1.500E+02, 1.232E+02, 4.800E+02
 1.650E+02, 1.376E+02, 4.800E+02
 1.800E+02, 1.509E+02, 4.800E+02
 1.950E+02, 1.633E+02, 4.800E+02
 2.100E+02, 1.750E+02, 4.800E+02
 2.250E+02, 1.859E+02, 4.800E+02
 2.400E+02, 1.962E+02, 4.800E+02
 2.550E+02, 2.060E+02, 4.800E+02
 2.700E+02, 2.152E+02, 4.800E+02
 2.850E+02, 2.240E+02, 4.800E+02
 3.000E+02, 2.324E+02, 4.800E+02
 3.150E+02, 2.403E+02, 4.800E+02
 3.300E+02, 2.479E+02, 4.800E+02
 3.450E+02, 2.551E+02, 4.800E+02
 3.600E+02, 2.621E+02, 4.800E+02
 3.750E+02, 2.688E+02, 4.800E+02
 3.900E+02, 2.754E+02, 4.800E+02
 4.050E+02, 2.816E+02, 4.800E+02
 4.200E+02, 2.876E+02, 4.800E+02
 4.350E+02, 2.934E+02, 4.800E+02
 4.500E+02, 2.990E+02, 4.800E+02
 4.650E+02, 3.043E+02, 4.800E+02
 4.800E+02, 3.094E+02, 4.800E+02
 4.950E+02, 3.143E+02, 4.800E+02
 5.100E+02, 3.190E+02, 4.800E+02
 5.250E+02, 3.236E+02, 4.800E+02
 5.400E+02, 3.280E+02, 4.800E+02
 5.550E+02, 3.322E+02, 4.800E+02
 5.700E+02, 3.363E+02, 4.800E+02
 5.850E+02, 3.402E+02, 4.800E+02
 6.000E+02, 3.439E+02, 4.800E+02
 6.150E+02, 3.475E+02, 4.800E+02
 6.300E+02, 3.510E+02, 4.800E+02
 6.450E+02, 3.544E+02, 4.800E+02
 6.600E+02, 3.576E+02, 4.800E+02
 6.750E+02, 3.609E+02, 4.800E+02
 6.900E+02, 3.640E+02, 4.800E+02
 7.050E+02, 3.669E+02, 4.800E+02
 7.200E+02, 3.698E+02, 4.800E+02
 7.350E+02, 3.726E+02, 4.800E+02
 7.500E+02, 3.752E+02, 4.800E+02
 7.650E+02, 3.777E+02, 4.800E+02
 7.800E+02, 3.801E+02, 4.800E+02
 7.950E+02, 3.824E+02, 4.772E+02
 8.100E+02, 3.845E+02, 4.715E+02
 8.250E+02, 3.862E+02, 4.659E+02
 8.400E+02, 3.872E+02, 4.602E+02
 8.550E+02, 3.878E+02, 4.546E+02
 8.700E+02, 3.881E+02, 4.489E+02
 8.850E+02, 3.882E+02, 4.433E+02
 9.000E+02, 3.879E+02, 4.376E+02
 9.150E+02, 3.874E+02, 4.320E+02
 9.300E+02, 3.866E+02, 4.263E+02
 9.450E+02, 3.858E+02, 4.207E+02
 9.600E+02, 3.847E+02, 4.150E+02
 9.750E+02, 3.834E+02, 4.094E+02
 9.900E+02, 3.820E+02, 4.037E+02
 1.005E+03, 3.805E+02, 3.981E+02
 1.020E+03, 3.789E+02, 3.924E+02
 1.035E+03, 3.772E+02, 3.867E+02
 1.050E+03, 3.753E+02, 3.811E+02
 1.065E+03, 3.733E+02, 3.754E+02
 1.080E+03, 3.712E+02, 3.698E+02
 1.095E+03, 3.690E+02, 3.641E+02
 1.110E+03, 3.667E+02, 3.585E+02
 1.125E+03, 3.643E+02, 3.528E+02
 1.140E+03, 3.618E+02, 3.472E+02
 1.155E+03, 3.594E+02, 3.415E+02
 1.170E+03, 3.569E+02, 3.359E+02
 1.185E+03, 3.542E+02, 3.302E+02
 1.200E+03, 3.514E+02, 3.246E+02
 1.215E+03, 3.485E+02, 3.189E+02
 1.230E+03, 3.458E+02, 3.133E+02
 1.245E+03, 3.430E+02, 3.077E+02
 1.260E+03, 3.401E+02, 3.032E+02
 1.275E+03, 3.374E+02, 2.990E+02
 1.290E+03, 3.346E+02, 2.949E+02
 1.305E+03, 3.318E+02, 2.907E+02
 1.320E+03, 3.291E+02, 2.865E+02
 1.335E+03, 3.264E+02, 2.823E+02
 1.350E+03, 3.235E+02, 2.781E+02
 1.365E+03, 3.206E+02, 2.740E+02
 1.380E+03, 3.177E+02, 2.698E+02
 1.395E+03, 3.149E+02, 2.656E+02
 1.410E+03, 3.122E+02, 2.614E+02
 1.425E+03, 3.095E+02, 2.572E+02
 1.440E+03, 3.067E+02, 2.531E+02
 1.455E+03, 3.040E+02, 2.489E+02
 1.470E+03, 3.013E+02, 2.447E+02
 1.485E+03, 2.986E+02, 2.405E+02
 1.500E+03, 2.958E+02, 2.363E+02
 1.515E+03, 2.931E+02, 2.322E+02
 1.530E+03, 2.904E+02, 2.280E+02
 1.545E+03, 2.876E+02, 2.238E+02
 1.560E+03, 2.848E+02, 2.196E+02
 1.575E+03, 2.821E+02, 2.154E+02
 1.590E+03, 2.793E+02, 2.113E+02
 1.605E+03, 2.765E+02, 2.073E+02
 1.620E+03, 2.738E+02, 2.064E+02
 1.635E+03, 2.712E+02, 2.064E+02
 1.650E+03, 2.686E+02, 2.064E+02
 1.665E+03, 2.661E+02, 2.064E+02
 1.680E+03, 2.637E+02, 2.064E+02
 1.695E+03, 2.615E+02, 2.064E+02
 1.710E+03, 2.593E+02, 2.064E+02
 1.725E+03, 2.573E+02, 2.064E+02
 1.740E+03, 2.552E+02, 2.064E+02
 1.755E+03, 2.533E+02, 2.064E+02
 1.770E+03, 2.514E+02, 2.064E+02
 1.785E+03, 2.496E+02, 2.064E+02
 1.800E+03, 2.479E+02, 2.064E+02
