s,C,C
Time,Cable Temp,Shroud Temp
 0.000E+00, 2.800E+01, 2.800E+01
 1.502E+01, 2.820E+01, 6.230E+01
 3.005E+01, 3.032E+01, 1.300E+02
 4.500E+01, 3.526E+01, 1.977E+02
 6.000E+01, 4.386E+01, 2.654E+02
 7.500E+01, 5.690E+01, 3.332E+02
 9.001E+01, 7.605E+01, 4.010E+02
 1.050E+02, 1.025E+02, 4.650E+02
 1.200E+02, 1.306E+02, 4.800E+02
 1.350E+02, 1.523E+02, 4.800E+02
 1.500E+02, 1.703E+02, 4.800E+02
 1.650E+02, 1.861E+02, 4.800E+02
 1.800E+02, 2.003E+02, 4.800E+02
 1.950E+02, 2.130E+02, 4.800E+02
 2.100E+02, 2.248E+02, 4.800E+02
 2.250E+02, 2.359E+02, 4.800E+02
 2.400E+02, 2.463E+02, 4.800E+02
 2.550E+02, 2.559E+02, 4.800E+02
 2.700E+02, 2.651E+02, 4.800E+02
 2.850E+02, 2.738E+02, 4.800E+02
 3.000E+02, 2.820E+02, 4.800E+02
 3.150E+02, 2.899E+02, 4.800E+02
 3.300E+02, 2.972E+02, 4.800E+02
 3.450E+02, 3.043E+02, 4.800E+02
 3.600E+02, 3.109E+02, 4.800E+02
 3.750E+02, 3.173E+02, 4.800E+02
 3.900E+02, 3.233E+02, 4.800E+02
 4.050E+02, 3.288E+02, 4.800E+02
 4.200E+02, 3.343E+02, 4.800E+02
 4.350E+02, 3.396E+02, 4.800E+02
 4.500E+02, 3.442E+02, 4.800E+02
 4.650E+02, 3.487E+02, 4.800E+02
 4.800E+02, 3.528E+02, 4.800E+02
 4.950E+02, 3.570E+02, 4.800E+02
 5.100E+02, 3.609E+02, 4.800E+02
 5.250E+02, 3.646E+02, 4.800E+02
 5.400E+02, 3.680E+02, 4.800E+02
 5.550E+02, 3.715E+02, 4.800E+02
 5.700E+02, 3.743E+02, 4.800E+02
 5.850E+02, 3.768E+02, 4.800E+02
 6.000E+02, 3.795E+02, 4.800E+02
 6.150E+02, 3.820E+02, 4.800E+02
 6.300E+02, 3.847E+02, 4.800E+02
 6.450E+02, 3.868E+02, 4.800E+02
 6.600E+02, 3.889E+02, 4.800E+02
 6.750E+02, 3.910E+02, 4.800E+02
 6.900E+02, 3.928E+02, 4.800E+02
 7.050E+02, 3.946E+02, 4.800E+02
 7.200E+02, 3.968E+02, 4.800E+02
 7.350E+02, 3.985E+02, 4.800E+02
 7.500E+02, 3.998E+02, 4.800E+02
 7.650E+02, 4.013E+02, 4.800E+02
 7.800E+02, 4.027E+02, 4.800E+02
 7.950E+02, 4.032E+02, 4.800E+02
 8.100E+02, 4.044E+02, 4.800E+02
 8.250E+02, 4.061E+02, 4.800E+02
 8.400E+02, 4.070E+02, 4.800E+02
 8.550E+02, 4.079E+02, 4.800E+02
 8.700E+02, 4.091E+02, 4.800E+02
 8.850E+02, 4.097E+02, 4.800E+02
 9.000E+02, 4.108E+02, 4.800E+02
 9.150E+02, 4.123E+02, 4.800E+02
 9.300E+02, 4.132E+02, 4.800E+02
 9.450E+02, 4.143E+02, 4.800E+02
 9.600E+02, 4.148E+02, 4.800E+02
 9.750E+02, 4.152E+02, 4.800E+02
 9.900E+02, 4.159E+02, 4.800E+02
 1.005E+03, 4.161E+02, 4.800E+02
 1.020E+03, 4.169E+02, 4.800E+02
 1.035E+03, 4.172E+02, 4.800E+02
 1.050E+03, 4.176E+02, 4.800E+02
 1.065E+03, 4.179E+02, 4.800E+02
 1.080E+03, 4.182E+02, 4.800E+02
 1.095E+03, 4.184E+02, 4.800E+02
 1.110E+03, 4.189E+02, 4.800E+02
 1.125E+03, 4.197E+02, 4.800E+02
 1.140E+03, 4.199E+02, 4.800E+02
 1.155E+03, 4.207E+02, 4.800E+02
 1.170E+03, 4.211E+02, 4.800E+02
 1.185E+03, 4.209E+02, 4.800E+02
 1.200E+03, 4.213E+02, 4.800E+02
 1.215E+03, 4.216E+02, 4.800E+02
 1.230E+03, 4.218E+02, 4.800E+02
 1.245E+03, 4.222E+02, 4.800E+02
 1.260E+03, 4.222E+02, 4.800E+02
 1.275E+03, 4.222E+02, 4.800E+02
 1.290E+03, 4.228E+02, 4.800E+02
 1.305E+03, 4.231E+02, 4.800E+02
 1.320E+03, 4.231E+02, 4.800E+02
 1.335E+03, 4.230E+02, 4.800E+02
 1.350E+03, 4.228E+02, 4.800E+02
 1.365E+03, 4.236E+02, 4.800E+02
 1.380E+03, 4.237E+02, 4.800E+02
 1.395E+03, 4.238E+02, 4.800E+02
 1.410E+03, 4.238E+02, 4.800E+02
 1.425E+03, 4.240E+02, 4.780E+02
 1.440E+03, 4.227E+02, 4.694E+02
 1.455E+03, 4.203E+02, 4.604E+02
 1.470E+03, 4.170E+02, 4.514E+02
 1.485E+03, 4.135E+02, 4.423E+02
 1.500E+03, 4.095E+02, 4.333E+02
 1.515E+03, 4.051E+02, 4.242E+02
 1.530E+03, 4.005E+02, 4.152E+02
 1.545E+03, 3.958E+02, 4.062E+02
 1.560E+03, 3.913E+02, 3.971E+02
 1.575E+03, 3.868E+02, 3.881E+02
 1.590E+03, 3.824E+02, 3.790E+02
 1.605E+03, 3.773E+02, 3.700E+02
 1.620E+03, 3.721E+02, 3.609E+02
 1.635E+03, 3.672E+02, 3.519E+02
 1.650E+03, 3.621E+02, 3.429E+02
 1.665E+03, 3.570E+02, 3.338E+02
 1.680E+03, 3.513E+02, 3.248E+02
 1.695E+03, 3.461E+02, 3.158E+02
 1.710E+03, 3.412E+02, 3.067E+02
 1.725E+03, 3.359E+02, 2.997E+02
 1.740E+03, 3.314E+02, 2.992E+02
 1.755E+03, 3.274E+02, 2.992E+02
 1.770E+03, 3.237E+02, 2.992E+02
 1.785E+03, 3.204E+02, 2.992E+02
 1.800E+03, 3.177E+02, 2.992E+02
