s,C,C
Time,"Cable Temp","Shroud Temp"
 0.000E+00, 2.400E+01, 2.400E+01
 1.500E+01, 2.402E+01, 7.264E+01
 3.001E+01, 2.459E+01, 1.691E+02
 4.502E+01, 2.693E+01, 2.658E+02
 6.001E+01, 3.251E+01, 3.624E+02
 7.501E+01, 4.324E+01, 4.536E+02
 9.000E+01, 6.049E+01, 4.750E+02
 1.050E+02, 8.017E+01, 4.750E+02
 1.200E+02, 9.880E+01, 4.750E+02
 1.350E+02, 1.159E+02, 4.750E+02
 1.500E+02, 1.314E+02, 4.750E+02
 1.650E+02, 1.456E+02, 4.750E+02
 1.800E+02, 1.589E+02, 4.750E+02
 1.950E+02, 1.711E+02, 4.750E+02
 2.100E+02, 1.826E+02, 4.750E+02
 2.250E+02, 1.933E+02, 4.750E+02
 2.400E+02, 2.034E+02, 4.750E+02
 2.550E+02, 2.130E+02, 4.750E+02
 2.700E+02, 2.221E+02, 4.750E+02
 2.850E+02, 2.308E+02, 4.750E+02
 3.000E+02, 2.391E+02, 4.750E+02
 3.150E+02, 2.470E+02, 4.750E+02
 3.300E+02, 2.544E+02, 4.750E+02
 3.450E+02, 2.615E+02, 4.750E+02
 3.600E+02, 2.683E+02, 4.750E+02
 3.750E+02, 2.748E+02, 4.750E+02
 3.900E+02, 2.810E+02, 4.750E+02
 4.050E+02, 2.870E+02, 4.750E+02
 4.200E+02, 2.927E+02, 4.750E+02
 4.350E+02, 2.982E+02, 4.750E+02
 4.500E+02, 3.034E+02, 4.750E+02
 4.650E+02, 3.083E+02, 4.750E+02
 4.800E+02, 3.131E+02, 4.750E+02
 4.950E+02, 3.177E+02, 4.750E+02
 5.100E+02, 3.221E+02, 4.750E+02
 5.250E+02, 3.263E+02, 4.750E+02
 5.400E+02, 3.302E+02, 4.750E+02
 5.550E+02, 3.341E+02, 4.750E+02
 5.700E+02, 3.378E+02, 4.750E+02
 5.850E+02, 3.412E+02, 4.750E+02
 6.000E+02, 3.444E+02, 4.750E+02
 6.150E+02, 3.475E+02, 4.750E+02
 6.300E+02, 3.506E+02, 4.750E+02
 6.450E+02, 3.535E+02, 4.750E+02
 6.600E+02, 3.563E+02, 4.750E+02
 6.750E+02, 3.590E+02, 4.750E+02
 6.900E+02, 3.616E+02, 4.750E+02
 7.050E+02, 3.640E+02, 4.750E+02
 7.200E+02, 3.662E+02, 4.750E+02
 7.350E+02, 3.684E+02, 4.750E+02
 7.500E+02, 3.705E+02, 4.750E+02
 7.650E+02, 3.725E+02, 4.750E+02
 7.800E+02, 3.743E+02, 4.750E+02
 7.950E+02, 3.762E+02, 4.750E+02
 8.100E+02, 3.779E+02, 4.750E+02
 8.250E+02, 3.796E+02, 4.750E+02
 8.400E+02, 3.811E+02, 4.750E+02
 8.550E+02, 3.826E+02, 4.750E+02
 8.700E+02, 3.839E+02, 4.750E+02
 8.850E+02, 3.852E+02, 4.750E+02
 9.000E+02, 3.865E+02, 4.750E+02
 9.150E+02, 3.878E+02, 4.750E+02
 9.300E+02, 3.891E+02, 4.750E+02
 9.450E+02, 3.902E+02, 4.750E+02
 9.600E+02, 3.913E+02, 4.750E+02
 9.750E+02, 3.923E+02, 4.750E+02
 9.900E+02, 3.933E+02, 4.750E+02
 1.005E+03, 3.943E+02, 4.750E+02
 1.020E+03, 3.951E+02, 4.750E+02
 1.035E+03, 3.960E+02, 4.750E+02
 1.050E+03, 3.968E+02, 4.750E+02
 1.065E+03, 3.975E+02, 4.750E+02
 1.080E+03, 3.983E+02, 4.750E+02
 1.095E+03, 3.989E+02, 4.750E+02
 1.110E+03, 3.996E+02, 4.750E+02
 1.125E+03, 4.002E+02, 4.750E+02
 1.140E+03, 4.008E+02, 4.750E+02
 1.155E+03, 4.013E+02, 4.750E+02
 1.170E+03, 4.018E+02, 4.750E+02
 1.185E+03, 4.022E+02, 4.750E+02
 1.200E+03, 4.027E+02, 4.750E+02
 1.215E+03, 4.032E+02, 4.750E+02
 1.230E+03, 4.036E+02, 4.750E+02
 1.245E+03, 4.041E+02, 4.750E+02
 1.260E+03, 4.046E+02, 4.750E+02
 1.275E+03, 4.050E+02, 4.750E+02
 1.290E+03, 4.053E+02, 4.750E+02
 1.305E+03, 4.056E+02, 4.750E+02
 1.320E+03, 4.059E+02, 4.750E+02
 1.335E+03, 4.064E+02, 4.750E+02
 1.350E+03, 4.067E+02, 4.750E+02
 1.365E+03, 4.070E+02, 4.750E+02
 1.380E+03, 4.073E+02, 4.750E+02
 1.395E+03, 4.076E+02, 4.750E+02
 1.410E+03, 4.079E+02, 4.750E+02
 1.425E+03, 4.081E+02, 4.750E+02
 1.440E+03, 4.084E+02, 4.750E+02
 1.455E+03, 4.086E+02, 4.750E+02
 1.470E+03, 4.088E+02, 4.750E+02
 1.485E+03, 4.090E+02, 4.742E+02
 1.500E+03, 4.090E+02, 4.637E+02
 1.515E+03, 4.083E+02, 4.502E+02
 1.530E+03, 4.065E+02, 4.367E+02
 1.545E+03, 4.038E+02, 4.231E+02
 1.560E+03, 4.004E+02, 4.096E+02
 1.575E+03, 3.965E+02, 3.961E+02
 1.590E+03, 3.923E+02, 3.825E+02
 1.605E+03, 3.877E+02, 3.690E+02
 1.620E+03, 3.827E+02, 3.555E+02
 1.635E+03, 3.776E+02, 3.419E+02
 1.650E+03, 3.722E+02, 3.284E+02
 1.665E+03, 3.667E+02, 3.149E+02
 1.680E+03, 3.612E+02, 3.014E+02
 1.695E+03, 3.556E+02, 2.946E+02
 1.710E+03, 3.501E+02, 2.946E+02
 1.725E+03, 3.451E+02, 2.946E+02
 1.740E+03, 3.405E+02, 2.946E+02
 1.755E+03, 3.362E+02, 2.946E+02
 1.770E+03, 3.322E+02, 2.946E+02
 1.785E+03, 3.285E+02, 2.946E+02
 1.800E+03, 3.250E+02, 2.946E+02
