s,C,C
Time,"Cable Temp","Shroud Temp"
 0.000E+00, 2.000E+01, 2.000E+01
 1.505E+01, 2.017E+01, 6.668E+01
 3.004E+01, 2.243E+01, 1.589E+02
 4.503E+01, 2.910E+01, 2.512E+02
 6.001E+01, 4.203E+01, 3.219E+02
 7.503E+01, 5.677E+01, 3.234E+02
 9.001E+01, 6.811E+01, 3.196E+02
 1.050E+02, 7.744E+01, 3.158E+02
 1.200E+02, 8.524E+01, 3.120E+02
 1.350E+02, 9.204E+01, 3.082E+02
 1.500E+02, 9.794E+01, 3.052E+02
 1.650E+02, 1.034E+02, 3.050E+02
 1.800E+02, 1.085E+02, 3.050E+02
 1.950E+02, 1.136E+02, 3.050E+02
 2.100E+02, 1.183E+02, 3.050E+02
 2.250E+02, 1.229E+02, 3.050E+02
 2.400E+02, 1.274E+02, 3.050E+02
 2.550E+02, 1.317E+02, 3.050E+02
 2.700E+02, 1.359E+02, 3.050E+02
 2.850E+02, 1.400E+02, 3.050E+02
 3.000E+02, 1.437E+02, 3.050E+02
 3.150E+02, 1.475E+02, 3.050E+02
 3.300E+02, 1.512E+02, 3.050E+02
 3.450E+02, 1.547E+02, 3.050E+02
 3.600E+02, 1.582E+02, 3.050E+02
 3.750E+02, 1.616E+02, 3.050E+02
 3.900E+02, 1.649E+02, 3.050E+02
 4.050E+02, 1.681E+02, 3.050E+02
 4.200E+02, 1.711E+02, 3.050E+02
 4.350E+02, 1.740E+02, 3.050E+02
 4.500E+02, 1.770E+02, 3.050E+02
 4.650E+02, 1.798E+02, 3.050E+02
 4.800E+02, 1.824E+02, 3.050E+02
 4.950E+02, 1.850E+02, 3.050E+02
 5.100E+02, 1.876E+02, 3.050E+02
 5.250E+02, 1.901E+02, 3.050E+02
 5.400E+02, 1.924E+02, 3.050E+02
 5.550E+02, 1.947E+02, 3.050E+02
 5.700E+02, 1.969E+02, 3.050E+02
 5.850E+02, 1.990E+02, 3.050E+02
 6.000E+02, 2.012E+02, 3.050E+02
 6.150E+02, 2.030E+02, 3.050E+02
 6.300E+02, 2.050E+02, 3.050E+02
 6.450E+02, 2.069E+02, 3.050E+02
 6.600E+02, 2.088E+02, 3.050E+02
 6.750E+02, 2.108E+02, 3.050E+02
 6.900E+02, 2.124E+02, 3.050E+02
 7.050E+02, 2.141E+02, 3.050E+02
 7.200E+02, 2.155E+02, 3.050E+02
 7.350E+02, 2.171E+02, 3.050E+02
 7.500E+02, 2.187E+02, 3.050E+02
 7.650E+02, 2.200E+02, 3.050E+02
 7.800E+02, 2.214E+02, 3.050E+02
 7.950E+02, 2.228E+02, 3.050E+02
 8.100E+02, 2.242E+02, 3.050E+02
 8.250E+02, 2.253E+02, 3.050E+02
 8.400E+02, 2.265E+02, 3.050E+02
 8.550E+02, 2.276E+02, 3.050E+02
 8.700E+02, 2.289E+02, 3.050E+02
 8.850E+02, 2.302E+02, 3.050E+02
 9.000E+02, 2.314E+02, 3.050E+02
 9.150E+02, 2.324E+02, 3.050E+02
 9.300E+02, 2.332E+02, 3.050E+02
 9.450E+02, 2.340E+02, 3.050E+02
 9.600E+02, 2.350E+02, 3.050E+02
 9.750E+02, 2.361E+02, 3.050E+02
 9.900E+02, 2.372E+02, 3.050E+02
 1.005E+03, 2.381E+02, 3.050E+02
 1.020E+03, 2.388E+02, 3.050E+02
 1.035E+03, 2.395E+02, 3.050E+02
 1.050E+03, 2.400E+02, 3.050E+02
 1.065E+03, 2.408E+02, 3.050E+02
 1.080E+03, 2.415E+02, 3.050E+02
 1.095E+03, 2.425E+02, 3.050E+02
 1.110E+03, 2.433E+02, 3.050E+02
 1.125E+03, 2.437E+02, 3.050E+02
 1.140E+03, 2.443E+02, 3.050E+02
 1.155E+03, 2.451E+02, 3.050E+02
 1.170E+03, 2.455E+02, 3.050E+02
 1.185E+03, 2.462E+02, 3.050E+02
 1.200E+03, 2.468E+02, 3.050E+02
 1.215E+03, 2.473E+02, 3.050E+02
 1.230E+03, 2.475E+02, 3.050E+02
 1.245E+03, 2.482E+02, 3.050E+02
 1.260E+03, 2.489E+02, 3.050E+02
 1.275E+03, 2.494E+02, 3.050E+02
 1.290E+03, 2.498E+02, 3.050E+02
 1.305E+03, 2.500E+02, 3.050E+02
 1.320E+03, 2.504E+02, 3.050E+02
 1.335E+03, 2.507E+02, 3.050E+02
 1.350E+03, 2.510E+02, 3.050E+02
 1.365E+03, 2.515E+02, 3.050E+02
 1.380E+03, 2.519E+02, 3.050E+02
 1.395E+03, 2.521E+02, 3.050E+02
 1.410E+03, 2.524E+02, 3.050E+02
 1.425E+03, 2.527E+02, 3.050E+02
 1.440E+03, 2.530E+02, 3.050E+02
 1.455E+03, 2.534E+02, 3.050E+02
 1.470E+03, 2.537E+02, 3.050E+02
 1.485E+03, 2.539E+02, 3.050E+02
 1.500E+03, 2.539E+02, 3.050E+02
 1.515E+03, 2.540E+02, 3.050E+02
 1.530E+03, 2.541E+02, 3.050E+02
 1.545E+03, 2.543E+02, 3.050E+02
 1.560E+03, 2.545E+02, 3.050E+02
 1.575E+03, 2.546E+02, 3.050E+02
 1.590E+03, 2.551E+02, 3.050E+02
 1.605E+03, 2.552E+02, 3.050E+02
 1.620E+03, 2.552E+02, 3.050E+02
 1.635E+03, 2.552E+02, 3.050E+02
 1.650E+03, 2.553E+02, 3.050E+02
 1.665E+03, 2.555E+02, 3.050E+02
 1.680E+03, 2.558E+02, 3.050E+02
 1.695E+03, 2.561E+02, 3.050E+02
 1.710E+03, 2.563E+02, 3.050E+02
 1.725E+03, 2.565E+02, 3.050E+02
 1.740E+03, 2.569E+02, 3.050E+02
 1.755E+03, 2.569E+02, 3.050E+02
 1.770E+03, 2.571E+02, 3.050E+02
 1.785E+03, 2.572E+02, 3.050E+02
 1.800E+03, 2.572E+02, 3.050E+02
 1.815E+03, 2.573E+02, 3.050E+02
 1.830E+03, 2.572E+02, 3.050E+02
 1.845E+03, 2.575E+02, 3.050E+02
 1.860E+03, 2.576E+02, 3.050E+02
 1.875E+03, 2.579E+02, 3.050E+02
 1.890E+03, 2.583E+02, 3.050E+02
 1.905E+03, 2.583E+02, 3.050E+02
 1.920E+03, 2.584E+02, 3.050E+02
 1.935E+03, 2.585E+02, 3.050E+02
 1.950E+03, 2.585E+02, 3.050E+02
 1.965E+03, 2.589E+02, 3.050E+02
 1.980E+03, 2.588E+02, 3.050E+02
 1.995E+03, 2.588E+02, 3.050E+02
 2.010E+03, 2.588E+02, 3.050E+02
 2.025E+03, 2.587E+02, 3.050E+02
 2.040E+03, 2.589E+02, 3.050E+02
 2.055E+03, 2.589E+02, 3.050E+02
 2.070E+03, 2.593E+02, 3.050E+02
 2.085E+03, 2.592E+02, 3.050E+02
 2.100E+03, 2.592E+02, 3.040E+02
 2.115E+03, 2.592E+02, 2.996E+02
 2.130E+03, 2.586E+02, 2.949E+02
 2.145E+03, 2.576E+02, 2.903E+02
 2.160E+03, 2.564E+02, 2.856E+02
 2.175E+03, 2.551E+02, 2.810E+02
 2.190E+03, 2.536E+02, 2.763E+02
 2.205E+03, 2.520E+02, 2.717E+02
 2.220E+03, 2.505E+02, 2.670E+02
 2.235E+03, 2.493E+02, 2.624E+02
 2.250E+03, 2.474E+02, 2.577E+02
 2.265E+03, 2.454E+02, 2.531E+02
 2.280E+03, 2.437E+02, 2.485E+02
 2.295E+03, 2.416E+02, 2.438E+02
 2.310E+03, 2.397E+02, 2.392E+02
 2.325E+03, 2.377E+02, 2.348E+02
 2.340E+03, 2.356E+02, 2.337E+02
 2.355E+03, 2.337E+02, 2.338E+02
 2.370E+03, 2.318E+02, 2.338E+02
 2.385E+03, 2.304E+02, 2.338E+02
 2.400E+03, 2.291E+02, 2.338E+02
