s,C,C,C
Time,"Cable Temp","Shroud Temp","Conduit"
 0.000E+00, 3.100E+01, 3.100E+01, 3.100E+01
 1.503E+01, 3.100E+01, 6.877E+01, 3.106E+01
 3.003E+01, 3.100E+01, 1.434E+02, 3.165E+01
 4.504E+01, 3.102E+01, 2.181E+02, 3.329E+01
 6.003E+01, 3.107E+01, 2.886E+02, 3.654E+01
 7.502E+01, 3.122E+01, 3.050E+02, 4.108E+01
 9.000E+01, 3.143E+01, 3.050E+02, 4.566E+01
 1.050E+02, 3.167E+01, 3.050E+02, 5.015E+01
 1.200E+02, 3.195E+01, 3.050E+02, 5.456E+01
 1.350E+02, 3.228E+01, 3.050E+02, 5.892E+01
 1.500E+02, 3.263E+01, 3.050E+02, 6.326E+01
 1.650E+02, 3.310E+01, 3.050E+02, 6.751E+01
 1.800E+02, 3.359E+01, 3.050E+02, 7.166E+01
 1.950E+02, 3.419E+01, 3.050E+02, 7.576E+01
 2.100E+02, 3.487E+01, 3.050E+02, 7.982E+01
 2.250E+02, 3.560E+01, 3.050E+02, 8.380E+01
 2.400E+02, 3.624E+01, 3.050E+02, 8.775E+01
 2.550E+02, 3.687E+01, 3.050E+02, 9.163E+01
 2.700E+02, 3.758E+01, 3.050E+02, 9.546E+01
 2.850E+02, 3.833E+01, 3.050E+02, 9.923E+01
 3.000E+02, 3.909E+01, 3.050E+02, 1.029E+02
 3.150E+02, 3.991E+01, 3.050E+02, 1.065E+02
 3.300E+02, 4.092E+01, 3.050E+02, 1.101E+02
 3.450E+02, 4.199E+01, 3.050E+02, 1.135E+02
 3.600E+02, 4.312E+01, 3.050E+02, 1.170E+02
 3.750E+02, 4.427E+01, 3.050E+02, 1.203E+02
 3.900E+02, 4.534E+01, 3.050E+02, 1.236E+02
 4.050E+02, 4.639E+01, 3.050E+02, 1.268E+02
 4.200E+02, 4.751E+01, 3.050E+02, 1.300E+02
 4.350E+02, 4.873E+01, 3.050E+02, 1.331E+02
 4.500E+02, 4.996E+01, 3.050E+02, 1.362E+02
 4.650E+02, 5.123E+01, 3.050E+02, 1.392E+02
 4.800E+02, 5.255E+01, 3.050E+02, 1.422E+02
 4.950E+02, 5.404E+01, 3.050E+02, 1.450E+02
 5.100E+02, 5.550E+01, 3.050E+02, 1.479E+02
 5.250E+02, 5.697E+01, 3.050E+02, 1.506E+02
 5.400E+02, 5.847E+01, 3.050E+02, 1.534E+02
 5.550E+02, 5.998E+01, 3.050E+02, 1.560E+02
 5.700E+02, 6.148E+01, 3.050E+02, 1.587E+02
 5.850E+02, 6.302E+01, 3.050E+02, 1.612E+02
 6.000E+02, 6.458E+01, 3.050E+02, 1.638E+02
 6.150E+02, 6.615E+01, 3.050E+02, 1.663E+02
 6.300E+02, 6.777E+01, 3.050E+02, 1.687E+02
 6.450E+02, 6.946E+01, 3.050E+02, 1.711E+02
 6.600E+02, 7.118E+01, 3.050E+02, 1.735E+02
 6.750E+02, 7.289E+01, 3.050E+02, 1.758E+02
 6.900E+02, 7.460E+01, 3.050E+02, 1.781E+02
 7.050E+02, 7.635E+01, 3.050E+02, 1.803E+02
 7.200E+02, 7.807E+01, 3.050E+02, 1.825E+02
 7.350E+02, 7.989E+01, 3.050E+02, 1.846E+02
 7.500E+02, 8.174E+01, 3.050E+02, 1.867E+02
 7.650E+02, 8.358E+01, 3.050E+02, 1.887E+02
 7.800E+02, 8.541E+01, 3.050E+02, 1.908E+02
 7.950E+02, 8.727E+01, 3.050E+02, 1.927E+02
 8.100E+02, 8.919E+01, 3.050E+02, 1.946E+02
 8.250E+02, 9.110E+01, 3.050E+02, 1.965E+02
 8.400E+02, 9.299E+01, 3.050E+02, 1.984E+02
 8.550E+02, 9.497E+01, 3.050E+02, 2.001E+02
 8.700E+02, 9.699E+01, 3.050E+02, 2.019E+02
 8.850E+02, 9.903E+01, 3.050E+02, 2.035E+02
 9.000E+02, 1.010E+02, 3.050E+02, 2.052E+02
 9.150E+02, 1.030E+02, 3.050E+02, 2.068E+02
 9.300E+02, 1.050E+02, 3.050E+02, 2.085E+02
 9.450E+02, 1.069E+02, 3.050E+02, 2.101E+02
 9.600E+02, 1.089E+02, 3.050E+02, 2.116E+02
 9.750E+02, 1.109E+02, 3.050E+02, 2.131E+02
 9.900E+02, 1.129E+02, 3.050E+02, 2.145E+02
 1.005E+03, 1.149E+02, 3.050E+02, 2.158E+02
 1.020E+03, 1.170E+02, 3.050E+02, 2.172E+02
 1.035E+03, 1.190E+02, 3.050E+02, 2.186E+02
 1.050E+03, 1.209E+02, 3.050E+02, 2.199E+02
 1.065E+03, 1.229E+02, 3.050E+02, 2.212E+02
 1.080E+03, 1.249E+02, 3.050E+02, 2.225E+02
 1.095E+03, 1.269E+02, 3.050E+02, 2.237E+02
 1.110E+03, 1.288E+02, 3.050E+02, 2.249E+02
 1.125E+03, 1.308E+02, 3.050E+02, 2.261E+02
 1.140E+03, 1.327E+02, 3.050E+02, 2.273E+02
 1.155E+03, 1.347E+02, 3.050E+02, 2.284E+02
 1.170E+03, 1.366E+02, 3.050E+02, 2.295E+02
 1.185E+03, 1.385E+02, 3.050E+02, 2.306E+02
 1.200E+03, 1.405E+02, 3.050E+02, 2.316E+02
 1.215E+03, 1.424E+02, 3.050E+02, 2.327E+02
 1.230E+03, 1.444E+02, 3.050E+02, 2.337E+02
 1.245E+03, 1.463E+02, 3.050E+02, 2.345E+02
 1.260E+03, 1.482E+02, 3.050E+02, 2.354E+02
 1.275E+03, 1.501E+02, 3.050E+02, 2.363E+02
 1.290E+03, 1.520E+02, 3.050E+02, 2.372E+02
 1.305E+03, 1.538E+02, 3.050E+02, 2.381E+02
 1.320E+03, 1.557E+02, 3.050E+02, 2.389E+02
 1.335E+03, 1.575E+02, 3.050E+02, 2.396E+02
 1.350E+03, 1.593E+02, 3.050E+02, 2.404E+02
 1.365E+03, 1.611E+02, 3.050E+02, 2.412E+02
 1.380E+03, 1.629E+02, 3.050E+02, 2.420E+02
 1.395E+03, 1.647E+02, 3.050E+02, 2.428E+02
 1.410E+03, 1.665E+02, 3.050E+02, 2.435E+02
 1.425E+03, 1.682E+02, 3.050E+02, 2.442E+02
 1.440E+03, 1.699E+02, 3.050E+02, 2.449E+02
 1.455E+03, 1.716E+02, 3.050E+02, 2.457E+02
 1.470E+03, 1.733E+02, 3.050E+02, 2.463E+02
 1.485E+03, 1.750E+02, 3.050E+02, 2.470E+02
 1.500E+03, 1.766E+02, 3.050E+02, 2.477E+02
 1.515E+03, 1.782E+02, 3.050E+02, 2.483E+02
 1.530E+03, 1.798E+02, 3.050E+02, 2.489E+02
 1.545E+03, 1.814E+02, 3.050E+02, 2.496E+02
 1.560E+03, 1.830E+02, 3.050E+02, 2.502E+02
 1.575E+03, 1.846E+02, 3.050E+02, 2.508E+02
 1.590E+03, 1.861E+02, 3.050E+02, 2.513E+02
 1.605E+03, 1.876E+02, 3.050E+02, 2.519E+02
 1.620E+03, 1.891E+02, 3.050E+02, 2.524E+02
 1.635E+03, 1.906E+02, 3.050E+02, 2.530E+02
 1.650E+03, 1.921E+02, 3.050E+02, 2.535E+02
 1.665E+03, 1.936E+02, 3.050E+02, 2.540E+02
 1.680E+03, 1.950E+02, 3.050E+02, 2.545E+02
 1.695E+03, 1.964E+02, 3.050E+02, 2.550E+02
 1.710E+03, 1.978E+02, 3.050E+02, 2.554E+02
 1.725E+03, 1.992E+02, 3.050E+02, 2.559E+02
 1.740E+03, 2.005E+02, 3.050E+02, 2.563E+02
 1.755E+03, 2.019E+02, 3.050E+02, 2.567E+02
 1.770E+03, 2.032E+02, 3.050E+02, 2.571E+02
 1.785E+03, 2.044E+02, 3.050E+02, 2.573E+02
 1.800E+03, 2.055E+02, 3.050E+02, 2.576E+02
 1.815E+03, 2.067E+02, 3.050E+02, 2.579E+02
 1.830E+03, 2.079E+02, 3.050E+02, 2.583E+02
 1.845E+03, 2.091E+02, 3.050E+02, 2.586E+02
 1.860E+03, 2.103E+02, 3.050E+02, 2.590E+02
 1.875E+03, 2.115E+02, 3.050E+02, 2.593E+02
 1.890E+03, 2.126E+02, 3.049E+02, 2.596E+02
 1.905E+03, 2.137E+02, 3.021E+02, 2.599E+02
 1.920E+03, 2.148E+02, 2.980E+02, 2.600E+02
 1.935E+03, 2.159E+02, 2.939E+02, 2.601E+02
 1.950E+03, 2.169E+02, 2.898E+02, 2.601E+02
 1.965E+03, 2.180E+02, 2.857E+02, 2.599E+02
 1.980E+03, 2.190E+02, 2.816E+02, 2.597E+02
 1.995E+03, 2.200E+02, 2.775E+02, 2.593E+02
 2.010E+03, 2.209E+02, 2.733E+02, 2.588E+02
 2.025E+03, 2.218E+02, 2.692E+02, 2.583E+02
 2.040E+03, 2.226E+02, 2.651E+02, 2.575E+02
 2.055E+03, 2.233E+02, 2.610E+02, 2.567E+02
 2.070E+03, 2.240E+02, 2.569E+02, 2.559E+02
 2.085E+03, 2.247E+02, 2.528E+02, 2.550E+02
 2.100E+03, 2.254E+02, 2.487E+02, 2.541E+02
 2.115E+03, 2.260E+02, 2.446E+02, 2.530E+02
 2.130E+03, 2.266E+02, 2.405E+02, 2.519E+02
 2.145E+03, 2.271E+02, 2.364E+02, 2.508E+02
 2.160E+03, 2.276E+02, 2.322E+02, 2.496E+02
 2.175E+03, 2.280E+02, 2.281E+02, 2.484E+02
 2.190E+03, 2.284E+02, 2.240E+02, 2.471E+02
 2.205E+03, 2.287E+02, 2.199E+02, 2.457E+02
 2.220E+03, 2.290E+02, 2.158E+02, 2.443E+02
 2.235E+03, 2.292E+02, 2.117E+02, 2.429E+02
 2.250E+03, 2.294E+02, 2.076E+02, 2.415E+02
 2.265E+03, 2.296E+02, 2.035E+02, 2.400E+02
 2.280E+03, 2.297E+02, 1.994E+02, 2.385E+02
 2.295E+03, 2.298E+02, 1.953E+02, 2.369E+02
 2.310E+03, 2.298E+02, 1.911E+02, 2.354E+02
 2.325E+03, 2.298E+02, 1.870E+02, 2.338E+02
 2.340E+03, 2.298E+02, 1.829E+02, 2.322E+02
 2.355E+03, 2.297E+02, 1.788E+02, 2.305E+02
 2.370E+03, 2.296E+02, 1.747E+02, 2.289E+02
 2.385E+03, 2.294E+02, 1.706E+02, 2.272E+02
 2.400E+03, 2.291E+02, 1.680E+02, 2.255E+02
 2.415E+03, 2.288E+02, 1.680E+02, 2.238E+02
 2.430E+03, 2.283E+02, 1.680E+02, 2.220E+02
 2.445E+03, 2.278E+02, 1.680E+02, 2.204E+02
 2.460E+03, 2.274E+02, 1.680E+02, 2.189E+02
 2.475E+03, 2.271E+02, 1.680E+02, 2.174E+02
 2.490E+03, 2.268E+02, 1.680E+02, 2.160E+02
 2.505E+03, 2.265E+02, 1.680E+02, 2.146E+02
 2.520E+03, 2.261E+02, 1.680E+02, 2.133E+02
 2.535E+03, 2.257E+02, 1.680E+02, 2.120E+02
 2.550E+03, 2.254E+02, 1.680E+02, 2.107E+02
 2.565E+03, 2.249E+02, 1.680E+02, 2.095E+02
 2.580E+03, 2.244E+02, 1.680E+02, 2.083E+02
 2.595E+03, 2.239E+02, 1.680E+02, 2.071E+02
 2.610E+03, 2.235E+02, 1.680E+02, 2.059E+02
 2.625E+03, 2.230E+02, 1.680E+02, 2.048E+02
 2.640E+03, 2.225E+02, 1.680E+02, 2.038E+02
 2.655E+03, 2.220E+02, 1.680E+02, 2.027E+02
 2.670E+03, 2.215E+02, 1.680E+02, 2.017E+02
 2.685E+03, 2.210E+02, 1.680E+02, 2.007E+02
 2.700E+03, 2.204E+02, 1.680E+02, 1.997E+02
 2.715E+03, 2.198E+02, 1.680E+02, 1.987E+02
 2.730E+03, 2.193E+02, 1.680E+02, 1.978E+02
 2.745E+03, 2.187E+02, 1.680E+02, 1.969E+02
 2.760E+03, 2.182E+02, 1.680E+02, 1.960E+02
 2.775E+03, 2.177E+02, 1.680E+02, 1.951E+02
 2.790E+03, 2.171E+02, 1.680E+02, 1.943E+02
 2.805E+03, 2.166E+02, 1.680E+02, 1.934E+02
 2.820E+03, 2.160E+02, 1.680E+02, 1.926E+02
 2.835E+03, 2.155E+02, 1.680E+02, 1.919E+02
 2.850E+03, 2.149E+02, 1.680E+02, 1.911E+02
 2.865E+03, 2.143E+02, 1.680E+02, 1.903E+02
 2.880E+03, 2.137E+02, 1.680E+02, 1.896E+02
 2.895E+03, 2.131E+02, 1.680E+02, 1.888E+02
 2.910E+03, 2.125E+02, 1.680E+02, 1.881E+02
 2.925E+03, 2.119E+02, 1.680E+02, 1.874E+02
 2.940E+03, 2.114E+02, 1.680E+02, 1.867E+02
 2.955E+03, 2.108E+02, 1.680E+02, 1.861E+02
 2.970E+03, 2.102E+02, 1.680E+02, 1.854E+02
 2.985E+03, 2.097E+02, 1.680E+02, 1.848E+02
 3.000E+03, 2.091E+02, 1.680E+02, 1.842E+02
 3.015E+03, 2.085E+02, 1.680E+02, 1.836E+02
 3.030E+03, 2.080E+02, 1.680E+02, 1.830E+02
 3.045E+03, 2.074E+02, 1.680E+02, 1.823E+02
 3.060E+03, 2.066E+02, 1.680E+02, 1.817E+02
 3.075E+03, 2.060E+02, 1.680E+02, 1.812E+02
 3.090E+03, 2.054E+02, 1.680E+02, 1.806E+02
 3.105E+03, 2.049E+02, 1.680E+02, 1.801E+02
 3.120E+03, 2.043E+02, 1.680E+02, 1.795E+02
 3.135E+03, 2.038E+02, 1.680E+02, 1.790E+02
 3.150E+03, 2.033E+02, 1.680E+02, 1.785E+02
 3.165E+03, 2.027E+02, 1.680E+02, 1.780E+02
 3.180E+03, 2.021E+02, 1.680E+02, 1.775E+02
 3.195E+03, 2.016E+02, 1.680E+02, 1.771E+02
 3.210E+03, 2.011E+02, 1.680E+02, 1.766E+02
 3.225E+03, 2.006E+02, 1.680E+02, 1.762E+02
 3.240E+03, 2.000E+02, 1.680E+02, 1.757E+02
 3.255E+03, 1.995E+02, 1.680E+02, 1.753E+02
 3.270E+03, 1.990E+02, 1.680E+02, 1.749E+02
 3.285E+03, 1.985E+02, 1.680E+02, 1.744E+02
 3.300E+03, 1.979E+02, 1.680E+02, 1.740E+02
 3.315E+03, 1.974E+02, 1.680E+02, 1.736E+02
 3.330E+03, 1.969E+02, 1.680E+02, 1.731E+02
 3.345E+03, 1.964E+02, 1.680E+02, 1.727E+02
 3.360E+03, 1.958E+02, 1.680E+02, 1.723E+02
 3.375E+03, 1.953E+02, 1.680E+02, 1.720E+02
 3.390E+03, 1.948E+02, 1.680E+02, 1.716E+02
 3.405E+03, 1.944E+02, 1.680E+02, 1.712E+02
 3.420E+03, 1.939E+02, 1.680E+02, 1.709E+02
 3.435E+03, 1.934E+02, 1.680E+02, 1.705E+02
 3.450E+03, 1.929E+02, 1.680E+02, 1.702E+02
 3.465E+03, 1.924E+02, 1.680E+02, 1.698E+02
 3.480E+03, 1.920E+02, 1.680E+02, 1.695E+02
 3.495E+03, 1.915E+02, 1.680E+02, 1.692E+02
 3.510E+03, 1.910E+02, 1.680E+02, 1.689E+02
 3.525E+03, 1.906E+02, 1.680E+02, 1.686E+02
 3.540E+03, 1.901E+02, 1.680E+02, 1.682E+02
 3.555E+03, 1.896E+02, 1.680E+02, 1.679E+02
 3.570E+03, 1.892E+02, 1.680E+02, 1.676E+02
 3.585E+03, 1.887E+02, 1.680E+02, 1.673E+02
 3.600E+03, 1.883E+02, 1.680E+02, 1.670E+02
