s,C,C,C
Time,"Cable Temp","Shroud Temp","Conduit"
 0.000E+00, 3.100E+01, 3.100E+01, 3.100E+01
 1.508E+01, 3.100E+01, 6.656E+01, 3.105E+01
 3.006E+01, 3.104E+01, 1.366E+02, 3.163E+01
 4.501E+01, 3.117E+01, 2.065E+02, 3.312E+01
 6.001E+01, 3.139E+01, 2.765E+02, 3.601E+01
 7.502E+01, 3.166E+01, 3.466E+02, 4.089E+01
 9.001E+01, 3.211E+01, 4.167E+02, 4.852E+01
 1.050E+02, 3.277E+01, 4.711E+02, 5.953E+01
 1.200E+02, 3.357E+01, 4.750E+02, 7.189E+01
 1.350E+02, 3.458E+01, 4.750E+02, 8.405E+01
 1.500E+02, 3.580E+01, 4.750E+02, 9.603E+01
 1.650E+02, 3.724E+01, 4.750E+02, 1.078E+02
 1.800E+02, 3.887E+01, 4.750E+02, 1.194E+02
 1.950E+02, 4.064E+01, 4.750E+02, 1.307E+02
 2.100E+02, 4.272E+01, 4.750E+02, 1.417E+02
 2.250E+02, 4.492E+01, 4.750E+02, 1.526E+02
 2.400E+02, 4.740E+01, 4.750E+02, 1.633E+02
 2.550E+02, 5.004E+01, 4.750E+02, 1.737E+02
 2.700E+02, 5.291E+01, 4.750E+02, 1.838E+02
 2.850E+02, 5.597E+01, 4.750E+02, 1.936E+02
 3.000E+02, 5.921E+01, 4.750E+02, 2.032E+02
 3.150E+02, 6.271E+01, 4.750E+02, 2.126E+02
 3.300E+02, 6.639E+01, 4.750E+02, 2.217E+02
 3.450E+02, 7.029E+01, 4.750E+02, 2.306E+02
 3.600E+02, 7.442E+01, 4.750E+02, 2.392E+02
 3.750E+02, 7.873E+01, 4.750E+02, 2.476E+02
 3.900E+02, 8.326E+01, 4.750E+02, 2.557E+02
 4.050E+02, 8.794E+01, 4.750E+02, 2.635E+02
 4.200E+02, 9.282E+01, 4.750E+02, 2.712E+02
 4.350E+02, 9.786E+01, 4.750E+02, 2.785E+02
 4.500E+02, 1.030E+02, 4.750E+02, 2.855E+02
 4.650E+02, 1.085E+02, 4.750E+02, 2.924E+02
 4.800E+02, 1.141E+02, 4.750E+02, 2.990E+02
 4.950E+02, 1.199E+02, 4.750E+02, 3.054E+02
 5.100E+02, 1.257E+02, 4.750E+02, 3.115E+02
 5.250E+02, 1.318E+02, 4.750E+02, 3.174E+02
 5.400E+02, 1.380E+02, 4.750E+02, 3.231E+02
 5.550E+02, 1.443E+02, 4.750E+02, 3.285E+02
 5.700E+02, 1.504E+02, 4.750E+02, 3.335E+02
 5.850E+02, 1.566E+02, 4.750E+02, 3.385E+02
 6.000E+02, 1.631E+02, 4.750E+02, 3.433E+02
 6.150E+02, 1.696E+02, 4.750E+02, 3.478E+02
 6.300E+02, 1.760E+02, 4.750E+02, 3.521E+02
 6.450E+02, 1.823E+02, 4.750E+02, 3.562E+02
 6.600E+02, 1.888E+02, 4.750E+02, 3.602E+02
 6.750E+02, 1.953E+02, 4.750E+02, 3.640E+02
 6.900E+02, 2.017E+02, 4.750E+02, 3.676E+02
 7.050E+02, 2.080E+02, 4.750E+02, 3.710E+02
 7.200E+02, 2.143E+02, 4.750E+02, 3.743E+02
 7.350E+02, 2.207E+02, 4.750E+02, 3.775E+02
 7.500E+02, 2.269E+02, 4.750E+02, 3.805E+02
 7.650E+02, 2.329E+02, 4.750E+02, 3.832E+02
 7.800E+02, 2.388E+02, 4.750E+02, 3.860E+02
 7.950E+02, 2.447E+02, 4.750E+02, 3.885E+02
 8.100E+02, 2.505E+02, 4.750E+02, 3.910E+02
 8.250E+02, 2.563E+02, 4.750E+02, 3.934E+02
 8.400E+02, 2.620E+02, 4.750E+02, 3.957E+02
 8.550E+02, 2.675E+02, 4.750E+02, 3.978E+02
 8.700E+02, 2.729E+02, 4.750E+02, 3.998E+02
 8.850E+02, 2.781E+02, 4.750E+02, 4.018E+02
 9.000E+02, 2.832E+02, 4.750E+02, 4.036E+02
 9.150E+02, 2.883E+02, 4.750E+02, 4.054E+02
 9.300E+02, 2.931E+02, 4.750E+02, 4.070E+02
 9.450E+02, 2.977E+02, 4.750E+02, 4.086E+02
 9.600E+02, 3.025E+02, 4.750E+02, 4.102E+02
 9.750E+02, 3.072E+02, 4.750E+02, 4.117E+02
 9.900E+02, 3.114E+02, 4.750E+02, 4.130E+02
 1.005E+03, 3.157E+02, 4.750E+02, 4.144E+02
 1.020E+03, 3.199E+02, 4.750E+02, 4.155E+02
 1.035E+03, 3.239E+02, 4.750E+02, 4.168E+02
 1.050E+03, 3.280E+02, 4.750E+02, 4.182E+02
 1.065E+03, 3.321E+02, 4.750E+02, 4.193E+02
 1.080E+03, 3.358E+02, 4.750E+02, 4.204E+02
 1.095E+03, 3.396E+02, 4.750E+02, 4.215E+02
 1.110E+03, 3.432E+02, 4.750E+02, 4.225E+02
 1.125E+03, 3.466E+02, 4.750E+02, 4.234E+02
 1.140E+03, 3.498E+02, 4.750E+02, 4.243E+02
 1.155E+03, 3.529E+02, 4.750E+02, 4.251E+02
 1.170E+03, 3.558E+02, 4.750E+02, 4.258E+02
 1.185E+03, 3.584E+02, 4.750E+02, 4.264E+02
 1.200E+03, 3.611E+02, 4.750E+02, 4.271E+02
 1.215E+03, 3.639E+02, 4.750E+02, 4.278E+02
 1.230E+03, 3.666E+02, 4.750E+02, 4.285E+02
 1.245E+03, 3.692E+02, 4.750E+02, 4.291E+02
 1.260E+03, 3.717E+02, 4.750E+02, 4.298E+02
 1.275E+03, 3.740E+02, 4.750E+02, 4.304E+02
 1.290E+03, 3.764E+02, 4.750E+02, 4.309E+02
 1.305E+03, 3.786E+02, 4.750E+02, 4.314E+02
 1.320E+03, 3.806E+02, 4.750E+02, 4.319E+02
 1.335E+03, 3.826E+02, 4.750E+02, 4.324E+02
 1.350E+03, 3.847E+02, 4.750E+02, 4.329E+02
 1.365E+03, 3.866E+02, 4.750E+02, 4.331E+02
 1.380E+03, 3.883E+02, 4.750E+02, 4.335E+02
 1.395E+03, 3.899E+02, 4.750E+02, 4.339E+02
 1.410E+03, 3.918E+02, 4.750E+02, 4.344E+02
 1.425E+03, 3.936E+02, 4.750E+02, 4.348E+02
 1.440E+03, 3.953E+02, 4.750E+02, 4.352E+02
 1.455E+03, 3.970E+02, 4.750E+02, 4.357E+02
 1.470E+03, 3.987E+02, 4.750E+02, 4.361E+02
 1.485E+03, 4.000E+02, 4.750E+02, 4.364E+02
 1.500E+03, 4.015E+02, 4.750E+02, 4.368E+02
 1.515E+03, 4.031E+02, 4.750E+02, 4.372E+02
 1.530E+03, 4.045E+02, 4.750E+02, 4.376E+02
 1.545E+03, 4.059E+02, 4.750E+02, 4.379E+02
 1.560E+03, 4.070E+02, 4.750E+02, 4.382E+02
 1.575E+03, 4.082E+02, 4.750E+02, 4.386E+02
 1.590E+03, 4.094E+02, 4.750E+02, 4.389E+02
 1.605E+03, 4.104E+02, 4.750E+02, 4.391E+02
 1.620E+03, 4.114E+02, 4.750E+02, 4.393E+02
 1.635E+03, 4.123E+02, 4.750E+02, 4.394E+02
 1.650E+03, 4.131E+02, 4.750E+02, 4.395E+02
 1.665E+03, 4.138E+02, 4.750E+02, 4.396E+02
 1.680E+03, 4.148E+02, 4.750E+02, 4.399E+02
 1.695E+03, 4.156E+02, 4.750E+02, 4.400E+02
 1.710E+03, 4.163E+02, 4.750E+02, 4.401E+02
 1.725E+03, 4.169E+02, 4.750E+02, 4.402E+02
 1.740E+03, 4.175E+02, 4.750E+02, 4.403E+02
 1.755E+03, 4.182E+02, 4.750E+02, 4.404E+02
 1.770E+03, 4.191E+02, 4.750E+02, 4.406E+02
 1.785E+03, 4.196E+02, 4.750E+02, 4.407E+02
 1.800E+03, 4.201E+02, 4.750E+02, 4.407E+02
 1.815E+03, 4.206E+02, 4.750E+02, 4.407E+02
 1.830E+03, 4.210E+02, 4.750E+02, 4.408E+02
 1.845E+03, 4.214E+02, 4.750E+02, 4.409E+02
 1.860E+03, 4.217E+02, 4.750E+02, 4.409E+02
 1.875E+03, 4.221E+02, 4.750E+02, 4.409E+02
 1.890E+03, 4.225E+02, 4.750E+02, 4.409E+02
 1.905E+03, 4.231E+02, 4.750E+02, 4.411E+02
 1.920E+03, 4.236E+02, 4.750E+02, 4.411E+02
 1.935E+03, 4.240E+02, 4.750E+02, 4.412E+02
 1.950E+03, 4.243E+02, 4.750E+02, 4.412E+02
 1.965E+03, 4.246E+02, 4.750E+02, 4.412E+02
 1.980E+03, 4.250E+02, 4.750E+02, 4.412E+02
 1.995E+03, 4.251E+02, 4.750E+02, 4.412E+02
 2.010E+03, 4.255E+02, 4.750E+02, 4.414E+02
 2.025E+03, 4.259E+02, 4.750E+02, 4.415E+02
 2.040E+03, 4.263E+02, 4.750E+02, 4.416E+02
 2.055E+03, 4.269E+02, 4.750E+02, 4.419E+02
 2.070E+03, 4.274E+02, 4.750E+02, 4.420E+02
 2.085E+03, 4.277E+02, 4.750E+02, 4.420E+02
 2.100E+03, 4.277E+02, 4.750E+02, 4.420E+02
 2.115E+03, 4.278E+02, 4.750E+02, 4.421E+02
 2.130E+03, 4.282E+02, 4.750E+02, 4.422E+02
 2.145E+03, 4.287E+02, 4.750E+02, 4.424E+02
 2.160E+03, 4.290E+02, 4.750E+02, 4.424E+02
 2.175E+03, 4.292E+02, 4.750E+02, 4.425E+02
 2.190E+03, 4.295E+02, 4.750E+02, 4.427E+02
 2.205E+03, 4.301E+02, 4.750E+02, 4.428E+02
 2.220E+03, 4.302E+02, 4.750E+02, 4.427E+02
 2.235E+03, 4.302E+02, 4.750E+02, 4.427E+02
 2.250E+03, 4.305E+02, 4.750E+02, 4.428E+02
 2.265E+03, 4.306E+02, 4.750E+02, 4.428E+02
 2.280E+03, 4.307E+02, 4.750E+02, 4.429E+02
 2.295E+03, 4.312E+02, 4.750E+02, 4.431E+02
 2.310E+03, 4.316E+02, 4.750E+02, 4.431E+02
 2.325E+03, 4.317E+02, 4.750E+02, 4.431E+02
 2.340E+03, 4.316E+02, 4.750E+02, 4.430E+02
 2.355E+03, 4.317E+02, 4.750E+02, 4.431E+02
 2.370E+03, 4.318E+02, 4.750E+02, 4.431E+02
 2.385E+03, 4.320E+02, 4.750E+02, 4.432E+02
 2.400E+03, 4.322E+02, 4.750E+02, 4.433E+02
 2.415E+03, 4.324E+02, 4.750E+02, 4.433E+02
 2.430E+03, 4.326E+02, 4.750E+02, 4.433E+02
 2.445E+03, 4.328E+02, 4.750E+02, 4.434E+02
 2.460E+03, 4.329E+02, 4.750E+02, 4.435E+02
 2.475E+03, 4.331E+02, 4.750E+02, 4.435E+02
 2.490E+03, 4.331E+02, 4.750E+02, 4.435E+02
 2.505E+03, 4.333E+02, 4.750E+02, 4.436E+02
 2.520E+03, 4.334E+02, 4.750E+02, 4.437E+02
 2.535E+03, 4.338E+02, 4.750E+02, 4.438E+02
 2.550E+03, 4.339E+02, 4.750E+02, 4.438E+02
 2.565E+03, 4.337E+02, 4.750E+02, 4.437E+02
 2.580E+03, 4.336E+02, 4.750E+02, 4.436E+02
 2.595E+03, 4.336E+02, 4.750E+02, 4.435E+02
 2.610E+03, 4.336E+02, 4.750E+02, 4.435E+02
 2.625E+03, 4.336E+02, 4.750E+02, 4.434E+02
 2.640E+03, 4.335E+02, 4.750E+02, 4.434E+02
 2.655E+03, 4.334E+02, 4.750E+02, 4.433E+02
 2.670E+03, 4.334E+02, 4.750E+02, 4.432E+02
 2.685E+03, 4.334E+02, 4.750E+02, 4.432E+02
 2.700E+03, 4.335E+02, 4.750E+02, 4.433E+02
 2.715E+03, 4.336E+02, 4.750E+02, 4.434E+02
 2.730E+03, 4.338E+02, 4.750E+02, 4.435E+02
 2.745E+03, 4.339E+02, 4.750E+02, 4.435E+02
 2.760E+03, 4.339E+02, 4.750E+02, 4.435E+02
 2.775E+03, 4.341E+02, 4.750E+02, 4.436E+02
 2.790E+03, 4.343E+02, 4.750E+02, 4.438E+02
 2.805E+03, 4.343E+02, 4.750E+02, 4.437E+02
 2.820E+03, 4.341E+02, 4.741E+02, 4.435E+02
 2.835E+03, 4.342E+02, 4.701E+02, 4.435E+02
 2.850E+03, 4.345E+02, 4.659E+02, 4.431E+02
 2.865E+03, 4.343E+02, 4.616E+02, 4.423E+02
 2.880E+03, 4.340E+02, 4.574E+02, 4.413E+02
 2.895E+03, 4.337E+02, 4.532E+02, 4.403E+02
 2.910E+03, 4.337E+02, 4.490E+02, 4.391E+02
 2.925E+03, 4.335E+02, 4.448E+02, 4.377E+02
 2.940E+03, 4.332E+02, 4.406E+02, 4.362E+02
 2.955E+03, 4.328E+02, 4.364E+02, 4.345E+02
 2.970E+03, 4.325E+02, 4.321E+02, 4.327E+02
 2.985E+03, 4.317E+02, 4.279E+02, 4.307E+02
 3.000E+03, 4.309E+02, 4.237E+02, 4.287E+02
 3.015E+03, 4.305E+02, 4.195E+02, 4.268E+02
 3.030E+03, 4.301E+02, 4.153E+02, 4.248E+02
 3.045E+03, 4.297E+02, 4.111E+02, 4.227E+02
 3.060E+03, 4.289E+02, 4.068E+02, 4.205E+02
 3.075E+03, 4.280E+02, 4.026E+02, 4.181E+02
 3.090E+03, 4.267E+02, 3.984E+02, 4.155E+02
 3.105E+03, 4.252E+02, 3.942E+02, 4.130E+02
 3.120E+03, 4.240E+02, 3.900E+02, 4.105E+02
 3.135E+03, 4.225E+02, 3.858E+02, 4.077E+02
 3.150E+03, 4.208E+02, 3.816E+02, 4.051E+02
 3.165E+03, 4.196E+02, 3.773E+02, 4.025E+02
 3.180E+03, 4.182E+02, 3.731E+02, 3.998E+02
 3.195E+03, 4.169E+02, 3.689E+02, 3.972E+02
 3.210E+03, 4.158E+02, 3.647E+02, 3.946E+02
 3.225E+03, 4.143E+02, 3.605E+02, 3.918E+02
 3.240E+03, 4.124E+02, 3.563E+02, 3.888E+02
 3.255E+03, 4.104E+02, 3.520E+02, 3.859E+02
 3.270E+03, 4.088E+02, 3.478E+02, 3.832E+02
 3.285E+03, 4.073E+02, 3.436E+02, 3.804E+02
 3.300E+03, 4.054E+02, 3.394E+02, 3.774E+02
 3.315E+03, 4.033E+02, 3.352E+02, 3.744E+02
 3.330E+03, 4.014E+02, 3.310E+02, 3.715E+02
 3.345E+03, 3.993E+02, 3.268E+02, 3.685E+02
 3.360E+03, 3.971E+02, 3.225E+02, 3.655E+02
 3.375E+03, 3.949E+02, 3.183E+02, 3.626E+02
 3.390E+03, 3.931E+02, 3.141E+02, 3.598E+02
 3.405E+03, 3.915E+02, 3.099E+02, 3.571E+02
 3.420E+03, 3.895E+02, 3.057E+02, 3.541E+02
 3.435E+03, 3.870E+02, 3.015E+02, 3.510E+02
 3.450E+03, 3.844E+02, 2.972E+02, 3.480E+02
 3.465E+03, 3.824E+02, 2.930E+02, 3.452E+02
 3.480E+03, 3.807E+02, 2.888E+02, 3.425E+02
 3.495E+03, 3.790E+02, 2.846E+02, 3.397E+02
 3.510E+03, 3.768E+02, 2.804E+02, 3.367E+02
 3.525E+03, 3.744E+02, 2.762E+02, 3.338E+02
 3.540E+03, 3.720E+02, 2.720E+02, 3.309E+02
 3.555E+03, 3.701E+02, 2.677E+02, 3.282E+02
 3.570E+03, 3.683E+02, 2.635E+02, 3.255E+02
 3.585E+03, 3.664E+02, 2.593E+02, 3.228E+02
 3.600E+03, 3.641E+02, 2.551E+02, 3.198E+02
