s,C,C,C
Time,"Cable Temp","Shroud Temp","Conduit"
 0.000E+00, 3.100E+01, 3.100E+01, 3.100E+01
 1.503E+01, 3.100E+01, 7.154E+01, 3.106E+01
 3.000E+01, 3.102E+01, 1.515E+02, 3.171E+01
 4.500E+01, 3.115E+01, 2.316E+02, 3.355E+01
 6.002E+01, 3.125E+01, 3.073E+02, 3.726E+01
 7.502E+01, 3.154E+01, 3.250E+02, 4.244E+01
 9.002E+01, 3.207E+01, 3.250E+02, 4.772E+01
 1.050E+02, 3.255E+01, 3.250E+02, 5.291E+01
 1.200E+02, 3.333E+01, 3.250E+02, 5.801E+01
 1.350E+02, 3.418E+01, 3.250E+02, 6.303E+01
 1.500E+02, 3.505E+01, 3.250E+02, 6.797E+01
 1.650E+02, 3.592E+01, 3.250E+02, 7.285E+01
 1.800E+02, 3.701E+01, 3.250E+02, 7.765E+01
 1.950E+02, 3.809E+01, 3.250E+02, 8.239E+01
 2.100E+02, 3.913E+01, 3.250E+02, 8.705E+01
 2.250E+02, 4.005E+01, 3.250E+02, 9.160E+01
 2.400E+02, 4.131E+01, 3.250E+02, 9.608E+01
 2.550E+02, 4.251E+01, 3.250E+02, 1.005E+02
 2.700E+02, 4.380E+01, 3.250E+02, 1.048E+02
 2.850E+02, 4.520E+01, 3.250E+02, 1.091E+02
 3.000E+02, 4.650E+01, 3.250E+02, 1.132E+02
 3.150E+02, 4.794E+01, 3.250E+02, 1.173E+02
 3.300E+02, 4.933E+01, 3.250E+02, 1.214E+02
 3.450E+02, 5.107E+01, 3.250E+02, 1.254E+02
 3.600E+02, 5.260E+01, 3.250E+02, 1.292E+02
 3.750E+02, 5.422E+01, 3.250E+02, 1.330E+02
 3.900E+02, 5.580E+01, 3.250E+02, 1.368E+02
 4.050E+02, 5.748E+01, 3.250E+02, 1.404E+02
 4.200E+02, 5.929E+01, 3.250E+02, 1.440E+02
 4.350E+02, 6.092E+01, 3.250E+02, 1.475E+02
 4.500E+02, 6.275E+01, 3.250E+02, 1.510E+02
 4.650E+02, 6.470E+01, 3.250E+02, 1.544E+02
 4.800E+02, 6.684E+01, 3.250E+02, 1.577E+02
 4.950E+02, 6.892E+01, 3.250E+02, 1.609E+02
 5.100E+02, 7.096E+01, 3.250E+02, 1.641E+02
 5.250E+02, 7.309E+01, 3.250E+02, 1.673E+02
 5.400E+02, 7.512E+01, 3.250E+02, 1.703E+02
 5.550E+02, 7.734E+01, 3.250E+02, 1.734E+02
 5.700E+02, 7.946E+01, 3.250E+02, 1.763E+02
 5.850E+02, 8.163E+01, 3.250E+02, 1.793E+02
 6.000E+02, 8.387E+01, 3.250E+02, 1.821E+02
 6.150E+02, 8.629E+01, 3.250E+02, 1.849E+02
 6.300E+02, 8.877E+01, 3.250E+02, 1.876E+02
 6.450E+02, 9.128E+01, 3.250E+02, 1.902E+02
 6.600E+02, 9.377E+01, 3.250E+02, 1.928E+02
 6.750E+02, 9.629E+01, 3.250E+02, 1.953E+02
 6.900E+02, 9.863E+01, 3.250E+02, 1.978E+02
 7.050E+02, 1.011E+02, 3.250E+02, 2.003E+02
 7.200E+02, 1.036E+02, 3.250E+02, 2.026E+02
 7.350E+02, 1.061E+02, 3.250E+02, 2.049E+02
 7.500E+02, 1.087E+02, 3.250E+02, 2.072E+02
 7.650E+02, 1.111E+02, 3.250E+02, 2.094E+02
 7.800E+02, 1.137E+02, 3.250E+02, 2.115E+02
 7.950E+02, 1.161E+02, 3.250E+02, 2.136E+02
 8.100E+02, 1.186E+02, 3.250E+02, 2.157E+02
 8.250E+02, 1.214E+02, 3.250E+02, 2.177E+02
 8.400E+02, 1.238E+02, 3.250E+02, 2.197E+02
 8.550E+02, 1.263E+02, 3.250E+02, 2.216E+02
 8.700E+02, 1.288E+02, 3.250E+02, 2.235E+02
 8.850E+02, 1.313E+02, 3.250E+02, 2.254E+02
 9.000E+02, 1.338E+02, 3.250E+02, 2.272E+02
 9.150E+02, 1.364E+02, 3.250E+02, 2.289E+02
 9.300E+02, 1.391E+02, 3.250E+02, 2.306E+02
 9.450E+02, 1.416E+02, 3.250E+02, 2.322E+02
 9.600E+02, 1.442E+02, 3.250E+02, 2.338E+02
 9.750E+02, 1.467E+02, 3.250E+02, 2.353E+02
 9.900E+02, 1.491E+02, 3.250E+02, 2.369E+02
 1.005E+03, 1.516E+02, 3.250E+02, 2.384E+02
 1.020E+03, 1.542E+02, 3.250E+02, 2.398E+02
 1.035E+03, 1.566E+02, 3.250E+02, 2.411E+02
 1.050E+03, 1.590E+02, 3.250E+02, 2.425E+02
 1.065E+03, 1.613E+02, 3.250E+02, 2.439E+02
 1.080E+03, 1.638E+02, 3.250E+02, 2.452E+02
 1.095E+03, 1.662E+02, 3.250E+02, 2.464E+02
 1.110E+03, 1.685E+02, 3.250E+02, 2.476E+02
 1.125E+03, 1.708E+02, 3.250E+02, 2.489E+02
 1.140E+03, 1.731E+02, 3.250E+02, 2.501E+02
 1.155E+03, 1.754E+02, 3.250E+02, 2.513E+02
 1.170E+03, 1.777E+02, 3.250E+02, 2.524E+02
 1.185E+03, 1.800E+02, 3.250E+02, 2.535E+02
 1.200E+03, 1.822E+02, 3.250E+02, 2.546E+02
 1.215E+03, 1.844E+02, 3.250E+02, 2.556E+02
 1.230E+03, 1.865E+02, 3.250E+02, 2.565E+02
 1.245E+03, 1.886E+02, 3.250E+02, 2.574E+02
 1.260E+03, 1.908E+02, 3.250E+02, 2.584E+02
 1.275E+03, 1.929E+02, 3.250E+02, 2.593E+02
 1.290E+03, 1.949E+02, 3.250E+02, 2.603E+02
 1.305E+03, 1.969E+02, 3.250E+02, 2.611E+02
 1.320E+03, 1.989E+02, 3.250E+02, 2.620E+02
 1.335E+03, 2.008E+02, 3.250E+02, 2.629E+02
 1.350E+03, 2.028E+02, 3.250E+02, 2.637E+02
 1.365E+03, 2.047E+02, 3.250E+02, 2.644E+02
 1.380E+03, 2.066E+02, 3.250E+02, 2.652E+02
 1.395E+03, 2.084E+02, 3.250E+02, 2.659E+02
 1.410E+03, 2.102E+02, 3.250E+02, 2.666E+02
 1.425E+03, 2.119E+02, 3.250E+02, 2.673E+02
 1.440E+03, 2.136E+02, 3.250E+02, 2.680E+02
 1.455E+03, 2.152E+02, 3.250E+02, 2.686E+02
 1.470E+03, 2.169E+02, 3.250E+02, 2.692E+02
 1.485E+03, 2.186E+02, 3.250E+02, 2.699E+02
 1.500E+03, 2.202E+02, 3.250E+02, 2.705E+02
 1.515E+03, 2.219E+02, 3.250E+02, 2.711E+02
 1.530E+03, 2.235E+02, 3.250E+02, 2.718E+02
 1.545E+03, 2.250E+02, 3.250E+02, 2.724E+02
 1.560E+03, 2.265E+02, 3.250E+02, 2.729E+02
 1.575E+03, 2.279E+02, 3.250E+02, 2.734E+02
 1.590E+03, 2.294E+02, 3.250E+02, 2.740E+02
 1.605E+03, 2.308E+02, 3.250E+02, 2.745E+02
 1.620E+03, 2.320E+02, 3.250E+02, 2.749E+02
 1.635E+03, 2.335E+02, 3.250E+02, 2.755E+02
 1.650E+03, 2.349E+02, 3.250E+02, 2.760E+02
 1.665E+03, 2.362E+02, 3.250E+02, 2.765E+02
 1.680E+03, 2.375E+02, 3.250E+02, 2.770E+02
 1.695E+03, 2.388E+02, 3.250E+02, 2.775E+02
 1.710E+03, 2.401E+02, 3.250E+02, 2.779E+02
 1.725E+03, 2.413E+02, 3.250E+02, 2.784E+02
 1.740E+03, 2.425E+02, 3.250E+02, 2.789E+02
 1.755E+03, 2.437E+02, 3.250E+02, 2.793E+02
 1.770E+03, 2.449E+02, 3.250E+02, 2.798E+02
 1.785E+03, 2.461E+02, 3.250E+02, 2.802E+02
 1.800E+03, 2.471E+02, 3.250E+02, 2.806E+02
 1.815E+03, 2.482E+02, 3.250E+02, 2.810E+02
 1.830E+03, 2.492E+02, 3.250E+02, 2.813E+02
 1.845E+03, 2.501E+02, 3.250E+02, 2.816E+02
 1.860E+03, 2.512E+02, 3.250E+02, 2.820E+02
 1.875E+03, 2.520E+02, 3.250E+02, 2.822E+02
 1.890E+03, 2.529E+02, 3.250E+02, 2.825E+02
 1.905E+03, 2.540E+02, 3.250E+02, 2.829E+02
 1.920E+03, 2.549E+02, 3.250E+02, 2.832E+02
 1.935E+03, 2.559E+02, 3.250E+02, 2.835E+02
 1.950E+03, 2.565E+02, 3.250E+02, 2.837E+02
 1.965E+03, 2.574E+02, 3.250E+02, 2.840E+02
 1.980E+03, 2.583E+02, 3.250E+02, 2.843E+02
 1.995E+03, 2.591E+02, 3.250E+02, 2.846E+02
 2.010E+03, 2.597E+02, 3.250E+02, 2.848E+02
 2.025E+03, 2.603E+02, 3.250E+02, 2.849E+02
 2.040E+03, 2.612E+02, 3.250E+02, 2.852E+02
 2.055E+03, 2.618E+02, 3.250E+02, 2.854E+02
 2.070E+03, 2.624E+02, 3.250E+02, 2.855E+02
 2.085E+03, 2.632E+02, 3.250E+02, 2.858E+02
 2.100E+03, 2.640E+02, 3.250E+02, 2.860E+02
 2.115E+03, 2.647E+02, 3.250E+02, 2.863E+02
 2.130E+03, 2.654E+02, 3.250E+02, 2.865E+02
 2.145E+03, 2.661E+02, 3.250E+02, 2.868E+02
 2.160E+03, 2.668E+02, 3.250E+02, 2.871E+02
 2.175E+03, 2.673E+02, 3.250E+02, 2.872E+02
 2.190E+03, 2.677E+02, 3.250E+02, 2.873E+02
 2.205E+03, 2.683E+02, 3.250E+02, 2.875E+02
 2.220E+03, 2.685E+02, 3.250E+02, 2.876E+02
 2.235E+03, 2.692E+02, 3.250E+02, 2.878E+02
 2.250E+03, 2.699E+02, 3.250E+02, 2.880E+02
 2.265E+03, 2.704E+02, 3.250E+02, 2.882E+02
 2.280E+03, 2.709E+02, 3.250E+02, 2.884E+02
 2.295E+03, 2.714E+02, 3.250E+02, 2.885E+02
 2.310E+03, 2.719E+02, 3.250E+02, 2.887E+02
 2.325E+03, 2.722E+02, 3.250E+02, 2.888E+02
 2.340E+03, 2.726E+02, 3.250E+02, 2.889E+02
 2.355E+03, 2.731E+02, 3.250E+02, 2.890E+02
 2.370E+03, 2.737E+02, 3.250E+02, 2.892E+02
 2.385E+03, 2.742E+02, 3.250E+02, 2.894E+02
 2.400E+03, 2.747E+02, 3.250E+02, 2.895E+02
 2.415E+03, 2.751E+02, 3.250E+02, 2.897E+02
 2.430E+03, 2.755E+02, 3.250E+02, 2.898E+02
 2.445E+03, 2.759E+02, 3.250E+02, 2.900E+02
 2.460E+03, 2.761E+02, 3.250E+02, 2.900E+02
 2.475E+03, 2.760E+02, 3.250E+02, 2.900E+02
 2.490E+03, 2.764E+02, 3.250E+02, 2.901E+02
 2.505E+03, 2.769E+02, 3.250E+02, 2.903E+02
 2.520E+03, 2.774E+02, 3.250E+02, 2.904E+02
 2.535E+03, 2.778E+02, 3.250E+02, 2.905E+02
 2.550E+03, 2.779E+02, 3.250E+02, 2.905E+02
 2.565E+03, 2.775E+02, 3.250E+02, 2.905E+02
 2.580E+03, 2.776E+02, 3.250E+02, 2.905E+02
 2.595E+03, 2.781E+02, 3.250E+02, 2.906E+02
 2.610E+03, 2.787E+02, 3.250E+02, 2.908E+02
 2.625E+03, 2.792E+02, 3.250E+02, 2.909E+02
 2.640E+03, 2.796E+02, 3.250E+02, 2.911E+02
 2.655E+03, 2.799E+02, 3.250E+02, 2.912E+02
 2.670E+03, 2.802E+02, 3.250E+02, 2.913E+02
 2.685E+03, 2.804E+02, 3.250E+02, 2.914E+02
 2.700E+03, 2.808E+02, 3.250E+02, 2.915E+02
 2.715E+03, 2.809E+02, 3.250E+02, 2.916E+02
 2.730E+03, 2.812E+02, 3.250E+02, 2.917E+02
 2.745E+03, 2.815E+02, 3.250E+02, 2.918E+02
 2.760E+03, 2.816E+02, 3.250E+02, 2.918E+02
 2.775E+03, 2.818E+02, 3.250E+02, 2.919E+02
 2.790E+03, 2.822E+02, 3.250E+02, 2.920E+02
 2.805E+03, 2.824E+02, 3.250E+02, 2.921E+02
 2.820E+03, 2.825E+02, 3.250E+02, 2.922E+02
 2.835E+03, 2.828E+02, 3.250E+02, 2.922E+02
 2.850E+03, 2.829E+02, 3.250E+02, 2.923E+02
 2.865E+03, 2.831E+02, 3.250E+02, 2.924E+02
 2.880E+03, 2.832E+02, 3.250E+02, 2.924E+02
 2.895E+03, 2.833E+02, 3.250E+02, 2.924E+02
 2.910E+03, 2.835E+02, 3.250E+02, 2.925E+02
 2.925E+03, 2.833E+02, 3.250E+02, 2.924E+02
 2.940E+03, 2.832E+02, 3.250E+02, 2.924E+02
 2.955E+03, 2.832E+02, 3.250E+02, 2.923E+02
 2.970E+03, 2.831E+02, 3.250E+02, 2.922E+02
 2.985E+03, 2.833E+02, 3.250E+02, 2.922E+02
 3.000E+03, 2.836E+02, 3.250E+02, 2.923E+02
 3.015E+03, 2.840E+02, 3.250E+02, 2.924E+02
 3.030E+03, 2.842E+02, 3.250E+02, 2.925E+02
 3.045E+03, 2.843E+02, 3.250E+02, 2.925E+02
 3.060E+03, 2.844E+02, 3.250E+02, 2.925E+02
 3.075E+03, 2.847E+02, 3.250E+02, 2.926E+02
 3.090E+03, 2.850E+02, 3.250E+02, 2.927E+02
 3.105E+03, 2.851E+02, 3.250E+02, 2.928E+02
 3.120E+03, 2.854E+02, 3.250E+02, 2.929E+02
 3.135E+03, 2.855E+02, 3.250E+02, 2.930E+02
 3.150E+03, 2.851E+02, 3.250E+02, 2.929E+02
 3.165E+03, 2.850E+02, 3.250E+02, 2.928E+02
 3.180E+03, 2.848E+02, 3.250E+02, 2.927E+02
 3.195E+03, 2.850E+02, 3.250E+02, 2.928E+02
 3.210E+03, 2.853E+02, 3.250E+02, 2.929E+02
 3.225E+03, 2.854E+02, 3.250E+02, 2.929E+02
 3.240E+03, 2.854E+02, 3.250E+02, 2.929E+02
 3.255E+03, 2.856E+02, 3.250E+02, 2.929E+02
 3.270E+03, 2.859E+02, 3.250E+02, 2.930E+02
 3.285E+03, 2.860E+02, 3.250E+02, 2.930E+02
 3.300E+03, 2.861E+02, 3.250E+02, 2.930E+02
 3.315E+03, 2.863E+02, 3.250E+02, 2.931E+02
 3.330E+03, 2.865E+02, 3.250E+02, 2.932E+02
 3.345E+03, 2.864E+02, 3.250E+02, 2.932E+02
 3.360E+03, 2.861E+02, 3.250E+02, 2.931E+02
 3.375E+03, 2.863E+02, 3.139E+02, 2.930E+02
 3.390E+03, 2.862E+02, 2.919E+02, 2.923E+02
 3.405E+03, 2.863E+02, 2.698E+02, 2.909E+02
 3.420E+03, 2.863E+02, 2.478E+02, 2.891E+02
 3.435E+03, 2.861E+02, 2.257E+02, 2.868E+02
 3.450E+03, 2.857E+02, 2.037E+02, 2.840E+02
 3.465E+03, 2.852E+02, 1.828E+02, 2.810E+02
 3.480E+03, 2.836E+02, 1.780E+02, 2.777E+02
 3.495E+03, 2.823E+02, 1.780E+02, 2.745E+02
 3.510E+03, 2.816E+02, 1.780E+02, 2.715E+02
 3.525E+03, 2.806E+02, 1.780E+02, 2.686E+02
 3.540E+03, 2.798E+02, 1.780E+02, 2.659E+02
 3.555E+03, 2.789E+02, 1.780E+02, 2.632E+02
 3.570E+03, 2.775E+02, 1.780E+02, 2.606E+02
 3.585E+03, 2.765E+02, 1.780E+02, 2.582E+02
 3.600E+03, 2.754E+02, 1.780E+02, 2.558E+02
