s,C,C
Time,"Cable Temp","Shroud Temp"
 0.000E+00, 2.400E+01, 2.400E+01
 1.504E+01, 2.401E+01, 5.866E+01
 3.002E+01, 2.429E+01, 1.271E+02
 4.501E+01, 2.543E+01, 1.958E+02
 6.001E+01, 2.800E+01, 2.653E+02
 7.501E+01, 3.266E+01, 3.066E+02
 9.000E+01, 3.911E+01, 3.189E+02
 1.050E+02, 4.622E+01, 3.183E+02
 1.200E+02, 5.313E+01, 3.138E+02
 1.350E+02, 5.943E+01, 3.092E+02
 1.500E+02, 6.510E+01, 3.047E+02
 1.650E+02, 7.018E+01, 3.006E+02
 1.800E+02, 7.480E+01, 3.000E+02
 1.950E+02, 7.913E+01, 3.000E+02
 2.100E+02, 8.331E+01, 3.000E+02
 2.250E+02, 8.734E+01, 3.000E+02
 2.400E+02, 9.127E+01, 3.000E+02
 2.550E+02, 9.511E+01, 3.000E+02
 2.700E+02, 9.884E+01, 3.000E+02
 2.850E+02, 1.025E+02, 3.000E+02
 3.000E+02, 1.060E+02, 3.000E+02
 3.150E+02, 1.095E+02, 3.000E+02
 3.300E+02, 1.128E+02, 3.000E+02
 3.450E+02, 1.160E+02, 3.000E+02
 3.600E+02, 1.193E+02, 3.000E+02
 3.750E+02, 1.225E+02, 3.000E+02
 3.900E+02, 1.255E+02, 3.000E+02
 4.050E+02, 1.285E+02, 3.000E+02
 4.200E+02, 1.315E+02, 3.000E+02
 4.350E+02, 1.344E+02, 3.000E+02
 4.500E+02, 1.371E+02, 3.000E+02
 4.650E+02, 1.399E+02, 3.000E+02
 4.800E+02, 1.426E+02, 3.000E+02
 4.950E+02, 1.453E+02, 3.000E+02
 5.100E+02, 1.480E+02, 3.000E+02
 5.250E+02, 1.505E+02, 3.000E+02
 5.400E+02, 1.530E+02, 3.000E+02
 5.550E+02, 1.554E+02, 3.000E+02
 5.700E+02, 1.577E+02, 3.000E+02
 5.850E+02, 1.600E+02, 3.000E+02
 6.000E+02, 1.622E+02, 3.000E+02
 6.150E+02, 1.644E+02, 3.000E+02
 6.300E+02, 1.667E+02, 3.000E+02
 6.450E+02, 1.687E+02, 3.000E+02
 6.600E+02, 1.707E+02, 3.000E+02
 6.750E+02, 1.726E+02, 3.000E+02
 6.900E+02, 1.746E+02, 3.000E+02
 7.050E+02, 1.764E+02, 3.000E+02
 7.200E+02, 1.783E+02, 3.000E+02
 7.350E+02, 1.801E+02, 3.000E+02
 7.500E+02, 1.818E+02, 3.000E+02
 7.650E+02, 1.835E+02, 3.000E+02
 7.800E+02, 1.853E+02, 3.000E+02
 7.950E+02, 1.870E+02, 3.000E+02
 8.100E+02, 1.887E+02, 3.000E+02
 8.250E+02, 1.903E+02, 3.000E+02
 8.400E+02, 1.919E+02, 3.000E+02
 8.550E+02, 1.934E+02, 3.000E+02
 8.700E+02, 1.949E+02, 3.000E+02
 8.850E+02, 1.964E+02, 3.000E+02
 9.000E+02, 1.978E+02, 3.000E+02
 9.150E+02, 1.991E+02, 3.000E+02
 9.300E+02, 2.005E+02, 3.000E+02
 9.450E+02, 2.018E+02, 3.000E+02
 9.600E+02, 2.031E+02, 3.000E+02
 9.750E+02, 2.044E+02, 3.000E+02
 9.900E+02, 2.055E+02, 3.000E+02
 1.005E+03, 2.066E+02, 3.000E+02
 1.020E+03, 2.076E+02, 3.000E+02
 1.035E+03, 2.086E+02, 3.000E+02
 1.050E+03, 2.098E+02, 3.000E+02
 1.065E+03, 2.108E+02, 3.000E+02
 1.080E+03, 2.119E+02, 3.000E+02
 1.095E+03, 2.128E+02, 3.000E+02
 1.110E+03, 2.137E+02, 3.000E+02
 1.125E+03, 2.146E+02, 3.000E+02
 1.140E+03, 2.155E+02, 3.000E+02
 1.155E+03, 2.165E+02, 3.000E+02
 1.170E+03, 2.174E+02, 3.000E+02
 1.185E+03, 2.183E+02, 3.000E+02
 1.200E+03, 2.192E+02, 3.000E+02
 1.215E+03, 2.200E+02, 3.000E+02
 1.230E+03, 2.208E+02, 3.000E+02
 1.245E+03, 2.216E+02, 3.000E+02
 1.260E+03, 2.224E+02, 3.000E+02
 1.275E+03, 2.231E+02, 3.000E+02
 1.290E+03, 2.239E+02, 3.000E+02
 1.305E+03, 2.246E+02, 3.000E+02
 1.320E+03, 2.252E+02, 3.000E+02
 1.335E+03, 2.257E+02, 3.000E+02
 1.350E+03, 2.263E+02, 3.000E+02
 1.365E+03, 2.269E+02, 3.000E+02
 1.380E+03, 2.275E+02, 3.000E+02
 1.395E+03, 2.281E+02, 3.000E+02
 1.410E+03, 2.286E+02, 3.000E+02
 1.425E+03, 2.291E+02, 3.000E+02
 1.440E+03, 2.296E+02, 3.000E+02
 1.455E+03, 2.302E+02, 3.000E+02
 1.470E+03, 2.307E+02, 3.000E+02
 1.485E+03, 2.313E+02, 3.000E+02
 1.500E+03, 2.318E+02, 2.964E+02
 1.515E+03, 2.322E+02, 2.891E+02
 1.530E+03, 2.323E+02, 2.819E+02
 1.545E+03, 2.320E+02, 2.746E+02
 1.560E+03, 2.314E+02, 2.674E+02
 1.575E+03, 2.307E+02, 2.601E+02
 1.590E+03, 2.299E+02, 2.529E+02
 1.605E+03, 2.289E+02, 2.457E+02
 1.620E+03, 2.277E+02, 2.384E+02
 1.635E+03, 2.265E+02, 2.312E+02
 1.650E+03, 2.251E+02, 2.239E+02
 1.665E+03, 2.235E+02, 2.167E+02
 1.680E+03, 2.219E+02, 2.094E+02
 1.695E+03, 2.202E+02, 2.038E+02
 1.710E+03, 2.184E+02, 2.034E+02
 1.725E+03, 2.168E+02, 2.034E+02
 1.740E+03, 2.152E+02, 2.034E+02
 1.755E+03, 2.138E+02, 2.034E+02
 1.770E+03, 2.124E+02, 2.034E+02
 1.785E+03, 2.110E+02, 2.034E+02
 1.800E+03, 2.098E+02, 2.034E+02
