s,C,C
Time,"Cable Temp","Shroud Temp"
 0.000E+00, 2.400E+01, 2.400E+01
 1.503E+01, 2.401E+01, 7.343E+01
 3.005E+01, 2.438E+01, 1.710E+02
 4.500E+01, 2.616E+01, 2.686E+02
 6.003E+01, 3.074E+01, 3.662E+02
 7.502E+01, 3.979E+01, 4.585E+02
 9.001E+01, 5.480E+01, 4.800E+02
 1.050E+02, 7.303E+01, 4.800E+02
 1.200E+02, 9.116E+01, 4.800E+02
 1.350E+02, 1.081E+02, 4.800E+02
 1.500E+02, 1.238E+02, 4.800E+02
 1.650E+02, 1.382E+02, 4.800E+02
 1.800E+02, 1.516E+02, 4.800E+02
 1.950E+02, 1.640E+02, 4.800E+02
 2.100E+02, 1.756E+02, 4.800E+02
 2.250E+02, 1.866E+02, 4.800E+02
 2.400E+02, 1.969E+02, 4.800E+02
 2.550E+02, 2.066E+02, 4.800E+02
 2.700E+02, 2.158E+02, 4.800E+02
 2.850E+02, 2.246E+02, 4.800E+02
 3.000E+02, 2.330E+02, 4.800E+02
 3.150E+02, 2.409E+02, 4.800E+02
 3.300E+02, 2.485E+02, 4.800E+02
 3.450E+02, 2.558E+02, 4.800E+02
 3.600E+02, 2.629E+02, 4.800E+02
 3.750E+02, 2.696E+02, 4.800E+02
 3.900E+02, 2.761E+02, 4.800E+02
 4.050E+02, 2.823E+02, 4.800E+02
 4.200E+02, 2.883E+02, 4.800E+02
 4.350E+02, 2.940E+02, 4.800E+02
 4.500E+02, 2.996E+02, 4.800E+02
 4.650E+02, 3.050E+02, 4.800E+02
 4.800E+02, 3.102E+02, 4.800E+02
 4.950E+02, 3.151E+02, 4.800E+02
 5.100E+02, 3.199E+02, 4.800E+02
 5.250E+02, 3.246E+02, 4.800E+02
 5.400E+02, 3.290E+02, 4.800E+02
 5.550E+02, 3.332E+02, 4.800E+02
 5.700E+02, 3.373E+02, 4.800E+02
 5.850E+02, 3.413E+02, 4.800E+02
 6.000E+02, 3.450E+02, 4.800E+02
 6.150E+02, 3.486E+02, 4.800E+02
 6.300E+02, 3.521E+02, 4.800E+02
 6.450E+02, 3.554E+02, 4.800E+02
 6.600E+02, 3.586E+02, 4.800E+02
 6.750E+02, 3.618E+02, 4.800E+02
 6.900E+02, 3.648E+02, 4.800E+02
 7.050E+02, 3.677E+02, 4.800E+02
 7.200E+02, 3.704E+02, 4.800E+02
 7.350E+02, 3.731E+02, 4.800E+02
 7.500E+02, 3.756E+02, 4.800E+02
 7.650E+02, 3.781E+02, 4.800E+02
 7.800E+02, 3.805E+02, 4.800E+02
 7.950E+02, 3.829E+02, 4.800E+02
 8.100E+02, 3.852E+02, 4.800E+02
 8.250E+02, 3.873E+02, 4.797E+02
 8.400E+02, 3.893E+02, 4.748E+02
 8.550E+02, 3.910E+02, 4.686E+02
 8.700E+02, 3.923E+02, 4.625E+02
 8.850E+02, 3.930E+02, 4.563E+02
 9.000E+02, 3.933E+02, 4.501E+02
 9.150E+02, 3.931E+02, 4.439E+02
 9.300E+02, 3.927E+02, 4.377E+02
 9.450E+02, 3.920E+02, 4.315E+02
 9.600E+02, 3.910E+02, 4.253E+02
 9.750E+02, 3.899E+02, 4.191E+02
 9.900E+02, 3.885E+02, 4.129E+02
 1.005E+03, 3.871E+02, 4.068E+02
 1.020E+03, 3.854E+02, 4.006E+02
 1.035E+03, 3.836E+02, 3.944E+02
 1.050E+03, 3.817E+02, 3.882E+02
 1.065E+03, 3.795E+02, 3.820E+02
 1.080E+03, 3.772E+02, 3.758E+02
 1.095E+03, 3.750E+02, 3.696E+02
 1.110E+03, 3.727E+02, 3.634E+02
 1.125E+03, 3.702E+02, 3.572E+02
 1.140E+03, 3.676E+02, 3.511E+02
 1.155E+03, 3.651E+02, 3.449E+02
 1.170E+03, 3.624E+02, 3.387E+02
 1.185E+03, 3.596E+02, 3.325E+02
 1.200E+03, 3.567E+02, 3.263E+02
 1.215E+03, 3.539E+02, 3.201E+02
 1.230E+03, 3.510E+02, 3.139E+02
 1.245E+03, 3.480E+02, 3.079E+02
 1.260E+03, 3.449E+02, 3.032E+02
 1.275E+03, 3.419E+02, 2.990E+02
 1.290E+03, 3.389E+02, 2.949E+02
 1.305E+03, 3.358E+02, 2.907E+02
 1.320E+03, 3.328E+02, 2.865E+02
 1.335E+03, 3.300E+02, 2.823E+02
 1.350E+03, 3.272E+02, 2.781E+02
 1.365E+03, 3.242E+02, 2.740E+02
 1.380E+03, 3.212E+02, 2.698E+02
 1.395E+03, 3.184E+02, 2.656E+02
 1.410E+03, 3.157E+02, 2.614E+02
 1.425E+03, 3.130E+02, 2.572E+02
 1.440E+03, 3.102E+02, 2.531E+02
 1.455E+03, 3.074E+02, 2.489E+02
 1.470E+03, 3.044E+02, 2.447E+02
 1.485E+03, 3.015E+02, 2.405E+02
 1.500E+03, 2.986E+02, 2.363E+02
 1.515E+03, 2.958E+02, 2.322E+02
 1.530E+03, 2.931E+02, 2.280E+02
 1.545E+03, 2.902E+02, 2.238E+02
 1.560E+03, 2.874E+02, 2.196E+02
 1.575E+03, 2.847E+02, 2.154E+02
 1.590E+03, 2.821E+02, 2.113E+02
 1.605E+03, 2.795E+02, 2.073E+02
 1.620E+03, 2.767E+02, 2.064E+02
 1.635E+03, 2.740E+02, 2.064E+02
 1.650E+03, 2.714E+02, 2.064E+02
 1.665E+03, 2.689E+02, 2.064E+02
 1.680E+03, 2.665E+02, 2.064E+02
 1.695E+03, 2.643E+02, 2.064E+02
 1.710E+03, 2.622E+02, 2.064E+02
 1.725E+03, 2.600E+02, 2.064E+02
 1.740E+03, 2.578E+02, 2.064E+02
 1.755E+03, 2.558E+02, 2.064E+02
 1.770E+03, 2.539E+02, 2.064E+02
 1.785E+03, 2.519E+02, 2.064E+02
 1.800E+03, 2.500E+02, 2.064E+02
