s,C,C
Time,"Cable Temp","Shroud Temp"
 0.000E+00, 2.400E+01, 2.400E+01
 1.503E+01, 2.402E+01, 7.277E+01
 3.001E+01, 2.457E+01, 1.692E+02
 4.500E+01, 2.686E+01, 2.657E+02
 6.000E+01, 3.239E+01, 3.623E+02
 7.501E+01, 4.314E+01, 4.536E+02
 9.001E+01, 6.044E+01, 4.750E+02
 1.050E+02, 8.019E+01, 4.750E+02
 1.200E+02, 9.891E+01, 4.750E+02
 1.350E+02, 1.160E+02, 4.750E+02
 1.500E+02, 1.317E+02, 4.750E+02
 1.650E+02, 1.461E+02, 4.750E+02
 1.800E+02, 1.595E+02, 4.750E+02
 1.950E+02, 1.719E+02, 4.750E+02
 2.100E+02, 1.835E+02, 4.750E+02
 2.250E+02, 1.943E+02, 4.750E+02
 2.400E+02, 2.047E+02, 4.750E+02
 2.550E+02, 2.147E+02, 4.750E+02
 2.700E+02, 2.241E+02, 4.750E+02
 2.850E+02, 2.330E+02, 4.750E+02
 3.000E+02, 2.415E+02, 4.750E+02
 3.150E+02, 2.496E+02, 4.750E+02
 3.300E+02, 2.571E+02, 4.750E+02
 3.450E+02, 2.645E+02, 4.750E+02
 3.600E+02, 2.715E+02, 4.750E+02
 3.750E+02, 2.782E+02, 4.750E+02
 3.900E+02, 2.847E+02, 4.750E+02
 4.050E+02, 2.908E+02, 4.750E+02
 4.200E+02, 2.967E+02, 4.750E+02
 4.350E+02, 3.023E+02, 4.750E+02
 4.500E+02, 3.076E+02, 4.750E+02
 4.650E+02, 3.128E+02, 4.750E+02
 4.800E+02, 3.178E+02, 4.750E+02
 4.950E+02, 3.226E+02, 4.750E+02
 5.100E+02, 3.272E+02, 4.750E+02
 5.250E+02, 3.316E+02, 4.750E+02
 5.400E+02, 3.359E+02, 4.750E+02
 5.550E+02, 3.399E+02, 4.750E+02
 5.700E+02, 3.437E+02, 4.750E+02
 5.850E+02, 3.472E+02, 4.750E+02
 6.000E+02, 3.506E+02, 4.750E+02
 6.150E+02, 3.537E+02, 4.750E+02
 6.300E+02, 3.568E+02, 4.750E+02
 6.450E+02, 3.597E+02, 4.750E+02
 6.600E+02, 3.625E+02, 4.750E+02
 6.750E+02, 3.653E+02, 4.750E+02
 6.900E+02, 3.678E+02, 4.750E+02
 7.050E+02, 3.704E+02, 4.750E+02
 7.200E+02, 3.728E+02, 4.750E+02
 7.350E+02, 3.749E+02, 4.750E+02
 7.500E+02, 3.771E+02, 4.750E+02
 7.650E+02, 3.790E+02, 4.750E+02
 7.800E+02, 3.807E+02, 4.750E+02
 7.950E+02, 3.823E+02, 4.750E+02
 8.100E+02, 3.842E+02, 4.750E+02
 8.250E+02, 3.861E+02, 4.750E+02
 8.400E+02, 3.879E+02, 4.750E+02
 8.550E+02, 3.896E+02, 4.750E+02
 8.700E+02, 3.912E+02, 4.750E+02
 8.850E+02, 3.927E+02, 4.750E+02
 9.000E+02, 3.941E+02, 4.750E+02
 9.150E+02, 3.952E+02, 4.750E+02
 9.300E+02, 3.963E+02, 4.750E+02
 9.450E+02, 3.973E+02, 4.750E+02
 9.600E+02, 3.982E+02, 4.750E+02
 9.750E+02, 3.993E+02, 4.750E+02
 9.900E+02, 4.003E+02, 4.750E+02
 1.005E+03, 4.012E+02, 4.750E+02
 1.020E+03, 4.020E+02, 4.750E+02
 1.035E+03, 4.028E+02, 4.750E+02
 1.050E+03, 4.037E+02, 4.750E+02
 1.065E+03, 4.045E+02, 4.750E+02
 1.080E+03, 4.053E+02, 4.750E+02
 1.095E+03, 4.061E+02, 4.750E+02
 1.110E+03, 4.067E+02, 4.750E+02
 1.125E+03, 4.071E+02, 4.750E+02
 1.140E+03, 4.077E+02, 4.750E+02
 1.155E+03, 4.082E+02, 4.750E+02
 1.170E+03, 4.088E+02, 4.750E+02
 1.185E+03, 4.094E+02, 4.750E+02
 1.200E+03, 4.099E+02, 4.750E+02
 1.215E+03, 4.105E+02, 4.750E+02
 1.230E+03, 4.108E+02, 4.750E+02
 1.245E+03, 4.112E+02, 4.750E+02
 1.260E+03, 4.118E+02, 4.750E+02
 1.275E+03, 4.124E+02, 4.750E+02
 1.290E+03, 4.129E+02, 4.750E+02
 1.305E+03, 4.132E+02, 4.750E+02
 1.320E+03, 4.134E+02, 4.750E+02
 1.335E+03, 4.138E+02, 4.750E+02
 1.350E+03, 4.142E+02, 4.750E+02
 1.365E+03, 4.146E+02, 4.750E+02
 1.380E+03, 4.150E+02, 4.750E+02
 1.395E+03, 4.153E+02, 4.750E+02
 1.410E+03, 4.155E+02, 4.750E+02
 1.425E+03, 4.157E+02, 4.750E+02
 1.440E+03, 4.158E+02, 4.750E+02
 1.455E+03, 4.160E+02, 4.750E+02
 1.470E+03, 4.163E+02, 4.750E+02
 1.485E+03, 4.167E+02, 4.742E+02
 1.500E+03, 4.168E+02, 4.637E+02
 1.515E+03, 4.160E+02, 4.502E+02
 1.530E+03, 4.142E+02, 4.367E+02
 1.545E+03, 4.114E+02, 4.231E+02
 1.560E+03, 4.082E+02, 4.096E+02
 1.575E+03, 4.044E+02, 3.961E+02
 1.590E+03, 4.002E+02, 3.825E+02
 1.605E+03, 3.955E+02, 3.690E+02
 1.620E+03, 3.906E+02, 3.555E+02
 1.635E+03, 3.855E+02, 3.419E+02
 1.650E+03, 3.803E+02, 3.284E+02
 1.665E+03, 3.750E+02, 3.149E+02
 1.680E+03, 3.698E+02, 3.013E+02
 1.695E+03, 3.642E+02, 2.946E+02
 1.710E+03, 3.588E+02, 2.946E+02
 1.725E+03, 3.539E+02, 2.946E+02
 1.740E+03, 3.494E+02, 2.946E+02
 1.755E+03, 3.451E+02, 2.946E+02
 1.770E+03, 3.412E+02, 2.946E+02
 1.785E+03, 3.375E+02, 2.946E+02
 1.800E+03, 3.341E+02, 2.946E+02
