s,C,C,C
Time,"Cable Temp","Shroud Temp","Conduit"
 0.000E+00, 3.100E+01, 3.100E+01, 3.100E+01
 1.502E+01, 3.101E+01, 7.143E+01, 3.106E+01
 3.002E+01, 3.105E+01, 1.515E+02, 3.165E+01
 4.504E+01, 3.092E+01, 2.318E+02, 3.322E+01
 6.002E+01, 3.106E+01, 3.074E+02, 3.645E+01
 7.501E+01, 3.152E+01, 3.250E+02, 4.101E+01
 9.003E+01, 3.206E+01, 3.250E+02, 4.565E+01
 1.050E+02, 3.269E+01, 3.250E+02, 5.026E+01
 1.200E+02, 3.324E+01, 3.250E+02, 5.482E+01
 1.350E+02, 3.391E+01, 3.250E+02, 5.935E+01
 1.500E+02, 3.459E+01, 3.250E+02, 6.383E+01
 1.650E+02, 3.543E+01, 3.250E+02, 6.828E+01
 1.800E+02, 3.633E+01, 3.250E+02, 7.269E+01
 1.950E+02, 3.748E+01, 3.250E+02, 7.708E+01
 2.100E+02, 3.856E+01, 3.250E+02, 8.142E+01
 2.250E+02, 3.956E+01, 3.250E+02, 8.571E+01
 2.400E+02, 4.092E+01, 3.250E+02, 8.997E+01
 2.550E+02, 4.201E+01, 3.250E+02, 9.417E+01
 2.700E+02, 4.341E+01, 3.250E+02, 9.835E+01
 2.850E+02, 4.493E+01, 3.250E+02, 1.025E+02
 3.000E+02, 4.636E+01, 3.250E+02, 1.065E+02
 3.150E+02, 4.785E+01, 3.250E+02, 1.106E+02
 3.300E+02, 4.941E+01, 3.250E+02, 1.145E+02
 3.450E+02, 5.102E+01, 3.250E+02, 1.185E+02
 3.600E+02, 5.269E+01, 3.250E+02, 1.223E+02
 3.750E+02, 5.427E+01, 3.250E+02, 1.261E+02
 3.900E+02, 5.600E+01, 3.250E+02, 1.299E+02
 4.050E+02, 5.781E+01, 3.250E+02, 1.336E+02
 4.200E+02, 5.964E+01, 3.250E+02, 1.373E+02
 4.350E+02, 6.129E+01, 3.250E+02, 1.409E+02
 4.500E+02, 6.304E+01, 3.250E+02, 1.445E+02
 4.650E+02, 6.486E+01, 3.250E+02, 1.480E+02
 4.800E+02, 6.698E+01, 3.250E+02, 1.514E+02
 4.950E+02, 6.920E+01, 3.250E+02, 1.548E+02
 5.100E+02, 7.128E+01, 3.250E+02, 1.582E+02
 5.250E+02, 7.342E+01, 3.250E+02, 1.615E+02
 5.400E+02, 7.547E+01, 3.250E+02, 1.647E+02
 5.550E+02, 7.755E+01, 3.250E+02, 1.679E+02
 5.700E+02, 7.995E+01, 3.250E+02, 1.710E+02
 5.850E+02, 8.217E+01, 3.250E+02, 1.741E+02
 6.000E+02, 8.440E+01, 3.250E+02, 1.771E+02
 6.150E+02, 8.660E+01, 3.250E+02, 1.800E+02
 6.300E+02, 8.889E+01, 3.250E+02, 1.829E+02
 6.450E+02, 9.105E+01, 3.250E+02, 1.857E+02
 6.600E+02, 9.357E+01, 3.250E+02, 1.885E+02
 6.750E+02, 9.607E+01, 3.250E+02, 1.912E+02
 6.900E+02, 9.839E+01, 3.250E+02, 1.938E+02
 7.050E+02, 1.009E+02, 3.250E+02, 1.964E+02
 7.200E+02, 1.033E+02, 3.250E+02, 1.989E+02
 7.350E+02, 1.058E+02, 3.250E+02, 2.014E+02
 7.500E+02, 1.084E+02, 3.250E+02, 2.038E+02
 7.650E+02, 1.108E+02, 3.250E+02, 2.062E+02
 7.800E+02, 1.135E+02, 3.250E+02, 2.085E+02
 7.950E+02, 1.163E+02, 3.250E+02, 2.108E+02
 8.100E+02, 1.187E+02, 3.250E+02, 2.129E+02
 8.250E+02, 1.210E+02, 3.250E+02, 2.151E+02
 8.400E+02, 1.238E+02, 3.250E+02, 2.172E+02
 8.550E+02, 1.263E+02, 3.250E+02, 2.192E+02
 8.700E+02, 1.292E+02, 3.250E+02, 2.212E+02
 8.850E+02, 1.318E+02, 3.250E+02, 2.232E+02
 9.000E+02, 1.343E+02, 3.250E+02, 2.250E+02
 9.150E+02, 1.366E+02, 3.250E+02, 2.268E+02
 9.300E+02, 1.390E+02, 3.250E+02, 2.286E+02
 9.450E+02, 1.415E+02, 3.250E+02, 2.303E+02
 9.600E+02, 1.441E+02, 3.250E+02, 2.320E+02
 9.750E+02, 1.462E+02, 3.250E+02, 2.336E+02
 9.900E+02, 1.486E+02, 3.250E+02, 2.352E+02
 1.005E+03, 1.508E+02, 3.250E+02, 2.367E+02
 1.020E+03, 1.533E+02, 3.250E+02, 2.382E+02
 1.035E+03, 1.557E+02, 3.250E+02, 2.397E+02
 1.050E+03, 1.579E+02, 3.250E+02, 2.411E+02
 1.065E+03, 1.601E+02, 3.250E+02, 2.425E+02
 1.080E+03, 1.625E+02, 3.250E+02, 2.439E+02
 1.095E+03, 1.653E+02, 3.250E+02, 2.452E+02
 1.110E+03, 1.677E+02, 3.250E+02, 2.465E+02
 1.125E+03, 1.697E+02, 3.250E+02, 2.478E+02
 1.140E+03, 1.718E+02, 3.250E+02, 2.491E+02
 1.155E+03, 1.745E+02, 3.250E+02, 2.503E+02
 1.170E+03, 1.767E+02, 3.250E+02, 2.515E+02
 1.185E+03, 1.793E+02, 3.250E+02, 2.527E+02
 1.200E+03, 1.815E+02, 3.250E+02, 2.538E+02
 1.215E+03, 1.836E+02, 3.250E+02, 2.549E+02
 1.230E+03, 1.860E+02, 3.250E+02, 2.560E+02
 1.245E+03, 1.880E+02, 3.250E+02, 2.570E+02
 1.260E+03, 1.900E+02, 3.250E+02, 2.580E+02
 1.275E+03, 1.920E+02, 3.250E+02, 2.591E+02
 1.290E+03, 1.943E+02, 3.250E+02, 2.601E+02
 1.305E+03, 1.966E+02, 3.250E+02, 2.610E+02
 1.320E+03, 1.983E+02, 3.250E+02, 2.619E+02
 1.335E+03, 2.003E+02, 3.250E+02, 2.628E+02
 1.350E+03, 2.024E+02, 3.250E+02, 2.637E+02
 1.365E+03, 2.041E+02, 3.250E+02, 2.645E+02
 1.380E+03, 2.058E+02, 3.250E+02, 2.653E+02
 1.395E+03, 2.073E+02, 3.250E+02, 2.661E+02
 1.410E+03, 2.087E+02, 3.250E+02, 2.668E+02
 1.425E+03, 2.106E+02, 3.250E+02, 2.676E+02
 1.440E+03, 2.124E+02, 3.250E+02, 2.683E+02
 1.455E+03, 2.141E+02, 3.250E+02, 2.690E+02
 1.470E+03, 2.161E+02, 3.250E+02, 2.698E+02
 1.485E+03, 2.174E+02, 3.250E+02, 2.704E+02
 1.500E+03, 2.192E+02, 3.250E+02, 2.711E+02
 1.515E+03, 2.212E+02, 3.250E+02, 2.718E+02
 1.530E+03, 2.231E+02, 3.250E+02, 2.724E+02
 1.545E+03, 2.243E+02, 3.250E+02, 2.730E+02
 1.560E+03, 2.255E+02, 3.250E+02, 2.736E+02
 1.575E+03, 2.271E+02, 3.250E+02, 2.742E+02
 1.590E+03, 2.291E+02, 3.250E+02, 2.748E+02
 1.605E+03, 2.306E+02, 3.250E+02, 2.754E+02
 1.620E+03, 2.314E+02, 3.250E+02, 2.759E+02
 1.635E+03, 2.327E+02, 3.250E+02, 2.764E+02
 1.650E+03, 2.341E+02, 3.250E+02, 2.769E+02
 1.665E+03, 2.352E+02, 3.250E+02, 2.774E+02
 1.680E+03, 2.361E+02, 3.250E+02, 2.778E+02
 1.695E+03, 2.374E+02, 3.250E+02, 2.783E+02
 1.710E+03, 2.389E+02, 3.250E+02, 2.787E+02
 1.725E+03, 2.405E+02, 3.250E+02, 2.793E+02
 1.740E+03, 2.413E+02, 3.250E+02, 2.797E+02
 1.755E+03, 2.419E+02, 3.250E+02, 2.801E+02
 1.770E+03, 2.428E+02, 3.250E+02, 2.805E+02
 1.785E+03, 2.441E+02, 3.250E+02, 2.809E+02
 1.800E+03, 2.452E+02, 3.250E+02, 2.813E+02
 1.815E+03, 2.468E+02, 3.250E+02, 2.817E+02
 1.830E+03, 2.479E+02, 3.250E+02, 2.821E+02
 1.845E+03, 2.488E+02, 3.250E+02, 2.825E+02
 1.860E+03, 2.492E+02, 3.250E+02, 2.828E+02
 1.875E+03, 2.503E+02, 3.250E+02, 2.832E+02
 1.890E+03, 2.509E+02, 3.250E+02, 2.835E+02
 1.905E+03, 2.521E+02, 3.250E+02, 2.839E+02
 1.920E+03, 2.529E+02, 3.250E+02, 2.841E+02
 1.935E+03, 2.533E+02, 3.250E+02, 2.844E+02
 1.950E+03, 2.543E+02, 3.250E+02, 2.847E+02
 1.965E+03, 2.553E+02, 3.250E+02, 2.849E+02
 1.980E+03, 2.563E+02, 3.250E+02, 2.852E+02
 1.995E+03, 2.571E+02, 3.250E+02, 2.855E+02
 2.010E+03, 2.575E+02, 3.250E+02, 2.857E+02
 2.025E+03, 2.581E+02, 3.250E+02, 2.859E+02
 2.040E+03, 2.587E+02, 3.250E+02, 2.862E+02
 2.055E+03, 2.595E+02, 3.250E+02, 2.864E+02
 2.070E+03, 2.604E+02, 3.250E+02, 2.867E+02
 2.085E+03, 2.617E+02, 3.250E+02, 2.870E+02
 2.100E+03, 2.629E+02, 3.250E+02, 2.874E+02
 2.115E+03, 2.633E+02, 3.250E+02, 2.876E+02
 2.130E+03, 2.631E+02, 3.250E+02, 2.877E+02
 2.145E+03, 2.635E+02, 3.250E+02, 2.879E+02
 2.160E+03, 2.644E+02, 3.250E+02, 2.881E+02
 2.175E+03, 2.655E+02, 3.250E+02, 2.884E+02
 2.190E+03, 2.661E+02, 3.250E+02, 2.886E+02
 2.205E+03, 2.666E+02, 3.250E+02, 2.888E+02
 2.220E+03, 2.664E+02, 3.250E+02, 2.889E+02
 2.235E+03, 2.672E+02, 3.250E+02, 2.891E+02
 2.250E+03, 2.681E+02, 3.250E+02, 2.893E+02
 2.265E+03, 2.685E+02, 3.250E+02, 2.895E+02
 2.280E+03, 2.696E+02, 3.250E+02, 2.897E+02
 2.295E+03, 2.699E+02, 3.250E+02, 2.899E+02
 2.310E+03, 2.702E+02, 3.250E+02, 2.900E+02
 2.325E+03, 2.705E+02, 3.250E+02, 2.901E+02
 2.340E+03, 2.709E+02, 3.250E+02, 2.902E+02
 2.355E+03, 2.711E+02, 3.250E+02, 2.903E+02
 2.370E+03, 2.712E+02, 3.250E+02, 2.904E+02
 2.385E+03, 2.712E+02, 3.250E+02, 2.905E+02
 2.400E+03, 2.718E+02, 3.250E+02, 2.906E+02
 2.415E+03, 2.723E+02, 3.250E+02, 2.908E+02
 2.430E+03, 2.732E+02, 3.250E+02, 2.910E+02
 2.445E+03, 2.738E+02, 3.250E+02, 2.911E+02
 2.460E+03, 2.746E+02, 3.250E+02, 2.913E+02
 2.475E+03, 2.745E+02, 3.250E+02, 2.914E+02
 2.490E+03, 2.746E+02, 3.250E+02, 2.915E+02
 2.505E+03, 2.749E+02, 3.250E+02, 2.916E+02
 2.520E+03, 2.750E+02, 3.250E+02, 2.917E+02
 2.535E+03, 2.752E+02, 3.250E+02, 2.917E+02
 2.550E+03, 2.759E+02, 3.250E+02, 2.919E+02
 2.565E+03, 2.765E+02, 3.250E+02, 2.921E+02
 2.580E+03, 2.767E+02, 3.250E+02, 2.922E+02
 2.595E+03, 2.771E+02, 3.250E+02, 2.923E+02
 2.610E+03, 2.770E+02, 3.250E+02, 2.924E+02
 2.625E+03, 2.773E+02, 3.250E+02, 2.925E+02
 2.640E+03, 2.774E+02, 3.250E+02, 2.925E+02
 2.655E+03, 2.782E+02, 3.250E+02, 2.926E+02
 2.670E+03, 2.788E+02, 3.250E+02, 2.928E+02
 2.685E+03, 2.787E+02, 3.250E+02, 2.928E+02
 2.700E+03, 2.785E+02, 3.250E+02, 2.929E+02
 2.715E+03, 2.787E+02, 3.250E+02, 2.930E+02
 2.730E+03, 2.791E+02, 3.250E+02, 2.931E+02
 2.745E+03, 2.791E+02, 3.250E+02, 2.932E+02
 2.760E+03, 2.797E+02, 3.250E+02, 2.933E+02
 2.775E+03, 2.801E+02, 3.250E+02, 2.934E+02
 2.790E+03, 2.807E+02, 3.250E+02, 2.936E+02
 2.805E+03, 2.811E+02, 3.250E+02, 2.937E+02
 2.820E+03, 2.817E+02, 3.250E+02, 2.939E+02
 2.835E+03, 2.821E+02, 3.250E+02, 2.940E+02
 2.850E+03, 2.816E+02, 3.250E+02, 2.940E+02
 2.865E+03, 2.818E+02, 3.250E+02, 2.941E+02
 2.880E+03, 2.824E+02, 3.250E+02, 2.942E+02
 2.895E+03, 2.824E+02, 3.250E+02, 2.943E+02
 2.910E+03, 2.828E+02, 3.250E+02, 2.944E+02
 2.925E+03, 2.831E+02, 3.250E+02, 2.944E+02
 2.940E+03, 2.827E+02, 3.250E+02, 2.944E+02
 2.955E+03, 2.827E+02, 3.250E+02, 2.945E+02
 2.970E+03, 2.832E+02, 3.250E+02, 2.946E+02
 2.985E+03, 2.834E+02, 3.250E+02, 2.947E+02
 3.000E+03, 2.833E+02, 3.250E+02, 2.947E+02
 3.015E+03, 2.834E+02, 3.250E+02, 2.948E+02
 3.030E+03, 2.829E+02, 3.250E+02, 2.947E+02
 3.045E+03, 2.828E+02, 3.250E+02, 2.947E+02
 3.060E+03, 2.833E+02, 3.250E+02, 2.948E+02
 3.075E+03, 2.841E+02, 3.250E+02, 2.949E+02
 3.090E+03, 2.840E+02, 3.250E+02, 2.949E+02
 3.105E+03, 2.837E+02, 3.250E+02, 2.949E+02
 3.120E+03, 2.838E+02, 3.250E+02, 2.949E+02
 3.135E+03, 2.839E+02, 3.250E+02, 2.949E+02
 3.150E+03, 2.841E+02, 3.250E+02, 2.950E+02
 3.165E+03, 2.841E+02, 3.250E+02, 2.950E+02
 3.180E+03, 2.844E+02, 3.250E+02, 2.950E+02
 3.195E+03, 2.845E+02, 3.250E+02, 2.951E+02
 3.210E+03, 2.847E+02, 3.250E+02, 2.951E+02
 3.225E+03, 2.841E+02, 3.250E+02, 2.950E+02
 3.240E+03, 2.839E+02, 3.250E+02, 2.950E+02
 3.255E+03, 2.844E+02, 3.250E+02, 2.951E+02
 3.270E+03, 2.842E+02, 3.250E+02, 2.950E+02
 3.285E+03, 2.845E+02, 3.250E+02, 2.950E+02
 3.300E+03, 2.845E+02, 3.250E+02, 2.950E+02
 3.315E+03, 2.845E+02, 3.250E+02, 2.950E+02
 3.330E+03, 2.852E+02, 3.250E+02, 2.951E+02
 3.345E+03, 2.854E+02, 3.250E+02, 2.951E+02
 3.360E+03, 2.853E+02, 3.250E+02, 2.952E+02
 3.375E+03, 2.853E+02, 3.139E+02, 2.950E+02
 3.390E+03, 2.851E+02, 2.919E+02, 2.943E+02
 3.405E+03, 2.849E+02, 2.698E+02, 2.929E+02
 3.420E+03, 2.842E+02, 2.477E+02, 2.909E+02
 3.435E+03, 2.841E+02, 2.257E+02, 2.886E+02
 3.450E+03, 2.844E+02, 2.037E+02, 2.860E+02
 3.465E+03, 2.839E+02, 1.829E+02, 2.830E+02
 3.480E+03, 2.834E+02, 1.780E+02, 2.798E+02
 3.495E+03, 2.827E+02, 1.780E+02, 2.768E+02
 3.510E+03, 2.819E+02, 1.780E+02, 2.738E+02
 3.525E+03, 2.810E+02, 1.780E+02, 2.710E+02
 3.540E+03, 2.803E+02, 1.780E+02, 2.683E+02
 3.555E+03, 2.791E+02, 1.780E+02, 2.657E+02
 3.570E+03, 2.779E+02, 1.780E+02, 2.632E+02
 3.585E+03, 2.768E+02, 1.780E+02, 2.607E+02
 3.600E+03, 2.755E+02, 1.780E+02, 2.584E+02
