s,C,C
Time,"Cable Temp","Shroud Temp"
 0.000E+00, 2.400E+01, 2.400E+01
 1.502E+01, 2.418E+01, 6.802E+01
 3.002E+01, 2.624E+01, 1.551E+02
 4.502E+01, 3.190E+01, 2.366E+02
 6.001E+01, 4.203E+01, 3.092E+02
 7.501E+01, 5.587E+01, 3.401E+02
 9.001E+01, 6.923E+01, 3.468E+02
 1.050E+02, 8.035E+01, 3.421E+02
 1.200E+02, 8.941E+01, 3.375E+02
 1.350E+02, 9.700E+01, 3.329E+02
 1.500E+02, 1.035E+02, 3.282E+02
 1.650E+02, 1.092E+02, 3.251E+02
 1.800E+02, 1.146E+02, 3.250E+02
 1.950E+02, 1.197E+02, 3.250E+02
 2.100E+02, 1.245E+02, 3.250E+02
 2.250E+02, 1.293E+02, 3.250E+02
 2.400E+02, 1.340E+02, 3.250E+02
 2.550E+02, 1.385E+02, 3.250E+02
 2.700E+02, 1.429E+02, 3.250E+02
 2.850E+02, 1.469E+02, 3.250E+02
 3.000E+02, 1.512E+02, 3.250E+02
 3.150E+02, 1.552E+02, 3.250E+02
 3.300E+02, 1.591E+02, 3.250E+02
 3.450E+02, 1.626E+02, 3.250E+02
 3.600E+02, 1.661E+02, 3.250E+02
 3.750E+02, 1.695E+02, 3.250E+02
 3.900E+02, 1.727E+02, 3.250E+02
 4.050E+02, 1.760E+02, 3.250E+02
 4.200E+02, 1.793E+02, 3.250E+02
 4.350E+02, 1.822E+02, 3.250E+02
 4.500E+02, 1.852E+02, 3.250E+02
 4.650E+02, 1.881E+02, 3.250E+02
 4.800E+02, 1.909E+02, 3.250E+02
 4.950E+02, 1.936E+02, 3.250E+02
 5.100E+02, 1.962E+02, 3.250E+02
 5.250E+02, 1.988E+02, 3.250E+02
 5.400E+02, 2.013E+02, 3.250E+02
 5.550E+02, 2.038E+02, 3.250E+02
 5.700E+02, 2.059E+02, 3.250E+02
 5.850E+02, 2.080E+02, 3.250E+02
 6.000E+02, 2.099E+02, 3.250E+02
 6.150E+02, 2.123E+02, 3.250E+02
 6.300E+02, 2.148E+02, 3.250E+02
 6.450E+02, 2.167E+02, 3.250E+02
 6.600E+02, 2.184E+02, 3.250E+02
 6.750E+02, 2.202E+02, 3.250E+02
 6.900E+02, 2.221E+02, 3.250E+02
 7.050E+02, 2.240E+02, 3.250E+02
 7.200E+02, 2.258E+02, 3.250E+02
 7.350E+02, 2.274E+02, 3.250E+02
 7.500E+02, 2.288E+02, 3.250E+02
 7.650E+02, 2.305E+02, 3.250E+02
 7.800E+02, 2.320E+02, 3.250E+02
 7.950E+02, 2.333E+02, 3.250E+02
 8.100E+02, 2.347E+02, 3.250E+02
 8.250E+02, 2.361E+02, 3.250E+02
 8.400E+02, 2.375E+02, 3.250E+02
 8.550E+02, 2.389E+02, 3.250E+02
 8.700E+02, 2.400E+02, 3.250E+02
 8.850E+02, 2.409E+02, 3.250E+02
 9.000E+02, 2.419E+02, 3.250E+02
 9.150E+02, 2.429E+02, 3.250E+02
 9.300E+02, 2.437E+02, 3.250E+02
 9.450E+02, 2.448E+02, 3.250E+02
 9.600E+02, 2.459E+02, 3.250E+02
 9.750E+02, 2.470E+02, 3.250E+02
 9.900E+02, 2.476E+02, 3.250E+02
 1.005E+03, 2.485E+02, 3.250E+02
 1.020E+03, 2.495E+02, 3.250E+02
 1.035E+03, 2.502E+02, 3.250E+02
 1.050E+03, 2.511E+02, 3.250E+02
 1.065E+03, 2.520E+02, 3.250E+02
 1.080E+03, 2.526E+02, 3.250E+02
 1.095E+03, 2.531E+02, 3.250E+02
 1.110E+03, 2.536E+02, 3.250E+02
 1.125E+03, 2.544E+02, 3.250E+02
 1.140E+03, 2.549E+02, 3.250E+02
 1.155E+03, 2.556E+02, 3.250E+02
 1.170E+03, 2.562E+02, 3.250E+02
 1.185E+03, 2.568E+02, 3.250E+02
 1.200E+03, 2.571E+02, 3.250E+02
 1.215E+03, 2.575E+02, 3.250E+02
 1.230E+03, 2.577E+02, 3.250E+02
 1.245E+03, 2.581E+02, 3.250E+02
 1.260E+03, 2.589E+02, 3.244E+02
 1.275E+03, 2.590E+02, 3.162E+02
 1.290E+03, 2.580E+02, 3.057E+02
 1.305E+03, 2.569E+02, 2.951E+02
 1.320E+03, 2.552E+02, 2.846E+02
 1.335E+03, 2.526E+02, 2.741E+02
 1.350E+03, 2.501E+02, 2.635E+02
 1.365E+03, 2.471E+02, 2.530E+02
 1.380E+03, 2.441E+02, 2.425E+02
 1.395E+03, 2.411E+02, 2.319E+02
 1.410E+03, 2.379E+02, 2.220E+02
 1.425E+03, 2.347E+02, 2.196E+02
 1.440E+03, 2.321E+02, 2.196E+02
 1.455E+03, 2.297E+02, 2.197E+02
 1.470E+03, 2.280E+02, 2.197E+02
 1.485E+03, 2.261E+02, 2.196E+02
 1.500E+03, 2.245E+02, 2.196E+02
