s,C,C
Time,"Cable Temp","Shroud Temp"
 0.000E+00, 2.000E+01, 2.000E+01
 1.501E+01, 2.015E+01, 6.657E+01
 3.000E+01, 2.230E+01, 1.587E+02
 4.503E+01, 2.895E+01, 2.511E+02
 6.003E+01, 4.185E+01, 3.219E+02
 7.500E+01, 5.655E+01, 3.234E+02
 9.001E+01, 6.782E+01, 3.196E+02
 1.050E+02, 7.708E+01, 3.158E+02
 1.200E+02, 8.495E+01, 3.120E+02
 1.350E+02, 9.166E+01, 3.082E+02
 1.500E+02, 9.745E+01, 3.052E+02
 1.650E+02, 1.028E+02, 3.050E+02
 1.800E+02, 1.081E+02, 3.050E+02
 1.950E+02, 1.131E+02, 3.050E+02
 2.100E+02, 1.179E+02, 3.050E+02
 2.250E+02, 1.225E+02, 3.050E+02
 2.400E+02, 1.269E+02, 3.050E+02
 2.550E+02, 1.311E+02, 3.050E+02
 2.700E+02, 1.352E+02, 3.050E+02
 2.850E+02, 1.393E+02, 3.050E+02
 3.000E+02, 1.432E+02, 3.050E+02
 3.150E+02, 1.469E+02, 3.050E+02
 3.300E+02, 1.505E+02, 3.050E+02
 3.450E+02, 1.540E+02, 3.050E+02
 3.600E+02, 1.575E+02, 3.050E+02
 3.750E+02, 1.608E+02, 3.050E+02
 3.900E+02, 1.640E+02, 3.050E+02
 4.050E+02, 1.672E+02, 3.050E+02
 4.200E+02, 1.701E+02, 3.050E+02
 4.350E+02, 1.730E+02, 3.050E+02
 4.500E+02, 1.758E+02, 3.050E+02
 4.650E+02, 1.787E+02, 3.050E+02
 4.800E+02, 1.815E+02, 3.050E+02
 4.950E+02, 1.840E+02, 3.050E+02
 5.100E+02, 1.864E+02, 3.050E+02
 5.250E+02, 1.889E+02, 3.050E+02
 5.400E+02, 1.914E+02, 3.050E+02
 5.550E+02, 1.937E+02, 3.050E+02
 5.700E+02, 1.958E+02, 3.050E+02
 5.850E+02, 1.978E+02, 3.050E+02
 6.000E+02, 2.000E+02, 3.050E+02
 6.150E+02, 2.020E+02, 3.050E+02
 6.300E+02, 2.041E+02, 3.050E+02
 6.450E+02, 2.061E+02, 3.050E+02
 6.600E+02, 2.077E+02, 3.050E+02
 6.750E+02, 2.095E+02, 3.050E+02
 6.900E+02, 2.112E+02, 3.050E+02
 7.050E+02, 2.126E+02, 3.050E+02
 7.200E+02, 2.140E+02, 3.050E+02
 7.350E+02, 2.155E+02, 3.050E+02
 7.500E+02, 2.171E+02, 3.050E+02
 7.650E+02, 2.188E+02, 3.050E+02
 7.800E+02, 2.201E+02, 3.050E+02
 7.950E+02, 2.216E+02, 3.050E+02
 8.100E+02, 2.227E+02, 3.050E+02
 8.250E+02, 2.240E+02, 3.050E+02
 8.400E+02, 2.253E+02, 3.050E+02
 8.550E+02, 2.264E+02, 3.050E+02
 8.700E+02, 2.276E+02, 3.050E+02
 8.850E+02, 2.286E+02, 3.050E+02
 9.000E+02, 2.298E+02, 3.050E+02
 9.150E+02, 2.312E+02, 3.050E+02
 9.300E+02, 2.323E+02, 3.050E+02
 9.450E+02, 2.331E+02, 3.050E+02
 9.600E+02, 2.338E+02, 3.050E+02
 9.750E+02, 2.348E+02, 3.050E+02
 9.900E+02, 2.358E+02, 3.050E+02
 1.005E+03, 2.364E+02, 3.050E+02
 1.020E+03, 2.371E+02, 3.050E+02
 1.035E+03, 2.380E+02, 3.050E+02
 1.050E+03, 2.388E+02, 3.050E+02
 1.065E+03, 2.397E+02, 3.050E+02
 1.080E+03, 2.403E+02, 3.050E+02
 1.095E+03, 2.410E+02, 3.050E+02
 1.110E+03, 2.420E+02, 3.050E+02
 1.125E+03, 2.428E+02, 3.050E+02
 1.140E+03, 2.435E+02, 3.050E+02
 1.155E+03, 2.439E+02, 3.050E+02
 1.170E+03, 2.445E+02, 3.050E+02
 1.185E+03, 2.450E+02, 3.050E+02
 1.200E+03, 2.456E+02, 3.050E+02
 1.215E+03, 2.461E+02, 3.050E+02
 1.230E+03, 2.465E+02, 3.050E+02
 1.245E+03, 2.469E+02, 3.050E+02
 1.260E+03, 2.472E+02, 3.050E+02
 1.275E+03, 2.474E+02, 3.050E+02
 1.290E+03, 2.480E+02, 3.050E+02
 1.305E+03, 2.484E+02, 3.050E+02
 1.320E+03, 2.490E+02, 3.050E+02
 1.335E+03, 2.490E+02, 3.050E+02
 1.350E+03, 2.495E+02, 3.050E+02
 1.365E+03, 2.500E+02, 3.050E+02
 1.380E+03, 2.503E+02, 3.050E+02
 1.395E+03, 2.505E+02, 3.050E+02
 1.410E+03, 2.508E+02, 3.050E+02
 1.425E+03, 2.515E+02, 3.050E+02
 1.440E+03, 2.519E+02, 3.050E+02
 1.455E+03, 2.522E+02, 3.050E+02
 1.470E+03, 2.522E+02, 3.050E+02
 1.485E+03, 2.526E+02, 3.050E+02
 1.500E+03, 2.530E+02, 3.050E+02
 1.515E+03, 2.532E+02, 3.050E+02
 1.530E+03, 2.536E+02, 3.050E+02
 1.545E+03, 2.538E+02, 3.050E+02
 1.560E+03, 2.538E+02, 3.050E+02
 1.575E+03, 2.539E+02, 3.050E+02
 1.590E+03, 2.542E+02, 3.050E+02
 1.605E+03, 2.546E+02, 3.050E+02
 1.620E+03, 2.547E+02, 3.050E+02
 1.635E+03, 2.549E+02, 3.050E+02
 1.650E+03, 2.551E+02, 3.050E+02
 1.665E+03, 2.552E+02, 3.050E+02
 1.680E+03, 2.553E+02, 3.050E+02
 1.695E+03, 2.558E+02, 3.050E+02
 1.710E+03, 2.561E+02, 3.050E+02
 1.725E+03, 2.560E+02, 3.050E+02
 1.740E+03, 2.561E+02, 3.050E+02
 1.755E+03, 2.561E+02, 3.050E+02
 1.770E+03, 2.564E+02, 3.050E+02
 1.785E+03, 2.564E+02, 3.050E+02
 1.800E+03, 2.564E+02, 3.050E+02
 1.815E+03, 2.564E+02, 3.050E+02
 1.830E+03, 2.567E+02, 3.050E+02
 1.845E+03, 2.568E+02, 3.050E+02
 1.860E+03, 2.571E+02, 3.050E+02
 1.875E+03, 2.572E+02, 3.050E+02
 1.890E+03, 2.573E+02, 3.050E+02
 1.905E+03, 2.575E+02, 3.050E+02
 1.920E+03, 2.572E+02, 3.050E+02
 1.935E+03, 2.572E+02, 3.050E+02
 1.950E+03, 2.573E+02, 3.050E+02
 1.965E+03, 2.575E+02, 3.050E+02
 1.980E+03, 2.575E+02, 3.050E+02
 1.995E+03, 2.576E+02, 3.050E+02
 2.010E+03, 2.578E+02, 3.050E+02
 2.025E+03, 2.580E+02, 3.050E+02
 2.040E+03, 2.580E+02, 3.050E+02
 2.055E+03, 2.579E+02, 3.050E+02
 2.070E+03, 2.579E+02, 3.050E+02
 2.085E+03, 2.579E+02, 3.050E+02
 2.100E+03, 2.583E+02, 3.040E+02
 2.115E+03, 2.582E+02, 2.996E+02
 2.130E+03, 2.577E+02, 2.949E+02
 2.145E+03, 2.568E+02, 2.903E+02
 2.160E+03, 2.558E+02, 2.856E+02
 2.175E+03, 2.544E+02, 2.810E+02
 2.190E+03, 2.527E+02, 2.763E+02
 2.205E+03, 2.510E+02, 2.717E+02
 2.220E+03, 2.497E+02, 2.670E+02
 2.235E+03, 2.481E+02, 2.624E+02
 2.250E+03, 2.463E+02, 2.577E+02
 2.265E+03, 2.442E+02, 2.531E+02
 2.280E+03, 2.426E+02, 2.485E+02
 2.295E+03, 2.409E+02, 2.438E+02
 2.310E+03, 2.387E+02, 2.392E+02
 2.325E+03, 2.367E+02, 2.348E+02
 2.340E+03, 2.348E+02, 2.338E+02
 2.355E+03, 2.330E+02, 2.337E+02
 2.370E+03, 2.315E+02, 2.337E+02
 2.385E+03, 2.299E+02, 2.337E+02
 2.400E+03, 2.284E+02, 2.338E+02
