s,C,C
Time,"Cable Temp","Shroud Temp"
 0.000E+00, 2.400E+01, 2.400E+01
 1.504E+01, 2.401E+01, 6.149E+01
 3.003E+01, 2.433E+01, 1.354E+02
 4.503E+01, 2.575E+01, 2.084E+02
 6.003E+01, 2.902E+01, 2.787E+02
 7.502E+01, 3.474E+01, 3.148E+02
 9.002E+01, 4.235E+01, 3.256E+02
 1.050E+02, 5.047E+01, 3.223E+02
 1.200E+02, 5.819E+01, 3.179E+02
 1.350E+02, 6.518E+01, 3.134E+02
 1.500E+02, 7.145E+01, 3.090E+02
 1.650E+02, 7.708E+01, 3.053E+02
 1.800E+02, 8.221E+01, 3.050E+02
 1.950E+02, 8.702E+01, 3.050E+02
 2.100E+02, 9.164E+01, 3.050E+02
 2.250E+02, 9.611E+01, 3.050E+02
 2.400E+02, 1.004E+02, 3.050E+02
 2.550E+02, 1.046E+02, 3.050E+02
 2.700E+02, 1.086E+02, 3.050E+02
 2.850E+02, 1.126E+02, 3.050E+02
 3.000E+02, 1.165E+02, 3.050E+02
 3.150E+02, 1.203E+02, 3.050E+02
 3.300E+02, 1.240E+02, 3.050E+02
 3.450E+02, 1.276E+02, 3.050E+02
 3.600E+02, 1.311E+02, 3.050E+02
 3.750E+02, 1.345E+02, 3.050E+02
 3.900E+02, 1.378E+02, 3.050E+02
 4.050E+02, 1.410E+02, 3.050E+02
 4.200E+02, 1.442E+02, 3.050E+02
 4.350E+02, 1.473E+02, 3.050E+02
 4.500E+02, 1.503E+02, 3.050E+02
 4.650E+02, 1.532E+02, 3.050E+02
 4.800E+02, 1.561E+02, 3.050E+02
 4.950E+02, 1.588E+02, 3.050E+02
 5.100E+02, 1.615E+02, 3.050E+02
 5.250E+02, 1.642E+02, 3.050E+02
 5.400E+02, 1.668E+02, 3.050E+02
 5.550E+02, 1.694E+02, 3.050E+02
 5.700E+02, 1.719E+02, 3.050E+02
 5.850E+02, 1.743E+02, 3.050E+02
 6.000E+02, 1.766E+02, 3.050E+02
 6.150E+02, 1.789E+02, 3.050E+02
 6.300E+02, 1.811E+02, 3.050E+02
 6.450E+02, 1.833E+02, 3.050E+02
 6.600E+02, 1.854E+02, 3.050E+02
 6.750E+02, 1.874E+02, 3.050E+02
 6.900E+02, 1.895E+02, 3.050E+02
 7.050E+02, 1.915E+02, 3.050E+02
 7.200E+02, 1.934E+02, 3.050E+02
 7.350E+02, 1.952E+02, 3.050E+02
 7.500E+02, 1.970E+02, 3.050E+02
 7.650E+02, 1.988E+02, 3.050E+02
 7.800E+02, 2.004E+02, 3.050E+02
 7.950E+02, 2.020E+02, 3.050E+02
 8.100E+02, 2.036E+02, 3.050E+02
 8.250E+02, 2.052E+02, 3.050E+02
 8.400E+02, 2.068E+02, 3.050E+02
 8.550E+02, 2.083E+02, 3.050E+02
 8.700E+02, 2.097E+02, 3.050E+02
 8.850E+02, 2.111E+02, 3.050E+02
 9.000E+02, 2.125E+02, 3.050E+02
 9.150E+02, 2.138E+02, 3.050E+02
 9.300E+02, 2.151E+02, 3.050E+02
 9.450E+02, 2.164E+02, 3.050E+02
 9.600E+02, 2.176E+02, 3.050E+02
 9.750E+02, 2.188E+02, 3.050E+02
 9.900E+02, 2.200E+02, 3.050E+02
 1.005E+03, 2.212E+02, 3.050E+02
 1.020E+03, 2.223E+02, 3.050E+02
 1.035E+03, 2.234E+02, 3.050E+02
 1.050E+03, 2.243E+02, 3.050E+02
 1.065E+03, 2.253E+02, 3.050E+02
 1.080E+03, 2.263E+02, 3.050E+02
 1.095E+03, 2.273E+02, 3.024E+02
 1.110E+03, 2.281E+02, 2.979E+02
 1.125E+03, 2.287E+02, 2.933E+02
 1.140E+03, 2.291E+02, 2.888E+02
 1.155E+03, 2.293E+02, 2.843E+02
 1.170E+03, 2.293E+02, 2.797E+02
 1.185E+03, 2.291E+02, 2.752E+02
 1.200E+03, 2.289E+02, 2.706E+02
 1.215E+03, 2.285E+02, 2.661E+02
 1.230E+03, 2.280E+02, 2.616E+02
 1.245E+03, 2.274E+02, 2.570E+02
 1.260E+03, 2.266E+02, 2.525E+02
 1.275E+03, 2.258E+02, 2.479E+02
 1.290E+03, 2.248E+02, 2.434E+02
 1.305E+03, 2.238E+02, 2.389E+02
 1.320E+03, 2.227E+02, 2.343E+02
 1.335E+03, 2.216E+02, 2.298E+02
 1.350E+03, 2.204E+02, 2.252E+02
 1.365E+03, 2.191E+02, 2.207E+02
 1.380E+03, 2.178E+02, 2.162E+02
 1.395E+03, 2.165E+02, 2.116E+02
 1.410E+03, 2.151E+02, 2.075E+02
 1.425E+03, 2.136E+02, 2.066E+02
 1.440E+03, 2.121E+02, 2.067E+02
 1.455E+03, 2.107E+02, 2.066E+02
 1.470E+03, 2.094E+02, 2.067E+02
 1.485E+03, 2.082E+02, 2.066E+02
 1.500E+03, 2.071E+02, 2.067E+02
 1.515E+03, 2.061E+02, 2.066E+02
 1.530E+03, 2.051E+02, 2.067E+02
 1.545E+03, 2.042E+02, 2.066E+02
 1.560E+03, 2.033E+02, 2.067E+02
 1.575E+03, 2.023E+02, 2.066E+02
 1.590E+03, 2.014E+02, 2.066E+02
 1.605E+03, 2.006E+02, 2.067E+02
 1.620E+03, 1.997E+02, 2.066E+02
 1.635E+03, 1.989E+02, 2.066E+02
 1.650E+03, 1.982E+02, 2.066E+02
 1.665E+03, 1.974E+02, 2.066E+02
 1.680E+03, 1.967E+02, 2.067E+02
 1.695E+03, 1.960E+02, 2.067E+02
 1.710E+03, 1.953E+02, 2.067E+02
 1.725E+03, 1.946E+02, 2.066E+02
 1.740E+03, 1.939E+02, 2.066E+02
 1.755E+03, 1.933E+02, 2.066E+02
 1.770E+03, 1.926E+02, 2.066E+02
 1.785E+03, 1.920E+02, 2.067E+02
 1.800E+03, 1.914E+02, 2.066E+02
