s,C,C
Time,"Cable Temp","Shroud Temp"
 0.000E+00, 2.400E+01, 2.400E+01
 1.502E+01, 2.402E+01, 7.276E+01
 3.001E+01, 2.457E+01, 1.692E+02
 4.501E+01, 2.685E+01, 2.657E+02
 6.001E+01, 3.234E+01, 3.624E+02
 7.501E+01, 4.305E+01, 4.536E+02
 9.000E+01, 6.032E+01, 4.750E+02
 1.050E+02, 8.005E+01, 4.750E+02
 1.200E+02, 9.880E+01, 4.750E+02
 1.350E+02, 1.159E+02, 4.750E+02
 1.500E+02, 1.316E+02, 4.750E+02
 1.650E+02, 1.459E+02, 4.750E+02
 1.800E+02, 1.592E+02, 4.750E+02
 1.950E+02, 1.716E+02, 4.750E+02
 2.100E+02, 1.832E+02, 4.750E+02
 2.250E+02, 1.942E+02, 4.750E+02
 2.400E+02, 2.045E+02, 4.750E+02
 2.550E+02, 2.144E+02, 4.750E+02
 2.700E+02, 2.237E+02, 4.750E+02
 2.850E+02, 2.325E+02, 4.750E+02
 3.000E+02, 2.410E+02, 4.750E+02
 3.150E+02, 2.492E+02, 4.750E+02
 3.300E+02, 2.569E+02, 4.750E+02
 3.450E+02, 2.643E+02, 4.750E+02
 3.600E+02, 2.714E+02, 4.750E+02
 3.750E+02, 2.781E+02, 4.750E+02
 3.900E+02, 2.846E+02, 4.750E+02
 4.050E+02, 2.907E+02, 4.750E+02
 4.200E+02, 2.965E+02, 4.750E+02
 4.350E+02, 3.021E+02, 4.750E+02
 4.500E+02, 3.076E+02, 4.750E+02
 4.650E+02, 3.126E+02, 4.750E+02
 4.800E+02, 3.173E+02, 4.750E+02
 4.950E+02, 3.221E+02, 4.750E+02
 5.100E+02, 3.268E+02, 4.750E+02
 5.250E+02, 3.313E+02, 4.750E+02
 5.400E+02, 3.354E+02, 4.750E+02
 5.550E+02, 3.394E+02, 4.750E+02
 5.700E+02, 3.431E+02, 4.750E+02
 5.850E+02, 3.468E+02, 4.750E+02
 6.000E+02, 3.502E+02, 4.750E+02
 6.150E+02, 3.534E+02, 4.750E+02
 6.300E+02, 3.566E+02, 4.750E+02
 6.450E+02, 3.596E+02, 4.750E+02
 6.600E+02, 3.626E+02, 4.750E+02
 6.750E+02, 3.655E+02, 4.750E+02
 6.900E+02, 3.680E+02, 4.750E+02
 7.050E+02, 3.705E+02, 4.750E+02
 7.200E+02, 3.729E+02, 4.750E+02
 7.350E+02, 3.754E+02, 4.750E+02
 7.500E+02, 3.775E+02, 4.750E+02
 7.650E+02, 3.792E+02, 4.750E+02
 7.800E+02, 3.808E+02, 4.750E+02
 7.950E+02, 3.827E+02, 4.750E+02
 8.100E+02, 3.845E+02, 4.750E+02
 8.250E+02, 3.862E+02, 4.750E+02
 8.400E+02, 3.875E+02, 4.750E+02
 8.550E+02, 3.888E+02, 4.750E+02
 8.700E+02, 3.903E+02, 4.750E+02
 8.850E+02, 3.919E+02, 4.750E+02
 9.000E+02, 3.933E+02, 4.750E+02
 9.150E+02, 3.945E+02, 4.750E+02
 9.300E+02, 3.959E+02, 4.750E+02
 9.450E+02, 3.972E+02, 4.750E+02
 9.600E+02, 3.985E+02, 4.750E+02
 9.750E+02, 3.997E+02, 4.750E+02
 9.900E+02, 4.010E+02, 4.750E+02
 1.005E+03, 4.021E+02, 4.750E+02
 1.020E+03, 4.028E+02, 4.750E+02
 1.035E+03, 4.037E+02, 4.750E+02
 1.050E+03, 4.043E+02, 4.750E+02
 1.065E+03, 4.049E+02, 4.750E+02
 1.080E+03, 4.057E+02, 4.750E+02
 1.095E+03, 4.066E+02, 4.750E+02
 1.110E+03, 4.073E+02, 4.750E+02
 1.125E+03, 4.079E+02, 4.750E+02
 1.140E+03, 4.088E+02, 4.750E+02
 1.155E+03, 4.093E+02, 4.750E+02
 1.170E+03, 4.100E+02, 4.750E+02
 1.185E+03, 4.104E+02, 4.750E+02
 1.200E+03, 4.110E+02, 4.750E+02
 1.215E+03, 4.115E+02, 4.750E+02
 1.230E+03, 4.119E+02, 4.750E+02
 1.245E+03, 4.123E+02, 4.750E+02
 1.260E+03, 4.129E+02, 4.750E+02
 1.275E+03, 4.133E+02, 4.750E+02
 1.290E+03, 4.134E+02, 4.750E+02
 1.305E+03, 4.135E+02, 4.750E+02
 1.320E+03, 4.138E+02, 4.750E+02
 1.335E+03, 4.144E+02, 4.750E+02
 1.350E+03, 4.147E+02, 4.750E+02
 1.365E+03, 4.149E+02, 4.750E+02
 1.380E+03, 4.154E+02, 4.750E+02
 1.395E+03, 4.158E+02, 4.750E+02
 1.410E+03, 4.162E+02, 4.750E+02
 1.425E+03, 4.167E+02, 4.750E+02
 1.440E+03, 4.170E+02, 4.750E+02
 1.455E+03, 4.174E+02, 4.750E+02
 1.470E+03, 4.175E+02, 4.750E+02
 1.485E+03, 4.174E+02, 4.742E+02
 1.500E+03, 4.174E+02, 4.637E+02
 1.515E+03, 4.169E+02, 4.502E+02
 1.530E+03, 4.151E+02, 4.366E+02
 1.545E+03, 4.126E+02, 4.231E+02
 1.560E+03, 4.092E+02, 4.096E+02
 1.575E+03, 4.054E+02, 3.961E+02
 1.590E+03, 4.012E+02, 3.825E+02
 1.605E+03, 3.963E+02, 3.690E+02
 1.620E+03, 3.914E+02, 3.555E+02
 1.635E+03, 3.865E+02, 3.419E+02
 1.650E+03, 3.812E+02, 3.284E+02
 1.665E+03, 3.759E+02, 3.149E+02
 1.680E+03, 3.705E+02, 3.013E+02
 1.695E+03, 3.650E+02, 2.946E+02
 1.710E+03, 3.597E+02, 2.946E+02
 1.725E+03, 3.547E+02, 2.946E+02
 1.740E+03, 3.502E+02, 2.946E+02
 1.755E+03, 3.461E+02, 2.946E+02
 1.770E+03, 3.422E+02, 2.946E+02
 1.785E+03, 3.384E+02, 2.946E+02
 1.800E+03, 3.348E+02, 2.946E+02
