s,C,C,C
Time,"Cable Temp","Shroud Temp","Conduit"
 0.000E+00, 3.100E+01, 3.100E+01, 3.100E+01
 1.509E+01, 3.100E+01, 6.663E+01, 3.105E+01
 3.002E+01, 3.100E+01, 1.366E+02, 3.157E+01
 4.501E+01, 3.102E+01, 2.065E+02, 3.303E+01
 6.004E+01, 3.107E+01, 2.766E+02, 3.593E+01
 7.503E+01, 3.123E+01, 3.468E+02, 4.091E+01
 9.001E+01, 3.143E+01, 4.168E+02, 4.874E+01
 1.050E+02, 3.182E+01, 4.712E+02, 6.006E+01
 1.200E+02, 3.256E+01, 4.750E+02, 7.283E+01
 1.350E+02, 3.350E+01, 4.750E+02, 8.532E+01
 1.500E+02, 3.464E+01, 4.750E+02, 9.763E+01
 1.650E+02, 3.585E+01, 4.750E+02, 1.097E+02
 1.800E+02, 3.732E+01, 4.750E+02, 1.215E+02
 1.950E+02, 3.902E+01, 4.750E+02, 1.330E+02
 2.100E+02, 4.091E+01, 4.750E+02, 1.443E+02
 2.250E+02, 4.297E+01, 4.750E+02, 1.554E+02
 2.400E+02, 4.524E+01, 4.750E+02, 1.663E+02
 2.550E+02, 4.772E+01, 4.750E+02, 1.768E+02
 2.700E+02, 5.052E+01, 4.750E+02, 1.871E+02
 2.850E+02, 5.342E+01, 4.750E+02, 1.972E+02
 3.000E+02, 5.659E+01, 4.750E+02, 2.070E+02
 3.150E+02, 6.004E+01, 4.750E+02, 2.164E+02
 3.300E+02, 6.369E+01, 4.750E+02, 2.256E+02
 3.450E+02, 6.750E+01, 4.750E+02, 2.345E+02
 3.600E+02, 7.164E+01, 4.750E+02, 2.431E+02
 3.750E+02, 7.592E+01, 4.750E+02, 2.515E+02
 3.900E+02, 8.036E+01, 4.750E+02, 2.596E+02
 4.050E+02, 8.505E+01, 4.750E+02, 2.675E+02
 4.200E+02, 8.994E+01, 4.750E+02, 2.751E+02
 4.350E+02, 9.507E+01, 4.750E+02, 2.823E+02
 4.500E+02, 1.004E+02, 4.750E+02, 2.894E+02
 4.650E+02, 1.059E+02, 4.750E+02, 2.962E+02
 4.800E+02, 1.116E+02, 4.750E+02, 3.027E+02
 4.950E+02, 1.174E+02, 4.750E+02, 3.090E+02
 5.100E+02, 1.234E+02, 4.750E+02, 3.150E+02
 5.250E+02, 1.295E+02, 4.750E+02, 3.208E+02
 5.400E+02, 1.357E+02, 4.750E+02, 3.264E+02
 5.550E+02, 1.421E+02, 4.750E+02, 3.317E+02
 5.700E+02, 1.485E+02, 4.750E+02, 3.367E+02
 5.850E+02, 1.549E+02, 4.750E+02, 3.415E+02
 6.000E+02, 1.615E+02, 4.750E+02, 3.461E+02
 6.150E+02, 1.681E+02, 4.750E+02, 3.505E+02
 6.300E+02, 1.747E+02, 4.750E+02, 3.548E+02
 6.450E+02, 1.812E+02, 4.750E+02, 3.589E+02
 6.600E+02, 1.877E+02, 4.750E+02, 3.628E+02
 6.750E+02, 1.942E+02, 4.750E+02, 3.665E+02
 6.900E+02, 2.007E+02, 4.750E+02, 3.701E+02
 7.050E+02, 2.071E+02, 4.750E+02, 3.735E+02
 7.200E+02, 2.135E+02, 4.750E+02, 3.766E+02
 7.350E+02, 2.199E+02, 4.750E+02, 3.797E+02
 7.500E+02, 2.263E+02, 4.750E+02, 3.826E+02
 7.650E+02, 2.325E+02, 4.750E+02, 3.852E+02
 7.800E+02, 2.387E+02, 4.750E+02, 3.879E+02
 7.950E+02, 2.447E+02, 4.750E+02, 3.905E+02
 8.100E+02, 2.508E+02, 4.750E+02, 3.930E+02
 8.250E+02, 2.566E+02, 4.750E+02, 3.952E+02
 8.400E+02, 2.622E+02, 4.750E+02, 3.972E+02
 8.550E+02, 2.678E+02, 4.750E+02, 3.992E+02
 8.700E+02, 2.733E+02, 4.750E+02, 4.013E+02
 8.850E+02, 2.787E+02, 4.750E+02, 4.032E+02
 9.000E+02, 2.841E+02, 4.750E+02, 4.050E+02
 9.150E+02, 2.892E+02, 4.750E+02, 4.067E+02
 9.300E+02, 2.942E+02, 4.750E+02, 4.084E+02
 9.450E+02, 2.990E+02, 4.750E+02, 4.099E+02
 9.600E+02, 3.038E+02, 4.750E+02, 4.114E+02
 9.750E+02, 3.084E+02, 4.750E+02, 4.127E+02
 9.900E+02, 3.128E+02, 4.750E+02, 4.140E+02
 1.005E+03, 3.171E+02, 4.750E+02, 4.154E+02
 1.020E+03, 3.214E+02, 4.750E+02, 4.167E+02
 1.035E+03, 3.256E+02, 4.750E+02, 4.180E+02
 1.050E+03, 3.296E+02, 4.750E+02, 4.191E+02
 1.065E+03, 3.336E+02, 4.750E+02, 4.203E+02
 1.080E+03, 3.374E+02, 4.750E+02, 4.213E+02
 1.095E+03, 3.410E+02, 4.750E+02, 4.224E+02
 1.110E+03, 3.446E+02, 4.750E+02, 4.235E+02
 1.125E+03, 3.481E+02, 4.750E+02, 4.244E+02
 1.140E+03, 3.515E+02, 4.750E+02, 4.254E+02
 1.155E+03, 3.548E+02, 4.750E+02, 4.263E+02
 1.170E+03, 3.579E+02, 4.750E+02, 4.270E+02
 1.185E+03, 3.608E+02, 4.750E+02, 4.276E+02
 1.200E+03, 3.637E+02, 4.750E+02, 4.284E+02
 1.215E+03, 3.665E+02, 4.750E+02, 4.289E+02
 1.230E+03, 3.691E+02, 4.750E+02, 4.295E+02
 1.245E+03, 3.716E+02, 4.750E+02, 4.301E+02
 1.260E+03, 3.740E+02, 4.750E+02, 4.306E+02
 1.275E+03, 3.764E+02, 4.750E+02, 4.311E+02
 1.290E+03, 3.788E+02, 4.750E+02, 4.316E+02
 1.305E+03, 3.810E+02, 4.750E+02, 4.322E+02
 1.320E+03, 3.833E+02, 4.750E+02, 4.327E+02
 1.335E+03, 3.854E+02, 4.750E+02, 4.332E+02
 1.350E+03, 3.874E+02, 4.750E+02, 4.338E+02
 1.365E+03, 3.894E+02, 4.750E+02, 4.343E+02
 1.380E+03, 3.913E+02, 4.750E+02, 4.347E+02
 1.395E+03, 3.931E+02, 4.750E+02, 4.350E+02
 1.410E+03, 3.948E+02, 4.750E+02, 4.352E+02
 1.425E+03, 3.962E+02, 4.750E+02, 4.354E+02
 1.440E+03, 3.978E+02, 4.750E+02, 4.359E+02
 1.455E+03, 3.995E+02, 4.750E+02, 4.364E+02
 1.470E+03, 4.010E+02, 4.750E+02, 4.366E+02
 1.485E+03, 4.024E+02, 4.750E+02, 4.370E+02
 1.500E+03, 4.040E+02, 4.750E+02, 4.375E+02
 1.515E+03, 4.054E+02, 4.750E+02, 4.379E+02
 1.530E+03, 4.068E+02, 4.750E+02, 4.382E+02
 1.545E+03, 4.080E+02, 4.750E+02, 4.383E+02
 1.560E+03, 4.091E+02, 4.750E+02, 4.385E+02
 1.575E+03, 4.102E+02, 4.750E+02, 4.388E+02
 1.590E+03, 4.114E+02, 4.750E+02, 4.390E+02
 1.605E+03, 4.125E+02, 4.750E+02, 4.393E+02
 1.620E+03, 4.136E+02, 4.750E+02, 4.395E+02
 1.635E+03, 4.146E+02, 4.750E+02, 4.397E+02
 1.650E+03, 4.156E+02, 4.750E+02, 4.399E+02
 1.665E+03, 4.166E+02, 4.750E+02, 4.402E+02
 1.680E+03, 4.175E+02, 4.750E+02, 4.405E+02
 1.695E+03, 4.185E+02, 4.750E+02, 4.407E+02
 1.710E+03, 4.193E+02, 4.750E+02, 4.409E+02
 1.725E+03, 4.201E+02, 4.750E+02, 4.412E+02
 1.740E+03, 4.210E+02, 4.750E+02, 4.415E+02
 1.755E+03, 4.218E+02, 4.750E+02, 4.417E+02
 1.770E+03, 4.225E+02, 4.750E+02, 4.418E+02
 1.785E+03, 4.232E+02, 4.750E+02, 4.421E+02
 1.800E+03, 4.239E+02, 4.750E+02, 4.422E+02
 1.815E+03, 4.245E+02, 4.750E+02, 4.423E+02
 1.830E+03, 4.249E+02, 4.750E+02, 4.423E+02
 1.845E+03, 4.255E+02, 4.750E+02, 4.425E+02
 1.860E+03, 4.261E+02, 4.750E+02, 4.426E+02
 1.875E+03, 4.266E+02, 4.750E+02, 4.426E+02
 1.890E+03, 4.271E+02, 4.750E+02, 4.427E+02
 1.905E+03, 4.277E+02, 4.750E+02, 4.429E+02
 1.920E+03, 4.282E+02, 4.750E+02, 4.431E+02
 1.935E+03, 4.287E+02, 4.750E+02, 4.432E+02
 1.950E+03, 4.292E+02, 4.750E+02, 4.433E+02
 1.965E+03, 4.294E+02, 4.750E+02, 4.432E+02
 1.980E+03, 4.297E+02, 4.750E+02, 4.434E+02
 1.995E+03, 4.302E+02, 4.750E+02, 4.436E+02
 2.010E+03, 4.307E+02, 4.750E+02, 4.436E+02
 2.025E+03, 4.310E+02, 4.750E+02, 4.435E+02
 2.040E+03, 4.309E+02, 4.750E+02, 4.433E+02
 2.055E+03, 4.310E+02, 4.750E+02, 4.433E+02
 2.070E+03, 4.314E+02, 4.750E+02, 4.434E+02
 2.085E+03, 4.318E+02, 4.750E+02, 4.434E+02
 2.100E+03, 4.321E+02, 4.750E+02, 4.435E+02
 2.115E+03, 4.325E+02, 4.750E+02, 4.436E+02
 2.130E+03, 4.329E+02, 4.750E+02, 4.438E+02
 2.145E+03, 4.332E+02, 4.750E+02, 4.436E+02
 2.160E+03, 4.332E+02, 4.750E+02, 4.436E+02
 2.175E+03, 4.332E+02, 4.750E+02, 4.435E+02
 2.190E+03, 4.335E+02, 4.750E+02, 4.437E+02
 2.205E+03, 4.338E+02, 4.750E+02, 4.437E+02
 2.220E+03, 4.341E+02, 4.750E+02, 4.437E+02
 2.235E+03, 4.342E+02, 4.750E+02, 4.438E+02
 2.250E+03, 4.343E+02, 4.750E+02, 4.438E+02
 2.265E+03, 4.345E+02, 4.750E+02, 4.439E+02
 2.280E+03, 4.346E+02, 4.750E+02, 4.438E+02
 2.295E+03, 4.348E+02, 4.750E+02, 4.438E+02
 2.310E+03, 4.349E+02, 4.750E+02, 4.438E+02
 2.325E+03, 4.350E+02, 4.750E+02, 4.438E+02
 2.340E+03, 4.351E+02, 4.750E+02, 4.438E+02
 2.355E+03, 4.351E+02, 4.750E+02, 4.438E+02
 2.370E+03, 4.353E+02, 4.750E+02, 4.439E+02
 2.385E+03, 4.355E+02, 4.750E+02, 4.438E+02
 2.400E+03, 4.356E+02, 4.750E+02, 4.439E+02
 2.415E+03, 4.357E+02, 4.750E+02, 4.439E+02
 2.430E+03, 4.357E+02, 4.750E+02, 4.438E+02
 2.445E+03, 4.357E+02, 4.750E+02, 4.437E+02
 2.460E+03, 4.357E+02, 4.750E+02, 4.438E+02
 2.475E+03, 4.358E+02, 4.750E+02, 4.438E+02
 2.490E+03, 4.358E+02, 4.750E+02, 4.437E+02
 2.505E+03, 4.357E+02, 4.750E+02, 4.437E+02
 2.520E+03, 4.359E+02, 4.750E+02, 4.439E+02
 2.535E+03, 4.362E+02, 4.750E+02, 4.441E+02
 2.550E+03, 4.364E+02, 4.750E+02, 4.441E+02
 2.565E+03, 4.364E+02, 4.750E+02, 4.441E+02
 2.580E+03, 4.364E+02, 4.750E+02, 4.441E+02
 2.595E+03, 4.366E+02, 4.750E+02, 4.442E+02
 2.610E+03, 4.367E+02, 4.750E+02, 4.442E+02
 2.625E+03, 4.367E+02, 4.750E+02, 4.441E+02
 2.640E+03, 4.366E+02, 4.750E+02, 4.440E+02
 2.655E+03, 4.366E+02, 4.750E+02, 4.440E+02
 2.670E+03, 4.368E+02, 4.750E+02, 4.442E+02
 2.685E+03, 4.369E+02, 4.750E+02, 4.442E+02
 2.700E+03, 4.370E+02, 4.750E+02, 4.442E+02
 2.715E+03, 4.371E+02, 4.750E+02, 4.443E+02
 2.730E+03, 4.372E+02, 4.750E+02, 4.444E+02
 2.745E+03, 4.373E+02, 4.750E+02, 4.444E+02
 2.760E+03, 4.373E+02, 4.750E+02, 4.443E+02
 2.775E+03, 4.373E+02, 4.750E+02, 4.444E+02
 2.790E+03, 4.374E+02, 4.750E+02, 4.443E+02
 2.805E+03, 4.374E+02, 4.750E+02, 4.443E+02
 2.820E+03, 4.375E+02, 4.741E+02, 4.444E+02
 2.835E+03, 4.375E+02, 4.701E+02, 4.442E+02
 2.850E+03, 4.375E+02, 4.659E+02, 4.438E+02
 2.865E+03, 4.376E+02, 4.616E+02, 4.432E+02
 2.880E+03, 4.376E+02, 4.574E+02, 4.424E+02
 2.895E+03, 4.376E+02, 4.532E+02, 4.415E+02
 2.910E+03, 4.375E+02, 4.490E+02, 4.402E+02
 2.925E+03, 4.372E+02, 4.448E+02, 4.388E+02
 2.940E+03, 4.369E+02, 4.406E+02, 4.373E+02
 2.955E+03, 4.367E+02, 4.363E+02, 4.357E+02
 2.970E+03, 4.361E+02, 4.321E+02, 4.337E+02
 2.985E+03, 4.354E+02, 4.279E+02, 4.317E+02
 3.000E+03, 4.346E+02, 4.237E+02, 4.296E+02
 3.015E+03, 4.338E+02, 4.195E+02, 4.276E+02
 3.030E+03, 4.332E+02, 4.153E+02, 4.255E+02
 3.045E+03, 4.323E+02, 4.111E+02, 4.231E+02
 3.060E+03, 4.312E+02, 4.068E+02, 4.207E+02
 3.075E+03, 4.301E+02, 4.026E+02, 4.182E+02
 3.090E+03, 4.289E+02, 3.984E+02, 4.157E+02
 3.105E+03, 4.274E+02, 3.942E+02, 4.129E+02
 3.120E+03, 4.259E+02, 3.900E+02, 4.103E+02
 3.135E+03, 4.246E+02, 3.858E+02, 4.077E+02
 3.150E+03, 4.233E+02, 3.816E+02, 4.051E+02
 3.165E+03, 4.219E+02, 3.773E+02, 4.025E+02
 3.180E+03, 4.206E+02, 3.731E+02, 3.999E+02
 3.195E+03, 4.192E+02, 3.689E+02, 3.971E+02
 3.210E+03, 4.175E+02, 3.647E+02, 3.942E+02
 3.225E+03, 4.157E+02, 3.605E+02, 3.912E+02
 3.240E+03, 4.139E+02, 3.563E+02, 3.884E+02
 3.255E+03, 4.123E+02, 3.520E+02, 3.857E+02
 3.270E+03, 4.107E+02, 3.478E+02, 3.829E+02
 3.285E+03, 4.090E+02, 3.436E+02, 3.801E+02
 3.300E+03, 4.074E+02, 3.394E+02, 3.774E+02
 3.315E+03, 4.057E+02, 3.352E+02, 3.746E+02
 3.330E+03, 4.038E+02, 3.310E+02, 3.717E+02
 3.345E+03, 4.016E+02, 3.267E+02, 3.688E+02
 3.360E+03, 3.997E+02, 3.225E+02, 3.658E+02
 3.375E+03, 3.977E+02, 3.183E+02, 3.630E+02
 3.390E+03, 3.957E+02, 3.141E+02, 3.600E+02
 3.405E+03, 3.935E+02, 3.099E+02, 3.570E+02
 3.420E+03, 3.913E+02, 3.057E+02, 3.541E+02
 3.435E+03, 3.892E+02, 3.015E+02, 3.511E+02
 3.450E+03, 3.869E+02, 2.972E+02, 3.480E+02
 3.465E+03, 3.849E+02, 2.930E+02, 3.452E+02
 3.480E+03, 3.825E+02, 2.888E+02, 3.419E+02
 3.495E+03, 3.798E+02, 2.846E+02, 3.389E+02
 3.510E+03, 3.773E+02, 2.804E+02, 3.358E+02
 3.525E+03, 3.750E+02, 2.762E+02, 3.329E+02
 3.540E+03, 3.729E+02, 2.719E+02, 3.300E+02
 3.555E+03, 3.707E+02, 2.677E+02, 3.271E+02
 3.570E+03, 3.688E+02, 2.635E+02, 3.244E+02
 3.585E+03, 3.666E+02, 2.593E+02, 3.215E+02
 3.600E+03, 3.644E+02, 2.551E+02, 3.187E+02
