s,C,C
Time,"Cable Temp","Shroud Temp"
 0.000E+00, 2.400E+01, 2.400E+01
 1.502E+01, 2.401E+01, 7.342E+01
 3.003E+01, 2.439E+01, 1.709E+02
 4.502E+01, 2.620E+01, 2.686E+02
 6.002E+01, 3.081E+01, 3.662E+02
 7.500E+01, 3.988E+01, 4.584E+02
 9.002E+01, 5.481E+01, 4.800E+02
 1.050E+02, 7.289E+01, 4.800E+02
 1.200E+02, 9.080E+01, 4.800E+02
 1.350E+02, 1.075E+02, 4.800E+02
 1.500E+02, 1.230E+02, 4.800E+02
 1.650E+02, 1.372E+02, 4.800E+02
 1.800E+02, 1.505E+02, 4.800E+02
 1.950E+02, 1.628E+02, 4.800E+02
 2.100E+02, 1.744E+02, 4.800E+02
 2.250E+02, 1.852E+02, 4.800E+02
 2.400E+02, 1.953E+02, 4.800E+02
 2.550E+02, 2.049E+02, 4.800E+02
 2.700E+02, 2.141E+02, 4.800E+02
 2.850E+02, 2.228E+02, 4.800E+02
 3.000E+02, 2.310E+02, 4.800E+02
 3.150E+02, 2.389E+02, 4.800E+02
 3.300E+02, 2.465E+02, 4.800E+02
 3.450E+02, 2.538E+02, 4.800E+02
 3.600E+02, 2.608E+02, 4.800E+02
 3.750E+02, 2.675E+02, 4.800E+02
 3.900E+02, 2.738E+02, 4.800E+02
 4.050E+02, 2.800E+02, 4.800E+02
 4.200E+02, 2.861E+02, 4.800E+02
 4.350E+02, 2.918E+02, 4.800E+02
 4.500E+02, 2.973E+02, 4.800E+02
 4.650E+02, 3.026E+02, 4.800E+02
 4.800E+02, 3.076E+02, 4.800E+02
 4.950E+02, 3.124E+02, 4.800E+02
 5.100E+02, 3.171E+02, 4.800E+02
 5.250E+02, 3.216E+02, 4.800E+02
 5.400E+02, 3.260E+02, 4.800E+02
 5.550E+02, 3.301E+02, 4.800E+02
 5.700E+02, 3.341E+02, 4.800E+02
 5.850E+02, 3.380E+02, 4.800E+02
 6.000E+02, 3.418E+02, 4.800E+02
 6.150E+02, 3.454E+02, 4.800E+02
 6.300E+02, 3.488E+02, 4.800E+02
 6.450E+02, 3.522E+02, 4.800E+02
 6.600E+02, 3.553E+02, 4.800E+02
 6.750E+02, 3.584E+02, 4.800E+02
 6.900E+02, 3.613E+02, 4.800E+02
 7.050E+02, 3.642E+02, 4.800E+02
 7.200E+02, 3.670E+02, 4.800E+02
 7.350E+02, 3.697E+02, 4.800E+02
 7.500E+02, 3.722E+02, 4.800E+02
 7.650E+02, 3.747E+02, 4.800E+02
 7.800E+02, 3.771E+02, 4.800E+02
 7.950E+02, 3.794E+02, 4.772E+02
 8.100E+02, 3.813E+02, 4.715E+02
 8.250E+02, 3.827E+02, 4.659E+02
 8.400E+02, 3.837E+02, 4.602E+02
 8.550E+02, 3.844E+02, 4.546E+02
 8.700E+02, 3.847E+02, 4.489E+02
 8.850E+02, 3.847E+02, 4.433E+02
 9.000E+02, 3.845E+02, 4.376E+02
 9.150E+02, 3.840E+02, 4.320E+02
 9.300E+02, 3.832E+02, 4.263E+02
 9.450E+02, 3.823E+02, 4.207E+02
 9.600E+02, 3.812E+02, 4.150E+02
 9.750E+02, 3.799E+02, 4.094E+02
 9.900E+02, 3.785E+02, 4.037E+02
 1.005E+03, 3.770E+02, 3.981E+02
 1.020E+03, 3.752E+02, 3.924E+02
 1.035E+03, 3.734E+02, 3.868E+02
 1.050E+03, 3.714E+02, 3.811E+02
 1.065E+03, 3.694E+02, 3.755E+02
 1.080E+03, 3.673E+02, 3.698E+02
 1.095E+03, 3.650E+02, 3.642E+02
 1.110E+03, 3.627E+02, 3.585E+02
 1.125E+03, 3.604E+02, 3.528E+02
 1.140E+03, 3.580E+02, 3.472E+02
 1.155E+03, 3.555E+02, 3.415E+02
 1.170E+03, 3.529E+02, 3.359E+02
 1.185E+03, 3.503E+02, 3.302E+02
 1.200E+03, 3.475E+02, 3.246E+02
 1.215E+03, 3.447E+02, 3.189E+02
 1.230E+03, 3.419E+02, 3.133E+02
 1.245E+03, 3.390E+02, 3.077E+02
 1.260E+03, 3.362E+02, 3.032E+02
 1.275E+03, 3.333E+02, 2.990E+02
 1.290E+03, 3.305E+02, 2.949E+02
 1.305E+03, 3.276E+02, 2.907E+02
 1.320E+03, 3.248E+02, 2.865E+02
 1.335E+03, 3.220E+02, 2.823E+02
 1.350E+03, 3.193E+02, 2.781E+02
 1.365E+03, 3.166E+02, 2.740E+02
 1.380E+03, 3.138E+02, 2.698E+02
 1.395E+03, 3.110E+02, 2.656E+02
 1.410E+03, 3.082E+02, 2.614E+02
 1.425E+03, 3.054E+02, 2.572E+02
 1.440E+03, 3.026E+02, 2.531E+02
 1.455E+03, 2.999E+02, 2.489E+02
 1.470E+03, 2.971E+02, 2.447E+02
 1.485E+03, 2.943E+02, 2.405E+02
 1.500E+03, 2.915E+02, 2.363E+02
 1.515E+03, 2.887E+02, 2.322E+02
 1.530E+03, 2.859E+02, 2.280E+02
 1.545E+03, 2.832E+02, 2.238E+02
 1.560E+03, 2.804E+02, 2.196E+02
 1.575E+03, 2.777E+02, 2.154E+02
 1.590E+03, 2.749E+02, 2.113E+02
 1.605E+03, 2.722E+02, 2.073E+02
 1.620E+03, 2.694E+02, 2.064E+02
 1.635E+03, 2.668E+02, 2.064E+02
 1.650E+03, 2.642E+02, 2.064E+02
 1.665E+03, 2.618E+02, 2.064E+02
 1.680E+03, 2.594E+02, 2.064E+02
 1.695E+03, 2.572E+02, 2.064E+02
 1.710E+03, 2.550E+02, 2.064E+02
 1.725E+03, 2.529E+02, 2.064E+02
 1.740E+03, 2.509E+02, 2.064E+02
 1.755E+03, 2.489E+02, 2.064E+02
 1.770E+03, 2.470E+02, 2.064E+02
 1.785E+03, 2.452E+02, 2.064E+02
 1.800E+03, 2.433E+02, 2.064E+02
