s,C,C,C
Time,"Cable Temp","Shroud Temp","Conduit"
 0.000E+00, 3.100E+01, 3.100E+01, 3.100E+01
 1.507E+01, 3.100E+01, 6.850E+01, 3.106E+01
 3.004E+01, 3.104E+01, 1.424E+02, 3.160E+01
 4.501E+01, 3.110E+01, 2.163E+02, 3.298E+01
 6.001E+01, 3.114E+01, 2.902E+02, 3.576E+01
 7.503E+01, 3.123E+01, 3.642E+02, 4.063E+01
 9.001E+01, 3.141E+01, 4.382E+02, 4.847E+01
 1.050E+02, 3.167E+01, 4.750E+02, 5.948E+01
 1.200E+02, 3.212E+01, 4.750E+02, 7.108E+01
 1.350E+02, 3.275E+01, 4.750E+02, 8.256E+01
 1.500E+02, 3.355E+01, 4.750E+02, 9.392E+01
 1.650E+02, 3.460E+01, 4.750E+02, 1.052E+02
 1.800E+02, 3.582E+01, 4.750E+02, 1.163E+02
 1.950E+02, 3.727E+01, 4.750E+02, 1.273E+02
 2.100E+02, 3.885E+01, 4.750E+02, 1.381E+02
 2.250E+02, 4.060E+01, 4.750E+02, 1.487E+02
 2.400E+02, 4.260E+01, 4.750E+02, 1.592E+02
 2.550E+02, 4.470E+01, 4.750E+02, 1.695E+02
 2.700E+02, 4.700E+01, 4.750E+02, 1.797E+02
 2.850E+02, 4.954E+01, 4.750E+02, 1.896E+02
 3.000E+02, 5.227E+01, 4.750E+02, 1.994E+02
 3.150E+02, 5.525E+01, 4.750E+02, 2.089E+02
 3.300E+02, 5.846E+01, 4.750E+02, 2.182E+02
 3.450E+02, 6.183E+01, 4.750E+02, 2.273E+02
 3.600E+02, 6.534E+01, 4.750E+02, 2.361E+02
 3.750E+02, 6.905E+01, 4.750E+02, 2.447E+02
 3.900E+02, 7.294E+01, 4.750E+02, 2.531E+02
 4.050E+02, 7.707E+01, 4.750E+02, 2.612E+02
 4.200E+02, 8.142E+01, 4.750E+02, 2.690E+02
 4.350E+02, 8.589E+01, 4.750E+02, 2.765E+02
 4.500E+02, 9.047E+01, 4.750E+02, 2.838E+02
 4.650E+02, 9.521E+01, 4.750E+02, 2.909E+02
 4.800E+02, 1.001E+02, 4.750E+02, 2.977E+02
 4.950E+02, 1.052E+02, 4.750E+02, 3.042E+02
 5.100E+02, 1.104E+02, 4.750E+02, 3.105E+02
 5.250E+02, 1.158E+02, 4.750E+02, 3.165E+02
 5.400E+02, 1.212E+02, 4.750E+02, 3.223E+02
 5.550E+02, 1.266E+02, 4.750E+02, 3.278E+02
 5.700E+02, 1.322E+02, 4.750E+02, 3.331E+02
 5.850E+02, 1.378E+02, 4.750E+02, 3.381E+02
 6.000E+02, 1.436E+02, 4.750E+02, 3.429E+02
 6.150E+02, 1.494E+02, 4.750E+02, 3.475E+02
 6.300E+02, 1.552E+02, 4.750E+02, 3.519E+02
 6.450E+02, 1.610E+02, 4.750E+02, 3.561E+02
 6.600E+02, 1.669E+02, 4.750E+02, 3.601E+02
 6.750E+02, 1.728E+02, 4.750E+02, 3.639E+02
 6.900E+02, 1.788E+02, 4.750E+02, 3.675E+02
 7.050E+02, 1.847E+02, 4.750E+02, 3.710E+02
 7.200E+02, 1.907E+02, 4.750E+02, 3.743E+02
 7.350E+02, 1.966E+02, 4.750E+02, 3.774E+02
 7.500E+02, 2.025E+02, 4.750E+02, 3.804E+02
 7.650E+02, 2.084E+02, 4.750E+02, 3.833E+02
 7.800E+02, 2.142E+02, 4.750E+02, 3.861E+02
 7.950E+02, 2.199E+02, 4.750E+02, 3.887E+02
 8.100E+02, 2.255E+02, 4.750E+02, 3.912E+02
 8.250E+02, 2.310E+02, 4.750E+02, 3.935E+02
 8.400E+02, 2.365E+02, 4.750E+02, 3.958E+02
 8.550E+02, 2.419E+02, 4.750E+02, 3.979E+02
 8.700E+02, 2.473E+02, 4.750E+02, 4.000E+02
 8.850E+02, 2.525E+02, 4.750E+02, 4.019E+02
 9.000E+02, 2.577E+02, 4.750E+02, 4.037E+02
 9.150E+02, 2.627E+02, 4.750E+02, 4.055E+02
 9.300E+02, 2.676E+02, 4.750E+02, 4.071E+02
 9.450E+02, 2.724E+02, 4.750E+02, 4.088E+02
 9.600E+02, 2.772E+02, 4.750E+02, 4.104E+02
 9.750E+02, 2.818E+02, 4.750E+02, 4.118E+02
 9.900E+02, 2.864E+02, 4.750E+02, 4.133E+02
 1.005E+03, 2.908E+02, 4.750E+02, 4.146E+02
 1.020E+03, 2.951E+02, 4.750E+02, 4.159E+02
 1.035E+03, 2.993E+02, 4.750E+02, 4.171E+02
 1.050E+03, 3.034E+02, 4.750E+02, 4.182E+02
 1.065E+03, 3.074E+02, 4.750E+02, 4.193E+02
 1.080E+03, 3.113E+02, 4.750E+02, 4.204E+02
 1.095E+03, 3.151E+02, 4.750E+02, 4.213E+02
 1.110E+03, 3.187E+02, 4.750E+02, 4.223E+02
 1.125E+03, 3.223E+02, 4.750E+02, 4.232E+02
 1.140E+03, 3.258E+02, 4.750E+02, 4.241E+02
 1.155E+03, 3.294E+02, 4.750E+02, 4.250E+02
 1.170E+03, 3.328E+02, 4.750E+02, 4.258E+02
 1.185E+03, 3.360E+02, 4.750E+02, 4.266E+02
 1.200E+03, 3.392E+02, 4.750E+02, 4.272E+02
 1.215E+03, 3.423E+02, 4.750E+02, 4.279E+02
 1.230E+03, 3.455E+02, 4.750E+02, 4.286E+02
 1.245E+03, 3.485E+02, 4.750E+02, 4.293E+02
 1.260E+03, 3.514E+02, 4.750E+02, 4.300E+02
 1.275E+03, 3.542E+02, 4.750E+02, 4.307E+02
 1.290E+03, 3.570E+02, 4.750E+02, 4.313E+02
 1.305E+03, 3.596E+02, 4.750E+02, 4.318E+02
 1.320E+03, 3.621E+02, 4.750E+02, 4.325E+02
 1.335E+03, 3.646E+02, 4.750E+02, 4.331E+02
 1.350E+03, 3.669E+02, 4.750E+02, 4.336E+02
 1.365E+03, 3.692E+02, 4.750E+02, 4.341E+02
 1.380E+03, 3.714E+02, 4.750E+02, 4.346E+02
 1.395E+03, 3.735E+02, 4.750E+02, 4.350E+02
 1.410E+03, 3.756E+02, 4.750E+02, 4.354E+02
 1.425E+03, 3.777E+02, 4.750E+02, 4.358E+02
 1.440E+03, 3.797E+02, 4.750E+02, 4.362E+02
 1.455E+03, 3.816E+02, 4.750E+02, 4.365E+02
 1.470E+03, 3.834E+02, 4.750E+02, 4.369E+02
 1.485E+03, 3.852E+02, 4.750E+02, 4.372E+02
 1.500E+03, 3.868E+02, 4.750E+02, 4.374E+02
 1.515E+03, 3.885E+02, 4.750E+02, 4.377E+02
 1.530E+03, 3.900E+02, 4.750E+02, 4.381E+02
 1.545E+03, 3.916E+02, 4.750E+02, 4.384E+02
 1.560E+03, 3.932E+02, 4.750E+02, 4.387E+02
 1.575E+03, 3.948E+02, 4.750E+02, 4.390E+02
 1.590E+03, 3.963E+02, 4.750E+02, 4.392E+02
 1.605E+03, 3.977E+02, 4.750E+02, 4.395E+02
 1.620E+03, 3.990E+02, 4.750E+02, 4.397E+02
 1.635E+03, 4.002E+02, 4.750E+02, 4.399E+02
 1.650E+03, 4.014E+02, 4.750E+02, 4.402E+02
 1.665E+03, 4.025E+02, 4.750E+02, 4.403E+02
 1.680E+03, 4.036E+02, 4.750E+02, 4.404E+02
 1.695E+03, 4.048E+02, 4.750E+02, 4.407E+02
 1.710E+03, 4.060E+02, 4.750E+02, 4.410E+02
 1.725E+03, 4.071E+02, 4.750E+02, 4.412E+02
 1.740E+03, 4.080E+02, 4.750E+02, 4.414E+02
 1.755E+03, 4.090E+02, 4.750E+02, 4.415E+02
 1.770E+03, 4.100E+02, 4.750E+02, 4.417E+02
 1.785E+03, 4.110E+02, 4.750E+02, 4.419E+02
 1.800E+03, 4.119E+02, 4.750E+02, 4.421E+02
 1.815E+03, 4.129E+02, 4.750E+02, 4.423E+02
 1.830E+03, 4.137E+02, 4.750E+02, 4.425E+02
 1.845E+03, 4.146E+02, 4.750E+02, 4.427E+02
 1.860E+03, 4.155E+02, 4.750E+02, 4.429E+02
 1.875E+03, 4.164E+02, 4.750E+02, 4.430E+02
 1.890E+03, 4.173E+02, 4.750E+02, 4.432E+02
 1.905E+03, 4.180E+02, 4.750E+02, 4.433E+02
 1.920E+03, 4.187E+02, 4.750E+02, 4.434E+02
 1.935E+03, 4.195E+02, 4.750E+02, 4.436E+02
 1.950E+03, 4.201E+02, 4.750E+02, 4.437E+02
 1.965E+03, 4.207E+02, 4.750E+02, 4.438E+02
 1.980E+03, 4.214E+02, 4.750E+02, 4.440E+02
 1.995E+03, 4.220E+02, 4.750E+02, 4.441E+02
 2.010E+03, 4.226E+02, 4.750E+02, 4.441E+02
 2.025E+03, 4.231E+02, 4.750E+02, 4.442E+02
 2.040E+03, 4.237E+02, 4.750E+02, 4.443E+02
 2.055E+03, 4.242E+02, 4.750E+02, 4.443E+02
 2.070E+03, 4.246E+02, 4.750E+02, 4.444E+02
 2.085E+03, 4.249E+02, 4.750E+02, 4.445E+02
 2.100E+03, 4.254E+02, 4.750E+02, 4.446E+02
 2.115E+03, 4.258E+02, 4.750E+02, 4.447E+02
 2.130E+03, 4.262E+02, 4.750E+02, 4.448E+02
 2.145E+03, 4.267E+02, 4.750E+02, 4.449E+02
 2.160E+03, 4.271E+02, 4.750E+02, 4.449E+02
 2.175E+03, 4.273E+02, 4.750E+02, 4.449E+02
 2.190E+03, 4.276E+02, 4.750E+02, 4.449E+02
 2.205E+03, 4.278E+02, 4.750E+02, 4.450E+02
 2.220E+03, 4.281E+02, 4.750E+02, 4.451E+02
 2.235E+03, 4.286E+02, 4.750E+02, 4.452E+02
 2.250E+03, 4.289E+02, 4.750E+02, 4.452E+02
 2.265E+03, 4.293E+02, 4.750E+02, 4.452E+02
 2.280E+03, 4.295E+02, 4.750E+02, 4.452E+02
 2.295E+03, 4.298E+02, 4.750E+02, 4.453E+02
 2.310E+03, 4.302E+02, 4.750E+02, 4.454E+02
 2.325E+03, 4.306E+02, 4.750E+02, 4.455E+02
 2.340E+03, 4.310E+02, 4.750E+02, 4.456E+02
 2.355E+03, 4.314E+02, 4.750E+02, 4.457E+02
 2.370E+03, 4.317E+02, 4.750E+02, 4.457E+02
 2.385E+03, 4.319E+02, 4.750E+02, 4.456E+02
 2.400E+03, 4.321E+02, 4.750E+02, 4.457E+02
 2.415E+03, 4.323E+02, 4.750E+02, 4.457E+02
 2.430E+03, 4.325E+02, 4.750E+02, 4.458E+02
 2.445E+03, 4.327E+02, 4.750E+02, 4.458E+02
 2.460E+03, 4.328E+02, 4.750E+02, 4.458E+02
 2.475E+03, 4.330E+02, 4.750E+02, 4.459E+02
 2.490E+03, 4.332E+02, 4.750E+02, 4.458E+02
 2.505E+03, 4.333E+02, 4.750E+02, 4.458E+02
 2.520E+03, 4.334E+02, 4.750E+02, 4.457E+02
 2.535E+03, 4.335E+02, 4.750E+02, 4.458E+02
 2.550E+03, 4.338E+02, 4.750E+02, 4.459E+02
 2.565E+03, 4.340E+02, 4.750E+02, 4.460E+02
 2.580E+03, 4.344E+02, 4.750E+02, 4.461E+02
 2.595E+03, 4.347E+02, 4.750E+02, 4.462E+02
 2.610E+03, 4.349E+02, 4.750E+02, 4.462E+02
 2.625E+03, 4.351E+02, 4.750E+02, 4.462E+02
 2.640E+03, 4.352E+02, 4.750E+02, 4.462E+02
 2.655E+03, 4.353E+02, 4.750E+02, 4.462E+02
 2.670E+03, 4.353E+02, 4.750E+02, 4.461E+02
 2.685E+03, 4.352E+02, 4.750E+02, 4.460E+02
 2.700E+03, 4.352E+02, 4.750E+02, 4.460E+02
 2.715E+03, 4.354E+02, 4.750E+02, 4.461E+02
 2.730E+03, 4.355E+02, 4.750E+02, 4.461E+02
 2.745E+03, 4.355E+02, 4.750E+02, 4.461E+02
 2.760E+03, 4.356E+02, 4.750E+02, 4.461E+02
 2.775E+03, 4.357E+02, 4.750E+02, 4.461E+02
 2.790E+03, 4.357E+02, 4.750E+02, 4.461E+02
 2.805E+03, 4.358E+02, 4.750E+02, 4.461E+02
 2.820E+03, 4.358E+02, 4.750E+02, 4.461E+02
 2.835E+03, 4.360E+02, 4.750E+02, 4.461E+02
 2.850E+03, 4.361E+02, 4.750E+02, 4.461E+02
 2.865E+03, 4.362E+02, 4.750E+02, 4.461E+02
 2.880E+03, 4.362E+02, 4.750E+02, 4.461E+02
 2.895E+03, 4.361E+02, 4.750E+02, 4.460E+02
 2.910E+03, 4.361E+02, 4.750E+02, 4.460E+02
 2.925E+03, 4.362E+02, 4.750E+02, 4.461E+02
 2.940E+03, 4.363E+02, 4.750E+02, 4.462E+02
 2.955E+03, 4.365E+02, 4.750E+02, 4.462E+02
 2.970E+03, 4.367E+02, 4.750E+02, 4.463E+02
 2.985E+03, 4.369E+02, 4.715E+02, 4.464E+02
 3.000E+03, 4.370E+02, 4.646E+02, 4.459E+02
 3.015E+03, 4.371E+02, 4.576E+02, 4.451E+02
 3.030E+03, 4.370E+02, 4.507E+02, 4.438E+02
 3.045E+03, 4.367E+02, 4.438E+02, 4.422E+02
 3.060E+03, 4.365E+02, 4.368E+02, 4.403E+02
 3.075E+03, 4.362E+02, 4.299E+02, 4.382E+02
 3.090E+03, 4.357E+02, 4.230E+02, 4.358E+02
 3.105E+03, 4.351E+02, 4.160E+02, 4.333E+02
 3.120E+03, 4.345E+02, 4.091E+02, 4.306E+02
 3.135E+03, 4.337E+02, 4.021E+02, 4.277E+02
 3.150E+03, 4.328E+02, 3.952E+02, 4.246E+02
 3.165E+03, 4.319E+02, 3.883E+02, 4.216E+02
 3.180E+03, 4.311E+02, 3.813E+02, 4.184E+02
 3.195E+03, 4.300E+02, 3.744E+02, 4.151E+02
 3.210E+03, 4.288E+02, 3.675E+02, 4.117E+02
 3.225E+03, 4.276E+02, 3.605E+02, 4.082E+02
 3.240E+03, 4.263E+02, 3.536E+02, 4.045E+02
 3.255E+03, 4.246E+02, 3.466E+02, 4.008E+02
 3.270E+03, 4.228E+02, 3.397E+02, 3.971E+02
 3.285E+03, 4.212E+02, 3.328E+02, 3.934E+02
 3.300E+03, 4.195E+02, 3.258E+02, 3.895E+02
 3.315E+03, 4.175E+02, 3.189E+02, 3.856E+02
 3.330E+03, 4.153E+02, 3.120E+02, 3.816E+02
 3.345E+03, 4.132E+02, 3.050E+02, 3.777E+02
 3.360E+03, 4.113E+02, 2.981E+02, 3.739E+02
 3.375E+03, 4.096E+02, 2.911E+02, 3.702E+02
 3.390E+03, 4.078E+02, 2.842E+02, 3.662E+02
 3.405E+03, 4.057E+02, 2.773E+02, 3.623E+02
 3.420E+03, 4.037E+02, 2.703E+02, 3.585E+02
 3.435E+03, 4.017E+02, 2.634E+02, 3.545E+02
 3.450E+03, 3.993E+02, 2.564E+02, 3.505E+02
 3.465E+03, 3.970E+02, 2.530E+02, 3.468E+02
 3.480E+03, 3.949E+02, 2.530E+02, 3.431E+02
 3.495E+03, 3.928E+02, 2.530E+02, 3.396E+02
 3.510E+03, 3.904E+02, 2.530E+02, 3.362E+02
 3.525E+03, 3.881E+02, 2.530E+02, 3.330E+02
 3.540E+03, 3.860E+02, 2.530E+02, 3.300E+02
 3.555E+03, 3.838E+02, 2.530E+02, 3.271E+02
 3.570E+03, 3.817E+02, 2.530E+02, 3.243E+02
 3.585E+03, 3.795E+02, 2.530E+02, 3.216E+02
 3.600E+03, 3.774E+02, 2.530E+02, 3.191E+02
