s,C,C,C
Time,"Cable Temp","Shroud Temp","Conduit"
 0.000E+00, 3.100E+01, 3.100E+01, 3.100E+01
 1.503E+01, 3.100E+01, 6.844E+01, 3.106E+01
 3.003E+01, 3.100E+01, 1.423E+02, 3.163E+01
 4.503E+01, 3.102E+01, 2.163E+02, 3.324E+01
 6.003E+01, 3.106E+01, 2.903E+02, 3.644E+01
 7.503E+01, 3.115E+01, 3.642E+02, 4.194E+01
 9.003E+01, 3.130E+01, 4.382E+02, 5.067E+01
 1.050E+02, 3.158E+01, 4.750E+02, 6.281E+01
 1.200E+02, 3.205E+01, 4.750E+02, 7.546E+01
 1.350E+02, 3.272E+01, 4.750E+02, 8.786E+01
 1.500E+02, 3.358E+01, 4.750E+02, 1.001E+02
 1.650E+02, 3.467E+01, 4.750E+02, 1.122E+02
 1.800E+02, 3.594E+01, 4.750E+02, 1.239E+02
 1.950E+02, 3.740E+01, 4.750E+02, 1.354E+02
 2.100E+02, 3.906E+01, 4.750E+02, 1.466E+02
 2.250E+02, 4.088E+01, 4.750E+02, 1.576E+02
 2.400E+02, 4.285E+01, 4.750E+02, 1.683E+02
 2.550E+02, 4.501E+01, 4.750E+02, 1.787E+02
 2.700E+02, 4.736E+01, 4.750E+02, 1.889E+02
 2.850E+02, 4.992E+01, 4.750E+02, 1.988E+02
 3.000E+02, 5.265E+01, 4.750E+02, 2.084E+02
 3.150E+02, 5.557E+01, 4.750E+02, 2.178E+02
 3.300E+02, 5.874E+01, 4.750E+02, 2.268E+02
 3.450E+02, 6.215E+01, 4.750E+02, 2.356E+02
 3.600E+02, 6.571E+01, 4.750E+02, 2.442E+02
 3.750E+02, 6.951E+01, 4.750E+02, 2.524E+02
 3.900E+02, 7.349E+01, 4.750E+02, 2.604E+02
 4.050E+02, 7.762E+01, 4.750E+02, 2.681E+02
 4.200E+02, 8.187E+01, 4.750E+02, 2.756E+02
 4.350E+02, 8.629E+01, 4.750E+02, 2.828E+02
 4.500E+02, 9.096E+01, 4.750E+02, 2.897E+02
 4.650E+02, 9.583E+01, 4.750E+02, 2.965E+02
 4.800E+02, 1.008E+02, 4.750E+02, 3.029E+02
 4.950E+02, 1.059E+02, 4.750E+02, 3.091E+02
 5.100E+02, 1.112E+02, 4.750E+02, 3.151E+02
 5.250E+02, 1.166E+02, 4.750E+02, 3.207E+02
 5.400E+02, 1.221E+02, 4.750E+02, 3.262E+02
 5.550E+02, 1.277E+02, 4.750E+02, 3.313E+02
 5.700E+02, 1.333E+02, 4.750E+02, 3.363E+02
 5.850E+02, 1.391E+02, 4.750E+02, 3.411E+02
 6.000E+02, 1.449E+02, 4.750E+02, 3.457E+02
 6.150E+02, 1.507E+02, 4.750E+02, 3.500E+02
 6.300E+02, 1.567E+02, 4.750E+02, 3.542E+02
 6.450E+02, 1.626E+02, 4.750E+02, 3.582E+02
 6.600E+02, 1.686E+02, 4.750E+02, 3.619E+02
 6.750E+02, 1.745E+02, 4.750E+02, 3.655E+02
 6.900E+02, 1.805E+02, 4.750E+02, 3.689E+02
 7.050E+02, 1.864E+02, 4.750E+02, 3.722E+02
 7.200E+02, 1.924E+02, 4.750E+02, 3.752E+02
 7.350E+02, 1.983E+02, 4.750E+02, 3.782E+02
 7.500E+02, 2.041E+02, 4.750E+02, 3.811E+02
 7.650E+02, 2.100E+02, 4.750E+02, 3.837E+02
 7.800E+02, 2.158E+02, 4.750E+02, 3.862E+02
 7.950E+02, 2.214E+02, 4.750E+02, 3.887E+02
 8.100E+02, 2.270E+02, 4.750E+02, 3.911E+02
 8.250E+02, 2.325E+02, 4.750E+02, 3.932E+02
 8.400E+02, 2.380E+02, 4.750E+02, 3.953E+02
 8.550E+02, 2.433E+02, 4.750E+02, 3.972E+02
 8.700E+02, 2.486E+02, 4.750E+02, 3.991E+02
 8.850E+02, 2.537E+02, 4.750E+02, 4.010E+02
 9.000E+02, 2.588E+02, 4.750E+02, 4.028E+02
 9.150E+02, 2.638E+02, 4.750E+02, 4.044E+02
 9.300E+02, 2.687E+02, 4.750E+02, 4.060E+02
 9.450E+02, 2.735E+02, 4.750E+02, 4.076E+02
 9.600E+02, 2.782E+02, 4.750E+02, 4.090E+02
 9.750E+02, 2.828E+02, 4.750E+02, 4.104E+02
 9.900E+02, 2.873E+02, 4.750E+02, 4.118E+02
 1.005E+03, 2.917E+02, 4.750E+02, 4.131E+02
 1.020E+03, 2.960E+02, 4.750E+02, 4.143E+02
 1.035E+03, 3.002E+02, 4.750E+02, 4.154E+02
 1.050E+03, 3.043E+02, 4.750E+02, 4.165E+02
 1.065E+03, 3.082E+02, 4.750E+02, 4.174E+02
 1.080E+03, 3.121E+02, 4.750E+02, 4.185E+02
 1.095E+03, 3.159E+02, 4.750E+02, 4.195E+02
 1.110E+03, 3.196E+02, 4.750E+02, 4.205E+02
 1.125E+03, 3.232E+02, 4.750E+02, 4.214E+02
 1.140E+03, 3.267E+02, 4.750E+02, 4.223E+02
 1.155E+03, 3.301E+02, 4.750E+02, 4.231E+02
 1.170E+03, 3.335E+02, 4.750E+02, 4.240E+02
 1.185E+03, 3.368E+02, 4.750E+02, 4.247E+02
 1.200E+03, 3.399E+02, 4.750E+02, 4.254E+02
 1.215E+03, 3.430E+02, 4.750E+02, 4.261E+02
 1.230E+03, 3.460E+02, 4.750E+02, 4.268E+02
 1.245E+03, 3.489E+02, 4.750E+02, 4.275E+02
 1.260E+03, 3.517E+02, 4.750E+02, 4.280E+02
 1.275E+03, 3.544E+02, 4.750E+02, 4.286E+02
 1.290E+03, 3.570E+02, 4.750E+02, 4.291E+02
 1.305E+03, 3.596E+02, 4.750E+02, 4.296E+02
 1.320E+03, 3.620E+02, 4.750E+02, 4.300E+02
 1.335E+03, 3.644E+02, 4.750E+02, 4.304E+02
 1.350E+03, 3.667E+02, 4.750E+02, 4.308E+02
 1.365E+03, 3.690E+02, 4.750E+02, 4.314E+02
 1.380E+03, 3.711E+02, 4.750E+02, 4.318E+02
 1.395E+03, 3.732E+02, 4.750E+02, 4.321E+02
 1.410E+03, 3.753E+02, 4.750E+02, 4.325E+02
 1.425E+03, 3.773E+02, 4.750E+02, 4.329E+02
 1.440E+03, 3.792E+02, 4.750E+02, 4.333E+02
 1.455E+03, 3.812E+02, 4.750E+02, 4.337E+02
 1.470E+03, 3.830E+02, 4.750E+02, 4.341E+02
 1.485E+03, 3.847E+02, 4.750E+02, 4.344E+02
 1.500E+03, 3.864E+02, 4.750E+02, 4.347E+02
 1.515E+03, 3.881E+02, 4.750E+02, 4.349E+02
 1.530E+03, 3.896E+02, 4.750E+02, 4.353E+02
 1.545E+03, 3.912E+02, 4.750E+02, 4.357E+02
 1.560E+03, 3.928E+02, 4.750E+02, 4.360E+02
 1.575E+03, 3.944E+02, 4.750E+02, 4.364E+02
 1.590E+03, 3.958E+02, 4.750E+02, 4.366E+02
 1.605E+03, 3.972E+02, 4.750E+02, 4.370E+02
 1.620E+03, 3.986E+02, 4.750E+02, 4.373E+02
 1.635E+03, 4.000E+02, 4.750E+02, 4.377E+02
 1.650E+03, 4.013E+02, 4.750E+02, 4.379E+02
 1.665E+03, 4.026E+02, 4.750E+02, 4.381E+02
 1.680E+03, 4.037E+02, 4.750E+02, 4.382E+02
 1.695E+03, 4.047E+02, 4.750E+02, 4.383E+02
 1.710E+03, 4.058E+02, 4.750E+02, 4.384E+02
 1.725E+03, 4.067E+02, 4.750E+02, 4.386E+02
 1.740E+03, 4.078E+02, 4.750E+02, 4.389E+02
 1.755E+03, 4.089E+02, 4.750E+02, 4.391E+02
 1.770E+03, 4.099E+02, 4.750E+02, 4.393E+02
 1.785E+03, 4.109E+02, 4.750E+02, 4.396E+02
 1.800E+03, 4.118E+02, 4.750E+02, 4.397E+02
 1.815E+03, 4.127E+02, 4.750E+02, 4.399E+02
 1.830E+03, 4.136E+02, 4.750E+02, 4.400E+02
 1.845E+03, 4.144E+02, 4.750E+02, 4.401E+02
 1.860E+03, 4.153E+02, 4.750E+02, 4.404E+02
 1.875E+03, 4.161E+02, 4.750E+02, 4.405E+02
 1.890E+03, 4.168E+02, 4.750E+02, 4.405E+02
 1.905E+03, 4.174E+02, 4.750E+02, 4.406E+02
 1.920E+03, 4.181E+02, 4.750E+02, 4.406E+02
 1.935E+03, 4.187E+02, 4.750E+02, 4.407E+02
 1.950E+03, 4.193E+02, 4.750E+02, 4.409E+02
 1.965E+03, 4.200E+02, 4.750E+02, 4.411E+02
 1.980E+03, 4.207E+02, 4.750E+02, 4.411E+02
 1.995E+03, 4.213E+02, 4.750E+02, 4.413E+02
 2.010E+03, 4.219E+02, 4.750E+02, 4.413E+02
 2.025E+03, 4.224E+02, 4.750E+02, 4.414E+02
 2.040E+03, 4.229E+02, 4.750E+02, 4.416E+02
 2.055E+03, 4.236E+02, 4.750E+02, 4.418E+02
 2.070E+03, 4.241E+02, 4.750E+02, 4.418E+02
 2.085E+03, 4.246E+02, 4.750E+02, 4.419E+02
 2.100E+03, 4.251E+02, 4.750E+02, 4.421E+02
 2.115E+03, 4.255E+02, 4.750E+02, 4.422E+02
 2.130E+03, 4.259E+02, 4.750E+02, 4.422E+02
 2.145E+03, 4.264E+02, 4.750E+02, 4.424E+02
 2.160E+03, 4.268E+02, 4.750E+02, 4.424E+02
 2.175E+03, 4.272E+02, 4.750E+02, 4.424E+02
 2.190E+03, 4.275E+02, 4.750E+02, 4.425E+02
 2.205E+03, 4.279E+02, 4.750E+02, 4.425E+02
 2.220E+03, 4.283E+02, 4.750E+02, 4.427E+02
 2.235E+03, 4.287E+02, 4.750E+02, 4.428E+02
 2.250E+03, 4.291E+02, 4.750E+02, 4.429E+02
 2.265E+03, 4.295E+02, 4.750E+02, 4.430E+02
 2.280E+03, 4.299E+02, 4.750E+02, 4.430E+02
 2.295E+03, 4.302E+02, 4.750E+02, 4.430E+02
 2.310E+03, 4.305E+02, 4.750E+02, 4.431E+02
 2.325E+03, 4.307E+02, 4.750E+02, 4.431E+02
 2.340E+03, 4.310E+02, 4.750E+02, 4.433E+02
 2.355E+03, 4.314E+02, 4.750E+02, 4.433E+02
 2.370E+03, 4.317E+02, 4.750E+02, 4.434E+02
 2.385E+03, 4.319E+02, 4.750E+02, 4.433E+02
 2.400E+03, 4.321E+02, 4.750E+02, 4.433E+02
 2.415E+03, 4.322E+02, 4.750E+02, 4.432E+02
 2.430E+03, 4.323E+02, 4.750E+02, 4.431E+02
 2.445E+03, 4.325E+02, 4.750E+02, 4.432E+02
 2.460E+03, 4.327E+02, 4.750E+02, 4.433E+02
 2.475E+03, 4.329E+02, 4.750E+02, 4.433E+02
 2.490E+03, 4.331E+02, 4.750E+02, 4.434E+02
 2.505E+03, 4.333E+02, 4.750E+02, 4.434E+02
 2.520E+03, 4.335E+02, 4.750E+02, 4.435E+02
 2.535E+03, 4.338E+02, 4.750E+02, 4.437E+02
 2.550E+03, 4.341E+02, 4.750E+02, 4.437E+02
 2.565E+03, 4.343E+02, 4.750E+02, 4.438E+02
 2.580E+03, 4.345E+02, 4.750E+02, 4.437E+02
 2.595E+03, 4.346E+02, 4.750E+02, 4.438E+02
 2.610E+03, 4.348E+02, 4.750E+02, 4.438E+02
 2.625E+03, 4.349E+02, 4.750E+02, 4.438E+02
 2.640E+03, 4.350E+02, 4.750E+02, 4.438E+02
 2.655E+03, 4.351E+02, 4.750E+02, 4.438E+02
 2.670E+03, 4.352E+02, 4.750E+02, 4.438E+02
 2.685E+03, 4.353E+02, 4.750E+02, 4.438E+02
 2.700E+03, 4.354E+02, 4.750E+02, 4.438E+02
 2.715E+03, 4.355E+02, 4.750E+02, 4.439E+02
 2.730E+03, 4.357E+02, 4.750E+02, 4.439E+02
 2.745E+03, 4.358E+02, 4.750E+02, 4.439E+02
 2.760E+03, 4.359E+02, 4.750E+02, 4.439E+02
 2.775E+03, 4.361E+02, 4.750E+02, 4.439E+02
 2.790E+03, 4.361E+02, 4.750E+02, 4.437E+02
 2.805E+03, 4.360E+02, 4.750E+02, 4.437E+02
 2.820E+03, 4.360E+02, 4.750E+02, 4.436E+02
 2.835E+03, 4.361E+02, 4.750E+02, 4.436E+02
 2.850E+03, 4.362E+02, 4.750E+02, 4.436E+02
 2.865E+03, 4.362E+02, 4.750E+02, 4.435E+02
 2.880E+03, 4.363E+02, 4.750E+02, 4.436E+02
 2.895E+03, 4.364E+02, 4.750E+02, 4.436E+02
 2.910E+03, 4.365E+02, 4.750E+02, 4.437E+02
 2.925E+03, 4.366E+02, 4.750E+02, 4.437E+02
 2.940E+03, 4.366E+02, 4.750E+02, 4.436E+02
 2.955E+03, 4.366E+02, 4.750E+02, 4.436E+02
 2.970E+03, 4.366E+02, 4.750E+02, 4.436E+02
 2.985E+03, 4.367E+02, 4.715E+02, 4.435E+02
 3.000E+03, 4.367E+02, 4.646E+02, 4.430E+02
 3.015E+03, 4.367E+02, 4.576E+02, 4.421E+02
 3.030E+03, 4.367E+02, 4.507E+02, 4.410E+02
 3.045E+03, 4.367E+02, 4.438E+02, 4.395E+02
 3.060E+03, 4.366E+02, 4.368E+02, 4.378E+02
 3.075E+03, 4.364E+02, 4.299E+02, 4.358E+02
 3.090E+03, 4.360E+02, 4.230E+02, 4.334E+02
 3.105E+03, 4.354E+02, 4.160E+02, 4.308E+02
 3.120E+03, 4.348E+02, 4.091E+02, 4.282E+02
 3.135E+03, 4.342E+02, 4.021E+02, 4.253E+02
 3.150E+03, 4.333E+02, 3.952E+02, 4.221E+02
 3.165E+03, 4.322E+02, 3.883E+02, 4.189E+02
 3.180E+03, 4.311E+02, 3.813E+02, 4.156E+02
 3.195E+03, 4.301E+02, 3.744E+02, 4.123E+02
 3.210E+03, 4.290E+02, 3.674E+02, 4.089E+02
 3.225E+03, 4.278E+02, 3.605E+02, 4.054E+02
 3.240E+03, 4.265E+02, 3.536E+02, 4.019E+02
 3.255E+03, 4.250E+02, 3.466E+02, 3.983E+02
 3.270E+03, 4.236E+02, 3.397E+02, 3.947E+02
 3.285E+03, 4.220E+02, 3.328E+02, 3.909E+02
 3.300E+03, 4.204E+02, 3.258E+02, 3.872E+02
 3.315E+03, 4.186E+02, 3.189E+02, 3.833E+02
 3.330E+03, 4.168E+02, 3.119E+02, 3.795E+02
 3.345E+03, 4.150E+02, 3.050E+02, 3.756E+02
 3.360E+03, 4.130E+02, 2.981E+02, 3.717E+02
 3.375E+03, 4.110E+02, 2.911E+02, 3.677E+02
 3.390E+03, 4.087E+02, 2.842E+02, 3.637E+02
 3.405E+03, 4.065E+02, 2.773E+02, 3.598E+02
 3.420E+03, 4.044E+02, 2.703E+02, 3.559E+02
 3.435E+03, 4.023E+02, 2.634E+02, 3.520E+02
 3.450E+03, 4.001E+02, 2.564E+02, 3.480E+02
 3.465E+03, 3.979E+02, 2.530E+02, 3.442E+02
 3.480E+03, 3.957E+02, 2.530E+02, 3.405E+02
 3.495E+03, 3.935E+02, 2.530E+02, 3.370E+02
 3.510E+03, 3.912E+02, 2.530E+02, 3.336E+02
 3.525E+03, 3.888E+02, 2.530E+02, 3.303E+02
 3.540E+03, 3.865E+02, 2.530E+02, 3.272E+02
 3.555E+03, 3.842E+02, 2.530E+02, 3.242E+02
 3.570E+03, 3.819E+02, 2.530E+02, 3.214E+02
 3.585E+03, 3.797E+02, 2.530E+02, 3.187E+02
 3.600E+03, 3.775E+02, 2.530E+02, 3.161E+02
