s,C,C
Time,"Cable Temp","Shroud Temp"
 0.000E+00, 2.400E+01, 2.400E+01
 1.501E+01, 2.401E+01, 6.148E+01
 3.001E+01, 2.426E+01, 1.356E+02
 4.501E+01, 2.533E+01, 2.099E+02
 6.000E+01, 2.789E+01, 2.842E+02
 7.501E+01, 3.269E+01, 3.586E+02
 9.001E+01, 4.075E+01, 4.329E+02
 1.050E+02, 5.315E+01, 4.700E+02
 1.200E+02, 6.877E+01, 4.700E+02
 1.350E+02, 8.470E+01, 4.700E+02
 1.500E+02, 9.978E+01, 4.700E+02
 1.650E+02, 1.138E+02, 4.700E+02
 1.800E+02, 1.268E+02, 4.700E+02
 1.950E+02, 1.388E+02, 4.700E+02
 2.100E+02, 1.500E+02, 4.700E+02
 2.250E+02, 1.607E+02, 4.700E+02
 2.400E+02, 1.707E+02, 4.700E+02
 2.550E+02, 1.802E+02, 4.700E+02
 2.700E+02, 1.892E+02, 4.700E+02
 2.850E+02, 1.978E+02, 4.700E+02
 3.000E+02, 2.060E+02, 4.700E+02
 3.150E+02, 2.138E+02, 4.700E+02
 3.300E+02, 2.213E+02, 4.700E+02
 3.450E+02, 2.285E+02, 4.700E+02
 3.600E+02, 2.354E+02, 4.700E+02
 3.750E+02, 2.421E+02, 4.700E+02
 3.900E+02, 2.485E+02, 4.700E+02
 4.050E+02, 2.546E+02, 4.700E+02
 4.200E+02, 2.605E+02, 4.700E+02
 4.350E+02, 2.662E+02, 4.700E+02
 4.500E+02, 2.716E+02, 4.700E+02
 4.650E+02, 2.770E+02, 4.700E+02
 4.800E+02, 2.822E+02, 4.700E+02
 4.950E+02, 2.871E+02, 4.700E+02
 5.100E+02, 2.916E+02, 4.700E+02
 5.250E+02, 2.962E+02, 4.700E+02
 5.400E+02, 3.006E+02, 4.700E+02
 5.550E+02, 3.049E+02, 4.700E+02
 5.700E+02, 3.091E+02, 4.700E+02
 5.850E+02, 3.130E+02, 4.700E+02
 6.000E+02, 3.168E+02, 4.700E+02
 6.150E+02, 3.204E+02, 4.700E+02
 6.300E+02, 3.237E+02, 4.700E+02
 6.450E+02, 3.271E+02, 4.700E+02
 6.600E+02, 3.305E+02, 4.700E+02
 6.750E+02, 3.336E+02, 4.700E+02
 6.900E+02, 3.368E+02, 4.700E+02
 7.050E+02, 3.398E+02, 4.700E+02
 7.200E+02, 3.427E+02, 4.700E+02
 7.350E+02, 3.455E+02, 4.700E+02
 7.500E+02, 3.483E+02, 4.700E+02
 7.650E+02, 3.507E+02, 4.700E+02
 7.800E+02, 3.530E+02, 4.700E+02
 7.950E+02, 3.553E+02, 4.700E+02
 8.100E+02, 3.577E+02, 4.700E+02
 8.250E+02, 3.599E+02, 4.700E+02
 8.400E+02, 3.620E+02, 4.700E+02
 8.550E+02, 3.640E+02, 4.700E+02
 8.700E+02, 3.661E+02, 4.700E+02
 8.850E+02, 3.681E+02, 4.700E+02
 9.000E+02, 3.699E+02, 4.700E+02
 9.150E+02, 3.717E+02, 4.700E+02
 9.300E+02, 3.733E+02, 4.700E+02
 9.450E+02, 3.749E+02, 4.700E+02
 9.600E+02, 3.764E+02, 4.700E+02
 9.750E+02, 3.780E+02, 4.700E+02
 9.900E+02, 3.795E+02, 4.700E+02
 1.005E+03, 3.809E+02, 4.700E+02
 1.020E+03, 3.820E+02, 4.700E+02
 1.035E+03, 3.832E+02, 4.700E+02
 1.050E+03, 3.846E+02, 4.700E+02
 1.065E+03, 3.858E+02, 4.700E+02
 1.080E+03, 3.868E+02, 4.700E+02
 1.095E+03, 3.880E+02, 4.700E+02
 1.110E+03, 3.892E+02, 4.700E+02
 1.125E+03, 3.904E+02, 4.700E+02
 1.140E+03, 3.914E+02, 4.700E+02
 1.155E+03, 3.922E+02, 4.700E+02
 1.170E+03, 3.929E+02, 4.700E+02
 1.185E+03, 3.937E+02, 4.700E+02
 1.200E+03, 3.945E+02, 4.700E+02
 1.215E+03, 3.955E+02, 4.700E+02
 1.230E+03, 3.964E+02, 4.700E+02
 1.245E+03, 3.972E+02, 4.700E+02
 1.260E+03, 3.981E+02, 4.700E+02
 1.275E+03, 3.989E+02, 4.700E+02
 1.290E+03, 3.997E+02, 4.700E+02
 1.305E+03, 4.005E+02, 4.700E+02
 1.320E+03, 4.013E+02, 4.700E+02
 1.335E+03, 4.020E+02, 4.700E+02
 1.350E+03, 4.027E+02, 4.700E+02
 1.365E+03, 4.034E+02, 4.700E+02
 1.380E+03, 4.039E+02, 4.700E+02
 1.395E+03, 4.043E+02, 4.700E+02
 1.410E+03, 4.048E+02, 4.700E+02
 1.425E+03, 4.053E+02, 4.700E+02
 1.440E+03, 4.058E+02, 4.700E+02
 1.455E+03, 4.063E+02, 4.700E+02
 1.470E+03, 4.068E+02, 4.700E+02
 1.485E+03, 4.073E+02, 4.700E+02
 1.500E+03, 4.076E+02, 4.700E+02
 1.515E+03, 4.079E+02, 4.700E+02
 1.530E+03, 4.083E+02, 4.700E+02
 1.545E+03, 4.087E+02, 4.700E+02
 1.560E+03, 4.088E+02, 4.700E+02
 1.575E+03, 4.091E+02, 4.700E+02
 1.590E+03, 4.095E+02, 4.700E+02
 1.605E+03, 4.098E+02, 4.700E+02
 1.620E+03, 4.101E+02, 4.700E+02
 1.635E+03, 4.103E+02, 4.700E+02
 1.650E+03, 4.105E+02, 4.700E+02
 1.665E+03, 4.109E+02, 4.700E+02
 1.680E+03, 4.112E+02, 4.700E+02
 1.695E+03, 4.113E+02, 4.700E+02
 1.710E+03, 4.115E+02, 4.700E+02
 1.725E+03, 4.117E+02, 4.700E+02
 1.740E+03, 4.120E+02, 4.700E+02
 1.755E+03, 4.122E+02, 4.700E+02
 1.770E+03, 4.126E+02, 4.700E+02
 1.785E+03, 4.127E+02, 4.700E+02
 1.800E+03, 4.128E+02, 4.700E+02
