s,C,C
Time,"Cable Temp","Shroud Temp"
 0.000E+00, 2.800E+01, 2.800E+01
 1.508E+01, 2.801E+01, 6.204E+01
 3.001E+01, 2.836E+01, 1.289E+02
 4.500E+01, 2.983E+01, 1.958E+02
 6.000E+01, 3.313E+01, 2.628E+02
 7.503E+01, 3.900E+01, 3.299E+02
 9.003E+01, 4.827E+01, 3.970E+02
 1.050E+02, 6.194E+01, 4.602E+02
 1.200E+02, 8.046E+01, 4.750E+02
 1.350E+02, 1.003E+02, 4.750E+02
 1.500E+02, 1.189E+02, 4.750E+02
 1.650E+02, 1.359E+02, 4.750E+02
 1.800E+02, 1.514E+02, 4.750E+02
 1.950E+02, 1.656E+02, 4.750E+02
 2.100E+02, 1.788E+02, 4.750E+02
 2.250E+02, 1.911E+02, 4.750E+02
 2.400E+02, 2.026E+02, 4.750E+02
 2.550E+02, 2.134E+02, 4.750E+02
 2.700E+02, 2.235E+02, 4.750E+02
 2.850E+02, 2.332E+02, 4.750E+02
 3.000E+02, 2.424E+02, 4.750E+02
 3.150E+02, 2.511E+02, 4.750E+02
 3.300E+02, 2.593E+02, 4.750E+02
 3.450E+02, 2.673E+02, 4.750E+02
 3.600E+02, 2.748E+02, 4.750E+02
 3.750E+02, 2.819E+02, 4.750E+02
 3.900E+02, 2.888E+02, 4.750E+02
 4.050E+02, 2.953E+02, 4.750E+02
 4.200E+02, 3.015E+02, 4.750E+02
 4.350E+02, 3.075E+02, 4.750E+02
 4.500E+02, 3.132E+02, 4.750E+02
 4.650E+02, 3.187E+02, 4.750E+02
 4.800E+02, 3.239E+02, 4.750E+02
 4.950E+02, 3.287E+02, 4.750E+02
 5.100E+02, 3.333E+02, 4.750E+02
 5.250E+02, 3.379E+02, 4.750E+02
 5.400E+02, 3.423E+02, 4.750E+02
 5.550E+02, 3.465E+02, 4.750E+02
 5.700E+02, 3.504E+02, 4.750E+02
 5.850E+02, 3.541E+02, 4.750E+02
 6.000E+02, 3.577E+02, 4.750E+02
 6.150E+02, 3.611E+02, 4.750E+02
 6.300E+02, 3.642E+02, 4.750E+02
 6.450E+02, 3.672E+02, 4.750E+02
 6.600E+02, 3.700E+02, 4.750E+02
 6.750E+02, 3.727E+02, 4.750E+02
 6.900E+02, 3.753E+02, 4.750E+02
 7.050E+02, 3.777E+02, 4.750E+02
 7.200E+02, 3.802E+02, 4.750E+02
 7.350E+02, 3.826E+02, 4.750E+02
 7.500E+02, 3.849E+02, 4.750E+02
 7.650E+02, 3.870E+02, 4.750E+02
 7.800E+02, 3.891E+02, 4.750E+02
 7.950E+02, 3.910E+02, 4.750E+02
 8.100E+02, 3.927E+02, 4.750E+02
 8.250E+02, 3.945E+02, 4.750E+02
 8.400E+02, 3.962E+02, 4.750E+02
 8.550E+02, 3.978E+02, 4.750E+02
 8.700E+02, 3.992E+02, 4.750E+02
 8.850E+02, 4.007E+02, 4.750E+02
 9.000E+02, 4.021E+02, 4.750E+02
 9.150E+02, 4.033E+02, 4.750E+02
 9.300E+02, 4.046E+02, 4.750E+02
 9.450E+02, 4.059E+02, 4.750E+02
 9.600E+02, 4.071E+02, 4.750E+02
 9.750E+02, 4.083E+02, 4.750E+02
 9.900E+02, 4.094E+02, 4.750E+02
 1.005E+03, 4.103E+02, 4.750E+02
 1.020E+03, 4.112E+02, 4.750E+02
 1.035E+03, 4.121E+02, 4.750E+02
 1.050E+03, 4.129E+02, 4.750E+02
 1.065E+03, 4.138E+02, 4.750E+02
 1.080E+03, 4.146E+02, 4.750E+02
 1.095E+03, 4.153E+02, 4.750E+02
 1.110E+03, 4.161E+02, 4.750E+02
 1.125E+03, 4.168E+02, 4.750E+02
 1.140E+03, 4.175E+02, 4.750E+02
 1.155E+03, 4.181E+02, 4.750E+02
 1.170E+03, 4.186E+02, 4.750E+02
 1.185E+03, 4.191E+02, 4.750E+02
 1.200E+03, 4.196E+02, 4.750E+02
 1.215E+03, 4.201E+02, 4.750E+02
 1.230E+03, 4.205E+02, 4.750E+02
 1.245E+03, 4.208E+02, 4.750E+02
 1.260E+03, 4.212E+02, 4.750E+02
 1.275E+03, 4.216E+02, 4.750E+02
 1.290E+03, 4.219E+02, 4.750E+02
 1.305E+03, 4.222E+02, 4.746E+02
 1.320E+03, 4.225E+02, 4.694E+02
 1.335E+03, 4.224E+02, 4.627E+02
 1.350E+03, 4.218E+02, 4.560E+02
 1.365E+03, 4.206E+02, 4.493E+02
 1.380E+03, 4.191E+02, 4.426E+02
 1.395E+03, 4.172E+02, 4.359E+02
 1.410E+03, 4.150E+02, 4.292E+02
 1.425E+03, 4.125E+02, 4.225E+02
 1.440E+03, 4.099E+02, 4.158E+02
 1.455E+03, 4.071E+02, 4.090E+02
 1.470E+03, 4.043E+02, 4.023E+02
 1.485E+03, 4.013E+02, 3.956E+02
 1.500E+03, 3.982E+02, 3.889E+02
 1.515E+03, 3.950E+02, 3.822E+02
 1.530E+03, 3.915E+02, 3.755E+02
 1.545E+03, 3.879E+02, 3.688E+02
 1.560E+03, 3.844E+02, 3.621E+02
 1.575E+03, 3.809E+02, 3.554E+02
 1.590E+03, 3.773E+02, 3.487E+02
 1.605E+03, 3.736E+02, 3.420E+02
 1.620E+03, 3.698E+02, 3.353E+02
 1.635E+03, 3.659E+02, 3.286E+02
 1.650E+03, 3.621E+02, 3.219E+02
 1.665E+03, 3.581E+02, 3.152E+02
 1.680E+03, 3.542E+02, 3.085E+02
 1.695E+03, 3.503E+02, 3.018E+02
 1.710E+03, 3.462E+02, 2.966E+02
 1.725E+03, 3.423E+02, 2.962E+02
 1.740E+03, 3.385E+02, 2.962E+02
 1.755E+03, 3.351E+02, 2.962E+02
 1.770E+03, 3.317E+02, 2.962E+02
 1.785E+03, 3.286E+02, 2.962E+02
 1.800E+03, 3.257E+02, 2.962E+02
