s,C,C,C
Time,"Cable Temp","Shroud Temp","Conduit"
 0.000E+00, 3.100E+01, 3.100E+01, 3.100E+01
 1.505E+01, 3.100E+01, 7.157E+01, 3.107E+01
 3.000E+01, 3.103E+01, 1.516E+02, 3.172E+01
 4.505E+01, 3.113E+01, 2.317E+02, 3.353E+01
 6.000E+01, 3.137E+01, 3.074E+02, 3.717E+01
 7.503E+01, 3.236E+01, 3.250E+02, 4.232E+01
 9.003E+01, 3.319E+01, 3.250E+02, 4.753E+01
 1.050E+02, 3.367E+01, 3.250E+02, 5.264E+01
 1.200E+02, 3.478E+01, 3.250E+02, 5.769E+01
 1.350E+02, 3.587E+01, 3.250E+02, 6.266E+01
 1.500E+02, 3.655E+01, 3.250E+02, 6.752E+01
 1.650E+02, 3.723E+01, 3.250E+02, 7.231E+01
 1.800E+02, 3.832E+01, 3.250E+02, 7.704E+01
 1.950E+02, 3.980E+01, 3.250E+02, 8.169E+01
 2.100E+02, 4.099E+01, 3.250E+02, 8.626E+01
 2.250E+02, 4.247E+01, 3.250E+02, 9.075E+01
 2.400E+02, 4.366E+01, 3.250E+02, 9.519E+01
 2.550E+02, 4.477E+01, 3.250E+02, 9.954E+01
 2.700E+02, 4.619E+01, 3.250E+02, 1.038E+02
 2.850E+02, 4.774E+01, 3.250E+02, 1.080E+02
 3.000E+02, 4.905E+01, 3.250E+02, 1.122E+02
 3.150E+02, 5.066E+01, 3.250E+02, 1.162E+02
 3.300E+02, 5.232E+01, 3.250E+02, 1.202E+02
 3.450E+02, 5.389E+01, 3.250E+02, 1.241E+02
 3.600E+02, 5.554E+01, 3.250E+02, 1.280E+02
 3.750E+02, 5.724E+01, 3.250E+02, 1.318E+02
 3.900E+02, 5.894E+01, 3.250E+02, 1.355E+02
 4.050E+02, 6.079E+01, 3.250E+02, 1.392E+02
 4.200E+02, 6.289E+01, 3.250E+02, 1.428E+02
 4.350E+02, 6.490E+01, 3.250E+02, 1.463E+02
 4.500E+02, 6.686E+01, 3.250E+02, 1.497E+02
 4.650E+02, 6.884E+01, 3.250E+02, 1.531E+02
 4.800E+02, 7.089E+01, 3.250E+02, 1.564E+02
 4.950E+02, 7.288E+01, 3.250E+02, 1.597E+02
 5.100E+02, 7.498E+01, 3.250E+02, 1.629E+02
 5.250E+02, 7.718E+01, 3.250E+02, 1.660E+02
 5.400E+02, 7.931E+01, 3.250E+02, 1.691E+02
 5.550E+02, 8.152E+01, 3.250E+02, 1.721E+02
 5.700E+02, 8.382E+01, 3.250E+02, 1.750E+02
 5.850E+02, 8.613E+01, 3.250E+02, 1.779E+02
 6.000E+02, 8.840E+01, 3.250E+02, 1.808E+02
 6.150E+02, 9.075E+01, 3.250E+02, 1.836E+02
 6.300E+02, 9.309E+01, 3.250E+02, 1.863E+02
 6.450E+02, 9.544E+01, 3.250E+02, 1.890E+02
 6.600E+02, 9.788E+01, 3.250E+02, 1.916E+02
 6.750E+02, 1.003E+02, 3.250E+02, 1.941E+02
 6.900E+02, 1.027E+02, 3.250E+02, 1.966E+02
 7.050E+02, 1.052E+02, 3.250E+02, 1.990E+02
 7.200E+02, 1.077E+02, 3.250E+02, 2.014E+02
 7.350E+02, 1.101E+02, 3.250E+02, 2.037E+02
 7.500E+02, 1.125E+02, 3.250E+02, 2.060E+02
 7.650E+02, 1.149E+02, 3.250E+02, 2.082E+02
 7.800E+02, 1.175E+02, 3.250E+02, 2.103E+02
 7.950E+02, 1.201E+02, 3.250E+02, 2.124E+02
 8.100E+02, 1.225E+02, 3.250E+02, 2.145E+02
 8.250E+02, 1.252E+02, 3.250E+02, 2.166E+02
 8.400E+02, 1.276E+02, 3.250E+02, 2.185E+02
 8.550E+02, 1.303E+02, 3.250E+02, 2.205E+02
 8.700E+02, 1.327E+02, 3.250E+02, 2.223E+02
 8.850E+02, 1.352E+02, 3.250E+02, 2.241E+02
 9.000E+02, 1.379E+02, 3.250E+02, 2.260E+02
 9.150E+02, 1.403E+02, 3.250E+02, 2.277E+02
 9.300E+02, 1.427E+02, 3.250E+02, 2.294E+02
 9.450E+02, 1.450E+02, 3.250E+02, 2.310E+02
 9.600E+02, 1.474E+02, 3.250E+02, 2.326E+02
 9.750E+02, 1.500E+02, 3.250E+02, 2.342E+02
 9.900E+02, 1.527E+02, 3.250E+02, 2.358E+02
 1.005E+03, 1.552E+02, 3.250E+02, 2.374E+02
 1.020E+03, 1.577E+02, 3.250E+02, 2.389E+02
 1.035E+03, 1.600E+02, 3.250E+02, 2.403E+02
 1.050E+03, 1.625E+02, 3.250E+02, 2.418E+02
 1.065E+03, 1.650E+02, 3.250E+02, 2.432E+02
 1.080E+03, 1.673E+02, 3.250E+02, 2.446E+02
 1.095E+03, 1.694E+02, 3.250E+02, 2.458E+02
 1.110E+03, 1.719E+02, 3.250E+02, 2.471E+02
 1.125E+03, 1.742E+02, 3.250E+02, 2.483E+02
 1.140E+03, 1.760E+02, 3.250E+02, 2.494E+02
 1.155E+03, 1.779E+02, 3.250E+02, 2.505E+02
 1.170E+03, 1.802E+02, 3.250E+02, 2.516E+02
 1.185E+03, 1.821E+02, 3.250E+02, 2.526E+02
 1.200E+03, 1.840E+02, 3.250E+02, 2.536E+02
 1.215E+03, 1.859E+02, 3.250E+02, 2.545E+02
 1.230E+03, 1.878E+02, 3.250E+02, 2.555E+02
 1.245E+03, 1.897E+02, 3.250E+02, 2.564E+02
 1.260E+03, 1.919E+02, 3.250E+02, 2.574E+02
 1.275E+03, 1.939E+02, 3.250E+02, 2.583E+02
 1.290E+03, 1.960E+02, 3.250E+02, 2.592E+02
 1.305E+03, 1.982E+02, 3.250E+02, 2.602E+02
 1.320E+03, 2.002E+02, 3.250E+02, 2.611E+02
 1.335E+03, 2.019E+02, 3.250E+02, 2.619E+02
 1.350E+03, 2.035E+02, 3.250E+02, 2.626E+02
 1.365E+03, 2.052E+02, 3.250E+02, 2.634E+02
 1.380E+03, 2.071E+02, 3.250E+02, 2.642E+02
 1.395E+03, 2.092E+02, 3.250E+02, 2.650E+02
 1.410E+03, 2.111E+02, 3.250E+02, 2.659E+02
 1.425E+03, 2.128E+02, 3.250E+02, 2.666E+02
 1.440E+03, 2.146E+02, 3.250E+02, 2.674E+02
 1.455E+03, 2.164E+02, 3.250E+02, 2.682E+02
 1.470E+03, 2.180E+02, 3.250E+02, 2.689E+02
 1.485E+03, 2.191E+02, 3.250E+02, 2.694E+02
 1.500E+03, 2.208E+02, 3.250E+02, 2.701E+02
 1.515E+03, 2.224E+02, 3.250E+02, 2.708E+02
 1.530E+03, 2.234E+02, 3.250E+02, 2.712E+02
 1.545E+03, 2.248E+02, 3.250E+02, 2.718E+02
 1.560E+03, 2.266E+02, 3.250E+02, 2.725E+02
 1.575E+03, 2.283E+02, 3.250E+02, 2.731E+02
 1.590E+03, 2.297E+02, 3.250E+02, 2.737E+02
 1.605E+03, 2.307E+02, 3.250E+02, 2.741E+02
 1.620E+03, 2.318E+02, 3.250E+02, 2.745E+02
 1.635E+03, 2.335E+02, 3.250E+02, 2.751E+02
 1.650E+03, 2.351E+02, 3.250E+02, 2.757E+02
 1.665E+03, 2.366E+02, 3.250E+02, 2.763E+02
 1.680E+03, 2.375E+02, 3.250E+02, 2.767E+02
 1.695E+03, 2.381E+02, 3.250E+02, 2.770E+02
 1.710E+03, 2.390E+02, 3.250E+02, 2.773E+02
 1.725E+03, 2.407E+02, 3.250E+02, 2.779E+02
 1.740E+03, 2.421E+02, 3.250E+02, 2.784E+02
 1.755E+03, 2.434E+02, 3.250E+02, 2.789E+02
 1.770E+03, 2.443E+02, 3.250E+02, 2.793E+02
 1.785E+03, 2.450E+02, 3.250E+02, 2.796E+02
 1.800E+03, 2.461E+02, 3.250E+02, 2.800E+02
 1.815E+03, 2.467E+02, 3.250E+02, 2.803E+02
 1.830E+03, 2.474E+02, 3.250E+02, 2.804E+02
 1.845E+03, 2.482E+02, 3.250E+02, 2.807E+02
 1.860E+03, 2.492E+02, 3.250E+02, 2.810E+02
 1.875E+03, 2.503E+02, 3.250E+02, 2.814E+02
 1.890E+03, 2.508E+02, 3.250E+02, 2.816E+02
 1.905E+03, 2.513E+02, 3.250E+02, 2.818E+02
 1.920E+03, 2.520E+02, 3.250E+02, 2.820E+02
 1.935E+03, 2.533E+02, 3.250E+02, 2.824E+02
 1.950E+03, 2.543E+02, 3.250E+02, 2.827E+02
 1.965E+03, 2.555E+02, 3.250E+02, 2.831E+02
 1.980E+03, 2.566E+02, 3.250E+02, 2.835E+02
 1.995E+03, 2.576E+02, 3.250E+02, 2.839E+02
 2.010E+03, 2.585E+02, 3.250E+02, 2.843E+02
 2.025E+03, 2.595E+02, 3.250E+02, 2.846E+02
 2.040E+03, 2.604E+02, 3.250E+02, 2.849E+02
 2.055E+03, 2.613E+02, 3.250E+02, 2.853E+02
 2.070E+03, 2.619E+02, 3.250E+02, 2.856E+02
 2.085E+03, 2.626E+02, 3.250E+02, 2.858E+02
 2.100E+03, 2.634E+02, 3.250E+02, 2.861E+02
 2.115E+03, 2.637E+02, 3.250E+02, 2.863E+02
 2.130E+03, 2.640E+02, 3.250E+02, 2.865E+02
 2.145E+03, 2.641E+02, 3.250E+02, 2.865E+02
 2.160E+03, 2.650E+02, 3.250E+02, 2.868E+02
 2.175E+03, 2.659E+02, 3.250E+02, 2.870E+02
 2.190E+03, 2.667E+02, 3.250E+02, 2.873E+02
 2.205E+03, 2.675E+02, 3.250E+02, 2.876E+02
 2.220E+03, 2.682E+02, 3.250E+02, 2.879E+02
 2.235E+03, 2.685E+02, 3.250E+02, 2.880E+02
 2.250E+03, 2.685E+02, 3.250E+02, 2.881E+02
 2.265E+03, 2.694E+02, 3.250E+02, 2.883E+02
 2.280E+03, 2.702E+02, 3.250E+02, 2.886E+02
 2.295E+03, 2.709E+02, 3.250E+02, 2.888E+02
 2.310E+03, 2.711E+02, 3.250E+02, 2.889E+02
 2.325E+03, 2.711E+02, 3.250E+02, 2.890E+02
 2.340E+03, 2.711E+02, 3.250E+02, 2.890E+02
 2.355E+03, 2.719E+02, 3.250E+02, 2.892E+02
 2.370E+03, 2.727E+02, 3.250E+02, 2.894E+02
 2.385E+03, 2.734E+02, 3.250E+02, 2.896E+02
 2.400E+03, 2.740E+02, 3.250E+02, 2.899E+02
 2.415E+03, 2.745E+02, 3.250E+02, 2.901E+02
 2.430E+03, 2.744E+02, 3.250E+02, 2.901E+02
 2.445E+03, 2.738E+02, 3.250E+02, 2.900E+02
 2.460E+03, 2.745E+02, 3.250E+02, 2.902E+02
 2.475E+03, 2.753E+02, 3.250E+02, 2.904E+02
 2.490E+03, 2.756E+02, 3.250E+02, 2.905E+02
 2.505E+03, 2.762E+02, 3.250E+02, 2.907E+02
 2.520E+03, 2.766E+02, 3.250E+02, 2.908E+02
 2.535E+03, 2.762E+02, 3.250E+02, 2.907E+02
 2.550E+03, 2.760E+02, 3.250E+02, 2.907E+02
 2.565E+03, 2.758E+02, 3.250E+02, 2.906E+02
 2.580E+03, 2.760E+02, 3.250E+02, 2.906E+02
 2.595E+03, 2.761E+02, 3.250E+02, 2.906E+02
 2.610E+03, 2.768E+02, 3.250E+02, 2.908E+02
 2.625E+03, 2.768E+02, 3.250E+02, 2.908E+02
 2.640E+03, 2.770E+02, 3.250E+02, 2.908E+02
 2.655E+03, 2.775E+02, 3.250E+02, 2.909E+02
 2.670E+03, 2.783E+02, 3.250E+02, 2.911E+02
 2.685E+03, 2.788E+02, 3.250E+02, 2.913E+02
 2.700E+03, 2.788E+02, 3.250E+02, 2.914E+02
 2.715E+03, 2.792E+02, 3.250E+02, 2.915E+02
 2.730E+03, 2.797E+02, 3.250E+02, 2.916E+02
 2.745E+03, 2.800E+02, 3.250E+02, 2.918E+02
 2.760E+03, 2.791E+02, 3.250E+02, 2.916E+02
 2.775E+03, 2.789E+02, 3.250E+02, 2.916E+02
 2.790E+03, 2.795E+02, 3.250E+02, 2.917E+02
 2.805E+03, 2.798E+02, 3.250E+02, 2.917E+02
 2.820E+03, 2.794E+02, 3.250E+02, 2.917E+02
 2.835E+03, 2.790E+02, 3.250E+02, 2.916E+02
 2.850E+03, 2.794E+02, 3.250E+02, 2.916E+02
 2.865E+03, 2.794E+02, 3.250E+02, 2.915E+02
 2.880E+03, 2.801E+02, 3.250E+02, 2.917E+02
 2.895E+03, 2.806E+02, 3.250E+02, 2.918E+02
 2.910E+03, 2.802E+02, 3.250E+02, 2.917E+02
 2.925E+03, 2.800E+02, 3.250E+02, 2.917E+02
 2.940E+03, 2.801E+02, 3.250E+02, 2.917E+02
 2.955E+03, 2.799E+02, 3.250E+02, 2.917E+02
 2.970E+03, 2.807E+02, 3.250E+02, 2.918E+02
 2.985E+03, 2.813E+02, 3.250E+02, 2.920E+02
 3.000E+03, 2.818E+02, 3.250E+02, 2.922E+02
 3.015E+03, 2.823E+02, 3.250E+02, 2.923E+02
 3.030E+03, 2.825E+02, 3.250E+02, 2.924E+02
 3.045E+03, 2.827E+02, 3.250E+02, 2.925E+02
 3.060E+03, 2.831E+02, 3.250E+02, 2.926E+02
 3.075E+03, 2.834E+02, 3.250E+02, 2.928E+02
 3.090E+03, 2.838E+02, 3.250E+02, 2.930E+02
 3.105E+03, 2.834E+02, 3.250E+02, 2.929E+02
 3.120E+03, 2.836E+02, 3.250E+02, 2.930E+02
 3.135E+03, 2.840E+02, 3.250E+02, 2.931E+02
 3.150E+03, 2.844E+02, 3.250E+02, 2.933E+02
 3.165E+03, 2.846E+02, 3.250E+02, 2.934E+02
 3.180E+03, 2.848E+02, 3.250E+02, 2.935E+02
 3.195E+03, 2.851E+02, 3.250E+02, 2.936E+02
 3.210E+03, 2.853E+02, 3.250E+02, 2.937E+02
 3.225E+03, 2.855E+02, 3.250E+02, 2.938E+02
 3.240E+03, 2.856E+02, 3.250E+02, 2.939E+02
 3.255E+03, 2.857E+02, 3.250E+02, 2.939E+02
 3.270E+03, 2.854E+02, 3.250E+02, 2.939E+02
 3.285E+03, 2.850E+02, 3.250E+02, 2.938E+02
 3.300E+03, 2.855E+02, 3.250E+02, 2.939E+02
 3.315E+03, 2.857E+02, 3.250E+02, 2.940E+02
 3.330E+03, 2.849E+02, 3.250E+02, 2.938E+02
 3.345E+03, 2.850E+02, 3.250E+02, 2.938E+02
 3.360E+03, 2.851E+02, 3.250E+02, 2.938E+02
 3.375E+03, 2.850E+02, 3.139E+02, 2.936E+02
 3.390E+03, 2.851E+02, 2.918E+02, 2.929E+02
 3.405E+03, 2.855E+02, 2.698E+02, 2.916E+02
 3.420E+03, 2.856E+02, 2.477E+02, 2.898E+02
 3.435E+03, 2.856E+02, 2.257E+02, 2.875E+02
 3.450E+03, 2.849E+02, 2.037E+02, 2.847E+02
 3.465E+03, 2.840E+02, 1.829E+02, 2.816E+02
 3.480E+03, 2.831E+02, 1.780E+02, 2.783E+02
 3.495E+03, 2.817E+02, 1.780E+02, 2.751E+02
 3.510E+03, 2.808E+02, 1.780E+02, 2.721E+02
 3.525E+03, 2.802E+02, 1.780E+02, 2.693E+02
 3.540E+03, 2.795E+02, 1.780E+02, 2.666E+02
 3.555E+03, 2.785E+02, 1.780E+02, 2.640E+02
 3.570E+03, 2.773E+02, 1.780E+02, 2.614E+02
 3.585E+03, 2.762E+02, 1.780E+02, 2.589E+02
 3.600E+03, 2.752E+02, 1.780E+02, 2.566E+02
