s,C,C
Time,"Cable Temp","Shroud Temp"
 0.000E+00, 2.400E+01, 2.400E+01
 1.502E+01, 2.402E+01, 7.270E+01
 3.001E+01, 2.459E+01, 1.691E+02
 4.501E+01, 2.692E+01, 2.657E+02
 6.001E+01, 3.248E+01, 3.624E+02
 7.500E+01, 4.321E+01, 4.536E+02
 9.001E+01, 6.044E+01, 4.750E+02
 1.050E+02, 8.013E+01, 4.750E+02
 1.200E+02, 9.877E+01, 4.750E+02
 1.350E+02, 1.158E+02, 4.750E+02
 1.500E+02, 1.313E+02, 4.750E+02
 1.650E+02, 1.456E+02, 4.750E+02
 1.800E+02, 1.588E+02, 4.750E+02
 1.950E+02, 1.710E+02, 4.750E+02
 2.100E+02, 1.824E+02, 4.750E+02
 2.250E+02, 1.932E+02, 4.750E+02
 2.400E+02, 2.034E+02, 4.750E+02
 2.550E+02, 2.129E+02, 4.750E+02
 2.700E+02, 2.220E+02, 4.750E+02
 2.850E+02, 2.307E+02, 4.750E+02
 3.000E+02, 2.389E+02, 4.750E+02
 3.150E+02, 2.467E+02, 4.750E+02
 3.300E+02, 2.542E+02, 4.750E+02
 3.450E+02, 2.613E+02, 4.750E+02
 3.600E+02, 2.682E+02, 4.750E+02
 3.750E+02, 2.748E+02, 4.750E+02
 3.900E+02, 2.811E+02, 4.750E+02
 4.050E+02, 2.870E+02, 4.750E+02
 4.200E+02, 2.927E+02, 4.750E+02
 4.350E+02, 2.982E+02, 4.750E+02
 4.500E+02, 3.034E+02, 4.750E+02
 4.650E+02, 3.084E+02, 4.750E+02
 4.800E+02, 3.132E+02, 4.750E+02
 4.950E+02, 3.178E+02, 4.750E+02
 5.100E+02, 3.222E+02, 4.750E+02
 5.250E+02, 3.263E+02, 4.750E+02
 5.400E+02, 3.303E+02, 4.750E+02
 5.550E+02, 3.342E+02, 4.750E+02
 5.700E+02, 3.379E+02, 4.750E+02
 5.850E+02, 3.412E+02, 4.750E+02
 6.000E+02, 3.445E+02, 4.750E+02
 6.150E+02, 3.477E+02, 4.750E+02
 6.300E+02, 3.506E+02, 4.750E+02
 6.450E+02, 3.535E+02, 4.750E+02
 6.600E+02, 3.563E+02, 4.750E+02
 6.750E+02, 3.589E+02, 4.750E+02
 6.900E+02, 3.613E+02, 4.750E+02
 7.050E+02, 3.637E+02, 4.750E+02
 7.200E+02, 3.660E+02, 4.750E+02
 7.350E+02, 3.682E+02, 4.750E+02
 7.500E+02, 3.702E+02, 4.750E+02
 7.650E+02, 3.722E+02, 4.750E+02
 7.800E+02, 3.741E+02, 4.750E+02
 7.950E+02, 3.760E+02, 4.750E+02
 8.100E+02, 3.777E+02, 4.750E+02
 8.250E+02, 3.795E+02, 4.750E+02
 8.400E+02, 3.810E+02, 4.750E+02
 8.550E+02, 3.825E+02, 4.750E+02
 8.700E+02, 3.839E+02, 4.750E+02
 8.850E+02, 3.853E+02, 4.750E+02
 9.000E+02, 3.865E+02, 4.750E+02
 9.150E+02, 3.877E+02, 4.750E+02
 9.300E+02, 3.888E+02, 4.750E+02
 9.450E+02, 3.900E+02, 4.750E+02
 9.600E+02, 3.910E+02, 4.750E+02
 9.750E+02, 3.920E+02, 4.750E+02
 9.900E+02, 3.930E+02, 4.750E+02
 1.005E+03, 3.939E+02, 4.750E+02
 1.020E+03, 3.946E+02, 4.750E+02
 1.035E+03, 3.954E+02, 4.750E+02
 1.050E+03, 3.961E+02, 4.750E+02
 1.065E+03, 3.969E+02, 4.750E+02
 1.080E+03, 3.976E+02, 4.750E+02
 1.095E+03, 3.983E+02, 4.750E+02
 1.110E+03, 3.989E+02, 4.750E+02
 1.125E+03, 3.996E+02, 4.750E+02
 1.140E+03, 4.002E+02, 4.750E+02
 1.155E+03, 4.007E+02, 4.750E+02
 1.170E+03, 4.013E+02, 4.750E+02
 1.185E+03, 4.019E+02, 4.750E+02
 1.200E+03, 4.024E+02, 4.750E+02
 1.215E+03, 4.029E+02, 4.750E+02
 1.230E+03, 4.033E+02, 4.750E+02
 1.245E+03, 4.037E+02, 4.750E+02
 1.260E+03, 4.041E+02, 4.750E+02
 1.275E+03, 4.045E+02, 4.750E+02
 1.290E+03, 4.050E+02, 4.750E+02
 1.305E+03, 4.054E+02, 4.750E+02
 1.320E+03, 4.057E+02, 4.750E+02
 1.335E+03, 4.060E+02, 4.750E+02
 1.350E+03, 4.063E+02, 4.750E+02
 1.365E+03, 4.066E+02, 4.750E+02
 1.380E+03, 4.069E+02, 4.750E+02
 1.395E+03, 4.071E+02, 4.750E+02
 1.410E+03, 4.073E+02, 4.750E+02
 1.425E+03, 4.075E+02, 4.750E+02
 1.440E+03, 4.078E+02, 4.750E+02
 1.455E+03, 4.080E+02, 4.750E+02
 1.470E+03, 4.082E+02, 4.750E+02
 1.485E+03, 4.084E+02, 4.742E+02
 1.500E+03, 4.085E+02, 4.637E+02
 1.515E+03, 4.077E+02, 4.502E+02
 1.530E+03, 4.059E+02, 4.367E+02
 1.545E+03, 4.032E+02, 4.231E+02
 1.560E+03, 3.998E+02, 4.096E+02
 1.575E+03, 3.959E+02, 3.961E+02
 1.590E+03, 3.916E+02, 3.825E+02
 1.605E+03, 3.870E+02, 3.690E+02
 1.620E+03, 3.821E+02, 3.555E+02
 1.635E+03, 3.770E+02, 3.419E+02
 1.650E+03, 3.718E+02, 3.284E+02
 1.665E+03, 3.663E+02, 3.149E+02
 1.680E+03, 3.608E+02, 3.013E+02
 1.695E+03, 3.552E+02, 2.946E+02
 1.710E+03, 3.497E+02, 2.946E+02
 1.725E+03, 3.447E+02, 2.946E+02
 1.740E+03, 3.402E+02, 2.946E+02
 1.755E+03, 3.359E+02, 2.946E+02
 1.770E+03, 3.320E+02, 2.946E+02
 1.785E+03, 3.283E+02, 2.946E+02
 1.800E+03, 3.248E+02, 2.946E+02
