s,C,C,C
Time,"Cable Temp","Shroud Temp","Conduit"
 0.000E+00, 3.100E+01, 3.100E+01, 3.100E+01
 1.502E+01, 3.100E+01, 6.835E+01, 3.106E+01
 3.001E+01, 3.104E+01, 1.422E+02, 3.161E+01
 4.502E+01, 3.113E+01, 2.162E+02, 3.301E+01
 6.000E+01, 3.117E+01, 2.902E+02, 3.578E+01
 7.502E+01, 3.122E+01, 3.641E+02, 4.062E+01
 9.001E+01, 3.132E+01, 4.381E+02, 4.846E+01
 1.050E+02, 3.159E+01, 4.750E+02, 5.947E+01
 1.200E+02, 3.207E+01, 4.750E+02, 7.108E+01
 1.350E+02, 3.278E+01, 4.750E+02, 8.258E+01
 1.500E+02, 3.361E+01, 4.750E+02, 9.395E+01
 1.650E+02, 3.463E+01, 4.750E+02, 1.052E+02
 1.800E+02, 3.586E+01, 4.750E+02, 1.163E+02
 1.950E+02, 3.723E+01, 4.750E+02, 1.273E+02
 2.100E+02, 3.884E+01, 4.750E+02, 1.382E+02
 2.250E+02, 4.060E+01, 4.750E+02, 1.488E+02
 2.400E+02, 4.257E+01, 4.750E+02, 1.593E+02
 2.550E+02, 4.472E+01, 4.750E+02, 1.696E+02
 2.700E+02, 4.705E+01, 4.750E+02, 1.798E+02
 2.850E+02, 4.959E+01, 4.750E+02, 1.897E+02
 3.000E+02, 5.232E+01, 4.750E+02, 1.994E+02
 3.150E+02, 5.527E+01, 4.750E+02, 2.089E+02
 3.300E+02, 5.845E+01, 4.750E+02, 2.182E+02
 3.450E+02, 6.183E+01, 4.750E+02, 2.273E+02
 3.600E+02, 6.537E+01, 4.750E+02, 2.361E+02
 3.750E+02, 6.912E+01, 4.750E+02, 2.447E+02
 3.900E+02, 7.302E+01, 4.750E+02, 2.531E+02
 4.050E+02, 7.709E+01, 4.750E+02, 2.612E+02
 4.200E+02, 8.132E+01, 4.750E+02, 2.690E+02
 4.350E+02, 8.577E+01, 4.750E+02, 2.766E+02
 4.500E+02, 9.045E+01, 4.750E+02, 2.839E+02
 4.650E+02, 9.527E+01, 4.750E+02, 2.910E+02
 4.800E+02, 1.001E+02, 4.750E+02, 2.978E+02
 4.950E+02, 1.051E+02, 4.750E+02, 3.043E+02
 5.100E+02, 1.102E+02, 4.750E+02, 3.106E+02
 5.250E+02, 1.156E+02, 4.750E+02, 3.166E+02
 5.400E+02, 1.210E+02, 4.750E+02, 3.224E+02
 5.550E+02, 1.266E+02, 4.750E+02, 3.279E+02
 5.700E+02, 1.323E+02, 4.750E+02, 3.332E+02
 5.850E+02, 1.381E+02, 4.750E+02, 3.382E+02
 6.000E+02, 1.438E+02, 4.750E+02, 3.431E+02
 6.150E+02, 1.496E+02, 4.750E+02, 3.476E+02
 6.300E+02, 1.555E+02, 4.750E+02, 3.520E+02
 6.450E+02, 1.614E+02, 4.750E+02, 3.562E+02
 6.600E+02, 1.673E+02, 4.750E+02, 3.601E+02
 6.750E+02, 1.733E+02, 4.750E+02, 3.640E+02
 6.900E+02, 1.792E+02, 4.750E+02, 3.676E+02
 7.050E+02, 1.850E+02, 4.750E+02, 3.710E+02
 7.200E+02, 1.908E+02, 4.750E+02, 3.743E+02
 7.350E+02, 1.968E+02, 4.750E+02, 3.775E+02
 7.500E+02, 2.027E+02, 4.750E+02, 3.806E+02
 7.650E+02, 2.086E+02, 4.750E+02, 3.834E+02
 7.800E+02, 2.143E+02, 4.750E+02, 3.861E+02
 7.950E+02, 2.199E+02, 4.750E+02, 3.887E+02
 8.100E+02, 2.256E+02, 4.750E+02, 3.912E+02
 8.250E+02, 2.311E+02, 4.750E+02, 3.935E+02
 8.400E+02, 2.365E+02, 4.750E+02, 3.958E+02
 8.550E+02, 2.419E+02, 4.750E+02, 3.979E+02
 8.700E+02, 2.472E+02, 4.750E+02, 4.000E+02
 8.850E+02, 2.524E+02, 4.750E+02, 4.020E+02
 9.000E+02, 2.576E+02, 4.750E+02, 4.038E+02
 9.150E+02, 2.626E+02, 4.750E+02, 4.056E+02
 9.300E+02, 2.675E+02, 4.750E+02, 4.072E+02
 9.450E+02, 2.723E+02, 4.750E+02, 4.088E+02
 9.600E+02, 2.770E+02, 4.750E+02, 4.103E+02
 9.750E+02, 2.817E+02, 4.750E+02, 4.118E+02
 9.900E+02, 2.863E+02, 4.750E+02, 4.133E+02
 1.005E+03, 2.908E+02, 4.750E+02, 4.146E+02
 1.020E+03, 2.952E+02, 4.750E+02, 4.159E+02
 1.035E+03, 2.994E+02, 4.750E+02, 4.171E+02
 1.050E+03, 3.035E+02, 4.750E+02, 4.183E+02
 1.065E+03, 3.076E+02, 4.750E+02, 4.194E+02
 1.080E+03, 3.114E+02, 4.750E+02, 4.204E+02
 1.095E+03, 3.152E+02, 4.750E+02, 4.213E+02
 1.110E+03, 3.188E+02, 4.750E+02, 4.223E+02
 1.125E+03, 3.224E+02, 4.750E+02, 4.232E+02
 1.140E+03, 3.260E+02, 4.750E+02, 4.241E+02
 1.155E+03, 3.295E+02, 4.750E+02, 4.250E+02
 1.170E+03, 3.329E+02, 4.750E+02, 4.258E+02
 1.185E+03, 3.362E+02, 4.750E+02, 4.267E+02
 1.200E+03, 3.394E+02, 4.750E+02, 4.274E+02
 1.215E+03, 3.424E+02, 4.750E+02, 4.281E+02
 1.230E+03, 3.453E+02, 4.750E+02, 4.288E+02
 1.245E+03, 3.481E+02, 4.750E+02, 4.294E+02
 1.260E+03, 3.509E+02, 4.750E+02, 4.300E+02
 1.275E+03, 3.537E+02, 4.750E+02, 4.306E+02
 1.290E+03, 3.564E+02, 4.750E+02, 4.313E+02
 1.305E+03, 3.592E+02, 4.750E+02, 4.319E+02
 1.320E+03, 3.619E+02, 4.750E+02, 4.325E+02
 1.335E+03, 3.645E+02, 4.750E+02, 4.330E+02
 1.350E+03, 3.668E+02, 4.750E+02, 4.335E+02
 1.365E+03, 3.690E+02, 4.750E+02, 4.340E+02
 1.380E+03, 3.712E+02, 4.750E+02, 4.344E+02
 1.395E+03, 3.733E+02, 4.750E+02, 4.349E+02
 1.410E+03, 3.755E+02, 4.750E+02, 4.353E+02
 1.425E+03, 3.776E+02, 4.750E+02, 4.357E+02
 1.440E+03, 3.796E+02, 4.750E+02, 4.362E+02
 1.455E+03, 3.817E+02, 4.750E+02, 4.366E+02
 1.470E+03, 3.833E+02, 4.750E+02, 4.369E+02
 1.485E+03, 3.851E+02, 4.750E+02, 4.373E+02
 1.500E+03, 3.868E+02, 4.750E+02, 4.376E+02
 1.515E+03, 3.885E+02, 4.750E+02, 4.380E+02
 1.530E+03, 3.903E+02, 4.750E+02, 4.383E+02
 1.545E+03, 3.919E+02, 4.750E+02, 4.386E+02
 1.560E+03, 3.935E+02, 4.750E+02, 4.389E+02
 1.575E+03, 3.951E+02, 4.750E+02, 4.392E+02
 1.590E+03, 3.965E+02, 4.750E+02, 4.394E+02
 1.605E+03, 3.978E+02, 4.750E+02, 4.397E+02
 1.620E+03, 3.991E+02, 4.750E+02, 4.399E+02
 1.635E+03, 4.003E+02, 4.750E+02, 4.402E+02
 1.650E+03, 4.017E+02, 4.750E+02, 4.404E+02
 1.665E+03, 4.030E+02, 4.750E+02, 4.407E+02
 1.680E+03, 4.043E+02, 4.750E+02, 4.409E+02
 1.695E+03, 4.055E+02, 4.750E+02, 4.411E+02
 1.710E+03, 4.065E+02, 4.750E+02, 4.413E+02
 1.725E+03, 4.076E+02, 4.750E+02, 4.415E+02
 1.740E+03, 4.085E+02, 4.750E+02, 4.416E+02
 1.755E+03, 4.094E+02, 4.750E+02, 4.417E+02
 1.770E+03, 4.102E+02, 4.750E+02, 4.419E+02
 1.785E+03, 4.111E+02, 4.750E+02, 4.420E+02
 1.800E+03, 4.119E+02, 4.750E+02, 4.421E+02
 1.815E+03, 4.127E+02, 4.750E+02, 4.422E+02
 1.830E+03, 4.135E+02, 4.750E+02, 4.423E+02
 1.845E+03, 4.143E+02, 4.750E+02, 4.425E+02
 1.860E+03, 4.152E+02, 4.750E+02, 4.427E+02
 1.875E+03, 4.162E+02, 4.750E+02, 4.429E+02
 1.890E+03, 4.171E+02, 4.750E+02, 4.431E+02
 1.905E+03, 4.178E+02, 4.750E+02, 4.432E+02
 1.920E+03, 4.186E+02, 4.750E+02, 4.433E+02
 1.935E+03, 4.192E+02, 4.750E+02, 4.434E+02
 1.950E+03, 4.197E+02, 4.750E+02, 4.436E+02
 1.965E+03, 4.203E+02, 4.750E+02, 4.436E+02
 1.980E+03, 4.210E+02, 4.750E+02, 4.437E+02
 1.995E+03, 4.216E+02, 4.750E+02, 4.438E+02
 2.010E+03, 4.221E+02, 4.750E+02, 4.439E+02
 2.025E+03, 4.227E+02, 4.750E+02, 4.441E+02
 2.040E+03, 4.234E+02, 4.750E+02, 4.442E+02
 2.055E+03, 4.240E+02, 4.750E+02, 4.443E+02
 2.070E+03, 4.245E+02, 4.750E+02, 4.444E+02
 2.085E+03, 4.250E+02, 4.750E+02, 4.445E+02
 2.100E+03, 4.254E+02, 4.750E+02, 4.445E+02
 2.115E+03, 4.258E+02, 4.750E+02, 4.445E+02
 2.130E+03, 4.261E+02, 4.750E+02, 4.446E+02
 2.145E+03, 4.265E+02, 4.750E+02, 4.447E+02
 2.160E+03, 4.270E+02, 4.750E+02, 4.448E+02
 2.175E+03, 4.275E+02, 4.750E+02, 4.449E+02
 2.190E+03, 4.279E+02, 4.750E+02, 4.449E+02
 2.205E+03, 4.284E+02, 4.750E+02, 4.450E+02
 2.220E+03, 4.286E+02, 4.750E+02, 4.450E+02
 2.235E+03, 4.288E+02, 4.750E+02, 4.450E+02
 2.250E+03, 4.290E+02, 4.750E+02, 4.450E+02
 2.265E+03, 4.291E+02, 4.750E+02, 4.450E+02
 2.280E+03, 4.295E+02, 4.750E+02, 4.451E+02
 2.295E+03, 4.300E+02, 4.750E+02, 4.452E+02
 2.310E+03, 4.305E+02, 4.750E+02, 4.454E+02
 2.325E+03, 4.308E+02, 4.750E+02, 4.454E+02
 2.340E+03, 4.310E+02, 4.750E+02, 4.454E+02
 2.355E+03, 4.312E+02, 4.750E+02, 4.455E+02
 2.370E+03, 4.315E+02, 4.750E+02, 4.456E+02
 2.385E+03, 4.319E+02, 4.750E+02, 4.457E+02
 2.400E+03, 4.320E+02, 4.750E+02, 4.456E+02
 2.415E+03, 4.320E+02, 4.750E+02, 4.456E+02
 2.430E+03, 4.322E+02, 4.750E+02, 4.456E+02
 2.445E+03, 4.325E+02, 4.750E+02, 4.458E+02
 2.460E+03, 4.329E+02, 4.750E+02, 4.458E+02
 2.475E+03, 4.333E+02, 4.750E+02, 4.459E+02
 2.490E+03, 4.336E+02, 4.750E+02, 4.459E+02
 2.505E+03, 4.339E+02, 4.750E+02, 4.461E+02
 2.520E+03, 4.341E+02, 4.750E+02, 4.461E+02
 2.535E+03, 4.341E+02, 4.750E+02, 4.460E+02
 2.550E+03, 4.341E+02, 4.750E+02, 4.460E+02
 2.565E+03, 4.341E+02, 4.750E+02, 4.460E+02
 2.580E+03, 4.343E+02, 4.750E+02, 4.461E+02
 2.595E+03, 4.346E+02, 4.750E+02, 4.462E+02
 2.610E+03, 4.350E+02, 4.750E+02, 4.463E+02
 2.625E+03, 4.353E+02, 4.750E+02, 4.463E+02
 2.640E+03, 4.353E+02, 4.750E+02, 4.463E+02
 2.655E+03, 4.353E+02, 4.750E+02, 4.462E+02
 2.670E+03, 4.352E+02, 4.750E+02, 4.462E+02
 2.685E+03, 4.353E+02, 4.750E+02, 4.463E+02
 2.700E+03, 4.354E+02, 4.750E+02, 4.463E+02
 2.715E+03, 4.356E+02, 4.750E+02, 4.463E+02
 2.730E+03, 4.356E+02, 4.750E+02, 4.463E+02
 2.745E+03, 4.357E+02, 4.750E+02, 4.463E+02
 2.760E+03, 4.359E+02, 4.750E+02, 4.463E+02
 2.775E+03, 4.361E+02, 4.750E+02, 4.463E+02
 2.790E+03, 4.362E+02, 4.750E+02, 4.463E+02
 2.805E+03, 4.361E+02, 4.750E+02, 4.463E+02
 2.820E+03, 4.362E+02, 4.750E+02, 4.463E+02
 2.835E+03, 4.363E+02, 4.750E+02, 4.463E+02
 2.850E+03, 4.363E+02, 4.750E+02, 4.463E+02
 2.865E+03, 4.365E+02, 4.750E+02, 4.464E+02
 2.880E+03, 4.365E+02, 4.750E+02, 4.463E+02
 2.895E+03, 4.364E+02, 4.750E+02, 4.463E+02
 2.910E+03, 4.366E+02, 4.750E+02, 4.464E+02
 2.925E+03, 4.367E+02, 4.750E+02, 4.464E+02
 2.940E+03, 4.369E+02, 4.750E+02, 4.464E+02
 2.955E+03, 4.369E+02, 4.750E+02, 4.464E+02
 2.970E+03, 4.371E+02, 4.750E+02, 4.465E+02
 2.985E+03, 4.371E+02, 4.715E+02, 4.464E+02
 3.000E+03, 4.371E+02, 4.646E+02, 4.460E+02
 3.015E+03, 4.371E+02, 4.576E+02, 4.451E+02
 3.030E+03, 4.371E+02, 4.507E+02, 4.439E+02
 3.045E+03, 4.369E+02, 4.438E+02, 4.424E+02
 3.060E+03, 4.368E+02, 4.368E+02, 4.407E+02
 3.075E+03, 4.368E+02, 4.299E+02, 4.387E+02
 3.090E+03, 4.365E+02, 4.230E+02, 4.364E+02
 3.105E+03, 4.360E+02, 4.160E+02, 4.338E+02
 3.120E+03, 4.353E+02, 4.091E+02, 4.311E+02
 3.135E+03, 4.344E+02, 4.021E+02, 4.282E+02
 3.150E+03, 4.336E+02, 3.952E+02, 4.251E+02
 3.165E+03, 4.327E+02, 3.883E+02, 4.220E+02
 3.180E+03, 4.318E+02, 3.813E+02, 4.188E+02
 3.195E+03, 4.308E+02, 3.744E+02, 4.154E+02
 3.210E+03, 4.294E+02, 3.675E+02, 4.120E+02
 3.225E+03, 4.280E+02, 3.605E+02, 4.084E+02
 3.240E+03, 4.267E+02, 3.536E+02, 4.049E+02
 3.255E+03, 4.255E+02, 3.466E+02, 4.014E+02
 3.270E+03, 4.242E+02, 3.397E+02, 3.978E+02
 3.285E+03, 4.225E+02, 3.328E+02, 3.939E+02
 3.300E+03, 4.205E+02, 3.258E+02, 3.901E+02
 3.315E+03, 4.186E+02, 3.189E+02, 3.863E+02
 3.330E+03, 4.167E+02, 3.120E+02, 3.823E+02
 3.345E+03, 4.146E+02, 3.050E+02, 3.784E+02
 3.360E+03, 4.127E+02, 2.981E+02, 3.746E+02
 3.375E+03, 4.107E+02, 2.911E+02, 3.707E+02
 3.390E+03, 4.087E+02, 2.842E+02, 3.668E+02
 3.405E+03, 4.069E+02, 2.773E+02, 3.630E+02
 3.420E+03, 4.050E+02, 2.703E+02, 3.591E+02
 3.435E+03, 4.030E+02, 2.634E+02, 3.553E+02
 3.450E+03, 4.010E+02, 2.564E+02, 3.515E+02
 3.465E+03, 3.989E+02, 2.530E+02, 3.477E+02
 3.480E+03, 3.967E+02, 2.530E+02, 3.440E+02
 3.495E+03, 3.945E+02, 2.530E+02, 3.405E+02
 3.510E+03, 3.923E+02, 2.530E+02, 3.372E+02
 3.525E+03, 3.901E+02, 2.530E+02, 3.339E+02
 3.540E+03, 3.875E+02, 2.530E+02, 3.307E+02
 3.555E+03, 3.849E+02, 2.530E+02, 3.277E+02
 3.570E+03, 3.826E+02, 2.530E+02, 3.249E+02
 3.585E+03, 3.803E+02, 2.530E+02, 3.222E+02
 3.600E+03, 3.781E+02, 2.530E+02, 3.196E+02
