s,C,C,C
Time,Cable Temp,Shroud Temp,Conduit
 0.000E+00, 3.100E+01, 3.100E+01, 3.100E+01
 1.502E+01, 3.100E+01, 6.838E+01, 3.106E+01
 3.003E+01, 3.098E+01, 1.423E+02, 3.159E+01
 4.502E+01, 3.100E+01, 2.163E+02, 3.298E+01
 6.000E+01, 3.106E+01, 2.902E+02, 3.576E+01
 7.501E+01, 3.114E+01, 3.641E+02, 4.062E+01
 9.002E+01, 3.128E+01, 4.382E+02, 4.845E+01
 1.050E+02, 3.152E+01, 4.750E+02, 5.944E+01
 1.200E+02, 3.195E+01, 4.750E+02, 7.106E+01
 1.350E+02, 3.264E+01, 4.750E+02, 8.256E+01
 1.500E+02, 3.349E+01, 4.750E+02, 9.394E+01
 1.650E+02, 3.448E+01, 4.750E+02, 1.052E+02
 1.800E+02, 3.564E+01, 4.750E+02, 1.163E+02
 1.950E+02, 3.700E+01, 4.750E+02, 1.273E+02
 2.100E+02, 3.854E+01, 4.750E+02, 1.381E+02
 2.250E+02, 4.027E+01, 4.750E+02, 1.487E+02
 2.400E+02, 4.217E+01, 4.750E+02, 1.593E+02
 2.550E+02, 4.429E+01, 4.750E+02, 1.696E+02
 2.700E+02, 4.656E+01, 4.750E+02, 1.797E+02
 2.850E+02, 4.906E+01, 4.750E+02, 1.896E+02
 3.000E+02, 5.176E+01, 4.750E+02, 1.994E+02
 3.150E+02, 5.467E+01, 4.750E+02, 2.089E+02
 3.300E+02, 5.778E+01, 4.750E+02, 2.182E+02
 3.450E+02, 6.108E+01, 4.750E+02, 2.272E+02
 3.600E+02, 6.462E+01, 4.750E+02, 2.361E+02
 3.750E+02, 6.836E+01, 4.750E+02, 2.447E+02
 3.900E+02, 7.235E+01, 4.750E+02, 2.531E+02
 4.050E+02, 7.651E+01, 4.750E+02, 2.611E+02
 4.200E+02, 8.082E+01, 4.750E+02, 2.690E+02
 4.350E+02, 8.527E+01, 4.750E+02, 2.765E+02
 4.500E+02, 8.986E+01, 4.750E+02, 2.838E+02
 4.650E+02, 9.465E+01, 4.750E+02, 2.909E+02
 4.800E+02, 9.960E+01, 4.750E+02, 2.977E+02
 4.950E+02, 1.047E+02, 4.750E+02, 3.042E+02
 5.100E+02, 1.100E+02, 4.750E+02, 3.105E+02
 5.250E+02, 1.153E+02, 4.750E+02, 3.165E+02
 5.400E+02, 1.208E+02, 4.750E+02, 3.223E+02
 5.550E+02, 1.263E+02, 4.750E+02, 3.278E+02
 5.700E+02, 1.320E+02, 4.750E+02, 3.332E+02
 5.850E+02, 1.379E+02, 4.750E+02, 3.383E+02
 6.000E+02, 1.437E+02, 4.750E+02, 3.431E+02
 6.150E+02, 1.496E+02, 4.750E+02, 3.477E+02
 6.300E+02, 1.556E+02, 4.750E+02, 3.521E+02
 6.450E+02, 1.615E+02, 4.750E+02, 3.563E+02
 6.600E+02, 1.674E+02, 4.750E+02, 3.603E+02
 6.750E+02, 1.734E+02, 4.750E+02, 3.641E+02
 6.900E+02, 1.794E+02, 4.750E+02, 3.678E+02
 7.050E+02, 1.854E+02, 4.750E+02, 3.713E+02
 7.200E+02, 1.913E+02, 4.750E+02, 3.746E+02
 7.350E+02, 1.972E+02, 4.750E+02, 3.777E+02
 7.500E+02, 2.031E+02, 4.750E+02, 3.807E+02
 7.650E+02, 2.089E+02, 4.750E+02, 3.836E+02
 7.800E+02, 2.147E+02, 4.750E+02, 3.863E+02
 7.950E+02, 2.205E+02, 4.750E+02, 3.890E+02
 8.100E+02, 2.262E+02, 4.750E+02, 3.915E+02
 8.250E+02, 2.318E+02, 4.750E+02, 3.938E+02
 8.400E+02, 2.374E+02, 4.750E+02, 3.961E+02
 8.550E+02, 2.428E+02, 4.750E+02, 3.983E+02
 8.700E+02, 2.482E+02, 4.750E+02, 4.004E+02
 8.850E+02, 2.534E+02, 4.750E+02, 4.024E+02
 9.000E+02, 2.587E+02, 4.750E+02, 4.042E+02
 9.150E+02, 2.637E+02, 4.750E+02, 4.060E+02
 9.300E+02, 2.687E+02, 4.750E+02, 4.078E+02
 9.450E+02, 2.736E+02, 4.750E+02, 4.095E+02
 9.600E+02, 2.785E+02, 4.750E+02, 4.111E+02
 9.750E+02, 2.832E+02, 4.750E+02, 4.125E+02
 9.900E+02, 2.878E+02, 4.750E+02, 4.140E+02
 1.005E+03, 2.924E+02, 4.750E+02, 4.153E+02
 1.020E+03, 2.968E+02, 4.750E+02, 4.166E+02
 1.035E+03, 3.011E+02, 4.750E+02, 4.178E+02
 1.050E+03, 3.053E+02, 4.750E+02, 4.189E+02
 1.065E+03, 3.093E+02, 4.750E+02, 4.200E+02
 1.080E+03, 3.132E+02, 4.750E+02, 4.210E+02
 1.095E+03, 3.170E+02, 4.750E+02, 4.220E+02
 1.110E+03, 3.207E+02, 4.750E+02, 4.230E+02
 1.125E+03, 3.244E+02, 4.750E+02, 4.239E+02
 1.140E+03, 3.279E+02, 4.750E+02, 4.248E+02
 1.155E+03, 3.314E+02, 4.750E+02, 4.257E+02
 1.170E+03, 3.347E+02, 4.750E+02, 4.265E+02
 1.185E+03, 3.380E+02, 4.750E+02, 4.273E+02
 1.200E+03, 3.413E+02, 4.750E+02, 4.281E+02
 1.215E+03, 3.445E+02, 4.750E+02, 4.289E+02
 1.230E+03, 3.475E+02, 4.750E+02, 4.296E+02
 1.245E+03, 3.505E+02, 4.750E+02, 4.303E+02
 1.260E+03, 3.534E+02, 4.750E+02, 4.310E+02
 1.275E+03, 3.563E+02, 4.750E+02, 4.317E+02
 1.290E+03, 3.590E+02, 4.750E+02, 4.322E+02
 1.305E+03, 3.616E+02, 4.750E+02, 4.328E+02
 1.320E+03, 3.641E+02, 4.750E+02, 4.333E+02
 1.335E+03, 3.666E+02, 4.750E+02, 4.338E+02
 1.350E+03, 3.690E+02, 4.750E+02, 4.343E+02
 1.365E+03, 3.713E+02, 4.750E+02, 4.349E+02
 1.380E+03, 3.736E+02, 4.750E+02, 4.353E+02
 1.395E+03, 3.758E+02, 4.750E+02, 4.358E+02
 1.410E+03, 3.779E+02, 4.750E+02, 4.363E+02
 1.425E+03, 3.800E+02, 4.750E+02, 4.367E+02
 1.440E+03, 3.820E+02, 4.750E+02, 4.371E+02
 1.455E+03, 3.840E+02, 4.750E+02, 4.375E+02
 1.470E+03, 3.859E+02, 4.750E+02, 4.379E+02
 1.485E+03, 3.877E+02, 4.750E+02, 4.382E+02
 1.500E+03, 3.894E+02, 4.750E+02, 4.386E+02
 1.515E+03, 3.912E+02, 4.750E+02, 4.390E+02
 1.530E+03, 3.930E+02, 4.750E+02, 4.394E+02
 1.545E+03, 3.947E+02, 4.750E+02, 4.398E+02
 1.560E+03, 3.963E+02, 4.750E+02, 4.400E+02
 1.575E+03, 3.977E+02, 4.750E+02, 4.403E+02
 1.590E+03, 3.991E+02, 4.750E+02, 4.405E+02
 1.605E+03, 4.004E+02, 4.750E+02, 4.407E+02
 1.620E+03, 4.017E+02, 4.750E+02, 4.409E+02
 1.635E+03, 4.029E+02, 4.750E+02, 4.411E+02
 1.650E+03, 4.042E+02, 4.750E+02, 4.414E+02
 1.665E+03, 4.055E+02, 4.750E+02, 4.416E+02
 1.680E+03, 4.068E+02, 4.750E+02, 4.419E+02
 1.695E+03, 4.081E+02, 4.750E+02, 4.421E+02
 1.710E+03, 4.093E+02, 4.750E+02, 4.423E+02
 1.725E+03, 4.104E+02, 4.750E+02, 4.425E+02
 1.740E+03, 4.115E+02, 4.750E+02, 4.427E+02
 1.755E+03, 4.125E+02, 4.750E+02, 4.429E+02
 1.770E+03, 4.135E+02, 4.750E+02, 4.430E+02
 1.785E+03, 4.144E+02, 4.750E+02, 4.431E+02
 1.800E+03, 4.153E+02, 4.750E+02, 4.433E+02
 1.815E+03, 4.162E+02, 4.750E+02, 4.435E+02
 1.830E+03, 4.170E+02, 4.750E+02, 4.437E+02
 1.845E+03, 4.178E+02, 4.750E+02, 4.438E+02
 1.860E+03, 4.186E+02, 4.750E+02, 4.439E+02
 1.875E+03, 4.194E+02, 4.750E+02, 4.441E+02
 1.890E+03, 4.201E+02, 4.750E+02, 4.443E+02
 1.905E+03, 4.209E+02, 4.750E+02, 4.445E+02
 1.920E+03, 4.217E+02, 4.750E+02, 4.446E+02
 1.935E+03, 4.225E+02, 4.750E+02, 4.448E+02
 1.950E+03, 4.232E+02, 4.750E+02, 4.449E+02
 1.965E+03, 4.238E+02, 4.750E+02, 4.449E+02
 1.980E+03, 4.244E+02, 4.750E+02, 4.450E+02
 1.995E+03, 4.249E+02, 4.750E+02, 4.452E+02
 2.010E+03, 4.255E+02, 4.750E+02, 4.453E+02
 2.025E+03, 4.261E+02, 4.750E+02, 4.454E+02
 2.040E+03, 4.267E+02, 4.750E+02, 4.454E+02
 2.055E+03, 4.271E+02, 4.750E+02, 4.455E+02
 2.070E+03, 4.276E+02, 4.750E+02, 4.456E+02
 2.085E+03, 4.281E+02, 4.750E+02, 4.456E+02
 2.100E+03, 4.286E+02, 4.750E+02, 4.457E+02
 2.115E+03, 4.291E+02, 4.750E+02, 4.458E+02
 2.130E+03, 4.295E+02, 4.750E+02, 4.459E+02
 2.145E+03, 4.299E+02, 4.750E+02, 4.460E+02
 2.160E+03, 4.303E+02, 4.750E+02, 4.460E+02
 2.175E+03, 4.307E+02, 4.750E+02, 4.461E+02
 2.190E+03, 4.311E+02, 4.750E+02, 4.463E+02
 2.205E+03, 4.317E+02, 4.750E+02, 4.465E+02
 2.220E+03, 4.322E+02, 4.750E+02, 4.466E+02
 2.235E+03, 4.326E+02, 4.750E+02, 4.466E+02
 2.250E+03, 4.328E+02, 4.750E+02, 4.467E+02
 2.265E+03, 4.331E+02, 4.750E+02, 4.467E+02
 2.280E+03, 4.334E+02, 4.750E+02, 4.468E+02
 2.295E+03, 4.337E+02, 4.750E+02, 4.469E+02
 2.310E+03, 4.340E+02, 4.750E+02, 4.469E+02
 2.325E+03, 4.342E+02, 4.750E+02, 4.469E+02
 2.340E+03, 4.344E+02, 4.750E+02, 4.469E+02
 2.355E+03, 4.346E+02, 4.750E+02, 4.469E+02
 2.370E+03, 4.348E+02, 4.750E+02, 4.469E+02
 2.385E+03, 4.351E+02, 4.750E+02, 4.470E+02
 2.400E+03, 4.354E+02, 4.750E+02, 4.470E+02
 2.415E+03, 4.355E+02, 4.750E+02, 4.469E+02
 2.430E+03, 4.357E+02, 4.750E+02, 4.469E+02
 2.445E+03, 4.360E+02, 4.750E+02, 4.469E+02
 2.460E+03, 4.362E+02, 4.750E+02, 4.470E+02
 2.475E+03, 4.364E+02, 4.750E+02, 4.470E+02
 2.490E+03, 4.366E+02, 4.750E+02, 4.471E+02
 2.505E+03, 4.368E+02, 4.750E+02, 4.471E+02
 2.520E+03, 4.370E+02, 4.750E+02, 4.472E+02
 2.535E+03, 4.373E+02, 4.750E+02, 4.472E+02
 2.550E+03, 4.375E+02, 4.750E+02, 4.473E+02
 2.565E+03, 4.376E+02, 4.750E+02, 4.472E+02
 2.580E+03, 4.378E+02, 4.750E+02, 4.473E+02
 2.595E+03, 4.379E+02, 4.750E+02, 4.473E+02
 2.610E+03, 4.381E+02, 4.750E+02, 4.473E+02
 2.625E+03, 4.383E+02, 4.750E+02, 4.474E+02
 2.640E+03, 4.385E+02, 4.750E+02, 4.475E+02
 2.655E+03, 4.386E+02, 4.750E+02, 4.475E+02
 2.670E+03, 4.388E+02, 4.750E+02, 4.475E+02
 2.685E+03, 4.389E+02, 4.750E+02, 4.475E+02
 2.700E+03, 4.390E+02, 4.750E+02, 4.475E+02
 2.715E+03, 4.389E+02, 4.750E+02, 4.474E+02
 2.730E+03, 4.390E+02, 4.750E+02, 4.474E+02
 2.745E+03, 4.391E+02, 4.750E+02, 4.475E+02
 2.760E+03, 4.393E+02, 4.750E+02, 4.476E+02
 2.775E+03, 4.395E+02, 4.750E+02, 4.477E+02
 2.790E+03, 4.397E+02, 4.750E+02, 4.476E+02
 2.805E+03, 4.397E+02, 4.750E+02, 4.475E+02
 2.820E+03, 4.398E+02, 4.750E+02, 4.475E+02
 2.835E+03, 4.399E+02, 4.750E+02, 4.476E+02
 2.850E+03, 4.400E+02, 4.750E+02, 4.477E+02
 2.865E+03, 4.402E+02, 4.750E+02, 4.477E+02
 2.880E+03, 4.403E+02, 4.750E+02, 4.477E+02
 2.895E+03, 4.403E+02, 4.750E+02, 4.477E+02
 2.910E+03, 4.403E+02, 4.750E+02, 4.477E+02
 2.925E+03, 4.403E+02, 4.750E+02, 4.478E+02
 2.940E+03, 4.404E+02, 4.750E+02, 4.477E+02
 2.955E+03, 4.405E+02, 4.750E+02, 4.477E+02
 2.970E+03, 4.404E+02, 4.750E+02, 4.477E+02
 2.985E+03, 4.405E+02, 4.715E+02, 4.477E+02
 3.000E+03, 4.406E+02, 4.646E+02, 4.472E+02
 3.015E+03, 4.406E+02, 4.576E+02, 4.463E+02
 3.030E+03, 4.406E+02, 4.507E+02, 4.451E+02
 3.045E+03, 4.405E+02, 4.438E+02, 4.436E+02
 3.060E+03, 4.403E+02, 4.368E+02, 4.418E+02
 3.075E+03, 4.400E+02, 4.299E+02, 4.398E+02
 3.090E+03, 4.396E+02, 4.229E+02, 4.375E+02
 3.105E+03, 4.392E+02, 4.160E+02, 4.349E+02
 3.120E+03, 4.386E+02, 4.091E+02, 4.322E+02
 3.135E+03, 4.378E+02, 4.021E+02, 4.293E+02
 3.150E+03, 4.369E+02, 3.952E+02, 4.263E+02
 3.165E+03, 4.360E+02, 3.883E+02, 4.231E+02
 3.180E+03, 4.349E+02, 3.813E+02, 4.198E+02
 3.195E+03, 4.336E+02, 3.744E+02, 4.164E+02
 3.210E+03, 4.322E+02, 3.675E+02, 4.129E+02
 3.225E+03, 4.308E+02, 3.605E+02, 4.094E+02
 3.240E+03, 4.295E+02, 3.536E+02, 4.059E+02
 3.255E+03, 4.281E+02, 3.466E+02, 4.022E+02
 3.270E+03, 4.264E+02, 3.397E+02, 3.984E+02
 3.285E+03, 4.246E+02, 3.328E+02, 3.946E+02
 3.300E+03, 4.228E+02, 3.258E+02, 3.907E+02
 3.315E+03, 4.210E+02, 3.189E+02, 3.869E+02
 3.330E+03, 4.192E+02, 3.119E+02, 3.832E+02
 3.345E+03, 4.174E+02, 3.050E+02, 3.793E+02
 3.360E+03, 4.154E+02, 2.981E+02, 3.754E+02
 3.375E+03, 4.132E+02, 2.911E+02, 3.714E+02
 3.390E+03, 4.111E+02, 2.842E+02, 3.675E+02
 3.405E+03, 4.091E+02, 2.773E+02, 3.637E+02
 3.420E+03, 4.071E+02, 2.703E+02, 3.599E+02
 3.435E+03, 4.051E+02, 2.634E+02, 3.560E+02
 3.450E+03, 4.030E+02, 2.564E+02, 3.522E+02
 3.465E+03, 4.009E+02, 2.530E+02, 3.484E+02
 3.480E+03, 3.988E+02, 2.530E+02, 3.448E+02
 3.495E+03, 3.965E+02, 2.530E+02, 3.413E+02
 3.510E+03, 3.943E+02, 2.530E+02, 3.380E+02
 3.525E+03, 3.919E+02, 2.530E+02, 3.347E+02
 3.540E+03, 3.894E+02, 2.530E+02, 3.314E+02
 3.555E+03, 3.867E+02, 2.530E+02, 3.283E+02
 3.570E+03, 3.842E+02, 2.530E+02, 3.254E+02
 3.585E+03, 3.820E+02, 2.530E+02, 3.228E+02
 3.600E+03, 3.798E+02, 2.530E+02, 3.202E+02
