s,C,C
Time,"Cable Temp","Shroud Temp"
 0.000E+00, 2.400E+01, 2.400E+01
 1.506E+01, 2.401E+01, 6.156E+01
 3.005E+01, 2.430E+01, 1.356E+02
 4.501E+01, 2.564E+01, 2.084E+02
 6.001E+01, 2.881E+01, 2.787E+02
 7.501E+01, 3.447E+01, 3.147E+02
 9.001E+01, 4.212E+01, 3.256E+02
 1.050E+02, 5.031E+01, 3.223E+02
 1.200E+02, 5.809E+01, 3.179E+02
 1.350E+02, 6.512E+01, 3.134E+02
 1.500E+02, 7.140E+01, 3.090E+02
 1.650E+02, 7.704E+01, 3.054E+02
 1.800E+02, 8.218E+01, 3.050E+02
 1.950E+02, 8.702E+01, 3.050E+02
 2.100E+02, 9.167E+01, 3.050E+02
 2.250E+02, 9.615E+01, 3.050E+02
 2.400E+02, 1.005E+02, 3.050E+02
 2.550E+02, 1.047E+02, 3.050E+02
 2.700E+02, 1.088E+02, 3.050E+02
 2.850E+02, 1.127E+02, 3.050E+02
 3.000E+02, 1.166E+02, 3.050E+02
 3.150E+02, 1.204E+02, 3.050E+02
 3.300E+02, 1.241E+02, 3.050E+02
 3.450E+02, 1.277E+02, 3.050E+02
 3.600E+02, 1.312E+02, 3.050E+02
 3.750E+02, 1.346E+02, 3.050E+02
 3.900E+02, 1.380E+02, 3.050E+02
 4.050E+02, 1.412E+02, 3.050E+02
 4.200E+02, 1.444E+02, 3.050E+02
 4.350E+02, 1.475E+02, 3.050E+02
 4.500E+02, 1.505E+02, 3.050E+02
 4.650E+02, 1.535E+02, 3.050E+02
 4.800E+02, 1.563E+02, 3.050E+02
 4.950E+02, 1.591E+02, 3.050E+02
 5.100E+02, 1.618E+02, 3.050E+02
 5.250E+02, 1.645E+02, 3.050E+02
 5.400E+02, 1.672E+02, 3.050E+02
 5.550E+02, 1.698E+02, 3.050E+02
 5.700E+02, 1.724E+02, 3.050E+02
 5.850E+02, 1.748E+02, 3.050E+02
 6.000E+02, 1.772E+02, 3.050E+02
 6.150E+02, 1.795E+02, 3.050E+02
 6.300E+02, 1.818E+02, 3.050E+02
 6.450E+02, 1.840E+02, 3.050E+02
 6.600E+02, 1.861E+02, 3.050E+02
 6.750E+02, 1.882E+02, 3.050E+02
 6.900E+02, 1.902E+02, 3.050E+02
 7.050E+02, 1.922E+02, 3.050E+02
 7.200E+02, 1.941E+02, 3.050E+02
 7.350E+02, 1.960E+02, 3.050E+02
 7.500E+02, 1.979E+02, 3.050E+02
 7.650E+02, 1.997E+02, 3.050E+02
 7.800E+02, 2.014E+02, 3.050E+02
 7.950E+02, 2.031E+02, 3.050E+02
 8.100E+02, 2.048E+02, 3.050E+02
 8.250E+02, 2.065E+02, 3.050E+02
 8.400E+02, 2.080E+02, 3.050E+02
 8.550E+02, 2.095E+02, 3.050E+02
 8.700E+02, 2.109E+02, 3.050E+02
 8.850E+02, 2.124E+02, 3.050E+02
 9.000E+02, 2.138E+02, 3.050E+02
 9.150E+02, 2.151E+02, 3.050E+02
 9.300E+02, 2.164E+02, 3.050E+02
 9.450E+02, 2.177E+02, 3.050E+02
 9.600E+02, 2.189E+02, 3.050E+02
 9.750E+02, 2.201E+02, 3.050E+02
 9.900E+02, 2.213E+02, 3.050E+02
 1.005E+03, 2.224E+02, 3.050E+02
 1.020E+03, 2.235E+02, 3.050E+02
 1.035E+03, 2.245E+02, 3.050E+02
 1.050E+03, 2.256E+02, 3.050E+02
 1.065E+03, 2.267E+02, 3.050E+02
 1.080E+03, 2.278E+02, 3.050E+02
 1.095E+03, 2.289E+02, 3.024E+02
 1.110E+03, 2.298E+02, 2.979E+02
 1.125E+03, 2.304E+02, 2.933E+02
 1.140E+03, 2.308E+02, 2.888E+02
 1.155E+03, 2.310E+02, 2.843E+02
 1.170E+03, 2.311E+02, 2.797E+02
 1.185E+03, 2.310E+02, 2.752E+02
 1.200E+03, 2.308E+02, 2.706E+02
 1.215E+03, 2.305E+02, 2.661E+02
 1.230E+03, 2.300E+02, 2.616E+02
 1.245E+03, 2.293E+02, 2.570E+02
 1.260E+03, 2.285E+02, 2.525E+02
 1.275E+03, 2.275E+02, 2.479E+02
 1.290E+03, 2.265E+02, 2.434E+02
 1.305E+03, 2.255E+02, 2.389E+02
 1.320E+03, 2.245E+02, 2.343E+02
 1.335E+03, 2.235E+02, 2.298E+02
 1.350E+03, 2.224E+02, 2.252E+02
 1.365E+03, 2.211E+02, 2.207E+02
 1.380E+03, 2.197E+02, 2.162E+02
 1.395E+03, 2.184E+02, 2.116E+02
 1.410E+03, 2.170E+02, 2.075E+02
 1.425E+03, 2.157E+02, 2.067E+02
 1.440E+03, 2.142E+02, 2.066E+02
 1.455E+03, 2.129E+02, 2.066E+02
 1.470E+03, 2.118E+02, 2.067E+02
 1.485E+03, 2.107E+02, 2.066E+02
 1.500E+03, 2.097E+02, 2.066E+02
 1.515E+03, 2.087E+02, 2.067E+02
 1.530E+03, 2.077E+02, 2.067E+02
 1.545E+03, 2.067E+02, 2.067E+02
 1.560E+03, 2.057E+02, 2.067E+02
 1.575E+03, 2.048E+02, 2.067E+02
 1.590E+03, 2.041E+02, 2.067E+02
 1.605E+03, 2.033E+02, 2.067E+02
 1.620E+03, 2.024E+02, 2.066E+02
 1.635E+03, 2.016E+02, 2.067E+02
 1.650E+03, 2.008E+02, 2.066E+02
 1.665E+03, 2.000E+02, 2.067E+02
 1.680E+03, 1.993E+02, 2.067E+02
 1.695E+03, 1.986E+02, 2.067E+02
 1.710E+03, 1.978E+02, 2.067E+02
 1.725E+03, 1.972E+02, 2.066E+02
 1.740E+03, 1.965E+02, 2.066E+02
 1.755E+03, 1.958E+02, 2.067E+02
 1.770E+03, 1.952E+02, 2.066E+02
 1.785E+03, 1.945E+02, 2.067E+02
 1.800E+03, 1.939E+02, 2.066E+02
