s,C,C,C
Time,"Cable Temp","Shroud Temp","Conduit"
 0.000E+00, 3.100E+01, 3.100E+01, 3.100E+01
 1.502E+01, 3.100E+01, 6.645E+01, 3.105E+01
 3.006E+01, 3.100E+01, 1.365E+02, 3.158E+01
 4.502E+01, 3.103E+01, 2.065E+02, 3.305E+01
 6.004E+01, 3.108E+01, 2.766E+02, 3.592E+01
 7.501E+01, 3.117E+01, 3.467E+02, 4.083E+01
 9.000E+01, 3.132E+01, 4.167E+02, 4.859E+01
 1.050E+02, 3.165E+01, 4.711E+02, 5.990E+01
 1.200E+02, 3.228E+01, 4.750E+02, 7.257E+01
 1.350E+02, 3.309E+01, 4.750E+02, 8.513E+01
 1.500E+02, 3.418E+01, 4.750E+02, 9.736E+01
 1.650E+02, 3.538E+01, 4.750E+02, 1.094E+02
 1.800E+02, 3.678E+01, 4.750E+02, 1.212E+02
 1.950E+02, 3.837E+01, 4.750E+02, 1.328E+02
 2.100E+02, 4.012E+01, 4.750E+02, 1.441E+02
 2.250E+02, 4.214E+01, 4.750E+02, 1.551E+02
 2.400E+02, 4.448E+01, 4.750E+02, 1.659E+02
 2.550E+02, 4.697E+01, 4.750E+02, 1.764E+02
 2.700E+02, 4.970E+01, 4.750E+02, 1.866E+02
 2.850E+02, 5.270E+01, 4.750E+02, 1.966E+02
 3.000E+02, 5.592E+01, 4.750E+02, 2.063E+02
 3.150E+02, 5.936E+01, 4.750E+02, 2.157E+02
 3.300E+02, 6.302E+01, 4.750E+02, 2.249E+02
 3.450E+02, 6.693E+01, 4.750E+02, 2.337E+02
 3.600E+02, 7.101E+01, 4.750E+02, 2.424E+02
 3.750E+02, 7.521E+01, 4.750E+02, 2.507E+02
 3.900E+02, 7.969E+01, 4.750E+02, 2.588E+02
 4.050E+02, 8.451E+01, 4.750E+02, 2.666E+02
 4.200E+02, 8.949E+01, 4.750E+02, 2.742E+02
 4.350E+02, 9.459E+01, 4.750E+02, 2.816E+02
 4.500E+02, 9.988E+01, 4.750E+02, 2.886E+02
 4.650E+02, 1.054E+02, 4.750E+02, 2.955E+02
 4.800E+02, 1.111E+02, 4.750E+02, 3.020E+02
 4.950E+02, 1.170E+02, 4.750E+02, 3.083E+02
 5.100E+02, 1.230E+02, 4.750E+02, 3.143E+02
 5.250E+02, 1.291E+02, 4.750E+02, 3.202E+02
 5.400E+02, 1.352E+02, 4.750E+02, 3.257E+02
 5.550E+02, 1.415E+02, 4.750E+02, 3.310E+02
 5.700E+02, 1.479E+02, 4.750E+02, 3.361E+02
 5.850E+02, 1.542E+02, 4.750E+02, 3.410E+02
 6.000E+02, 1.607E+02, 4.750E+02, 3.457E+02
 6.150E+02, 1.673E+02, 4.750E+02, 3.502E+02
 6.300E+02, 1.739E+02, 4.750E+02, 3.544E+02
 6.450E+02, 1.805E+02, 4.750E+02, 3.584E+02
 6.600E+02, 1.871E+02, 4.750E+02, 3.623E+02
 6.750E+02, 1.936E+02, 4.750E+02, 3.659E+02
 6.900E+02, 2.001E+02, 4.750E+02, 3.694E+02
 7.050E+02, 2.066E+02, 4.750E+02, 3.728E+02
 7.200E+02, 2.131E+02, 4.750E+02, 3.760E+02
 7.350E+02, 2.195E+02, 4.750E+02, 3.790E+02
 7.500E+02, 2.258E+02, 4.750E+02, 3.819E+02
 7.650E+02, 2.321E+02, 4.750E+02, 3.847E+02
 7.800E+02, 2.382E+02, 4.750E+02, 3.874E+02
 7.950E+02, 2.443E+02, 4.750E+02, 3.899E+02
 8.100E+02, 2.502E+02, 4.750E+02, 3.924E+02
 8.250E+02, 2.561E+02, 4.750E+02, 3.947E+02
 8.400E+02, 2.618E+02, 4.750E+02, 3.968E+02
 8.550E+02, 2.675E+02, 4.750E+02, 3.990E+02
 8.700E+02, 2.730E+02, 4.750E+02, 4.009E+02
 8.850E+02, 2.783E+02, 4.750E+02, 4.028E+02
 9.000E+02, 2.836E+02, 4.750E+02, 4.045E+02
 9.150E+02, 2.887E+02, 4.750E+02, 4.063E+02
 9.300E+02, 2.937E+02, 4.750E+02, 4.081E+02
 9.450E+02, 2.987E+02, 4.750E+02, 4.097E+02
 9.600E+02, 3.034E+02, 4.750E+02, 4.112E+02
 9.750E+02, 3.081E+02, 4.750E+02, 4.127E+02
 9.900E+02, 3.126E+02, 4.750E+02, 4.140E+02
 1.005E+03, 3.170E+02, 4.750E+02, 4.154E+02
 1.020E+03, 3.213E+02, 4.750E+02, 4.166E+02
 1.035E+03, 3.255E+02, 4.750E+02, 4.179E+02
 1.050E+03, 3.296E+02, 4.750E+02, 4.189E+02
 1.065E+03, 3.334E+02, 4.750E+02, 4.199E+02
 1.080E+03, 3.372E+02, 4.750E+02, 4.210E+02
 1.095E+03, 3.409E+02, 4.750E+02, 4.220E+02
 1.110E+03, 3.444E+02, 4.750E+02, 4.230E+02
 1.125E+03, 3.479E+02, 4.750E+02, 4.240E+02
 1.140E+03, 3.512E+02, 4.750E+02, 4.248E+02
 1.155E+03, 3.545E+02, 4.750E+02, 4.256E+02
 1.170E+03, 3.577E+02, 4.750E+02, 4.264E+02
 1.185E+03, 3.607E+02, 4.750E+02, 4.272E+02
 1.200E+03, 3.636E+02, 4.750E+02, 4.280E+02
 1.215E+03, 3.664E+02, 4.750E+02, 4.286E+02
 1.230E+03, 3.691E+02, 4.750E+02, 4.292E+02
 1.245E+03, 3.718E+02, 4.750E+02, 4.298E+02
 1.260E+03, 3.743E+02, 4.750E+02, 4.305E+02
 1.275E+03, 3.768E+02, 4.750E+02, 4.310E+02
 1.290E+03, 3.791E+02, 4.750E+02, 4.316E+02
 1.305E+03, 3.814E+02, 4.750E+02, 4.321E+02
 1.320E+03, 3.836E+02, 4.750E+02, 4.326E+02
 1.335E+03, 3.858E+02, 4.750E+02, 4.332E+02
 1.350E+03, 3.878E+02, 4.750E+02, 4.337E+02
 1.365E+03, 3.898E+02, 4.750E+02, 4.341E+02
 1.380E+03, 3.918E+02, 4.750E+02, 4.346E+02
 1.395E+03, 3.936E+02, 4.750E+02, 4.350E+02
 1.410E+03, 3.954E+02, 4.750E+02, 4.355E+02
 1.425E+03, 3.971E+02, 4.750E+02, 4.360E+02
 1.440E+03, 3.988E+02, 4.750E+02, 4.363E+02
 1.455E+03, 4.003E+02, 4.750E+02, 4.366E+02
 1.470E+03, 4.019E+02, 4.750E+02, 4.369E+02
 1.485E+03, 4.034E+02, 4.750E+02, 4.373E+02
 1.500E+03, 4.048E+02, 4.750E+02, 4.376E+02
 1.515E+03, 4.062E+02, 4.750E+02, 4.378E+02
 1.530E+03, 4.074E+02, 4.750E+02, 4.380E+02
 1.545E+03, 4.086E+02, 4.750E+02, 4.383E+02
 1.560E+03, 4.098E+02, 4.750E+02, 4.385E+02
 1.575E+03, 4.111E+02, 4.750E+02, 4.388E+02
 1.590E+03, 4.123E+02, 4.750E+02, 4.392E+02
 1.605E+03, 4.134E+02, 4.750E+02, 4.395E+02
 1.620E+03, 4.145E+02, 4.750E+02, 4.397E+02
 1.635E+03, 4.152E+02, 4.750E+02, 4.397E+02
 1.650E+03, 4.160E+02, 4.750E+02, 4.399E+02
 1.665E+03, 4.169E+02, 4.750E+02, 4.401E+02
 1.680E+03, 4.178E+02, 4.750E+02, 4.402E+02
 1.695E+03, 4.186E+02, 4.750E+02, 4.405E+02
 1.710E+03, 4.196E+02, 4.750E+02, 4.407E+02
 1.725E+03, 4.204E+02, 4.750E+02, 4.409E+02
 1.740E+03, 4.211E+02, 4.750E+02, 4.410E+02
 1.755E+03, 4.218E+02, 4.750E+02, 4.412E+02
 1.770E+03, 4.225E+02, 4.750E+02, 4.413E+02
 1.785E+03, 4.232E+02, 4.750E+02, 4.416E+02
 1.800E+03, 4.240E+02, 4.750E+02, 4.417E+02
 1.815E+03, 4.246E+02, 4.750E+02, 4.418E+02
 1.830E+03, 4.252E+02, 4.750E+02, 4.419E+02
 1.845E+03, 4.256E+02, 4.750E+02, 4.420E+02
 1.860E+03, 4.262E+02, 4.750E+02, 4.422E+02
 1.875E+03, 4.268E+02, 4.750E+02, 4.423E+02
 1.890E+03, 4.273E+02, 4.750E+02, 4.424E+02
 1.905E+03, 4.278E+02, 4.750E+02, 4.425E+02
 1.920E+03, 4.283E+02, 4.750E+02, 4.426E+02
 1.935E+03, 4.288E+02, 4.750E+02, 4.427E+02
 1.950E+03, 4.292E+02, 4.750E+02, 4.427E+02
 1.965E+03, 4.295E+02, 4.750E+02, 4.427E+02
 1.980E+03, 4.298E+02, 4.750E+02, 4.428E+02
 1.995E+03, 4.302E+02, 4.750E+02, 4.429E+02
 2.010E+03, 4.306E+02, 4.750E+02, 4.430E+02
 2.025E+03, 4.310E+02, 4.750E+02, 4.429E+02
 2.040E+03, 4.312E+02, 4.750E+02, 4.429E+02
 2.055E+03, 4.315E+02, 4.750E+02, 4.430E+02
 2.070E+03, 4.317E+02, 4.750E+02, 4.430E+02
 2.085E+03, 4.319E+02, 4.750E+02, 4.430E+02
 2.100E+03, 4.321E+02, 4.750E+02, 4.430E+02
 2.115E+03, 4.323E+02, 4.750E+02, 4.430E+02
 2.130E+03, 4.325E+02, 4.750E+02, 4.430E+02
 2.145E+03, 4.327E+02, 4.750E+02, 4.430E+02
 2.160E+03, 4.329E+02, 4.750E+02, 4.430E+02
 2.175E+03, 4.331E+02, 4.750E+02, 4.429E+02
 2.190E+03, 4.332E+02, 4.750E+02, 4.429E+02
 2.205E+03, 4.334E+02, 4.750E+02, 4.430E+02
 2.220E+03, 4.336E+02, 4.750E+02, 4.430E+02
 2.235E+03, 4.339E+02, 4.750E+02, 4.432E+02
 2.250E+03, 4.342E+02, 4.750E+02, 4.433E+02
 2.265E+03, 4.343E+02, 4.750E+02, 4.432E+02
 2.280E+03, 4.344E+02, 4.750E+02, 4.433E+02
 2.295E+03, 4.345E+02, 4.750E+02, 4.432E+02
 2.310E+03, 4.347E+02, 4.750E+02, 4.433E+02
 2.325E+03, 4.349E+02, 4.750E+02, 4.434E+02
 2.340E+03, 4.351E+02, 4.750E+02, 4.434E+02
 2.355E+03, 4.352E+02, 4.750E+02, 4.435E+02
 2.370E+03, 4.354E+02, 4.750E+02, 4.435E+02
 2.385E+03, 4.355E+02, 4.750E+02, 4.435E+02
 2.400E+03, 4.357E+02, 4.750E+02, 4.436E+02
 2.415E+03, 4.358E+02, 4.750E+02, 4.436E+02
 2.430E+03, 4.358E+02, 4.750E+02, 4.436E+02
 2.445E+03, 4.360E+02, 4.750E+02, 4.438E+02
 2.460E+03, 4.363E+02, 4.750E+02, 4.439E+02
 2.475E+03, 4.364E+02, 4.750E+02, 4.438E+02
 2.490E+03, 4.364E+02, 4.750E+02, 4.438E+02
 2.505E+03, 4.364E+02, 4.750E+02, 4.438E+02
 2.520E+03, 4.365E+02, 4.750E+02, 4.438E+02
 2.535E+03, 4.364E+02, 4.750E+02, 4.437E+02
 2.550E+03, 4.365E+02, 4.750E+02, 4.437E+02
 2.565E+03, 4.366E+02, 4.750E+02, 4.437E+02
 2.580E+03, 4.366E+02, 4.750E+02, 4.438E+02
 2.595E+03, 4.367E+02, 4.750E+02, 4.438E+02
 2.610E+03, 4.368E+02, 4.750E+02, 4.439E+02
 2.625E+03, 4.370E+02, 4.750E+02, 4.440E+02
 2.640E+03, 4.372E+02, 4.750E+02, 4.440E+02
 2.655E+03, 4.372E+02, 4.750E+02, 4.440E+02
 2.670E+03, 4.371E+02, 4.750E+02, 4.439E+02
 2.685E+03, 4.369E+02, 4.750E+02, 4.438E+02
 2.700E+03, 4.367E+02, 4.750E+02, 4.438E+02
 2.715E+03, 4.368E+02, 4.750E+02, 4.438E+02
 2.730E+03, 4.369E+02, 4.750E+02, 4.438E+02
 2.745E+03, 4.371E+02, 4.750E+02, 4.439E+02
 2.760E+03, 4.373E+02, 4.750E+02, 4.440E+02
 2.775E+03, 4.375E+02, 4.750E+02, 4.441E+02
 2.790E+03, 4.376E+02, 4.750E+02, 4.441E+02
 2.805E+03, 4.376E+02, 4.750E+02, 4.442E+02
 2.820E+03, 4.377E+02, 4.741E+02, 4.441E+02
 2.835E+03, 4.377E+02, 4.701E+02, 4.439E+02
 2.850E+03, 4.376E+02, 4.659E+02, 4.434E+02
 2.865E+03, 4.375E+02, 4.616E+02, 4.427E+02
 2.880E+03, 4.374E+02, 4.574E+02, 4.418E+02
 2.895E+03, 4.374E+02, 4.532E+02, 4.409E+02
 2.910E+03, 4.373E+02, 4.490E+02, 4.397E+02
 2.925E+03, 4.371E+02, 4.448E+02, 4.383E+02
 2.940E+03, 4.367E+02, 4.406E+02, 4.367E+02
 2.955E+03, 4.363E+02, 4.364E+02, 4.350E+02
 2.970E+03, 4.358E+02, 4.321E+02, 4.332E+02
 2.985E+03, 4.352E+02, 4.279E+02, 4.312E+02
 3.000E+03, 4.345E+02, 4.237E+02, 4.291E+02
 3.015E+03, 4.336E+02, 4.195E+02, 4.268E+02
 3.030E+03, 4.328E+02, 4.153E+02, 4.247E+02
 3.045E+03, 4.320E+02, 4.111E+02, 4.225E+02
 3.060E+03, 4.313E+02, 4.068E+02, 4.203E+02
 3.075E+03, 4.304E+02, 4.026E+02, 4.180E+02
 3.090E+03, 4.294E+02, 3.984E+02, 4.156E+02
 3.105E+03, 4.284E+02, 3.942E+02, 4.132E+02
 3.120E+03, 4.271E+02, 3.900E+02, 4.107E+02
 3.135E+03, 4.258E+02, 3.858E+02, 4.080E+02
 3.150E+03, 4.244E+02, 3.816E+02, 4.053E+02
 3.165E+03, 4.229E+02, 3.773E+02, 4.026E+02
 3.180E+03, 4.213E+02, 3.731E+02, 3.998E+02
 3.195E+03, 4.199E+02, 3.689E+02, 3.972E+02
 3.210E+03, 4.184E+02, 3.647E+02, 3.945E+02
 3.225E+03, 4.170E+02, 3.605E+02, 3.918E+02
 3.240E+03, 4.155E+02, 3.563E+02, 3.890E+02
 3.255E+03, 4.139E+02, 3.520E+02, 3.863E+02
 3.270E+03, 4.123E+02, 3.478E+02, 3.835E+02
 3.285E+03, 4.106E+02, 3.436E+02, 3.807E+02
 3.300E+03, 4.088E+02, 3.394E+02, 3.778E+02
 3.315E+03, 4.069E+02, 3.352E+02, 3.749E+02
 3.330E+03, 4.051E+02, 3.310E+02, 3.721E+02
 3.345E+03, 4.032E+02, 3.268E+02, 3.692E+02
 3.360E+03, 4.013E+02, 3.225E+02, 3.664E+02
 3.375E+03, 3.993E+02, 3.183E+02, 3.634E+02
 3.390E+03, 3.972E+02, 3.141E+02, 3.605E+02
 3.405E+03, 3.953E+02, 3.099E+02, 3.577E+02
 3.420E+03, 3.934E+02, 3.057E+02, 3.548E+02
 3.435E+03, 3.914E+02, 3.015E+02, 3.520E+02
 3.450E+03, 3.895E+02, 2.972E+02, 3.491E+02
 3.465E+03, 3.875E+02, 2.930E+02, 3.463E+02
 3.480E+03, 3.854E+02, 2.888E+02, 3.434E+02
 3.495E+03, 3.834E+02, 2.846E+02, 3.406E+02
 3.510E+03, 3.813E+02, 2.804E+02, 3.377E+02
 3.525E+03, 3.791E+02, 2.762E+02, 3.348E+02
 3.540E+03, 3.770E+02, 2.720E+02, 3.320E+02
 3.555E+03, 3.748E+02, 2.677E+02, 3.291E+02
 3.570E+03, 3.725E+02, 2.635E+02, 3.261E+02
 3.585E+03, 3.702E+02, 2.593E+02, 3.233E+02
 3.600E+03, 3.680E+02, 2.551E+02, 3.204E+02
