s,C,C
Time,"Cable Temp","Shroud Temp"
 0.000E+00, 2.400E+01, 2.400E+01
 1.501E+01, 2.401E+01, 5.856E+01
 3.000E+01, 2.429E+01, 1.270E+02
 4.502E+01, 2.544E+01, 1.958E+02
 6.001E+01, 2.804E+01, 2.653E+02
 7.501E+01, 3.274E+01, 3.066E+02
 9.000E+01, 3.922E+01, 3.189E+02
 1.050E+02, 4.634E+01, 3.183E+02
 1.200E+02, 5.322E+01, 3.138E+02
 1.350E+02, 5.952E+01, 3.092E+02
 1.500E+02, 6.519E+01, 3.047E+02
 1.650E+02, 7.028E+01, 3.006E+02
 1.800E+02, 7.491E+01, 3.000E+02
 1.950E+02, 7.925E+01, 3.000E+02
 2.100E+02, 8.342E+01, 3.000E+02
 2.250E+02, 8.746E+01, 3.000E+02
 2.400E+02, 9.139E+01, 3.000E+02
 2.550E+02, 9.522E+01, 3.000E+02
 2.700E+02, 9.894E+01, 3.000E+02
 2.850E+02, 1.025E+02, 3.000E+02
 3.000E+02, 1.061E+02, 3.000E+02
 3.150E+02, 1.095E+02, 3.000E+02
 3.300E+02, 1.128E+02, 3.000E+02
 3.450E+02, 1.161E+02, 3.000E+02
 3.600E+02, 1.193E+02, 3.000E+02
 3.750E+02, 1.225E+02, 3.000E+02
 3.900E+02, 1.256E+02, 3.000E+02
 4.050E+02, 1.287E+02, 3.000E+02
 4.200E+02, 1.317E+02, 3.000E+02
 4.350E+02, 1.346E+02, 3.000E+02
 4.500E+02, 1.374E+02, 3.000E+02
 4.650E+02, 1.402E+02, 3.000E+02
 4.800E+02, 1.429E+02, 3.000E+02
 4.950E+02, 1.455E+02, 3.000E+02
 5.100E+02, 1.481E+02, 3.000E+02
 5.250E+02, 1.506E+02, 3.000E+02
 5.400E+02, 1.531E+02, 3.000E+02
 5.550E+02, 1.555E+02, 3.000E+02
 5.700E+02, 1.578E+02, 3.000E+02
 5.850E+02, 1.601E+02, 3.000E+02
 6.000E+02, 1.623E+02, 3.000E+02
 6.150E+02, 1.645E+02, 3.000E+02
 6.300E+02, 1.666E+02, 3.000E+02
 6.450E+02, 1.687E+02, 3.000E+02
 6.600E+02, 1.707E+02, 3.000E+02
 6.750E+02, 1.727E+02, 3.000E+02
 6.900E+02, 1.747E+02, 3.000E+02
 7.050E+02, 1.766E+02, 3.000E+02
 7.200E+02, 1.784E+02, 3.000E+02
 7.350E+02, 1.802E+02, 3.000E+02
 7.500E+02, 1.820E+02, 3.000E+02
 7.650E+02, 1.837E+02, 3.000E+02
 7.800E+02, 1.855E+02, 3.000E+02
 7.950E+02, 1.873E+02, 3.000E+02
 8.100E+02, 1.889E+02, 3.000E+02
 8.250E+02, 1.904E+02, 3.000E+02
 8.400E+02, 1.918E+02, 3.000E+02
 8.550E+02, 1.933E+02, 3.000E+02
 8.700E+02, 1.947E+02, 3.000E+02
 8.850E+02, 1.961E+02, 3.000E+02
 9.000E+02, 1.975E+02, 3.000E+02
 9.150E+02, 1.990E+02, 3.000E+02
 9.300E+02, 2.003E+02, 3.000E+02
 9.450E+02, 2.016E+02, 3.000E+02
 9.600E+02, 2.029E+02, 3.000E+02
 9.750E+02, 2.041E+02, 3.000E+02
 9.900E+02, 2.053E+02, 3.000E+02
 1.005E+03, 2.065E+02, 3.000E+02
 1.020E+03, 2.076E+02, 3.000E+02
 1.035E+03, 2.087E+02, 3.000E+02
 1.050E+03, 2.098E+02, 3.000E+02
 1.065E+03, 2.108E+02, 3.000E+02
 1.080E+03, 2.119E+02, 3.000E+02
 1.095E+03, 2.130E+02, 3.000E+02
 1.110E+03, 2.140E+02, 3.000E+02
 1.125E+03, 2.150E+02, 3.000E+02
 1.140E+03, 2.158E+02, 3.000E+02
 1.155E+03, 2.166E+02, 3.000E+02
 1.170E+03, 2.175E+02, 3.000E+02
 1.185E+03, 2.183E+02, 3.000E+02
 1.200E+03, 2.191E+02, 3.000E+02
 1.215E+03, 2.199E+02, 3.000E+02
 1.230E+03, 2.208E+02, 3.000E+02
 1.245E+03, 2.215E+02, 3.000E+02
 1.260E+03, 2.222E+02, 3.000E+02
 1.275E+03, 2.229E+02, 3.000E+02
 1.290E+03, 2.237E+02, 3.000E+02
 1.305E+03, 2.245E+02, 3.000E+02
 1.320E+03, 2.253E+02, 3.000E+02
 1.335E+03, 2.259E+02, 3.000E+02
 1.350E+03, 2.266E+02, 3.000E+02
 1.365E+03, 2.272E+02, 3.000E+02
 1.380E+03, 2.277E+02, 3.000E+02
 1.395E+03, 2.283E+02, 3.000E+02
 1.410E+03, 2.288E+02, 3.000E+02
 1.425E+03, 2.292E+02, 3.000E+02
 1.440E+03, 2.296E+02, 3.000E+02
 1.455E+03, 2.300E+02, 3.000E+02
 1.470E+03, 2.304E+02, 3.000E+02
 1.485E+03, 2.308E+02, 3.000E+02
 1.500E+03, 2.313E+02, 2.964E+02
 1.515E+03, 2.317E+02, 2.891E+02
 1.530E+03, 2.318E+02, 2.819E+02
 1.545E+03, 2.316E+02, 2.746E+02
 1.560E+03, 2.312E+02, 2.674E+02
 1.575E+03, 2.305E+02, 2.601E+02
 1.590E+03, 2.296E+02, 2.529E+02
 1.605E+03, 2.286E+02, 2.457E+02
 1.620E+03, 2.274E+02, 2.384E+02
 1.635E+03, 2.260E+02, 2.312E+02
 1.650E+03, 2.245E+02, 2.239E+02
 1.665E+03, 2.229E+02, 2.167E+02
 1.680E+03, 2.212E+02, 2.094E+02
 1.695E+03, 2.195E+02, 2.038E+02
 1.710E+03, 2.177E+02, 2.034E+02
 1.725E+03, 2.161E+02, 2.034E+02
 1.740E+03, 2.145E+02, 2.034E+02
 1.755E+03, 2.130E+02, 2.034E+02
 1.770E+03, 2.117E+02, 2.034E+02
 1.785E+03, 2.104E+02, 2.034E+02
 1.800E+03, 2.091E+02, 2.034E+02
