s,C,C,C
Time,"Cable Temp","Shroud Temp","Conduit"
 0.000E+00, 3.100E+01, 3.100E+01, 3.100E+01
 1.506E+01, 3.100E+01, 7.164E+01, 3.106E+01
 3.007E+01, 3.103E+01, 1.519E+02, 3.170E+01
 4.502E+01, 3.116E+01, 2.319E+02, 3.355E+01
 6.002E+01, 3.124E+01, 3.073E+02, 3.725E+01
 7.503E+01, 3.152E+01, 3.250E+02, 4.250E+01
 9.000E+01, 3.203E+01, 3.250E+02, 4.782E+01
 1.050E+02, 3.278E+01, 3.250E+02, 5.306E+01
 1.200E+02, 3.366E+01, 3.250E+02, 5.823E+01
 1.350E+02, 3.467E+01, 3.250E+02, 6.330E+01
 1.500E+02, 3.556E+01, 3.250E+02, 6.827E+01
 1.650E+02, 3.648E+01, 3.250E+02, 7.316E+01
 1.800E+02, 3.744E+01, 3.250E+02, 7.797E+01
 1.950E+02, 3.830E+01, 3.250E+02, 8.269E+01
 2.100E+02, 3.944E+01, 3.250E+02, 8.733E+01
 2.250E+02, 4.038E+01, 3.250E+02, 9.191E+01
 2.400E+02, 4.141E+01, 3.250E+02, 9.641E+01
 2.550E+02, 4.239E+01, 3.250E+02, 1.008E+02
 2.700E+02, 4.340E+01, 3.250E+02, 1.052E+02
 2.850E+02, 4.472E+01, 3.250E+02, 1.095E+02
 3.000E+02, 4.645E+01, 3.250E+02, 1.137E+02
 3.150E+02, 4.770E+01, 3.250E+02, 1.178E+02
 3.300E+02, 4.905E+01, 3.250E+02, 1.218E+02
 3.450E+02, 5.053E+01, 3.250E+02, 1.258E+02
 3.600E+02, 5.211E+01, 3.250E+02, 1.297E+02
 3.750E+02, 5.381E+01, 3.250E+02, 1.335E+02
 3.900E+02, 5.533E+01, 3.250E+02, 1.372E+02
 4.050E+02, 5.703E+01, 3.250E+02, 1.409E+02
 4.200E+02, 5.877E+01, 3.250E+02, 1.445E+02
 4.350E+02, 6.080E+01, 3.250E+02, 1.480E+02
 4.500E+02, 6.249E+01, 3.250E+02, 1.514E+02
 4.650E+02, 6.438E+01, 3.250E+02, 1.548E+02
 4.801E+02, 6.621E+01, 3.250E+02, 1.581E+02
 4.950E+02, 6.815E+01, 3.250E+02, 1.613E+02
 5.100E+02, 7.011E+01, 3.250E+02, 1.645E+02
 5.250E+02, 7.230E+01, 3.250E+02, 1.676E+02
 5.400E+02, 7.442E+01, 3.250E+02, 1.706E+02
 5.550E+02, 7.671E+01, 3.250E+02, 1.736E+02
 5.701E+02, 7.906E+01, 3.250E+02, 1.765E+02
 5.850E+02, 8.132E+01, 3.250E+02, 1.794E+02
 6.000E+02, 8.357E+01, 3.250E+02, 1.822E+02
 6.150E+02, 8.586E+01, 3.250E+02, 1.849E+02
 6.300E+02, 8.823E+01, 3.250E+02, 1.876E+02
 6.450E+02, 9.051E+01, 3.250E+02, 1.902E+02
 6.600E+02, 9.297E+01, 3.250E+02, 1.928E+02
 6.750E+02, 9.527E+01, 3.250E+02, 1.953E+02
 6.900E+02, 9.763E+01, 3.250E+02, 1.978E+02
 7.050E+02, 1.000E+02, 3.250E+02, 2.003E+02
 7.200E+02, 1.026E+02, 3.250E+02, 2.026E+02
 7.350E+02, 1.053E+02, 3.250E+02, 2.049E+02
 7.500E+02, 1.078E+02, 3.250E+02, 2.072E+02
 7.650E+02, 1.106E+02, 3.250E+02, 2.093E+02
 7.800E+02, 1.132E+02, 3.250E+02, 2.114E+02
 7.950E+02, 1.156E+02, 3.250E+02, 2.135E+02
 8.100E+02, 1.182E+02, 3.250E+02, 2.155E+02
 8.250E+02, 1.207E+02, 3.250E+02, 2.174E+02
 8.400E+02, 1.232E+02, 3.250E+02, 2.194E+02
 8.550E+02, 1.256E+02, 3.250E+02, 2.213E+02
 8.700E+02, 1.281E+02, 3.250E+02, 2.232E+02
 8.850E+02, 1.306E+02, 3.250E+02, 2.250E+02
 9.000E+02, 1.333E+02, 3.250E+02, 2.267E+02
 9.150E+02, 1.359E+02, 3.250E+02, 2.284E+02
 9.300E+02, 1.385E+02, 3.250E+02, 2.300E+02
 9.450E+02, 1.411E+02, 3.250E+02, 2.317E+02
 9.600E+02, 1.436E+02, 3.250E+02, 2.333E+02
 9.750E+02, 1.461E+02, 3.250E+02, 2.348E+02
 9.900E+02, 1.486E+02, 3.250E+02, 2.362E+02
 1.005E+03, 1.511E+02, 3.250E+02, 2.377E+02
 1.020E+03, 1.536E+02, 3.250E+02, 2.391E+02
 1.035E+03, 1.559E+02, 3.250E+02, 2.405E+02
 1.050E+03, 1.583E+02, 3.250E+02, 2.419E+02
 1.065E+03, 1.608E+02, 3.250E+02, 2.433E+02
 1.080E+03, 1.632E+02, 3.250E+02, 2.446E+02
 1.095E+03, 1.657E+02, 3.250E+02, 2.459E+02
 1.110E+03, 1.680E+02, 3.250E+02, 2.471E+02
 1.125E+03, 1.704E+02, 3.250E+02, 2.483E+02
 1.140E+03, 1.727E+02, 3.250E+02, 2.495E+02
 1.155E+03, 1.749E+02, 3.250E+02, 2.507E+02
 1.170E+03, 1.772E+02, 3.250E+02, 2.518E+02
 1.185E+03, 1.794E+02, 3.250E+02, 2.528E+02
 1.200E+03, 1.815E+02, 3.250E+02, 2.539E+02
 1.215E+03, 1.837E+02, 3.250E+02, 2.549E+02
 1.230E+03, 1.858E+02, 3.250E+02, 2.559E+02
 1.245E+03, 1.880E+02, 3.250E+02, 2.568E+02
 1.260E+03, 1.900E+02, 3.250E+02, 2.577E+02
 1.275E+03, 1.920E+02, 3.250E+02, 2.586E+02
 1.290E+03, 1.940E+02, 3.250E+02, 2.594E+02
 1.305E+03, 1.959E+02, 3.250E+02, 2.602E+02
 1.320E+03, 1.980E+02, 3.250E+02, 2.611E+02
 1.335E+03, 2.000E+02, 3.250E+02, 2.619E+02
 1.350E+03, 2.017E+02, 3.250E+02, 2.627E+02
 1.365E+03, 2.036E+02, 3.250E+02, 2.635E+02
 1.380E+03, 2.055E+02, 3.250E+02, 2.643E+02
 1.395E+03, 2.074E+02, 3.250E+02, 2.651E+02
 1.410E+03, 2.092E+02, 3.250E+02, 2.658E+02
 1.425E+03, 2.109E+02, 3.250E+02, 2.665E+02
 1.440E+03, 2.128E+02, 3.250E+02, 2.673E+02
 1.455E+03, 2.146E+02, 3.250E+02, 2.680E+02
 1.470E+03, 2.161E+02, 3.250E+02, 2.687E+02
 1.485E+03, 2.178E+02, 3.250E+02, 2.693E+02
 1.500E+03, 2.195E+02, 3.250E+02, 2.700E+02
 1.515E+03, 2.211E+02, 3.250E+02, 2.706E+02
 1.530E+03, 2.226E+02, 3.250E+02, 2.711E+02
 1.545E+03, 2.240E+02, 3.250E+02, 2.717E+02
 1.560E+03, 2.256E+02, 3.250E+02, 2.723E+02
 1.575E+03, 2.272E+02, 3.250E+02, 2.729E+02
 1.590E+03, 2.287E+02, 3.250E+02, 2.735E+02
 1.605E+03, 2.298E+02, 3.250E+02, 2.740E+02
 1.620E+03, 2.311E+02, 3.250E+02, 2.744E+02
 1.635E+03, 2.323E+02, 3.250E+02, 2.748E+02
 1.650E+03, 2.337E+02, 3.250E+02, 2.753E+02
 1.665E+03, 2.352E+02, 3.250E+02, 2.758E+02
 1.680E+03, 2.365E+02, 3.250E+02, 2.763E+02
 1.695E+03, 2.379E+02, 3.250E+02, 2.768E+02
 1.710E+03, 2.391E+02, 3.250E+02, 2.773E+02
 1.725E+03, 2.403E+02, 3.250E+02, 2.777E+02
 1.740E+03, 2.414E+02, 3.250E+02, 2.781E+02
 1.755E+03, 2.426E+02, 3.250E+02, 2.785E+02
 1.770E+03, 2.438E+02, 3.250E+02, 2.789E+02
 1.785E+03, 2.448E+02, 3.250E+02, 2.793E+02
 1.800E+03, 2.459E+02, 3.250E+02, 2.797E+02
 1.815E+03, 2.471E+02, 3.250E+02, 2.802E+02
 1.830E+03, 2.482E+02, 3.250E+02, 2.806E+02
 1.845E+03, 2.493E+02, 3.250E+02, 2.810E+02
 1.860E+03, 2.503E+02, 3.250E+02, 2.814E+02
 1.875E+03, 2.513E+02, 3.250E+02, 2.818E+02
 1.890E+03, 2.518E+02, 3.250E+02, 2.820E+02
 1.905E+03, 2.527E+02, 3.250E+02, 2.824E+02
 1.920E+03, 2.535E+02, 3.250E+02, 2.826E+02
 1.935E+03, 2.542E+02, 3.250E+02, 2.829E+02
 1.950E+03, 2.553E+02, 3.250E+02, 2.832E+02
 1.965E+03, 2.556E+02, 3.250E+02, 2.833E+02
 1.980E+03, 2.564E+02, 3.250E+02, 2.835E+02
 1.995E+03, 2.573E+02, 3.250E+02, 2.838E+02
 2.010E+03, 2.582E+02, 3.250E+02, 2.841E+02
 2.025E+03, 2.591E+02, 3.250E+02, 2.844E+02
 2.040E+03, 2.601E+02, 3.250E+02, 2.847E+02
 2.055E+03, 2.609E+02, 3.250E+02, 2.850E+02
 2.070E+03, 2.617E+02, 3.250E+02, 2.853E+02
 2.085E+03, 2.625E+02, 3.250E+02, 2.856E+02
 2.100E+03, 2.633E+02, 3.250E+02, 2.859E+02
 2.115E+03, 2.639E+02, 3.250E+02, 2.861E+02
 2.130E+03, 2.645E+02, 3.250E+02, 2.863E+02
 2.145E+03, 2.653E+02, 3.250E+02, 2.866E+02
 2.160E+03, 2.657E+02, 3.250E+02, 2.868E+02
 2.175E+03, 2.663E+02, 3.250E+02, 2.870E+02
 2.190E+03, 2.668E+02, 3.250E+02, 2.871E+02
 2.205E+03, 2.671E+02, 3.250E+02, 2.873E+02
 2.220E+03, 2.678E+02, 3.250E+02, 2.875E+02
 2.235E+03, 2.680E+02, 3.250E+02, 2.876E+02
 2.250E+03, 2.684E+02, 3.250E+02, 2.877E+02
 2.265E+03, 2.692E+02, 3.250E+02, 2.879E+02
 2.280E+03, 2.699E+02, 3.250E+02, 2.881E+02
 2.295E+03, 2.702E+02, 3.250E+02, 2.883E+02
 2.310E+03, 2.707E+02, 3.250E+02, 2.884E+02
 2.325E+03, 2.714E+02, 3.250E+02, 2.886E+02
 2.340E+03, 2.721E+02, 3.250E+02, 2.889E+02
 2.355E+03, 2.725E+02, 3.250E+02, 2.890E+02
 2.370E+03, 2.729E+02, 3.250E+02, 2.892E+02
 2.385E+03, 2.734E+02, 3.250E+02, 2.894E+02
 2.400E+03, 2.740E+02, 3.250E+02, 2.896E+02
 2.415E+03, 2.744E+02, 3.250E+02, 2.897E+02
 2.430E+03, 2.748E+02, 3.250E+02, 2.898E+02
 2.445E+03, 2.748E+02, 3.250E+02, 2.899E+02
 2.460E+03, 2.749E+02, 3.250E+02, 2.899E+02
 2.475E+03, 2.752E+02, 3.250E+02, 2.899E+02
 2.490E+03, 2.754E+02, 3.250E+02, 2.899E+02
 2.505E+03, 2.756E+02, 3.250E+02, 2.900E+02
 2.520E+03, 2.758E+02, 3.250E+02, 2.900E+02
 2.535E+03, 2.765E+02, 3.250E+02, 2.902E+02
 2.550E+03, 2.770E+02, 3.250E+02, 2.904E+02
 2.565E+03, 2.775E+02, 3.250E+02, 2.905E+02
 2.580E+03, 2.776E+02, 3.250E+02, 2.906E+02
 2.595E+03, 2.780E+02, 3.250E+02, 2.908E+02
 2.610E+03, 2.784E+02, 3.250E+02, 2.909E+02
 2.625E+03, 2.783E+02, 3.250E+02, 2.909E+02
 2.640E+03, 2.788E+02, 3.250E+02, 2.910E+02
 2.655E+03, 2.789E+02, 3.250E+02, 2.911E+02
 2.670E+03, 2.792E+02, 3.250E+02, 2.912E+02
 2.685E+03, 2.796E+02, 3.250E+02, 2.913E+02
 2.700E+03, 2.800E+02, 3.250E+02, 2.914E+02
 2.715E+03, 2.804E+02, 3.250E+02, 2.916E+02
 2.730E+03, 2.808E+02, 3.250E+02, 2.917E+02
 2.745E+03, 2.811E+02, 3.250E+02, 2.919E+02
 2.760E+03, 2.813E+02, 3.250E+02, 2.919E+02
 2.775E+03, 2.811E+02, 3.250E+02, 2.919E+02
 2.790E+03, 2.809E+02, 3.250E+02, 2.918E+02
 2.805E+03, 2.806E+02, 3.250E+02, 2.918E+02
 2.820E+03, 2.810E+02, 3.250E+02, 2.919E+02
 2.835E+03, 2.815E+02, 3.250E+02, 2.920E+02
 2.850E+03, 2.819E+02, 3.250E+02, 2.921E+02
 2.865E+03, 2.823E+02, 3.250E+02, 2.922E+02
 2.880E+03, 2.824E+02, 3.250E+02, 2.923E+02
 2.895E+03, 2.826E+02, 3.250E+02, 2.924E+02
 2.910E+03, 2.830E+02, 3.250E+02, 2.925E+02
 2.925E+03, 2.831E+02, 3.250E+02, 2.925E+02
 2.940E+03, 2.833E+02, 3.250E+02, 2.926E+02
 2.955E+03, 2.835E+02, 3.250E+02, 2.927E+02
 2.970E+03, 2.830E+02, 3.250E+02, 2.925E+02
 2.985E+03, 2.832E+02, 3.250E+02, 2.926E+02
 3.000E+03, 2.836E+02, 3.250E+02, 2.927E+02
 3.015E+03, 2.834E+02, 3.250E+02, 2.927E+02
 3.030E+03, 2.837E+02, 3.250E+02, 2.927E+02
 3.045E+03, 2.841E+02, 3.250E+02, 2.928E+02
 3.060E+03, 2.843E+02, 3.250E+02, 2.929E+02
 3.075E+03, 2.845E+02, 3.250E+02, 2.930E+02
 3.090E+03, 2.844E+02, 3.250E+02, 2.930E+02
 3.105E+03, 2.841E+02, 3.250E+02, 2.929E+02
 3.120E+03, 2.842E+02, 3.250E+02, 2.930E+02
 3.135E+03, 2.846E+02, 3.250E+02, 2.930E+02
 3.150E+03, 2.847E+02, 3.250E+02, 2.931E+02
 3.165E+03, 2.849E+02, 3.250E+02, 2.931E+02
 3.180E+03, 2.851E+02, 3.250E+02, 2.932E+02
 3.195E+03, 2.854E+02, 3.250E+02, 2.933E+02
 3.210E+03, 2.854E+02, 3.250E+02, 2.934E+02
 3.225E+03, 2.854E+02, 3.250E+02, 2.934E+02
 3.240E+03, 2.852E+02, 3.250E+02, 2.933E+02
 3.255E+03, 2.856E+02, 3.250E+02, 2.934E+02
 3.270E+03, 2.859E+02, 3.250E+02, 2.935E+02
 3.285E+03, 2.856E+02, 3.250E+02, 2.935E+02
 3.300E+03, 2.853E+02, 3.250E+02, 2.934E+02
 3.315E+03, 2.856E+02, 3.250E+02, 2.934E+02
 3.330E+03, 2.857E+02, 3.250E+02, 2.934E+02
 3.345E+03, 2.860E+02, 3.250E+02, 2.935E+02
 3.360E+03, 2.862E+02, 3.250E+02, 2.935E+02
 3.375E+03, 2.864E+02, 3.139E+02, 2.935E+02
 3.390E+03, 2.862E+02, 2.919E+02, 2.927E+02
 3.405E+03, 2.855E+02, 2.698E+02, 2.912E+02
 3.420E+03, 2.846E+02, 2.477E+02, 2.891E+02
 3.435E+03, 2.847E+02, 2.257E+02, 2.868E+02
 3.450E+03, 2.845E+02, 2.036E+02, 2.840E+02
 3.465E+03, 2.839E+02, 1.828E+02, 2.810E+02
 3.480E+03, 2.834E+02, 1.780E+02, 2.778E+02
 3.495E+03, 2.827E+02, 1.780E+02, 2.747E+02
 3.510E+03, 2.815E+02, 1.780E+02, 2.717E+02
 3.525E+03, 2.802E+02, 1.780E+02, 2.687E+02
 3.540E+03, 2.782E+02, 1.780E+02, 2.658E+02
 3.555E+03, 2.772E+02, 1.780E+02, 2.631E+02
 3.570E+03, 2.761E+02, 1.780E+02, 2.605E+02
 3.585E+03, 2.749E+02, 1.780E+02, 2.580E+02
 3.600E+03, 2.739E+02, 1.780E+02, 2.556E+02
