s,C,C,C
Time,"Cable Temp","Shroud Temp","Conduit"
 0.000E+00, 3.100E+01, 3.100E+01, 3.100E+01
 1.506E+01, 3.097E+01, 7.161E+01, 3.106E+01
 3.000E+01, 3.125E+01, 1.516E+02, 3.175E+01
 4.501E+01, 3.135E+01, 2.316E+02, 3.357E+01
 6.003E+01, 3.168E+01, 3.073E+02, 3.723E+01
 7.501E+01, 3.226E+01, 3.250E+02, 4.230E+01
 9.001E+01, 3.298E+01, 3.250E+02, 4.745E+01
 1.050E+02, 3.392E+01, 3.250E+02, 5.256E+01
 1.200E+02, 3.493E+01, 3.250E+02, 5.760E+01
 1.350E+02, 3.589E+01, 3.250E+02, 6.257E+01
 1.500E+02, 3.667E+01, 3.250E+02, 6.741E+01
 1.650E+02, 3.767E+01, 3.250E+02, 7.221E+01
 1.800E+02, 3.843E+01, 3.250E+02, 7.691E+01
 1.950E+02, 3.919E+01, 3.250E+02, 8.153E+01
 2.100E+02, 4.053E+01, 3.250E+02, 8.610E+01
 2.250E+02, 4.163E+01, 3.250E+02, 9.058E+01
 2.400E+02, 4.293E+01, 3.250E+02, 9.499E+01
 2.550E+02, 4.439E+01, 3.250E+02, 9.934E+01
 2.700E+02, 4.596E+01, 3.250E+02, 1.036E+02
 2.850E+02, 4.742E+01, 3.250E+02, 1.078E+02
 3.000E+02, 4.911E+01, 3.250E+02, 1.119E+02
 3.150E+02, 5.071E+01, 3.250E+02, 1.160E+02
 3.300E+02, 5.227E+01, 3.250E+02, 1.199E+02
 3.450E+02, 5.394E+01, 3.250E+02, 1.239E+02
 3.600E+02, 5.579E+01, 3.250E+02, 1.277E+02
 3.750E+02, 5.750E+01, 3.250E+02, 1.315E+02
 3.900E+02, 5.913E+01, 3.250E+02, 1.352E+02
 4.050E+02, 6.091E+01, 3.250E+02, 1.388E+02
 4.200E+02, 6.269E+01, 3.250E+02, 1.423E+02
 4.350E+02, 6.478E+01, 3.250E+02, 1.458E+02
 4.500E+02, 6.678E+01, 3.250E+02, 1.493E+02
 4.650E+02, 6.882E+01, 3.250E+02, 1.526E+02
 4.800E+02, 7.090E+01, 3.250E+02, 1.560E+02
 4.950E+02, 7.328E+01, 3.250E+02, 1.593E+02
 5.100E+02, 7.536E+01, 3.250E+02, 1.624E+02
 5.250E+02, 7.726E+01, 3.250E+02, 1.655E+02
 5.400E+02, 7.948E+01, 3.250E+02, 1.686E+02
 5.550E+02, 8.177E+01, 3.250E+02, 1.716E+02
 5.700E+02, 8.396E+01, 3.250E+02, 1.746E+02
 5.850E+02, 8.619E+01, 3.250E+02, 1.774E+02
 6.000E+02, 8.870E+01, 3.250E+02, 1.802E+02
 6.150E+02, 9.091E+01, 3.250E+02, 1.830E+02
 6.300E+02, 9.304E+01, 3.250E+02, 1.857E+02
 6.450E+02, 9.559E+01, 3.250E+02, 1.884E+02
 6.600E+02, 9.781E+01, 3.250E+02, 1.909E+02
 6.750E+02, 1.005E+02, 3.250E+02, 1.935E+02
 6.900E+02, 1.030E+02, 3.250E+02, 1.960E+02
 7.050E+02, 1.055E+02, 3.250E+02, 1.984E+02
 7.200E+02, 1.078E+02, 3.250E+02, 2.008E+02
 7.350E+02, 1.104E+02, 3.250E+02, 2.031E+02
 7.500E+02, 1.128E+02, 3.250E+02, 2.054E+02
 7.650E+02, 1.155E+02, 3.250E+02, 2.077E+02
 7.800E+02, 1.180E+02, 3.250E+02, 2.099E+02
 7.950E+02, 1.206E+02, 3.250E+02, 2.121E+02
 8.100E+02, 1.232E+02, 3.250E+02, 2.142E+02
 8.250E+02, 1.259E+02, 3.250E+02, 2.163E+02
 8.400E+02, 1.285E+02, 3.250E+02, 2.183E+02
 8.550E+02, 1.311E+02, 3.250E+02, 2.203E+02
 8.700E+02, 1.334E+02, 3.250E+02, 2.221E+02
 8.850E+02, 1.358E+02, 3.250E+02, 2.239E+02
 9.000E+02, 1.381E+02, 3.250E+02, 2.256E+02
 9.150E+02, 1.406E+02, 3.250E+02, 2.273E+02
 9.300E+02, 1.429E+02, 3.250E+02, 2.290E+02
 9.450E+02, 1.455E+02, 3.250E+02, 2.306E+02
 9.600E+02, 1.481E+02, 3.250E+02, 2.322E+02
 9.750E+02, 1.504E+02, 3.250E+02, 2.337E+02
 9.900E+02, 1.529E+02, 3.250E+02, 2.354E+02
 1.005E+03, 1.551E+02, 3.250E+02, 2.368E+02
 1.020E+03, 1.574E+02, 3.250E+02, 2.383E+02
 1.035E+03, 1.597E+02, 3.250E+02, 2.397E+02
 1.050E+03, 1.622E+02, 3.250E+02, 2.411E+02
 1.065E+03, 1.649E+02, 3.250E+02, 2.425E+02
 1.080E+03, 1.676E+02, 3.250E+02, 2.439E+02
 1.095E+03, 1.701E+02, 3.250E+02, 2.453E+02
 1.110E+03, 1.723E+02, 3.250E+02, 2.466E+02
 1.125E+03, 1.747E+02, 3.250E+02, 2.479E+02
 1.140E+03, 1.769E+02, 3.250E+02, 2.490E+02
 1.155E+03, 1.786E+02, 3.250E+02, 2.501E+02
 1.170E+03, 1.802E+02, 3.250E+02, 2.510E+02
 1.185E+03, 1.822E+02, 3.250E+02, 2.520E+02
 1.200E+03, 1.842E+02, 3.250E+02, 2.530E+02
 1.215E+03, 1.863E+02, 3.250E+02, 2.540E+02
 1.230E+03, 1.889E+02, 3.250E+02, 2.551E+02
 1.245E+03, 1.912E+02, 3.250E+02, 2.562E+02
 1.260E+03, 1.926E+02, 3.250E+02, 2.571E+02
 1.275E+03, 1.945E+02, 3.250E+02, 2.580E+02
 1.290E+03, 1.968E+02, 3.250E+02, 2.590E+02
 1.305E+03, 1.988E+02, 3.250E+02, 2.599E+02
 1.320E+03, 2.009E+02, 3.250E+02, 2.608E+02
 1.335E+03, 2.032E+02, 3.250E+02, 2.617E+02
 1.350E+03, 2.052E+02, 3.250E+02, 2.627E+02
 1.365E+03, 2.072E+02, 3.250E+02, 2.635E+02
 1.380E+03, 2.091E+02, 3.250E+02, 2.644E+02
 1.395E+03, 2.111E+02, 3.250E+02, 2.653E+02
 1.410E+03, 2.130E+02, 3.250E+02, 2.661E+02
 1.425E+03, 2.148E+02, 3.250E+02, 2.669E+02
 1.440E+03, 2.166E+02, 3.250E+02, 2.677E+02
 1.455E+03, 2.181E+02, 3.250E+02, 2.684E+02
 1.470E+03, 2.196E+02, 3.250E+02, 2.691E+02
 1.485E+03, 2.213E+02, 3.250E+02, 2.698E+02
 1.500E+03, 2.231E+02, 3.250E+02, 2.705E+02
 1.515E+03, 2.248E+02, 3.250E+02, 2.712E+02
 1.530E+03, 2.266E+02, 3.250E+02, 2.719E+02
 1.545E+03, 2.282E+02, 3.250E+02, 2.726E+02
 1.560E+03, 2.297E+02, 3.250E+02, 2.732E+02
 1.575E+03, 2.310E+02, 3.250E+02, 2.738E+02
 1.590E+03, 2.317E+02, 3.250E+02, 2.742E+02
 1.605E+03, 2.325E+02, 3.250E+02, 2.745E+02
 1.620E+03, 2.335E+02, 3.250E+02, 2.749E+02
 1.635E+03, 2.352E+02, 3.250E+02, 2.755E+02
 1.650E+03, 2.369E+02, 3.250E+02, 2.760E+02
 1.665E+03, 2.375E+02, 3.250E+02, 2.764E+02
 1.680E+03, 2.386E+02, 3.250E+02, 2.768E+02
 1.695E+03, 2.403E+02, 3.250E+02, 2.773E+02
 1.710E+03, 2.418E+02, 3.250E+02, 2.779E+02
 1.725E+03, 2.425E+02, 3.250E+02, 2.782E+02
 1.740E+03, 2.436E+02, 3.250E+02, 2.786E+02
 1.755E+03, 2.451E+02, 3.250E+02, 2.791E+02
 1.770E+03, 2.457E+02, 3.250E+02, 2.794E+02
 1.785E+03, 2.464E+02, 3.250E+02, 2.797E+02
 1.800E+03, 2.475E+02, 3.250E+02, 2.801E+02
 1.815E+03, 2.487E+02, 3.250E+02, 2.805E+02
 1.830E+03, 2.499E+02, 3.250E+02, 2.809E+02
 1.845E+03, 2.512E+02, 3.250E+02, 2.813E+02
 1.860E+03, 2.520E+02, 3.250E+02, 2.816E+02
 1.875E+03, 2.527E+02, 3.250E+02, 2.819E+02
 1.890E+03, 2.532E+02, 3.250E+02, 2.821E+02
 1.905E+03, 2.535E+02, 3.250E+02, 2.823E+02
 1.920E+03, 2.542E+02, 3.250E+02, 2.825E+02
 1.935E+03, 2.556E+02, 3.250E+02, 2.829E+02
 1.950E+03, 2.569E+02, 3.250E+02, 2.833E+02
 1.965E+03, 2.574E+02, 3.250E+02, 2.835E+02
 1.980E+03, 2.575E+02, 3.250E+02, 2.836E+02
 1.995E+03, 2.581E+02, 3.250E+02, 2.838E+02
 2.010E+03, 2.588E+02, 3.250E+02, 2.840E+02
 2.025E+03, 2.598E+02, 3.250E+02, 2.843E+02
 2.040E+03, 2.610E+02, 3.250E+02, 2.847E+02
 2.055E+03, 2.616E+02, 3.250E+02, 2.850E+02
 2.070E+03, 2.616E+02, 3.250E+02, 2.851E+02
 2.085E+03, 2.619E+02, 3.250E+02, 2.852E+02
 2.100E+03, 2.621E+02, 3.250E+02, 2.853E+02
 2.115E+03, 2.630E+02, 3.250E+02, 2.855E+02
 2.130E+03, 2.633E+02, 3.250E+02, 2.856E+02
 2.145E+03, 2.645E+02, 3.250E+02, 2.859E+02
 2.160E+03, 2.658E+02, 3.250E+02, 2.862E+02
 2.175E+03, 2.663E+02, 3.250E+02, 2.864E+02
 2.190E+03, 2.660E+02, 3.250E+02, 2.864E+02
 2.205E+03, 2.660E+02, 3.250E+02, 2.865E+02
 2.220E+03, 2.663E+02, 3.250E+02, 2.865E+02
 2.235E+03, 2.667E+02, 3.250E+02, 2.867E+02
 2.250E+03, 2.681E+02, 3.250E+02, 2.870E+02
 2.265E+03, 2.690E+02, 3.250E+02, 2.872E+02
 2.280E+03, 2.693E+02, 3.250E+02, 2.874E+02
 2.295E+03, 2.701E+02, 3.250E+02, 2.876E+02
 2.310E+03, 2.698E+02, 3.250E+02, 2.876E+02
 2.325E+03, 2.696E+02, 3.250E+02, 2.876E+02
 2.340E+03, 2.694E+02, 3.250E+02, 2.876E+02
 2.355E+03, 2.699E+02, 3.250E+02, 2.877E+02
 2.370E+03, 2.702E+02, 3.250E+02, 2.878E+02
 2.385E+03, 2.710E+02, 3.250E+02, 2.880E+02
 2.400E+03, 2.720E+02, 3.250E+02, 2.882E+02
 2.415E+03, 2.718E+02, 3.250E+02, 2.883E+02
 2.430E+03, 2.725E+02, 3.250E+02, 2.885E+02
 2.445E+03, 2.727E+02, 3.250E+02, 2.886E+02
 2.460E+03, 2.735E+02, 3.250E+02, 2.888E+02
 2.475E+03, 2.744E+02, 3.250E+02, 2.890E+02
 2.490E+03, 2.745E+02, 3.250E+02, 2.891E+02
 2.505E+03, 2.743E+02, 3.250E+02, 2.892E+02
 2.520E+03, 2.750E+02, 3.250E+02, 2.894E+02
 2.535E+03, 2.756E+02, 3.250E+02, 2.896E+02
 2.550E+03, 2.763E+02, 3.250E+02, 2.898E+02
 2.565E+03, 2.764E+02, 3.250E+02, 2.900E+02
 2.580E+03, 2.766E+02, 3.250E+02, 2.901E+02
 2.595E+03, 2.771E+02, 3.250E+02, 2.903E+02
 2.610E+03, 2.767E+02, 3.250E+02, 2.903E+02
 2.625E+03, 2.770E+02, 3.250E+02, 2.904E+02
 2.640E+03, 2.778E+02, 3.250E+02, 2.906E+02
 2.655E+03, 2.781E+02, 3.250E+02, 2.906E+02
 2.670E+03, 2.776E+02, 3.250E+02, 2.906E+02
 2.685E+03, 2.776E+02, 3.250E+02, 2.906E+02
 2.700E+03, 2.779E+02, 3.250E+02, 2.907E+02
 2.715E+03, 2.783E+02, 3.250E+02, 2.907E+02
 2.730E+03, 2.790E+02, 3.250E+02, 2.909E+02
 2.745E+03, 2.794E+02, 3.250E+02, 2.910E+02
 2.760E+03, 2.788E+02, 3.250E+02, 2.909E+02
 2.775E+03, 2.783E+02, 3.250E+02, 2.908E+02
 2.790E+03, 2.787E+02, 3.250E+02, 2.909E+02
 2.805E+03, 2.797E+02, 3.250E+02, 2.911E+02
 2.820E+03, 2.794E+02, 3.250E+02, 2.911E+02
 2.835E+03, 2.795E+02, 3.250E+02, 2.912E+02
 2.850E+03, 2.802E+02, 3.250E+02, 2.913E+02
 2.865E+03, 2.806E+02, 3.250E+02, 2.914E+02
 2.880E+03, 2.813E+02, 3.250E+02, 2.916E+02
 2.895E+03, 2.817E+02, 3.250E+02, 2.918E+02
 2.910E+03, 2.821E+02, 3.250E+02, 2.920E+02
 2.925E+03, 2.825E+02, 3.250E+02, 2.921E+02
 2.940E+03, 2.830E+02, 3.250E+02, 2.923E+02
 2.955E+03, 2.832E+02, 3.250E+02, 2.924E+02
 2.970E+03, 2.835E+02, 3.250E+02, 2.926E+02
 2.985E+03, 2.834E+02, 3.250E+02, 2.926E+02
 3.000E+03, 2.837E+02, 3.250E+02, 2.927E+02
 3.015E+03, 2.839E+02, 3.250E+02, 2.928E+02
 3.030E+03, 2.835E+02, 3.250E+02, 2.928E+02
 3.045E+03, 2.832E+02, 3.250E+02, 2.927E+02
 3.060E+03, 2.827E+02, 3.250E+02, 2.926E+02
 3.075E+03, 2.825E+02, 3.250E+02, 2.926E+02
 3.090E+03, 2.827E+02, 3.250E+02, 2.925E+02
 3.105E+03, 2.817E+02, 3.250E+02, 2.923E+02
 3.120E+03, 2.822E+02, 3.250E+02, 2.923E+02
 3.135E+03, 2.831E+02, 3.250E+02, 2.924E+02
 3.150E+03, 2.838E+02, 3.250E+02, 2.926E+02
 3.165E+03, 2.843E+02, 3.250E+02, 2.927E+02
 3.180E+03, 2.844E+02, 3.250E+02, 2.928E+02
 3.195E+03, 2.848E+02, 3.250E+02, 2.930E+02
 3.210E+03, 2.851E+02, 3.250E+02, 2.931E+02
 3.225E+03, 2.854E+02, 3.250E+02, 2.932E+02
 3.240E+03, 2.851E+02, 3.250E+02, 2.932E+02
 3.255E+03, 2.847E+02, 3.250E+02, 2.932E+02
 3.270E+03, 2.849E+02, 3.250E+02, 2.932E+02
 3.285E+03, 2.845E+02, 3.250E+02, 2.931E+02
 3.300E+03, 2.852E+02, 3.250E+02, 2.933E+02
 3.315E+03, 2.856E+02, 3.250E+02, 2.934E+02
 3.330E+03, 2.861E+02, 3.250E+02, 2.935E+02
 3.345E+03, 2.865E+02, 3.250E+02, 2.937E+02
 3.360E+03, 2.863E+02, 3.250E+02, 2.937E+02
 3.375E+03, 2.852E+02, 3.139E+02, 2.934E+02
 3.390E+03, 2.842E+02, 2.919E+02, 2.924E+02
 3.405E+03, 2.847E+02, 2.698E+02, 2.911E+02
 3.420E+03, 2.852E+02, 2.478E+02, 2.893E+02
 3.435E+03, 2.852E+02, 2.257E+02, 2.871E+02
 3.450E+03, 2.851E+02, 2.036E+02, 2.844E+02
 3.465E+03, 2.848E+02, 1.828E+02, 2.815E+02
 3.480E+03, 2.841E+02, 1.780E+02, 2.783E+02
 3.495E+03, 2.830E+02, 1.780E+02, 2.752E+02
 3.510E+03, 2.819E+02, 1.780E+02, 2.722E+02
 3.525E+03, 2.806E+02, 1.780E+02, 2.693E+02
 3.540E+03, 2.799E+02, 1.780E+02, 2.666E+02
 3.555E+03, 2.780E+02, 1.780E+02, 2.638E+02
 3.570E+03, 2.768E+02, 1.780E+02, 2.612E+02
 3.585E+03, 2.762E+02, 1.780E+02, 2.588E+02
 3.600E+03, 2.754E+02, 1.780E+02, 2.565E+02
