s,C,C
Time,"Cable Temp","Shroud Temp"
 0.000E+00, 2.400E+01, 2.400E+01
 1.500E+01, 2.401E+01, 6.143E+01
 3.001E+01, 2.427E+01, 1.356E+02
 4.501E+01, 2.537E+01, 2.099E+02
 6.001E+01, 2.797E+01, 2.843E+02
 7.500E+01, 3.283E+01, 3.586E+02
 9.001E+01, 4.094E+01, 4.329E+02
 1.050E+02, 5.336E+01, 4.700E+02
 1.200E+02, 6.894E+01, 4.700E+02
 1.350E+02, 8.481E+01, 4.700E+02
 1.500E+02, 9.988E+01, 4.700E+02
 1.650E+02, 1.139E+02, 4.700E+02
 1.800E+02, 1.268E+02, 4.700E+02
 1.950E+02, 1.389E+02, 4.700E+02
 2.100E+02, 1.501E+02, 4.700E+02
 2.250E+02, 1.606E+02, 4.700E+02
 2.400E+02, 1.705E+02, 4.700E+02
 2.550E+02, 1.798E+02, 4.700E+02
 2.700E+02, 1.887E+02, 4.700E+02
 2.850E+02, 1.971E+02, 4.700E+02
 3.000E+02, 2.051E+02, 4.700E+02
 3.150E+02, 2.128E+02, 4.700E+02
 3.300E+02, 2.201E+02, 4.700E+02
 3.450E+02, 2.270E+02, 4.700E+02
 3.600E+02, 2.338E+02, 4.700E+02
 3.750E+02, 2.402E+02, 4.700E+02
 3.900E+02, 2.464E+02, 4.700E+02
 4.050E+02, 2.525E+02, 4.700E+02
 4.200E+02, 2.582E+02, 4.700E+02
 4.350E+02, 2.638E+02, 4.700E+02
 4.500E+02, 2.692E+02, 4.700E+02
 4.650E+02, 2.744E+02, 4.700E+02
 4.800E+02, 2.793E+02, 4.700E+02
 4.950E+02, 2.840E+02, 4.700E+02
 5.100E+02, 2.886E+02, 4.700E+02
 5.250E+02, 2.930E+02, 4.700E+02
 5.400E+02, 2.972E+02, 4.700E+02
 5.550E+02, 3.014E+02, 4.700E+02
 5.700E+02, 3.054E+02, 4.700E+02
 5.850E+02, 3.092E+02, 4.700E+02
 6.000E+02, 3.129E+02, 4.700E+02
 6.150E+02, 3.164E+02, 4.700E+02
 6.300E+02, 3.198E+02, 4.700E+02
 6.450E+02, 3.231E+02, 4.700E+02
 6.600E+02, 3.263E+02, 4.700E+02
 6.750E+02, 3.293E+02, 4.700E+02
 6.900E+02, 3.323E+02, 4.700E+02
 7.050E+02, 3.351E+02, 4.700E+02
 7.200E+02, 3.379E+02, 4.700E+02
 7.350E+02, 3.405E+02, 4.700E+02
 7.500E+02, 3.430E+02, 4.700E+02
 7.650E+02, 3.455E+02, 4.700E+02
 7.800E+02, 3.479E+02, 4.700E+02
 7.950E+02, 3.502E+02, 4.700E+02
 8.100E+02, 3.523E+02, 4.700E+02
 8.250E+02, 3.544E+02, 4.700E+02
 8.400E+02, 3.564E+02, 4.700E+02
 8.550E+02, 3.584E+02, 4.700E+02
 8.700E+02, 3.603E+02, 4.700E+02
 8.850E+02, 3.621E+02, 4.700E+02
 9.000E+02, 3.639E+02, 4.700E+02
 9.150E+02, 3.656E+02, 4.700E+02
 9.300E+02, 3.672E+02, 4.700E+02
 9.450E+02, 3.688E+02, 4.700E+02
 9.600E+02, 3.704E+02, 4.700E+02
 9.750E+02, 3.718E+02, 4.700E+02
 9.900E+02, 3.732E+02, 4.700E+02
 1.005E+03, 3.746E+02, 4.700E+02
 1.020E+03, 3.758E+02, 4.700E+02
 1.035E+03, 3.770E+02, 4.700E+02
 1.050E+03, 3.782E+02, 4.700E+02
 1.065E+03, 3.794E+02, 4.700E+02
 1.080E+03, 3.806E+02, 4.700E+02
 1.095E+03, 3.817E+02, 4.700E+02
 1.110E+03, 3.828E+02, 4.700E+02
 1.125E+03, 3.838E+02, 4.700E+02
 1.140E+03, 3.847E+02, 4.700E+02
 1.155E+03, 3.856E+02, 4.700E+02
 1.170E+03, 3.866E+02, 4.700E+02
 1.185E+03, 3.874E+02, 4.700E+02
 1.200E+03, 3.883E+02, 4.700E+02
 1.215E+03, 3.891E+02, 4.700E+02
 1.230E+03, 3.900E+02, 4.700E+02
 1.245E+03, 3.907E+02, 4.700E+02
 1.260E+03, 3.914E+02, 4.700E+02
 1.275E+03, 3.921E+02, 4.700E+02
 1.290E+03, 3.926E+02, 4.700E+02
 1.305E+03, 3.932E+02, 4.700E+02
 1.320E+03, 3.938E+02, 4.700E+02
 1.335E+03, 3.943E+02, 4.700E+02
 1.350E+03, 3.949E+02, 4.700E+02
 1.365E+03, 3.956E+02, 4.700E+02
 1.380E+03, 3.961E+02, 4.700E+02
 1.395E+03, 3.966E+02, 4.700E+02
 1.410E+03, 3.971E+02, 4.700E+02
 1.425E+03, 3.975E+02, 4.700E+02
 1.440E+03, 3.979E+02, 4.700E+02
 1.455E+03, 3.983E+02, 4.700E+02
 1.470E+03, 3.987E+02, 4.700E+02
 1.485E+03, 3.991E+02, 4.700E+02
 1.500E+03, 3.995E+02, 4.700E+02
 1.515E+03, 3.998E+02, 4.700E+02
 1.530E+03, 4.002E+02, 4.700E+02
 1.545E+03, 4.004E+02, 4.700E+02
 1.560E+03, 4.008E+02, 4.700E+02
 1.575E+03, 4.012E+02, 4.700E+02
 1.590E+03, 4.014E+02, 4.700E+02
 1.605E+03, 4.017E+02, 4.700E+02
 1.620E+03, 4.019E+02, 4.700E+02
 1.635E+03, 4.023E+02, 4.700E+02
 1.650E+03, 4.026E+02, 4.700E+02
 1.665E+03, 4.029E+02, 4.700E+02
 1.680E+03, 4.032E+02, 4.700E+02
 1.695E+03, 4.034E+02, 4.700E+02
 1.710E+03, 4.036E+02, 4.700E+02
 1.725E+03, 4.038E+02, 4.700E+02
 1.740E+03, 4.040E+02, 4.700E+02
 1.755E+03, 4.042E+02, 4.700E+02
 1.770E+03, 4.044E+02, 4.700E+02
 1.785E+03, 4.045E+02, 4.700E+02
 1.800E+03, 4.046E+02, 4.700E+02
