s,C,C,C
Time,Cable Temp,Shroud Temp,Conduit
 0.000E+00, 3.100E+01, 3.100E+01, 3.100E+01
 1.501E+01, 3.095E+01, 7.151E+01, 3.106E+01
 3.002E+01, 3.084E+01, 1.515E+02, 3.164E+01
 4.502E+01, 3.083E+01, 2.317E+02, 3.322E+01
 6.002E+01, 3.093E+01, 3.073E+02, 3.643E+01
 7.502E+01, 3.127E+01, 3.250E+02, 4.097E+01
 9.001E+01, 3.178E+01, 3.250E+02, 4.560E+01
 1.050E+02, 3.233E+01, 3.250E+02, 5.019E+01
 1.200E+02, 3.291E+01, 3.250E+02, 5.475E+01
 1.350E+02, 3.357E+01, 3.250E+02, 5.927E+01
 1.500E+02, 3.424E+01, 3.250E+02, 6.375E+01
 1.650E+02, 3.509E+01, 3.250E+02, 6.819E+01
 1.800E+02, 3.614E+01, 3.250E+02, 7.261E+01
 1.950E+02, 3.707E+01, 3.250E+02, 7.697E+01
 2.100E+02, 3.802E+01, 3.250E+02, 8.130E+01
 2.250E+02, 3.923E+01, 3.250E+02, 8.559E+01
 2.400E+02, 4.029E+01, 3.250E+02, 8.982E+01
 2.550E+02, 4.148E+01, 3.250E+02, 9.402E+01
 2.700E+02, 4.297E+01, 3.250E+02, 9.818E+01
 2.850E+02, 4.427E+01, 3.250E+02, 1.023E+02
 3.000E+02, 4.548E+01, 3.250E+02, 1.063E+02
 3.150E+02, 4.690E+01, 3.250E+02, 1.104E+02
 3.300E+02, 4.820E+01, 3.250E+02, 1.143E+02
 3.450E+02, 4.966E+01, 3.250E+02, 1.182E+02
 3.600E+02, 5.128E+01, 3.250E+02, 1.221E+02
 3.750E+02, 5.298E+01, 3.250E+02, 1.259E+02
 3.900E+02, 5.486E+01, 3.250E+02, 1.297E+02
 4.050E+02, 5.662E+01, 3.250E+02, 1.334E+02
 4.200E+02, 5.834E+01, 3.250E+02, 1.371E+02
 4.350E+02, 6.018E+01, 3.250E+02, 1.407E+02
 4.500E+02, 6.208E+01, 3.250E+02, 1.442E+02
 4.650E+02, 6.396E+01, 3.250E+02, 1.477E+02
 4.800E+02, 6.594E+01, 3.250E+02, 1.512E+02
 4.950E+02, 6.797E+01, 3.250E+02, 1.545E+02
 5.100E+02, 7.002E+01, 3.250E+02, 1.579E+02
 5.250E+02, 7.229E+01, 3.250E+02, 1.612E+02
 5.400E+02, 7.429E+01, 3.250E+02, 1.644E+02
 5.550E+02, 7.639E+01, 3.250E+02, 1.676E+02
 5.700E+02, 7.846E+01, 3.250E+02, 1.707E+02
 5.850E+02, 8.071E+01, 3.250E+02, 1.737E+02
 6.000E+02, 8.318E+01, 3.250E+02, 1.767E+02
 6.150E+02, 8.560E+01, 3.250E+02, 1.797E+02
 6.300E+02, 8.781E+01, 3.250E+02, 1.826E+02
 6.450E+02, 9.019E+01, 3.250E+02, 1.854E+02
 6.600E+02, 9.269E+01, 3.250E+02, 1.882E+02
 6.750E+02, 9.532E+01, 3.250E+02, 1.909E+02
 6.900E+02, 9.809E+01, 3.250E+02, 1.936E+02
 7.050E+02, 1.004E+02, 3.250E+02, 1.962E+02
 7.200E+02, 1.028E+02, 3.250E+02, 1.987E+02
 7.350E+02, 1.055E+02, 3.250E+02, 2.013E+02
 7.500E+02, 1.080E+02, 3.250E+02, 2.037E+02
 7.650E+02, 1.106E+02, 3.250E+02, 2.061E+02
 7.800E+02, 1.132E+02, 3.250E+02, 2.084E+02
 7.950E+02, 1.158E+02, 3.250E+02, 2.106E+02
 8.100E+02, 1.182E+02, 3.250E+02, 2.128E+02
 8.250E+02, 1.209E+02, 3.250E+02, 2.150E+02
 8.400E+02, 1.234E+02, 3.250E+02, 2.171E+02
 8.550E+02, 1.260E+02, 3.250E+02, 2.191E+02
 8.700E+02, 1.286E+02, 3.250E+02, 2.211E+02
 8.850E+02, 1.311E+02, 3.250E+02, 2.230E+02
 9.000E+02, 1.338E+02, 3.250E+02, 2.249E+02
 9.150E+02, 1.364E+02, 3.250E+02, 2.267E+02
 9.300E+02, 1.388E+02, 3.250E+02, 2.285E+02
 9.450E+02, 1.413E+02, 3.250E+02, 2.303E+02
 9.600E+02, 1.439E+02, 3.250E+02, 2.320E+02
 9.750E+02, 1.465E+02, 3.250E+02, 2.337E+02
 9.900E+02, 1.490E+02, 3.250E+02, 2.354E+02
 1.005E+03, 1.516E+02, 3.250E+02, 2.369E+02
 1.020E+03, 1.538E+02, 3.250E+02, 2.384E+02
 1.035E+03, 1.562E+02, 3.250E+02, 2.399E+02
 1.050E+03, 1.586E+02, 3.250E+02, 2.414E+02
 1.065E+03, 1.612E+02, 3.250E+02, 2.428E+02
 1.080E+03, 1.638E+02, 3.250E+02, 2.443E+02
 1.095E+03, 1.665E+02, 3.250E+02, 2.456E+02
 1.110E+03, 1.687E+02, 3.250E+02, 2.469E+02
 1.125E+03, 1.707E+02, 3.250E+02, 2.481E+02
 1.140E+03, 1.728E+02, 3.250E+02, 2.493E+02
 1.155E+03, 1.753E+02, 3.250E+02, 2.506E+02
 1.170E+03, 1.776E+02, 3.250E+02, 2.519E+02
 1.185E+03, 1.799E+02, 3.250E+02, 2.530E+02
 1.200E+03, 1.823E+02, 3.250E+02, 2.542E+02
 1.215E+03, 1.845E+02, 3.250E+02, 2.552E+02
 1.230E+03, 1.865E+02, 3.250E+02, 2.563E+02
 1.245E+03, 1.886E+02, 3.250E+02, 2.573E+02
 1.260E+03, 1.909E+02, 3.250E+02, 2.584E+02
 1.275E+03, 1.933E+02, 3.250E+02, 2.594E+02
 1.290E+03, 1.953E+02, 3.250E+02, 2.604E+02
 1.305E+03, 1.971E+02, 3.250E+02, 2.613E+02
 1.320E+03, 1.993E+02, 3.250E+02, 2.623E+02
 1.335E+03, 2.010E+02, 3.250E+02, 2.632E+02
 1.350E+03, 2.029E+02, 3.250E+02, 2.641E+02
 1.365E+03, 2.048E+02, 3.250E+02, 2.649E+02
 1.380E+03, 2.068E+02, 3.250E+02, 2.657E+02
 1.395E+03, 2.086E+02, 3.250E+02, 2.665E+02
 1.410E+03, 2.104E+02, 3.250E+02, 2.673E+02
 1.425E+03, 2.122E+02, 3.250E+02, 2.680E+02
 1.440E+03, 2.139E+02, 3.250E+02, 2.687E+02
 1.455E+03, 2.157E+02, 3.250E+02, 2.694E+02
 1.470E+03, 2.173E+02, 3.250E+02, 2.701E+02
 1.485E+03, 2.190E+02, 3.250E+02, 2.708E+02
 1.500E+03, 2.206E+02, 3.250E+02, 2.715E+02
 1.515E+03, 2.223E+02, 3.250E+02, 2.722E+02
 1.530E+03, 2.241E+02, 3.250E+02, 2.728E+02
 1.545E+03, 2.256E+02, 3.250E+02, 2.735E+02
 1.560E+03, 2.271E+02, 3.250E+02, 2.741E+02
 1.575E+03, 2.284E+02, 3.250E+02, 2.746E+02
 1.590E+03, 2.298E+02, 3.250E+02, 2.752E+02
 1.605E+03, 2.311E+02, 3.250E+02, 2.757E+02
 1.620E+03, 2.324E+02, 3.250E+02, 2.762E+02
 1.635E+03, 2.340E+02, 3.250E+02, 2.768E+02
 1.650E+03, 2.355E+02, 3.250E+02, 2.774E+02
 1.665E+03, 2.366E+02, 3.250E+02, 2.778E+02
 1.680E+03, 2.377E+02, 3.250E+02, 2.783E+02
 1.695E+03, 2.391E+02, 3.250E+02, 2.788E+02
 1.710E+03, 2.400E+02, 3.250E+02, 2.792E+02
 1.725E+03, 2.413E+02, 3.250E+02, 2.796E+02
 1.740E+03, 2.427E+02, 3.250E+02, 2.800E+02
 1.755E+03, 2.439E+02, 3.250E+02, 2.804E+02
 1.770E+03, 2.451E+02, 3.250E+02, 2.809E+02
 1.785E+03, 2.463E+02, 3.250E+02, 2.813E+02
 1.800E+03, 2.475E+02, 3.250E+02, 2.817E+02
 1.815E+03, 2.482E+02, 3.250E+02, 2.820E+02
 1.830E+03, 2.492E+02, 3.250E+02, 2.824E+02
 1.845E+03, 2.504E+02, 3.250E+02, 2.828E+02
 1.860E+03, 2.516E+02, 3.250E+02, 2.832E+02
 1.875E+03, 2.528E+02, 3.250E+02, 2.837E+02
 1.890E+03, 2.538E+02, 3.250E+02, 2.840E+02
 1.905E+03, 2.548E+02, 3.250E+02, 2.844E+02
 1.920E+03, 2.559E+02, 3.250E+02, 2.848E+02
 1.935E+03, 2.570E+02, 3.250E+02, 2.852E+02
 1.950E+03, 2.581E+02, 3.250E+02, 2.855E+02
 1.965E+03, 2.586E+02, 3.250E+02, 2.858E+02
 1.980E+03, 2.593E+02, 3.250E+02, 2.860E+02
 1.995E+03, 2.597E+02, 3.250E+02, 2.863E+02
 2.010E+03, 2.609E+02, 3.250E+02, 2.866E+02
 2.025E+03, 2.620E+02, 3.250E+02, 2.869E+02
 2.040E+03, 2.628E+02, 3.250E+02, 2.872E+02
 2.055E+03, 2.634E+02, 3.250E+02, 2.875E+02
 2.070E+03, 2.640E+02, 3.250E+02, 2.877E+02
 2.085E+03, 2.648E+02, 3.250E+02, 2.880E+02
 2.100E+03, 2.655E+02, 3.250E+02, 2.882E+02
 2.115E+03, 2.659E+02, 3.250E+02, 2.884E+02
 2.130E+03, 2.665E+02, 3.250E+02, 2.886E+02
 2.145E+03, 2.671E+02, 3.250E+02, 2.888E+02
 2.160E+03, 2.675E+02, 3.250E+02, 2.891E+02
 2.175E+03, 2.683E+02, 3.250E+02, 2.893E+02
 2.190E+03, 2.692E+02, 3.250E+02, 2.895E+02
 2.205E+03, 2.694E+02, 3.250E+02, 2.897E+02
 2.220E+03, 2.698E+02, 3.250E+02, 2.899E+02
 2.235E+03, 2.702E+02, 3.250E+02, 2.900E+02
 2.250E+03, 2.710E+02, 3.250E+02, 2.902E+02
 2.265E+03, 2.718E+02, 3.250E+02, 2.904E+02
 2.280E+03, 2.721E+02, 3.250E+02, 2.905E+02
 2.295E+03, 2.723E+02, 3.250E+02, 2.906E+02
 2.310E+03, 2.726E+02, 3.250E+02, 2.908E+02
 2.325E+03, 2.733E+02, 3.250E+02, 2.910E+02
 2.340E+03, 2.739E+02, 3.250E+02, 2.912E+02
 2.355E+03, 2.744E+02, 3.250E+02, 2.914E+02
 2.370E+03, 2.751E+02, 3.250E+02, 2.915E+02
 2.385E+03, 2.755E+02, 3.250E+02, 2.917E+02
 2.400E+03, 2.757E+02, 3.250E+02, 2.918E+02
 2.415E+03, 2.758E+02, 3.250E+02, 2.919E+02
 2.430E+03, 2.767E+02, 3.250E+02, 2.921E+02
 2.445E+03, 2.772E+02, 3.250E+02, 2.923E+02
 2.460E+03, 2.773E+02, 3.250E+02, 2.924E+02
 2.475E+03, 2.777E+02, 3.250E+02, 2.925E+02
 2.490E+03, 2.783E+02, 3.250E+02, 2.927E+02
 2.505E+03, 2.786E+02, 3.250E+02, 2.927E+02
 2.520E+03, 2.787E+02, 3.250E+02, 2.928E+02
 2.535E+03, 2.790E+02, 3.250E+02, 2.929E+02
 2.550E+03, 2.796E+02, 3.250E+02, 2.930E+02
 2.565E+03, 2.798E+02, 3.250E+02, 2.932E+02
 2.580E+03, 2.801E+02, 3.250E+02, 2.933E+02
 2.595E+03, 2.802E+02, 3.250E+02, 2.933E+02
 2.610E+03, 2.803E+02, 3.250E+02, 2.934E+02
 2.625E+03, 2.807E+02, 3.250E+02, 2.935E+02
 2.640E+03, 2.813E+02, 3.250E+02, 2.937E+02
 2.655E+03, 2.816E+02, 3.250E+02, 2.938E+02
 2.670E+03, 2.820E+02, 3.250E+02, 2.940E+02
 2.685E+03, 2.824E+02, 3.250E+02, 2.941E+02
 2.700E+03, 2.826E+02, 3.250E+02, 2.942E+02
 2.715E+03, 2.829E+02, 3.250E+02, 2.943E+02
 2.730E+03, 2.830E+02, 3.250E+02, 2.943E+02
 2.745E+03, 2.830E+02, 3.250E+02, 2.944E+02
 2.760E+03, 2.835E+02, 3.250E+02, 2.945E+02
 2.775E+03, 2.840E+02, 3.250E+02, 2.946E+02
 2.790E+03, 2.839E+02, 3.250E+02, 2.946E+02
 2.805E+03, 2.842E+02, 3.250E+02, 2.947E+02
 2.820E+03, 2.842E+02, 3.250E+02, 2.948E+02
 2.835E+03, 2.843E+02, 3.250E+02, 2.949E+02
 2.850E+03, 2.845E+02, 3.250E+02, 2.949E+02
 2.865E+03, 2.848E+02, 3.250E+02, 2.950E+02
 2.880E+03, 2.849E+02, 3.250E+02, 2.951E+02
 2.895E+03, 2.850E+02, 3.250E+02, 2.952E+02
 2.910E+03, 2.857E+02, 3.250E+02, 2.953E+02
 2.925E+03, 2.859E+02, 3.250E+02, 2.954E+02
 2.940E+03, 2.858E+02, 3.250E+02, 2.954E+02
 2.955E+03, 2.858E+02, 3.250E+02, 2.954E+02
 2.970E+03, 2.857E+02, 3.250E+02, 2.955E+02
 2.985E+03, 2.860E+02, 3.250E+02, 2.956E+02
 3.000E+03, 2.866E+02, 3.250E+02, 2.957E+02
 3.015E+03, 2.869E+02, 3.250E+02, 2.958E+02
 3.030E+03, 2.869E+02, 3.250E+02, 2.958E+02
 3.045E+03, 2.871E+02, 3.250E+02, 2.959E+02
 3.060E+03, 2.872E+02, 3.250E+02, 2.959E+02
 3.075E+03, 2.874E+02, 3.250E+02, 2.960E+02
 3.090E+03, 2.873E+02, 3.250E+02, 2.960E+02
 3.105E+03, 2.873E+02, 3.250E+02, 2.960E+02
 3.120E+03, 2.874E+02, 3.250E+02, 2.960E+02
 3.135E+03, 2.878E+02, 3.250E+02, 2.961E+02
 3.150E+03, 2.878E+02, 3.250E+02, 2.961E+02
 3.165E+03, 2.881E+02, 3.250E+02, 2.961E+02
 3.180E+03, 2.882E+02, 3.250E+02, 2.961E+02
 3.195E+03, 2.878E+02, 3.250E+02, 2.961E+02
 3.210E+03, 2.879E+02, 3.250E+02, 2.961E+02
 3.225E+03, 2.883E+02, 3.250E+02, 2.961E+02
 3.240E+03, 2.886E+02, 3.250E+02, 2.962E+02
 3.255E+03, 2.884E+02, 3.250E+02, 2.962E+02
 3.270E+03, 2.889E+02, 3.250E+02, 2.964E+02
 3.285E+03, 2.890E+02, 3.250E+02, 2.964E+02
 3.300E+03, 2.887E+02, 3.250E+02, 2.964E+02
 3.315E+03, 2.892E+02, 3.250E+02, 2.965E+02
 3.330E+03, 2.892E+02, 3.250E+02, 2.965E+02
 3.345E+03, 2.890E+02, 3.250E+02, 2.965E+02
 3.360E+03, 2.890E+02, 3.250E+02, 2.965E+02
 3.375E+03, 2.889E+02, 3.139E+02, 2.963E+02
 3.390E+03, 2.888E+02, 2.919E+02, 2.956E+02
 3.405E+03, 2.884E+02, 2.698E+02, 2.942E+02
 3.420E+03, 2.879E+02, 2.478E+02, 2.922E+02
 3.435E+03, 2.873E+02, 2.257E+02, 2.898E+02
 3.450E+03, 2.867E+02, 2.037E+02, 2.870E+02
 3.465E+03, 2.867E+02, 1.828E+02, 2.840E+02
 3.480E+03, 2.864E+02, 1.780E+02, 2.809E+02
 3.495E+03, 2.859E+02, 1.780E+02, 2.778E+02
 3.510E+03, 2.849E+02, 1.780E+02, 2.749E+02
 3.525E+03, 2.833E+02, 1.780E+02, 2.720E+02
 3.540E+03, 2.825E+02, 1.780E+02, 2.693E+02
 3.555E+03, 2.817E+02, 1.780E+02, 2.667E+02
 3.570E+03, 2.808E+02, 1.780E+02, 2.642E+02
 3.585E+03, 2.798E+02, 1.780E+02, 2.618E+02
 3.600E+03, 2.787E+02, 1.780E+02, 2.595E+02
