s,C,C
Time,"Cable Temp","Shroud Temp"
 0.000E+00, 2.400E+01, 2.400E+01
 1.502E+01, 2.401E+01, 7.341E+01
 3.005E+01, 2.439E+01, 1.710E+02
 4.503E+01, 2.623E+01, 2.687E+02
 6.002E+01, 3.082E+01, 3.663E+02
 7.502E+01, 3.988E+01, 4.584E+02
 9.001E+01, 5.477E+01, 4.800E+02
 1.050E+02, 7.282E+01, 4.800E+02
 1.200E+02, 9.072E+01, 4.800E+02
 1.350E+02, 1.075E+02, 4.800E+02
 1.500E+02, 1.229E+02, 4.800E+02
 1.650E+02, 1.372E+02, 4.800E+02
 1.800E+02, 1.504E+02, 4.800E+02
 1.950E+02, 1.628E+02, 4.800E+02
 2.100E+02, 1.743E+02, 4.800E+02
 2.250E+02, 1.852E+02, 4.800E+02
 2.400E+02, 1.953E+02, 4.800E+02
 2.550E+02, 2.049E+02, 4.800E+02
 2.700E+02, 2.140E+02, 4.800E+02
 2.850E+02, 2.227E+02, 4.800E+02
 3.000E+02, 2.310E+02, 4.800E+02
 3.150E+02, 2.389E+02, 4.800E+02
 3.300E+02, 2.465E+02, 4.800E+02
 3.450E+02, 2.537E+02, 4.800E+02
 3.600E+02, 2.607E+02, 4.800E+02
 3.750E+02, 2.674E+02, 4.800E+02
 3.900E+02, 2.737E+02, 4.800E+02
 4.050E+02, 2.798E+02, 4.800E+02
 4.200E+02, 2.858E+02, 4.800E+02
 4.350E+02, 2.914E+02, 4.800E+02
 4.500E+02, 2.968E+02, 4.800E+02
 4.650E+02, 3.021E+02, 4.800E+02
 4.800E+02, 3.071E+02, 4.800E+02
 4.950E+02, 3.120E+02, 4.800E+02
 5.100E+02, 3.166E+02, 4.800E+02
 5.250E+02, 3.211E+02, 4.800E+02
 5.400E+02, 3.254E+02, 4.800E+02
 5.550E+02, 3.296E+02, 4.800E+02
 5.700E+02, 3.335E+02, 4.800E+02
 5.850E+02, 3.373E+02, 4.800E+02
 6.000E+02, 3.410E+02, 4.800E+02
 6.150E+02, 3.446E+02, 4.800E+02
 6.300E+02, 3.479E+02, 4.800E+02
 6.450E+02, 3.512E+02, 4.800E+02
 6.600E+02, 3.543E+02, 4.800E+02
 6.750E+02, 3.574E+02, 4.800E+02
 6.900E+02, 3.604E+02, 4.800E+02
 7.050E+02, 3.633E+02, 4.800E+02
 7.200E+02, 3.662E+02, 4.800E+02
 7.350E+02, 3.689E+02, 4.800E+02
 7.500E+02, 3.714E+02, 4.800E+02
 7.650E+02, 3.737E+02, 4.800E+02
 7.800E+02, 3.761E+02, 4.800E+02
 7.950E+02, 3.783E+02, 4.800E+02
 8.100E+02, 3.804E+02, 4.800E+02
 8.250E+02, 3.826E+02, 4.797E+02
 8.400E+02, 3.846E+02, 4.748E+02
 8.550E+02, 3.862E+02, 4.686E+02
 8.700E+02, 3.873E+02, 4.624E+02
 8.850E+02, 3.879E+02, 4.563E+02
 9.000E+02, 3.881E+02, 4.501E+02
 9.150E+02, 3.879E+02, 4.439E+02
 9.300E+02, 3.875E+02, 4.377E+02
 9.450E+02, 3.867E+02, 4.315E+02
 9.600E+02, 3.858E+02, 4.253E+02
 9.750E+02, 3.846E+02, 4.191E+02
 9.900E+02, 3.832E+02, 4.129E+02
 1.005E+03, 3.817E+02, 4.068E+02
 1.020E+03, 3.800E+02, 4.006E+02
 1.035E+03, 3.783E+02, 3.944E+02
 1.050E+03, 3.764E+02, 3.882E+02
 1.065E+03, 3.743E+02, 3.820E+02
 1.080E+03, 3.721E+02, 3.758E+02
 1.095E+03, 3.698E+02, 3.696E+02
 1.110E+03, 3.674E+02, 3.634E+02
 1.125E+03, 3.649E+02, 3.572E+02
 1.140E+03, 3.623E+02, 3.511E+02
 1.155E+03, 3.596E+02, 3.449E+02
 1.170E+03, 3.569E+02, 3.387E+02
 1.185E+03, 3.542E+02, 3.325E+02
 1.200E+03, 3.514E+02, 3.263E+02
 1.215E+03, 3.485E+02, 3.201E+02
 1.230E+03, 3.455E+02, 3.139E+02
 1.245E+03, 3.424E+02, 3.079E+02
 1.260E+03, 3.393E+02, 3.032E+02
 1.275E+03, 3.363E+02, 2.990E+02
 1.290E+03, 3.334E+02, 2.949E+02
 1.305E+03, 3.304E+02, 2.907E+02
 1.320E+03, 3.274E+02, 2.865E+02
 1.335E+03, 3.245E+02, 2.823E+02
 1.350E+03, 3.216E+02, 2.781E+02
 1.365E+03, 3.187E+02, 2.740E+02
 1.380E+03, 3.159E+02, 2.698E+02
 1.395E+03, 3.129E+02, 2.656E+02
 1.410E+03, 3.101E+02, 2.614E+02
 1.425E+03, 3.072E+02, 2.572E+02
 1.440E+03, 3.043E+02, 2.531E+02
 1.455E+03, 3.014E+02, 2.489E+02
 1.470E+03, 2.986E+02, 2.447E+02
 1.485E+03, 2.958E+02, 2.405E+02
 1.500E+03, 2.929E+02, 2.363E+02
 1.515E+03, 2.901E+02, 2.322E+02
 1.530E+03, 2.873E+02, 2.280E+02
 1.545E+03, 2.845E+02, 2.238E+02
 1.560E+03, 2.817E+02, 2.196E+02
 1.575E+03, 2.789E+02, 2.154E+02
 1.590E+03, 2.761E+02, 2.113E+02
 1.605E+03, 2.733E+02, 2.073E+02
 1.620E+03, 2.705E+02, 2.064E+02
 1.635E+03, 2.678E+02, 2.064E+02
 1.650E+03, 2.652E+02, 2.064E+02
 1.665E+03, 2.627E+02, 2.064E+02
 1.680E+03, 2.603E+02, 2.064E+02
 1.695E+03, 2.580E+02, 2.064E+02
 1.710E+03, 2.558E+02, 2.064E+02
 1.725E+03, 2.537E+02, 2.064E+02
 1.740E+03, 2.516E+02, 2.064E+02
 1.755E+03, 2.496E+02, 2.064E+02
 1.770E+03, 2.477E+02, 2.064E+02
 1.785E+03, 2.458E+02, 2.064E+02
 1.800E+03, 2.440E+02, 2.064E+02
