s,C,C,C
Time,"Cable Temp","Shroud Temp","Conduit"
 0.000E+00, 3.100E+01, 3.100E+01, 3.100E+01
 1.506E+01, 3.100E+01, 7.161E+01, 3.106E+01
 3.002E+01, 3.102E+01, 1.516E+02, 3.171E+01
 4.502E+01, 3.113E+01, 2.317E+02, 3.355E+01
 6.002E+01, 3.139E+01, 3.073E+02, 3.727E+01
 7.501E+01, 3.173E+01, 3.250E+02, 4.249E+01
 9.001E+01, 3.207E+01, 3.250E+02, 4.774E+01
 1.050E+02, 3.243E+01, 3.250E+02, 5.292E+01
 1.200E+02, 3.321E+01, 3.250E+02, 5.806E+01
 1.350E+02, 3.399E+01, 3.250E+02, 6.308E+01
 1.500E+02, 3.466E+01, 3.250E+02, 6.800E+01
 1.650E+02, 3.539E+01, 3.250E+02, 7.281E+01
 1.800E+02, 3.638E+01, 3.250E+02, 7.760E+01
 1.950E+02, 3.734E+01, 3.250E+02, 8.231E+01
 2.100E+02, 3.827E+01, 3.250E+02, 8.693E+01
 2.250E+02, 3.928E+01, 3.250E+02, 9.147E+01
 2.400E+02, 4.023E+01, 3.250E+02, 9.596E+01
 2.550E+02, 4.139E+01, 3.250E+02, 1.004E+02
 2.700E+02, 4.257E+01, 3.250E+02, 1.047E+02
 2.850E+02, 4.374E+01, 3.250E+02, 1.090E+02
 3.000E+02, 4.502E+01, 3.250E+02, 1.132E+02
 3.150E+02, 4.676E+01, 3.250E+02, 1.173E+02
 3.300E+02, 4.845E+01, 3.250E+02, 1.214E+02
 3.450E+02, 4.996E+01, 3.250E+02, 1.253E+02
 3.600E+02, 5.163E+01, 3.250E+02, 1.292E+02
 3.750E+02, 5.322E+01, 3.250E+02, 1.330E+02
 3.900E+02, 5.488E+01, 3.250E+02, 1.367E+02
 4.050E+02, 5.699E+01, 3.250E+02, 1.404E+02
 4.200E+02, 5.889E+01, 3.250E+02, 1.440E+02
 4.350E+02, 6.065E+01, 3.250E+02, 1.475E+02
 4.500E+02, 6.240E+01, 3.250E+02, 1.509E+02
 4.650E+02, 6.439E+01, 3.250E+02, 1.543E+02
 4.800E+02, 6.638E+01, 3.250E+02, 1.576E+02
 4.950E+02, 6.858E+01, 3.250E+02, 1.609E+02
 5.100E+02, 7.070E+01, 3.250E+02, 1.641E+02
 5.250E+02, 7.278E+01, 3.250E+02, 1.672E+02
 5.400E+02, 7.488E+01, 3.250E+02, 1.703E+02
 5.550E+02, 7.709E+01, 3.250E+02, 1.733E+02
 5.700E+02, 7.927E+01, 3.250E+02, 1.762E+02
 5.850E+02, 8.140E+01, 3.250E+02, 1.791E+02
 6.000E+02, 8.360E+01, 3.250E+02, 1.819E+02
 6.150E+02, 8.584E+01, 3.250E+02, 1.847E+02
 6.300E+02, 8.826E+01, 3.250E+02, 1.875E+02
 6.450E+02, 9.064E+01, 3.250E+02, 1.901E+02
 6.600E+02, 9.313E+01, 3.250E+02, 1.927E+02
 6.750E+02, 9.547E+01, 3.250E+02, 1.953E+02
 6.900E+02, 9.782E+01, 3.250E+02, 1.978E+02
 7.050E+02, 1.003E+02, 3.250E+02, 2.002E+02
 7.200E+02, 1.028E+02, 3.250E+02, 2.026E+02
 7.350E+02, 1.054E+02, 3.250E+02, 2.049E+02
 7.500E+02, 1.081E+02, 3.250E+02, 2.072E+02
 7.650E+02, 1.107E+02, 3.250E+02, 2.093E+02
 7.800E+02, 1.131E+02, 3.250E+02, 2.115E+02
 7.950E+02, 1.155E+02, 3.250E+02, 2.137E+02
 8.100E+02, 1.182E+02, 3.250E+02, 2.158E+02
 8.250E+02, 1.208E+02, 3.250E+02, 2.178E+02
 8.400E+02, 1.235E+02, 3.250E+02, 2.197E+02
 8.550E+02, 1.259E+02, 3.250E+02, 2.216E+02
 8.700E+02, 1.284E+02, 3.250E+02, 2.235E+02
 8.850E+02, 1.309E+02, 3.250E+02, 2.254E+02
 9.000E+02, 1.334E+02, 3.250E+02, 2.272E+02
 9.150E+02, 1.360E+02, 3.250E+02, 2.290E+02
 9.300E+02, 1.386E+02, 3.250E+02, 2.307E+02
 9.450E+02, 1.411E+02, 3.250E+02, 2.323E+02
 9.600E+02, 1.437E+02, 3.250E+02, 2.339E+02
 9.750E+02, 1.463E+02, 3.250E+02, 2.354E+02
 9.900E+02, 1.488E+02, 3.250E+02, 2.369E+02
 1.005E+03, 1.513E+02, 3.250E+02, 2.384E+02
 1.020E+03, 1.537E+02, 3.250E+02, 2.399E+02
 1.035E+03, 1.562E+02, 3.250E+02, 2.413E+02
 1.050E+03, 1.587E+02, 3.250E+02, 2.427E+02
 1.065E+03, 1.612E+02, 3.250E+02, 2.439E+02
 1.080E+03, 1.635E+02, 3.250E+02, 2.452E+02
 1.095E+03, 1.658E+02, 3.250E+02, 2.465E+02
 1.110E+03, 1.682E+02, 3.250E+02, 2.478E+02
 1.125E+03, 1.705E+02, 3.250E+02, 2.489E+02
 1.140E+03, 1.728E+02, 3.250E+02, 2.501E+02
 1.155E+03, 1.751E+02, 3.250E+02, 2.513E+02
 1.170E+03, 1.774E+02, 3.250E+02, 2.524E+02
 1.185E+03, 1.797E+02, 3.250E+02, 2.535E+02
 1.200E+03, 1.819E+02, 3.250E+02, 2.546E+02
 1.215E+03, 1.841E+02, 3.250E+02, 2.557E+02
 1.230E+03, 1.863E+02, 3.250E+02, 2.567E+02
 1.245E+03, 1.884E+02, 3.250E+02, 2.576E+02
 1.260E+03, 1.905E+02, 3.250E+02, 2.586E+02
 1.275E+03, 1.926E+02, 3.250E+02, 2.596E+02
 1.290E+03, 1.947E+02, 3.250E+02, 2.605E+02
 1.305E+03, 1.967E+02, 3.250E+02, 2.614E+02
 1.320E+03, 1.988E+02, 3.250E+02, 2.622E+02
 1.335E+03, 2.007E+02, 3.250E+02, 2.630E+02
 1.350E+03, 2.026E+02, 3.250E+02, 2.638E+02
 1.365E+03, 2.046E+02, 3.250E+02, 2.647E+02
 1.380E+03, 2.065E+02, 3.250E+02, 2.654E+02
 1.395E+03, 2.083E+02, 3.250E+02, 2.662E+02
 1.410E+03, 2.100E+02, 3.250E+02, 2.669E+02
 1.425E+03, 2.118E+02, 3.250E+02, 2.676E+02
 1.440E+03, 2.136E+02, 3.250E+02, 2.683E+02
 1.455E+03, 2.153E+02, 3.250E+02, 2.689E+02
 1.470E+03, 2.170E+02, 3.250E+02, 2.696E+02
 1.485E+03, 2.186E+02, 3.250E+02, 2.702E+02
 1.500E+03, 2.200E+02, 3.250E+02, 2.707E+02
 1.515E+03, 2.217E+02, 3.250E+02, 2.712E+02
 1.530E+03, 2.233E+02, 3.250E+02, 2.719E+02
 1.545E+03, 2.247E+02, 3.250E+02, 2.724E+02
 1.560E+03, 2.261E+02, 3.250E+02, 2.728E+02
 1.575E+03, 2.275E+02, 3.250E+02, 2.733E+02
 1.590E+03, 2.288E+02, 3.250E+02, 2.738E+02
 1.605E+03, 2.303E+02, 3.250E+02, 2.743E+02
 1.620E+03, 2.316E+02, 3.250E+02, 2.747E+02
 1.635E+03, 2.331E+02, 3.250E+02, 2.752E+02
 1.650E+03, 2.344E+02, 3.250E+02, 2.757E+02
 1.665E+03, 2.356E+02, 3.250E+02, 2.761E+02
 1.680E+03, 2.368E+02, 3.250E+02, 2.765E+02
 1.695E+03, 2.380E+02, 3.250E+02, 2.769E+02
 1.710E+03, 2.392E+02, 3.250E+02, 2.774E+02
 1.725E+03, 2.405E+02, 3.250E+02, 2.778E+02
 1.740E+03, 2.416E+02, 3.250E+02, 2.782E+02
 1.755E+03, 2.426E+02, 3.250E+02, 2.786E+02
 1.770E+03, 2.437E+02, 3.250E+02, 2.790E+02
 1.785E+03, 2.449E+02, 3.250E+02, 2.794E+02
 1.800E+03, 2.461E+02, 3.250E+02, 2.798E+02
 1.815E+03, 2.472E+02, 3.250E+02, 2.802E+02
 1.830E+03, 2.484E+02, 3.250E+02, 2.806E+02
 1.845E+03, 2.494E+02, 3.250E+02, 2.810E+02
 1.860E+03, 2.504E+02, 3.250E+02, 2.814E+02
 1.875E+03, 2.514E+02, 3.250E+02, 2.817E+02
 1.890E+03, 2.522E+02, 3.250E+02, 2.819E+02
 1.905E+03, 2.532E+02, 3.250E+02, 2.823E+02
 1.920E+03, 2.542E+02, 3.250E+02, 2.827E+02
 1.935E+03, 2.551E+02, 3.250E+02, 2.830E+02
 1.950E+03, 2.559E+02, 3.250E+02, 2.833E+02
 1.965E+03, 2.568E+02, 3.250E+02, 2.836E+02
 1.980E+03, 2.575E+02, 3.250E+02, 2.838E+02
 1.995E+03, 2.582E+02, 3.250E+02, 2.840E+02
 2.010E+03, 2.589E+02, 3.250E+02, 2.842E+02
 2.025E+03, 2.597E+02, 3.250E+02, 2.845E+02
 2.040E+03, 2.605E+02, 3.250E+02, 2.848E+02
 2.055E+03, 2.613E+02, 3.250E+02, 2.851E+02
 2.070E+03, 2.622E+02, 3.250E+02, 2.854E+02
 2.085E+03, 2.628E+02, 3.250E+02, 2.856E+02
 2.100E+03, 2.634E+02, 3.250E+02, 2.858E+02
 2.115E+03, 2.639E+02, 3.250E+02, 2.860E+02
 2.130E+03, 2.647E+02, 3.250E+02, 2.863E+02
 2.145E+03, 2.655E+02, 3.250E+02, 2.865E+02
 2.160E+03, 2.661E+02, 3.250E+02, 2.868E+02
 2.175E+03, 2.667E+02, 3.250E+02, 2.870E+02
 2.190E+03, 2.671E+02, 3.250E+02, 2.871E+02
 2.205E+03, 2.675E+02, 3.250E+02, 2.872E+02
 2.220E+03, 2.681E+02, 3.250E+02, 2.874E+02
 2.235E+03, 2.688E+02, 3.250E+02, 2.876E+02
 2.250E+03, 2.695E+02, 3.250E+02, 2.879E+02
 2.265E+03, 2.699E+02, 3.250E+02, 2.880E+02
 2.280E+03, 2.701E+02, 3.250E+02, 2.881E+02
 2.295E+03, 2.707E+02, 3.250E+02, 2.883E+02
 2.310E+03, 2.714E+02, 3.250E+02, 2.885E+02
 2.325E+03, 2.717E+02, 3.250E+02, 2.886E+02
 2.340E+03, 2.723E+02, 3.250E+02, 2.888E+02
 2.355E+03, 2.728E+02, 3.250E+02, 2.890E+02
 2.370E+03, 2.732E+02, 3.250E+02, 2.892E+02
 2.385E+03, 2.738E+02, 3.250E+02, 2.894E+02
 2.400E+03, 2.742E+02, 3.250E+02, 2.896E+02
 2.415E+03, 2.748E+02, 3.250E+02, 2.897E+02
 2.430E+03, 2.752E+02, 3.250E+02, 2.899E+02
 2.445E+03, 2.757E+02, 3.250E+02, 2.900E+02
 2.460E+03, 2.759E+02, 3.250E+02, 2.901E+02
 2.475E+03, 2.763E+02, 3.250E+02, 2.903E+02
 2.490E+03, 2.768E+02, 3.250E+02, 2.904E+02
 2.505E+03, 2.772E+02, 3.250E+02, 2.906E+02
 2.520E+03, 2.776E+02, 3.250E+02, 2.907E+02
 2.535E+03, 2.778E+02, 3.250E+02, 2.907E+02
 2.550E+03, 2.780E+02, 3.250E+02, 2.908E+02
 2.565E+03, 2.783E+02, 3.250E+02, 2.908E+02
 2.580E+03, 2.784E+02, 3.250E+02, 2.909E+02
 2.595E+03, 2.788E+02, 3.250E+02, 2.910E+02
 2.610E+03, 2.792E+02, 3.250E+02, 2.911E+02
 2.625E+03, 2.793E+02, 3.250E+02, 2.911E+02
 2.640E+03, 2.792E+02, 3.250E+02, 2.911E+02
 2.655E+03, 2.796E+02, 3.250E+02, 2.912E+02
 2.670E+03, 2.800E+02, 3.250E+02, 2.913E+02
 2.685E+03, 2.804E+02, 3.250E+02, 2.914E+02
 2.700E+03, 2.806E+02, 3.250E+02, 2.915E+02
 2.715E+03, 2.807E+02, 3.250E+02, 2.915E+02
 2.730E+03, 2.806E+02, 3.250E+02, 2.914E+02
 2.745E+03, 2.808E+02, 3.250E+02, 2.915E+02
 2.760E+03, 2.810E+02, 3.250E+02, 2.915E+02
 2.775E+03, 2.812E+02, 3.250E+02, 2.916E+02
 2.790E+03, 2.816E+02, 3.250E+02, 2.917E+02
 2.805E+03, 2.818E+02, 3.250E+02, 2.918E+02
 2.820E+03, 2.820E+02, 3.250E+02, 2.919E+02
 2.835E+03, 2.823E+02, 3.250E+02, 2.919E+02
 2.850E+03, 2.821E+02, 3.250E+02, 2.919E+02
 2.865E+03, 2.822E+02, 3.250E+02, 2.920E+02
 2.880E+03, 2.826E+02, 3.250E+02, 2.920E+02
 2.895E+03, 2.827E+02, 3.250E+02, 2.921E+02
 2.910E+03, 2.830E+02, 3.250E+02, 2.922E+02
 2.925E+03, 2.831E+02, 3.250E+02, 2.922E+02
 2.940E+03, 2.834E+02, 3.250E+02, 2.923E+02
 2.955E+03, 2.836E+02, 3.250E+02, 2.924E+02
 2.970E+03, 2.837E+02, 3.250E+02, 2.924E+02
 2.985E+03, 2.840E+02, 3.250E+02, 2.925E+02
 3.000E+03, 2.842E+02, 3.250E+02, 2.926E+02
 3.015E+03, 2.844E+02, 3.250E+02, 2.927E+02
 3.030E+03, 2.845E+02, 3.250E+02, 2.927E+02
 3.045E+03, 2.845E+02, 3.250E+02, 2.927E+02
 3.060E+03, 2.845E+02, 3.250E+02, 2.927E+02
 3.075E+03, 2.846E+02, 3.250E+02, 2.927E+02
 3.090E+03, 2.847E+02, 3.250E+02, 2.927E+02
 3.105E+03, 2.847E+02, 3.250E+02, 2.927E+02
 3.120E+03, 2.848E+02, 3.250E+02, 2.927E+02
 3.135E+03, 2.851E+02, 3.250E+02, 2.927E+02
 3.150E+03, 2.854E+02, 3.250E+02, 2.928E+02
 3.165E+03, 2.854E+02, 3.250E+02, 2.928E+02
 3.180E+03, 2.856E+02, 3.250E+02, 2.929E+02
 3.195E+03, 2.857E+02, 3.250E+02, 2.929E+02
 3.210E+03, 2.859E+02, 3.250E+02, 2.930E+02
 3.225E+03, 2.861E+02, 3.250E+02, 2.931E+02
 3.240E+03, 2.863E+02, 3.250E+02, 2.932E+02
 3.255E+03, 2.863E+02, 3.250E+02, 2.932E+02
 3.270E+03, 2.865E+02, 3.250E+02, 2.933E+02
 3.285E+03, 2.866E+02, 3.250E+02, 2.934E+02
 3.300E+03, 2.868E+02, 3.250E+02, 2.935E+02
 3.315E+03, 2.867E+02, 3.250E+02, 2.935E+02
 3.330E+03, 2.865E+02, 3.250E+02, 2.934E+02
 3.345E+03, 2.867E+02, 3.250E+02, 2.934E+02
 3.360E+03, 2.865E+02, 3.250E+02, 2.934E+02
 3.375E+03, 2.866E+02, 3.139E+02, 2.933E+02
 3.390E+03, 2.869E+02, 2.919E+02, 2.927E+02
 3.405E+03, 2.867E+02, 2.698E+02, 2.913E+02
 3.420E+03, 2.866E+02, 2.478E+02, 2.894E+02
 3.435E+03, 2.860E+02, 2.257E+02, 2.870E+02
 3.450E+03, 2.857E+02, 2.037E+02, 2.842E+02
 3.465E+03, 2.851E+02, 1.829E+02, 2.812E+02
 3.480E+03, 2.840E+02, 1.780E+02, 2.779E+02
 3.495E+03, 2.833E+02, 1.780E+02, 2.748E+02
 3.510E+03, 2.823E+02, 1.780E+02, 2.718E+02
 3.525E+03, 2.812E+02, 1.780E+02, 2.688E+02
 3.540E+03, 2.801E+02, 1.780E+02, 2.661E+02
 3.555E+03, 2.790E+02, 1.780E+02, 2.634E+02
 3.570E+03, 2.775E+02, 1.780E+02, 2.607E+02
 3.585E+03, 2.764E+02, 1.780E+02, 2.582E+02
 3.600E+03, 2.753E+02, 1.780E+02, 2.558E+02
