s,C,C
Time,Cable Temp,Shroud Temp
 0.000E+00, 2.800E+01, 2.800E+01
 1.506E+01, 2.801E+01, 6.201E+01
 3.000E+01, 2.836E+01, 1.289E+02
 4.501E+01, 2.982E+01, 1.958E+02
 6.004E+01, 3.310E+01, 2.629E+02
 7.501E+01, 3.895E+01, 3.299E+02
 9.000E+01, 4.820E+01, 3.969E+02
 1.050E+02, 6.189E+01, 4.602E+02
 1.200E+02, 8.037E+01, 4.750E+02
 1.350E+02, 1.002E+02, 4.750E+02
 1.500E+02, 1.188E+02, 4.750E+02
 1.650E+02, 1.358E+02, 4.750E+02
 1.800E+02, 1.512E+02, 4.750E+02
 1.950E+02, 1.654E+02, 4.750E+02
 2.100E+02, 1.785E+02, 4.750E+02
 2.250E+02, 1.908E+02, 4.750E+02
 2.400E+02, 2.023E+02, 4.750E+02
 2.550E+02, 2.131E+02, 4.750E+02
 2.700E+02, 2.233E+02, 4.750E+02
 2.850E+02, 2.329E+02, 4.750E+02
 3.000E+02, 2.420E+02, 4.750E+02
 3.150E+02, 2.506E+02, 4.750E+02
 3.300E+02, 2.589E+02, 4.750E+02
 3.450E+02, 2.667E+02, 4.750E+02
 3.600E+02, 2.741E+02, 4.750E+02
 3.750E+02, 2.812E+02, 4.750E+02
 3.900E+02, 2.881E+02, 4.750E+02
 4.050E+02, 2.947E+02, 4.750E+02
 4.200E+02, 3.009E+02, 4.750E+02
 4.350E+02, 3.067E+02, 4.750E+02
 4.500E+02, 3.124E+02, 4.750E+02
 4.650E+02, 3.178E+02, 4.750E+02
 4.800E+02, 3.230E+02, 4.750E+02
 4.950E+02, 3.279E+02, 4.750E+02
 5.100E+02, 3.325E+02, 4.750E+02
 5.250E+02, 3.369E+02, 4.750E+02
 5.400E+02, 3.413E+02, 4.750E+02
 5.550E+02, 3.455E+02, 4.750E+02
 5.700E+02, 3.495E+02, 4.750E+02
 5.850E+02, 3.532E+02, 4.750E+02
 6.000E+02, 3.567E+02, 4.750E+02
 6.150E+02, 3.600E+02, 4.750E+02
 6.300E+02, 3.632E+02, 4.750E+02
 6.450E+02, 3.664E+02, 4.750E+02
 6.600E+02, 3.693E+02, 4.750E+02
 6.750E+02, 3.721E+02, 4.750E+02
 6.900E+02, 3.748E+02, 4.750E+02
 7.050E+02, 3.772E+02, 4.750E+02
 7.200E+02, 3.795E+02, 4.750E+02
 7.350E+02, 3.817E+02, 4.750E+02
 7.500E+02, 3.839E+02, 4.750E+02
 7.650E+02, 3.860E+02, 4.750E+02
 7.800E+02, 3.880E+02, 4.750E+02
 7.950E+02, 3.900E+02, 4.750E+02
 8.100E+02, 3.919E+02, 4.750E+02
 8.250E+02, 3.936E+02, 4.750E+02
 8.400E+02, 3.952E+02, 4.750E+02
 8.550E+02, 3.968E+02, 4.750E+02
 8.700E+02, 3.982E+02, 4.750E+02
 8.850E+02, 3.996E+02, 4.750E+02
 9.000E+02, 4.009E+02, 4.750E+02
 9.150E+02, 4.021E+02, 4.750E+02
 9.300E+02, 4.034E+02, 4.750E+02
 9.450E+02, 4.047E+02, 4.750E+02
 9.600E+02, 4.059E+02, 4.750E+02
 9.750E+02, 4.069E+02, 4.750E+02
 9.900E+02, 4.079E+02, 4.750E+02
 1.005E+03, 4.089E+02, 4.750E+02
 1.020E+03, 4.099E+02, 4.750E+02
 1.035E+03, 4.107E+02, 4.750E+02
 1.050E+03, 4.115E+02, 4.750E+02
 1.065E+03, 4.122E+02, 4.750E+02
 1.080E+03, 4.130E+02, 4.750E+02
 1.095E+03, 4.137E+02, 4.750E+02
 1.110E+03, 4.145E+02, 4.750E+02
 1.125E+03, 4.152E+02, 4.750E+02
 1.140E+03, 4.157E+02, 4.750E+02
 1.155E+03, 4.162E+02, 4.750E+02
 1.170E+03, 4.168E+02, 4.750E+02
 1.185E+03, 4.174E+02, 4.750E+02
 1.200E+03, 4.179E+02, 4.750E+02
 1.215E+03, 4.182E+02, 4.750E+02
 1.230E+03, 4.185E+02, 4.750E+02
 1.245E+03, 4.189E+02, 4.750E+02
 1.260E+03, 4.194E+02, 4.750E+02
 1.275E+03, 4.199E+02, 4.750E+02
 1.290E+03, 4.204E+02, 4.750E+02
 1.305E+03, 4.209E+02, 4.746E+02
 1.320E+03, 4.210E+02, 4.694E+02
 1.335E+03, 4.208E+02, 4.627E+02
 1.350E+03, 4.202E+02, 4.560E+02
 1.365E+03, 4.191E+02, 4.493E+02
 1.380E+03, 4.176E+02, 4.426E+02
 1.395E+03, 4.158E+02, 4.359E+02
 1.410E+03, 4.136E+02, 4.292E+02
 1.425E+03, 4.111E+02, 4.225E+02
 1.440E+03, 4.086E+02, 4.158E+02
 1.455E+03, 4.057E+02, 4.090E+02
 1.470E+03, 4.028E+02, 4.023E+02
 1.485E+03, 3.998E+02, 3.956E+02
 1.500E+03, 3.967E+02, 3.889E+02
 1.515E+03, 3.934E+02, 3.822E+02
 1.530E+03, 3.900E+02, 3.755E+02
 1.545E+03, 3.867E+02, 3.688E+02
 1.560E+03, 3.832E+02, 3.621E+02
 1.575E+03, 3.795E+02, 3.554E+02
 1.590E+03, 3.758E+02, 3.487E+02
 1.605E+03, 3.719E+02, 3.420E+02
 1.620E+03, 3.681E+02, 3.353E+02
 1.635E+03, 3.642E+02, 3.286E+02
 1.650E+03, 3.602E+02, 3.219E+02
 1.665E+03, 3.562E+02, 3.152E+02
 1.680E+03, 3.523E+02, 3.085E+02
 1.695E+03, 3.484E+02, 3.018E+02
 1.710E+03, 3.444E+02, 2.966E+02
 1.725E+03, 3.404E+02, 2.962E+02
 1.740E+03, 3.366E+02, 2.962E+02
 1.755E+03, 3.331E+02, 2.962E+02
 1.770E+03, 3.299E+02, 2.962E+02
 1.785E+03, 3.268E+02, 2.962E+02
 1.800E+03, 3.240E+02, 2.962E+02
