s,C,C,C
Time,"Cable Temp","Shroud Temp","Conduit"
 0.000E+00, 3.100E+01, 3.100E+01, 3.100E+01
 1.509E+01, 3.100E+01, 6.663E+01, 3.105E+01
 3.000E+01, 3.100E+01, 1.366E+02, 3.157E+01
 4.503E+01, 3.102E+01, 2.065E+02, 3.303E+01
 6.003E+01, 3.111E+01, 2.766E+02, 3.594E+01
 7.501E+01, 3.131E+01, 3.467E+02, 4.091E+01
 9.002E+01, 3.158E+01, 4.167E+02, 4.872E+01
 1.050E+02, 3.204E+01, 4.712E+02, 6.004E+01
 1.200E+02, 3.271E+01, 4.750E+02, 7.276E+01
 1.350E+02, 3.351E+01, 4.750E+02, 8.519E+01
 1.500E+02, 3.460E+01, 4.750E+02, 9.753E+01
 1.650E+02, 3.598E+01, 4.750E+02, 1.096E+02
 1.800E+02, 3.736E+01, 4.750E+02, 1.215E+02
 1.950E+02, 3.890E+01, 4.750E+02, 1.331E+02
 2.100E+02, 4.069E+01, 4.750E+02, 1.444E+02
 2.250E+02, 4.278E+01, 4.750E+02, 1.554E+02
 2.400E+02, 4.490E+01, 4.750E+02, 1.663E+02
 2.550E+02, 4.716E+01, 4.750E+02, 1.768E+02
 2.700E+02, 4.983E+01, 4.750E+02, 1.870E+02
 2.850E+02, 5.279E+01, 4.750E+02, 1.970E+02
 3.000E+02, 5.601E+01, 4.750E+02, 2.066E+02
 3.150E+02, 5.939E+01, 4.750E+02, 2.161E+02
 3.300E+02, 6.297E+01, 4.750E+02, 2.252E+02
 3.450E+02, 6.685E+01, 4.750E+02, 2.340E+02
 3.600E+02, 7.097E+01, 4.750E+02, 2.425E+02
 3.750E+02, 7.536E+01, 4.750E+02, 2.508E+02
 3.900E+02, 7.992E+01, 4.750E+02, 2.587E+02
 4.050E+02, 8.463E+01, 4.750E+02, 2.665E+02
 4.200E+02, 8.952E+01, 4.750E+02, 2.740E+02
 4.350E+02, 9.465E+01, 4.750E+02, 2.812E+02
 4.500E+02, 1.000E+02, 4.750E+02, 2.882E+02
 4.650E+02, 1.054E+02, 4.750E+02, 2.949E+02
 4.800E+02, 1.111E+02, 4.750E+02, 3.014E+02
 4.950E+02, 1.168E+02, 4.750E+02, 3.076E+02
 5.100E+02, 1.227E+02, 4.750E+02, 3.136E+02
 5.250E+02, 1.288E+02, 4.750E+02, 3.193E+02
 5.400E+02, 1.349E+02, 4.750E+02, 3.248E+02
 5.550E+02, 1.411E+02, 4.750E+02, 3.300E+02
 5.700E+02, 1.474E+02, 4.750E+02, 3.350E+02
 5.850E+02, 1.538E+02, 4.750E+02, 3.398E+02
 6.000E+02, 1.603E+02, 4.750E+02, 3.444E+02
 6.150E+02, 1.668E+02, 4.750E+02, 3.487E+02
 6.300E+02, 1.734E+02, 4.750E+02, 3.528E+02
 6.450E+02, 1.799E+02, 4.750E+02, 3.569E+02
 6.600E+02, 1.864E+02, 4.750E+02, 3.607E+02
 6.750E+02, 1.930E+02, 4.750E+02, 3.643E+02
 6.900E+02, 1.995E+02, 4.750E+02, 3.678E+02
 7.050E+02, 2.059E+02, 4.750E+02, 3.710E+02
 7.200E+02, 2.122E+02, 4.750E+02, 3.740E+02
 7.350E+02, 2.185E+02, 4.750E+02, 3.770E+02
 7.500E+02, 2.247E+02, 4.750E+02, 3.799E+02
 7.650E+02, 2.308E+02, 4.750E+02, 3.826E+02
 7.800E+02, 2.369E+02, 4.750E+02, 3.853E+02
 7.950E+02, 2.429E+02, 4.750E+02, 3.878E+02
 8.100E+02, 2.489E+02, 4.750E+02, 3.902E+02
 8.250E+02, 2.547E+02, 4.750E+02, 3.925E+02
 8.400E+02, 2.604E+02, 4.750E+02, 3.947E+02
 8.550E+02, 2.660E+02, 4.750E+02, 3.969E+02
 8.700E+02, 2.714E+02, 4.750E+02, 3.989E+02
 8.850E+02, 2.768E+02, 4.750E+02, 4.008E+02
 9.000E+02, 2.820E+02, 4.750E+02, 4.027E+02
 9.150E+02, 2.871E+02, 4.750E+02, 4.043E+02
 9.300E+02, 2.920E+02, 4.750E+02, 4.060E+02
 9.450E+02, 2.969E+02, 4.750E+02, 4.077E+02
 9.600E+02, 3.016E+02, 4.750E+02, 4.092E+02
 9.750E+02, 3.062E+02, 4.750E+02, 4.107E+02
 9.900E+02, 3.107E+02, 4.750E+02, 4.122E+02
 1.005E+03, 3.152E+02, 4.750E+02, 4.135E+02
 1.020E+03, 3.194E+02, 4.750E+02, 4.147E+02
 1.035E+03, 3.235E+02, 4.750E+02, 4.160E+02
 1.050E+03, 3.276E+02, 4.750E+02, 4.172E+02
 1.065E+03, 3.314E+02, 4.750E+02, 4.182E+02
 1.080E+03, 3.351E+02, 4.750E+02, 4.191E+02
 1.095E+03, 3.387E+02, 4.750E+02, 4.201E+02
 1.110E+03, 3.421E+02, 4.750E+02, 4.210E+02
 1.125E+03, 3.456E+02, 4.750E+02, 4.220E+02
 1.140E+03, 3.490E+02, 4.750E+02, 4.229E+02
 1.155E+03, 3.522E+02, 4.750E+02, 4.238E+02
 1.170E+03, 3.554E+02, 4.750E+02, 4.248E+02
 1.185E+03, 3.585E+02, 4.750E+02, 4.257E+02
 1.200E+03, 3.614E+02, 4.750E+02, 4.263E+02
 1.215E+03, 3.643E+02, 4.750E+02, 4.271E+02
 1.230E+03, 3.670E+02, 4.750E+02, 4.279E+02
 1.245E+03, 3.697E+02, 4.750E+02, 4.286E+02
 1.260E+03, 3.723E+02, 4.750E+02, 4.292E+02
 1.275E+03, 3.747E+02, 4.750E+02, 4.298E+02
 1.290E+03, 3.771E+02, 4.750E+02, 4.304E+02
 1.305E+03, 3.795E+02, 4.750E+02, 4.311E+02
 1.320E+03, 3.817E+02, 4.750E+02, 4.317E+02
 1.335E+03, 3.839E+02, 4.750E+02, 4.323E+02
 1.350E+03, 3.860E+02, 4.750E+02, 4.328E+02
 1.365E+03, 3.880E+02, 4.750E+02, 4.333E+02
 1.380E+03, 3.898E+02, 4.750E+02, 4.335E+02
 1.395E+03, 3.915E+02, 4.750E+02, 4.338E+02
 1.410E+03, 3.931E+02, 4.750E+02, 4.342E+02
 1.425E+03, 3.948E+02, 4.750E+02, 4.346E+02
 1.440E+03, 3.964E+02, 4.750E+02, 4.349E+02
 1.455E+03, 3.980E+02, 4.750E+02, 4.353E+02
 1.470E+03, 3.996E+02, 4.750E+02, 4.357E+02
 1.485E+03, 4.012E+02, 4.750E+02, 4.362E+02
 1.500E+03, 4.027E+02, 4.750E+02, 4.365E+02
 1.515E+03, 4.040E+02, 4.750E+02, 4.367E+02
 1.530E+03, 4.051E+02, 4.750E+02, 4.370E+02
 1.545E+03, 4.064E+02, 4.750E+02, 4.373E+02
 1.560E+03, 4.077E+02, 4.750E+02, 4.377E+02
 1.575E+03, 4.090E+02, 4.750E+02, 4.381E+02
 1.590E+03, 4.102E+02, 4.750E+02, 4.383E+02
 1.605E+03, 4.114E+02, 4.750E+02, 4.386E+02
 1.620E+03, 4.124E+02, 4.750E+02, 4.388E+02
 1.635E+03, 4.134E+02, 4.750E+02, 4.391E+02
 1.650E+03, 4.145E+02, 4.750E+02, 4.394E+02
 1.665E+03, 4.154E+02, 4.750E+02, 4.395E+02
 1.680E+03, 4.162E+02, 4.750E+02, 4.398E+02
 1.695E+03, 4.171E+02, 4.750E+02, 4.399E+02
 1.710E+03, 4.179E+02, 4.750E+02, 4.401E+02
 1.725E+03, 4.188E+02, 4.750E+02, 4.403E+02
 1.740E+03, 4.196E+02, 4.750E+02, 4.405E+02
 1.755E+03, 4.204E+02, 4.750E+02, 4.407E+02
 1.770E+03, 4.211E+02, 4.750E+02, 4.408E+02
 1.785E+03, 4.218E+02, 4.750E+02, 4.410E+02
 1.800E+03, 4.225E+02, 4.750E+02, 4.413E+02
 1.815E+03, 4.232E+02, 4.750E+02, 4.415E+02
 1.830E+03, 4.238E+02, 4.750E+02, 4.415E+02
 1.845E+03, 4.243E+02, 4.750E+02, 4.416E+02
 1.860E+03, 4.249E+02, 4.750E+02, 4.419E+02
 1.875E+03, 4.256E+02, 4.750E+02, 4.420E+02
 1.890E+03, 4.262E+02, 4.750E+02, 4.422E+02
 1.905E+03, 4.267E+02, 4.750E+02, 4.422E+02
 1.920E+03, 4.271E+02, 4.750E+02, 4.424E+02
 1.935E+03, 4.276E+02, 4.750E+02, 4.426E+02
 1.950E+03, 4.281E+02, 4.750E+02, 4.427E+02
 1.965E+03, 4.285E+02, 4.750E+02, 4.428E+02
 1.980E+03, 4.289E+02, 4.750E+02, 4.428E+02
 1.995E+03, 4.291E+02, 4.750E+02, 4.426E+02
 2.010E+03, 4.291E+02, 4.750E+02, 4.426E+02
 2.025E+03, 4.294E+02, 4.750E+02, 4.426E+02
 2.040E+03, 4.298E+02, 4.750E+02, 4.427E+02
 2.055E+03, 4.303E+02, 4.750E+02, 4.429E+02
 2.070E+03, 4.307E+02, 4.750E+02, 4.430E+02
 2.085E+03, 4.310E+02, 4.750E+02, 4.431E+02
 2.100E+03, 4.313E+02, 4.750E+02, 4.433E+02
 2.115E+03, 4.316E+02, 4.750E+02, 4.434E+02
 2.130E+03, 4.319E+02, 4.750E+02, 4.435E+02
 2.145E+03, 4.323E+02, 4.750E+02, 4.436E+02
 2.160E+03, 4.326E+02, 4.750E+02, 4.435E+02
 2.175E+03, 4.327E+02, 4.750E+02, 4.436E+02
 2.190E+03, 4.330E+02, 4.750E+02, 4.438E+02
 2.205E+03, 4.334E+02, 4.750E+02, 4.439E+02
 2.220E+03, 4.338E+02, 4.750E+02, 4.441E+02
 2.235E+03, 4.341E+02, 4.750E+02, 4.441E+02
 2.250E+03, 4.342E+02, 4.750E+02, 4.441E+02
 2.265E+03, 4.343E+02, 4.750E+02, 4.442E+02
 2.280E+03, 4.347E+02, 4.750E+02, 4.443E+02
 2.295E+03, 4.350E+02, 4.750E+02, 4.444E+02
 2.310E+03, 4.352E+02, 4.750E+02, 4.444E+02
 2.325E+03, 4.353E+02, 4.750E+02, 4.445E+02
 2.340E+03, 4.354E+02, 4.750E+02, 4.444E+02
 2.355E+03, 4.354E+02, 4.750E+02, 4.444E+02
 2.370E+03, 4.355E+02, 4.750E+02, 4.444E+02
 2.385E+03, 4.356E+02, 4.750E+02, 4.444E+02
 2.400E+03, 4.357E+02, 4.750E+02, 4.443E+02
 2.415E+03, 4.357E+02, 4.750E+02, 4.442E+02
 2.430E+03, 4.358E+02, 4.750E+02, 4.441E+02
 2.445E+03, 4.358E+02, 4.750E+02, 4.440E+02
 2.460E+03, 4.358E+02, 4.750E+02, 4.439E+02
 2.475E+03, 4.360E+02, 4.750E+02, 4.440E+02
 2.490E+03, 4.362E+02, 4.750E+02, 4.440E+02
 2.505E+03, 4.362E+02, 4.750E+02, 4.440E+02
 2.520E+03, 4.364E+02, 4.750E+02, 4.441E+02
 2.535E+03, 4.365E+02, 4.750E+02, 4.440E+02
 2.550E+03, 4.364E+02, 4.750E+02, 4.440E+02
 2.565E+03, 4.364E+02, 4.750E+02, 4.440E+02
 2.580E+03, 4.365E+02, 4.750E+02, 4.441E+02
 2.595E+03, 4.367E+02, 4.750E+02, 4.441E+02
 2.610E+03, 4.366E+02, 4.750E+02, 4.441E+02
 2.625E+03, 4.366E+02, 4.750E+02, 4.441E+02
 2.640E+03, 4.367E+02, 4.750E+02, 4.442E+02
 2.655E+03, 4.368E+02, 4.750E+02, 4.442E+02
 2.670E+03, 4.369E+02, 4.750E+02, 4.443E+02
 2.685E+03, 4.370E+02, 4.750E+02, 4.443E+02
 2.700E+03, 4.372E+02, 4.750E+02, 4.445E+02
 2.715E+03, 4.373E+02, 4.750E+02, 4.444E+02
 2.730E+03, 4.373E+02, 4.750E+02, 4.446E+02
 2.745E+03, 4.375E+02, 4.750E+02, 4.448E+02
 2.760E+03, 4.377E+02, 4.750E+02, 4.450E+02
 2.775E+03, 4.379E+02, 4.750E+02, 4.450E+02
 2.790E+03, 4.381E+02, 4.750E+02, 4.451E+02
 2.805E+03, 4.381E+02, 4.750E+02, 4.450E+02
 2.820E+03, 4.380E+02, 4.741E+02, 4.450E+02
 2.835E+03, 4.379E+02, 4.701E+02, 4.446E+02
 2.850E+03, 4.379E+02, 4.659E+02, 4.442E+02
 2.865E+03, 4.378E+02, 4.616E+02, 4.434E+02
 2.880E+03, 4.377E+02, 4.574E+02, 4.424E+02
 2.895E+03, 4.375E+02, 4.532E+02, 4.413E+02
 2.910E+03, 4.373E+02, 4.490E+02, 4.400E+02
 2.925E+03, 4.369E+02, 4.448E+02, 4.385E+02
 2.940E+03, 4.365E+02, 4.406E+02, 4.369E+02
 2.955E+03, 4.361E+02, 4.363E+02, 4.353E+02
 2.970E+03, 4.354E+02, 4.321E+02, 4.333E+02
 2.985E+03, 4.348E+02, 4.279E+02, 4.315E+02
 3.000E+03, 4.342E+02, 4.237E+02, 4.294E+02
 3.015E+03, 4.335E+02, 4.195E+02, 4.274E+02
 3.030E+03, 4.325E+02, 4.153E+02, 4.250E+02
 3.045E+03, 4.317E+02, 4.111E+02, 4.228E+02
 3.060E+03, 4.309E+02, 4.068E+02, 4.206E+02
 3.075E+03, 4.299E+02, 4.026E+02, 4.181E+02
 3.090E+03, 4.287E+02, 3.984E+02, 4.156E+02
 3.105E+03, 4.275E+02, 3.942E+02, 4.132E+02
 3.120E+03, 4.263E+02, 3.900E+02, 4.106E+02
 3.135E+03, 4.251E+02, 3.858E+02, 4.081E+02
 3.150E+03, 4.236E+02, 3.815E+02, 4.053E+02
 3.165E+03, 4.222E+02, 3.773E+02, 4.027E+02
 3.180E+03, 4.206E+02, 3.731E+02, 4.001E+02
 3.195E+03, 4.191E+02, 3.689E+02, 3.974E+02
 3.210E+03, 4.175E+02, 3.647E+02, 3.946E+02
 3.225E+03, 4.159E+02, 3.605E+02, 3.918E+02
 3.240E+03, 4.144E+02, 3.563E+02, 3.891E+02
 3.255E+03, 4.128E+02, 3.520E+02, 3.864E+02
 3.270E+03, 4.112E+02, 3.478E+02, 3.837E+02
 3.285E+03, 4.095E+02, 3.436E+02, 3.809E+02
 3.300E+03, 4.077E+02, 3.394E+02, 3.781E+02
 3.315E+03, 4.059E+02, 3.352E+02, 3.751E+02
 3.330E+03, 4.039E+02, 3.310E+02, 3.721E+02
 3.345E+03, 4.018E+02, 3.268E+02, 3.692E+02
 3.360E+03, 3.998E+02, 3.225E+02, 3.663E+02
 3.375E+03, 3.978E+02, 3.183E+02, 3.635E+02
 3.390E+03, 3.959E+02, 3.141E+02, 3.606E+02
 3.405E+03, 3.938E+02, 3.099E+02, 3.577E+02
 3.420E+03, 3.918E+02, 3.057E+02, 3.549E+02
 3.435E+03, 3.899E+02, 3.015E+02, 3.520E+02
 3.450E+03, 3.880E+02, 2.972E+02, 3.492E+02
 3.465E+03, 3.861E+02, 2.930E+02, 3.465E+02
 3.480E+03, 3.841E+02, 2.888E+02, 3.437E+02
 3.495E+03, 3.820E+02, 2.846E+02, 3.408E+02
 3.510E+03, 3.794E+02, 2.804E+02, 3.376E+02
 3.525E+03, 3.770E+02, 2.762E+02, 3.348E+02
 3.540E+03, 3.748E+02, 2.720E+02, 3.319E+02
 3.555E+03, 3.725E+02, 2.677E+02, 3.289E+02
 3.570E+03, 3.699E+02, 2.635E+02, 3.260E+02
 3.585E+03, 3.678E+02, 2.593E+02, 3.232E+02
 3.600E+03, 3.658E+02, 2.551E+02, 3.204E+02
