s,C,C
Time,"Cable Temp","Shroud Temp"
 0.000E+00, 2.000E+01, 2.000E+01
 1.508E+01, 2.015E+01, 6.680E+01
 3.005E+01, 2.227E+01, 1.591E+02
 4.503E+01, 2.885E+01, 2.513E+02
 6.003E+01, 4.179E+01, 3.219E+02
 7.502E+01, 5.644E+01, 3.234E+02
 9.001E+01, 6.773E+01, 3.196E+02
 1.050E+02, 7.688E+01, 3.158E+02
 1.200E+02, 8.472E+01, 3.120E+02
 1.350E+02, 9.143E+01, 3.081E+02
 1.500E+02, 9.725E+01, 3.052E+02
 1.650E+02, 1.026E+02, 3.050E+02
 1.801E+02, 1.079E+02, 3.050E+02
 1.950E+02, 1.128E+02, 3.050E+02
 2.100E+02, 1.176E+02, 3.050E+02
 2.250E+02, 1.222E+02, 3.050E+02
 2.400E+02, 1.266E+02, 3.050E+02
 2.550E+02, 1.309E+02, 3.050E+02
 2.700E+02, 1.349E+02, 3.050E+02
 2.850E+02, 1.389E+02, 3.050E+02
 3.000E+02, 1.428E+02, 3.050E+02
 3.150E+02, 1.465E+02, 3.050E+02
 3.300E+02, 1.503E+02, 3.050E+02
 3.450E+02, 1.539E+02, 3.050E+02
 3.600E+02, 1.573E+02, 3.050E+02
 3.750E+02, 1.606E+02, 3.050E+02
 3.900E+02, 1.640E+02, 3.050E+02
 4.050E+02, 1.671E+02, 3.050E+02
 4.201E+02, 1.701E+02, 3.050E+02
 4.350E+02, 1.731E+02, 3.050E+02
 4.500E+02, 1.760E+02, 3.050E+02
 4.650E+02, 1.787E+02, 3.050E+02
 4.800E+02, 1.813E+02, 3.050E+02
 4.950E+02, 1.840E+02, 3.050E+02
 5.100E+02, 1.865E+02, 3.050E+02
 5.250E+02, 1.888E+02, 3.050E+02
 5.400E+02, 1.913E+02, 3.050E+02
 5.550E+02, 1.936E+02, 3.050E+02
 5.700E+02, 1.957E+02, 3.050E+02
 5.850E+02, 1.977E+02, 3.050E+02
 6.000E+02, 1.998E+02, 3.050E+02
 6.150E+02, 2.018E+02, 3.050E+02
 6.300E+02, 2.038E+02, 3.050E+02
 6.451E+02, 2.059E+02, 3.050E+02
 6.601E+02, 2.076E+02, 3.050E+02
 6.750E+02, 2.093E+02, 3.050E+02
 6.900E+02, 2.111E+02, 3.050E+02
 7.050E+02, 2.129E+02, 3.050E+02
 7.200E+02, 2.144E+02, 3.050E+02
 7.350E+02, 2.159E+02, 3.050E+02
 7.500E+02, 2.173E+02, 3.050E+02
 7.650E+02, 2.186E+02, 3.050E+02
 7.800E+02, 2.199E+02, 3.050E+02
 7.950E+02, 2.214E+02, 3.050E+02
 8.100E+02, 2.226E+02, 3.050E+02
 8.250E+02, 2.241E+02, 3.050E+02
 8.400E+02, 2.255E+02, 3.050E+02
 8.550E+02, 2.268E+02, 3.050E+02
 8.701E+02, 2.280E+02, 3.050E+02
 8.850E+02, 2.291E+02, 3.050E+02
 9.000E+02, 2.301E+02, 3.050E+02
 9.150E+02, 2.311E+02, 3.050E+02
 9.300E+02, 2.321E+02, 3.050E+02
 9.450E+02, 2.330E+02, 3.050E+02
 9.600E+02, 2.338E+02, 3.050E+02
 9.750E+02, 2.349E+02, 3.050E+02
 9.900E+02, 2.356E+02, 3.050E+02
 1.005E+03, 2.364E+02, 3.050E+02
 1.020E+03, 2.374E+02, 3.050E+02
 1.035E+03, 2.382E+02, 3.050E+02
 1.050E+03, 2.391E+02, 3.050E+02
 1.065E+03, 2.398E+02, 3.050E+02
 1.080E+03, 2.406E+02, 3.050E+02
 1.095E+03, 2.411E+02, 3.050E+02
 1.110E+03, 2.420E+02, 3.050E+02
 1.125E+03, 2.426E+02, 3.050E+02
 1.140E+03, 2.433E+02, 3.050E+02
 1.155E+03, 2.437E+02, 3.050E+02
 1.170E+03, 2.441E+02, 3.050E+02
 1.185E+03, 2.444E+02, 3.050E+02
 1.200E+03, 2.450E+02, 3.050E+02
 1.215E+03, 2.456E+02, 3.050E+02
 1.230E+03, 2.462E+02, 3.050E+02
 1.245E+03, 2.468E+02, 3.050E+02
 1.260E+03, 2.472E+02, 3.050E+02
 1.275E+03, 2.476E+02, 3.050E+02
 1.290E+03, 2.482E+02, 3.050E+02
 1.305E+03, 2.486E+02, 3.050E+02
 1.320E+03, 2.490E+02, 3.050E+02
 1.335E+03, 2.493E+02, 3.050E+02
 1.350E+03, 2.497E+02, 3.050E+02
 1.365E+03, 2.499E+02, 3.050E+02
 1.380E+03, 2.505E+02, 3.050E+02
 1.395E+03, 2.508E+02, 3.050E+02
 1.410E+03, 2.511E+02, 3.050E+02
 1.425E+03, 2.516E+02, 3.050E+02
 1.440E+03, 2.518E+02, 3.050E+02
 1.455E+03, 2.520E+02, 3.050E+02
 1.470E+03, 2.525E+02, 3.050E+02
 1.485E+03, 2.527E+02, 3.050E+02
 1.500E+03, 2.529E+02, 3.050E+02
 1.515E+03, 2.531E+02, 3.050E+02
 1.530E+03, 2.534E+02, 3.050E+02
 1.545E+03, 2.536E+02, 3.050E+02
 1.560E+03, 2.538E+02, 3.050E+02
 1.575E+03, 2.542E+02, 3.050E+02
 1.590E+03, 2.545E+02, 3.050E+02
 1.605E+03, 2.549E+02, 3.050E+02
 1.620E+03, 2.552E+02, 3.050E+02
 1.635E+03, 2.556E+02, 3.050E+02
 1.650E+03, 2.557E+02, 3.050E+02
 1.665E+03, 2.557E+02, 3.050E+02
 1.680E+03, 2.556E+02, 3.050E+02
 1.695E+03, 2.558E+02, 3.050E+02
 1.710E+03, 2.559E+02, 3.050E+02
 1.725E+03, 2.562E+02, 3.050E+02
 1.740E+03, 2.565E+02, 3.050E+02
 1.755E+03, 2.568E+02, 3.050E+02
 1.770E+03, 2.568E+02, 3.050E+02
 1.785E+03, 2.571E+02, 3.050E+02
 1.800E+03, 2.572E+02, 3.050E+02
 1.815E+03, 2.571E+02, 3.050E+02
 1.830E+03, 2.575E+02, 3.050E+02
 1.845E+03, 2.574E+02, 3.050E+02
 1.860E+03, 2.576E+02, 3.050E+02
 1.875E+03, 2.575E+02, 3.050E+02
 1.890E+03, 2.576E+02, 3.050E+02
 1.905E+03, 2.578E+02, 3.050E+02
 1.920E+03, 2.576E+02, 3.050E+02
 1.935E+03, 2.577E+02, 3.050E+02
 1.950E+03, 2.579E+02, 3.050E+02
 1.965E+03, 2.581E+02, 3.050E+02
 1.980E+03, 2.584E+02, 3.050E+02
 1.995E+03, 2.587E+02, 3.050E+02
 2.010E+03, 2.585E+02, 3.050E+02
 2.025E+03, 2.586E+02, 3.050E+02
 2.040E+03, 2.584E+02, 3.050E+02
 2.055E+03, 2.581E+02, 3.050E+02
 2.070E+03, 2.586E+02, 3.050E+02
 2.085E+03, 2.587E+02, 3.050E+02
 2.100E+03, 2.585E+02, 3.040E+02
 2.115E+03, 2.581E+02, 2.996E+02
 2.130E+03, 2.575E+02, 2.949E+02
 2.145E+03, 2.566E+02, 2.903E+02
 2.160E+03, 2.556E+02, 2.856E+02
 2.175E+03, 2.544E+02, 2.810E+02
 2.190E+03, 2.528E+02, 2.763E+02
 2.205E+03, 2.515E+02, 2.717E+02
 2.220E+03, 2.498E+02, 2.670E+02
 2.235E+03, 2.481E+02, 2.624E+02
 2.250E+03, 2.464E+02, 2.577E+02
 2.265E+03, 2.445E+02, 2.531E+02
 2.280E+03, 2.426E+02, 2.484E+02
 2.295E+03, 2.406E+02, 2.438E+02
 2.310E+03, 2.389E+02, 2.391E+02
 2.325E+03, 2.367E+02, 2.348E+02
 2.340E+03, 2.345E+02, 2.338E+02
 2.355E+03, 2.328E+02, 2.338E+02
 2.370E+03, 2.311E+02, 2.337E+02
 2.385E+03, 2.295E+02, 2.337E+02
 2.400E+03, 2.286E+02, 2.338E+02
