s,C,C
Time,"Cable Temp","Shroud Temp"
 0.000E+00, 2.400E+01, 2.400E+01
 1.501E+01, 2.401E+01, 5.859E+01
 3.001E+01, 2.430E+01, 1.270E+02
 4.500E+01, 2.547E+01, 1.958E+02
 6.001E+01, 2.811E+01, 2.653E+02
 7.501E+01, 3.283E+01, 3.066E+02
 9.001E+01, 3.932E+01, 3.189E+02
 1.050E+02, 4.644E+01, 3.183E+02
 1.200E+02, 5.334E+01, 3.138E+02
 1.350E+02, 5.961E+01, 3.092E+02
 1.500E+02, 6.525E+01, 3.047E+02
 1.650E+02, 7.033E+01, 3.006E+02
 1.800E+02, 7.495E+01, 3.000E+02
 1.950E+02, 7.928E+01, 3.000E+02
 2.100E+02, 8.344E+01, 3.000E+02
 2.250E+02, 8.745E+01, 3.000E+02
 2.400E+02, 9.132E+01, 3.000E+02
 2.550E+02, 9.508E+01, 3.000E+02
 2.700E+02, 9.876E+01, 3.000E+02
 2.850E+02, 1.024E+02, 3.000E+02
 3.000E+02, 1.058E+02, 3.000E+02
 3.150E+02, 1.092E+02, 3.000E+02
 3.300E+02, 1.125E+02, 3.000E+02
 3.450E+02, 1.157E+02, 3.000E+02
 3.600E+02, 1.189E+02, 3.000E+02
 3.750E+02, 1.220E+02, 3.000E+02
 3.900E+02, 1.250E+02, 3.000E+02
 4.050E+02, 1.279E+02, 3.000E+02
 4.200E+02, 1.308E+02, 3.000E+02
 4.350E+02, 1.337E+02, 3.000E+02
 4.500E+02, 1.364E+02, 3.000E+02
 4.650E+02, 1.391E+02, 3.000E+02
 4.800E+02, 1.418E+02, 3.000E+02
 4.950E+02, 1.444E+02, 3.000E+02
 5.100E+02, 1.469E+02, 3.000E+02
 5.250E+02, 1.493E+02, 3.000E+02
 5.400E+02, 1.517E+02, 3.000E+02
 5.550E+02, 1.540E+02, 3.000E+02
 5.700E+02, 1.563E+02, 3.000E+02
 5.850E+02, 1.585E+02, 3.000E+02
 6.000E+02, 1.606E+02, 3.000E+02
 6.150E+02, 1.627E+02, 3.000E+02
 6.300E+02, 1.647E+02, 3.000E+02
 6.450E+02, 1.667E+02, 3.000E+02
 6.600E+02, 1.687E+02, 3.000E+02
 6.750E+02, 1.707E+02, 3.000E+02
 6.900E+02, 1.725E+02, 3.000E+02
 7.050E+02, 1.743E+02, 3.000E+02
 7.200E+02, 1.760E+02, 3.000E+02
 7.350E+02, 1.777E+02, 3.000E+02
 7.500E+02, 1.794E+02, 3.000E+02
 7.650E+02, 1.810E+02, 3.000E+02
 7.800E+02, 1.826E+02, 3.000E+02
 7.950E+02, 1.842E+02, 3.000E+02
 8.100E+02, 1.857E+02, 3.000E+02
 8.250E+02, 1.872E+02, 3.000E+02
 8.400E+02, 1.887E+02, 3.000E+02
 8.550E+02, 1.901E+02, 3.000E+02
 8.700E+02, 1.914E+02, 3.000E+02
 8.850E+02, 1.927E+02, 3.000E+02
 9.000E+02, 1.940E+02, 3.000E+02
 9.150E+02, 1.952E+02, 3.000E+02
 9.300E+02, 1.963E+02, 3.000E+02
 9.450E+02, 1.975E+02, 3.000E+02
 9.600E+02, 1.987E+02, 3.000E+02
 9.750E+02, 1.997E+02, 3.000E+02
 9.900E+02, 2.008E+02, 3.000E+02
 1.005E+03, 2.019E+02, 3.000E+02
 1.020E+03, 2.030E+02, 3.000E+02
 1.035E+03, 2.041E+02, 3.000E+02
 1.050E+03, 2.051E+02, 3.000E+02
 1.065E+03, 2.060E+02, 3.000E+02
 1.080E+03, 2.069E+02, 3.000E+02
 1.095E+03, 2.078E+02, 3.000E+02
 1.110E+03, 2.087E+02, 3.000E+02
 1.125E+03, 2.094E+02, 3.000E+02
 1.140E+03, 2.103E+02, 3.000E+02
 1.155E+03, 2.110E+02, 3.000E+02
 1.170E+03, 2.118E+02, 3.000E+02
 1.185E+03, 2.126E+02, 3.000E+02
 1.200E+03, 2.133E+02, 3.000E+02
 1.215E+03, 2.141E+02, 3.000E+02
 1.230E+03, 2.148E+02, 3.000E+02
 1.245E+03, 2.155E+02, 3.000E+02
 1.260E+03, 2.161E+02, 3.000E+02
 1.275E+03, 2.168E+02, 3.000E+02
 1.290E+03, 2.175E+02, 3.000E+02
 1.305E+03, 2.181E+02, 3.000E+02
 1.320E+03, 2.187E+02, 3.000E+02
 1.335E+03, 2.193E+02, 3.000E+02
 1.350E+03, 2.198E+02, 3.000E+02
 1.365E+03, 2.204E+02, 3.000E+02
 1.380E+03, 2.209E+02, 3.000E+02
 1.395E+03, 2.215E+02, 3.000E+02
 1.410E+03, 2.220E+02, 3.000E+02
 1.425E+03, 2.225E+02, 3.000E+02
 1.440E+03, 2.229E+02, 3.000E+02
 1.455E+03, 2.234E+02, 3.000E+02
 1.470E+03, 2.238E+02, 3.000E+02
 1.485E+03, 2.243E+02, 3.000E+02
 1.500E+03, 2.247E+02, 2.964E+02
 1.515E+03, 2.250E+02, 2.891E+02
 1.530E+03, 2.250E+02, 2.819E+02
 1.545E+03, 2.247E+02, 2.746E+02
 1.560E+03, 2.241E+02, 2.674E+02
 1.575E+03, 2.233E+02, 2.601E+02
 1.590E+03, 2.223E+02, 2.529E+02
 1.605E+03, 2.211E+02, 2.457E+02
 1.620E+03, 2.198E+02, 2.384E+02
 1.635E+03, 2.184E+02, 2.312E+02
 1.650E+03, 2.168E+02, 2.239E+02
 1.665E+03, 2.152E+02, 2.167E+02
 1.680E+03, 2.135E+02, 2.094E+02
 1.695E+03, 2.117E+02, 2.038E+02
 1.710E+03, 2.098E+02, 2.034E+02
 1.725E+03, 2.081E+02, 2.034E+02
 1.740E+03, 2.064E+02, 2.034E+02
 1.755E+03, 2.048E+02, 2.034E+02
 1.770E+03, 2.033E+02, 2.034E+02
 1.785E+03, 2.020E+02, 2.034E+02
 1.800E+03, 2.007E+02, 2.034E+02
