s,C,C
Time,"Cable Temp","Shroud Temp"
 0.000E+00, 2.400E+01, 2.400E+01
 1.502E+01, 2.401E+01, 7.342E+01
 3.003E+01, 2.439E+01, 1.709E+02
 4.502E+01, 2.620E+01, 2.686E+02
 6.002E+01, 3.081E+01, 3.662E+02
 7.500E+01, 3.988E+01, 4.584E+02
 9.002E+01, 5.481E+01, 4.800E+02
 1.050E+02, 7.289E+01, 4.800E+02
 1.200E+02, 9.080E+01, 4.800E+02
 1.350E+02, 1.075E+02, 4.800E+02
 1.500E+02, 1.230E+02, 4.800E+02
 1.650E+02, 1.372E+02, 4.800E+02
 1.800E+02, 1.505E+02, 4.800E+02
 1.950E+02, 1.628E+02, 4.800E+02
 2.100E+02, 1.744E+02, 4.800E+02
 2.250E+02, 1.852E+02, 4.800E+02
 2.400E+02, 1.953E+02, 4.800E+02
 2.550E+02, 2.049E+02, 4.800E+02
 2.700E+02, 2.141E+02, 4.800E+02
 2.850E+02, 2.228E+02, 4.800E+02
 3.000E+02, 2.310E+02, 4.800E+02
 3.150E+02, 2.389E+02, 4.800E+02
 3.300E+02, 2.465E+02, 4.800E+02
 3.450E+02, 2.538E+02, 4.800E+02
 3.600E+02, 2.608E+02, 4.800E+02
 3.750E+02, 2.675E+02, 4.800E+02
 3.900E+02, 2.738E+02, 4.800E+02
 4.050E+02, 2.800E+02, 4.800E+02
 4.200E+02, 2.861E+02, 4.800E+02
 4.350E+02, 2.918E+02, 4.800E+02
 4.500E+02, 2.973E+02, 4.800E+02
 4.650E+02, 3.026E+02, 4.800E+02
 4.800E+02, 3.076E+02, 4.800E+02
 4.950E+02, 3.124E+02, 4.800E+02
 5.100E+02, 3.171E+02, 4.800E+02
 5.250E+02, 3.216E+02, 4.800E+02
 5.400E+02, 3.260E+02, 4.800E+02
 5.550E+02, 3.301E+02, 4.800E+02
 5.700E+02, 3.341E+02, 4.800E+02
 5.850E+02, 3.380E+02, 4.800E+02
 6.000E+02, 3.418E+02, 4.800E+02
 6.150E+02, 3.454E+02, 4.800E+02
 6.300E+02, 3.488E+02, 4.800E+02
 6.450E+02, 3.522E+02, 4.800E+02
 6.600E+02, 3.553E+02, 4.800E+02
 6.750E+02, 3.584E+02, 4.800E+02
 6.900E+02, 3.613E+02, 4.784E+02
 7.050E+02, 3.641E+02, 4.716E+02
 7.200E+02, 3.662E+02, 4.645E+02
 7.350E+02, 3.678E+02, 4.573E+02
 7.500E+02, 3.689E+02, 4.502E+02
 7.650E+02, 3.695E+02, 4.430E+02
 7.800E+02, 3.697E+02, 4.359E+02
 7.950E+02, 3.695E+02, 4.287E+02
 8.100E+02, 3.690E+02, 4.216E+02
 8.250E+02, 3.683E+02, 4.144E+02
 8.400E+02, 3.672E+02, 4.073E+02
 8.550E+02, 3.659E+02, 4.001E+02
 8.700E+02, 3.644E+02, 3.930E+02
 8.850E+02, 3.628E+02, 3.858E+02
 9.000E+02, 3.610E+02, 3.787E+02
 9.150E+02, 3.591E+02, 3.732E+02
 9.300E+02, 3.570E+02, 3.694E+02
 9.450E+02, 3.551E+02, 3.656E+02
 9.600E+02, 3.531E+02, 3.617E+02
 9.750E+02, 3.512E+02, 3.579E+02
 9.900E+02, 3.492E+02, 3.541E+02
 1.005E+03, 3.472E+02, 3.503E+02
 1.020E+03, 3.451E+02, 3.464E+02
 1.035E+03, 3.431E+02, 3.426E+02
 1.050E+03, 3.411E+02, 3.388E+02
 1.065E+03, 3.391E+02, 3.350E+02
 1.080E+03, 3.371E+02, 3.312E+02
 1.095E+03, 3.351E+02, 3.273E+02
 1.110E+03, 3.330E+02, 3.235E+02
 1.125E+03, 3.309E+02, 3.197E+02
 1.140E+03, 3.288E+02, 3.159E+02
 1.155E+03, 3.266E+02, 3.120E+02
 1.170E+03, 3.244E+02, 3.082E+02
 1.185E+03, 3.222E+02, 3.044E+02
 1.200E+03, 3.201E+02, 3.006E+02
 1.215E+03, 3.179E+02, 2.968E+02
 1.230E+03, 3.156E+02, 2.929E+02
 1.245E+03, 3.133E+02, 2.891E+02
 1.260E+03, 3.110E+02, 2.856E+02
 1.275E+03, 3.087E+02, 2.822E+02
 1.290E+03, 3.063E+02, 2.788E+02
 1.305E+03, 3.040E+02, 2.754E+02
 1.320E+03, 3.017E+02, 2.719E+02
 1.335E+03, 2.994E+02, 2.685E+02
 1.350E+03, 2.972E+02, 2.651E+02
 1.365E+03, 2.949E+02, 2.617E+02
 1.380E+03, 2.925E+02, 2.583E+02
 1.395E+03, 2.902E+02, 2.548E+02
 1.410E+03, 2.879E+02, 2.514E+02
 1.425E+03, 2.856E+02, 2.480E+02
 1.440E+03, 2.833E+02, 2.446E+02
 1.455E+03, 2.809E+02, 2.412E+02
 1.470E+03, 2.786E+02, 2.377E+02
 1.485E+03, 2.763E+02, 2.343E+02
 1.500E+03, 2.740E+02, 2.309E+02
 1.515E+03, 2.716E+02, 2.275E+02
 1.530E+03, 2.693E+02, 2.241E+02
 1.545E+03, 2.669E+02, 2.206E+02
 1.560E+03, 2.646E+02, 2.172E+02
 1.575E+03, 2.623E+02, 2.138E+02
 1.590E+03, 2.600E+02, 2.104E+02
 1.605E+03, 2.577E+02, 2.072E+02
 1.620E+03, 2.554E+02, 2.064E+02
 1.635E+03, 2.531E+02, 2.064E+02
 1.650E+03, 2.510E+02, 2.064E+02
 1.665E+03, 2.489E+02, 2.064E+02
 1.680E+03, 2.469E+02, 2.064E+02
 1.695E+03, 2.450E+02, 2.064E+02
 1.710E+03, 2.432E+02, 2.064E+02
 1.725E+03, 2.415E+02, 2.064E+02
 1.740E+03, 2.398E+02, 2.064E+02
 1.755E+03, 2.381E+02, 2.064E+02
 1.770E+03, 2.365E+02, 2.064E+02
 1.785E+03, 2.349E+02, 2.064E+02
 1.800E+03, 2.333E+02, 2.064E+02
