s,C,C,C
Time,"Cable Temp","Shroud Temp","Conduit"
 0.000E+00, 3.100E+01, 3.100E+01, 3.100E+01
 1.509E+01, 3.100E+01, 6.660E+01, 3.105E+01
 3.006E+01, 3.104E+01, 1.366E+02, 3.156E+01
 4.502E+01, 3.108E+01, 2.066E+02, 3.282E+01
 6.000E+01, 3.110E+01, 2.765E+02, 3.534E+01
 7.501E+01, 3.119E+01, 3.465E+02, 3.967E+01
 9.001E+01, 3.131E+01, 4.167E+02, 4.660E+01
 1.050E+02, 3.162E+01, 4.711E+02, 5.682E+01
 1.200E+02, 3.212E+01, 4.750E+02, 6.842E+01
 1.350E+02, 3.289E+01, 4.750E+02, 7.996E+01
 1.500E+02, 3.398E+01, 4.750E+02, 9.139E+01
 1.650E+02, 3.521E+01, 4.750E+02, 1.027E+02
 1.800E+02, 3.655E+01, 4.750E+02, 1.138E+02
 1.950E+02, 3.802E+01, 4.750E+02, 1.248E+02
 2.100E+02, 3.997E+01, 4.750E+02, 1.358E+02
 2.250E+02, 4.222E+01, 4.750E+02, 1.465E+02
 2.400E+02, 4.448E+01, 4.750E+02, 1.570E+02
 2.550E+02, 4.689E+01, 4.750E+02, 1.674E+02
 2.700E+02, 4.949E+01, 4.750E+02, 1.775E+02
 2.850E+02, 5.237E+01, 4.750E+02, 1.875E+02
 3.000E+02, 5.552E+01, 4.750E+02, 1.973E+02
 3.150E+02, 5.892E+01, 4.750E+02, 2.069E+02
 3.300E+02, 6.258E+01, 4.750E+02, 2.163E+02
 3.450E+02, 6.643E+01, 4.750E+02, 2.255E+02
 3.600E+02, 7.045E+01, 4.750E+02, 2.344E+02
 3.750E+02, 7.467E+01, 4.750E+02, 2.431E+02
 3.900E+02, 7.908E+01, 4.750E+02, 2.515E+02
 4.050E+02, 8.371E+01, 4.750E+02, 2.598E+02
 4.200E+02, 8.861E+01, 4.750E+02, 2.677E+02
 4.350E+02, 9.368E+01, 4.750E+02, 2.754E+02
 4.500E+02, 9.895E+01, 4.750E+02, 2.827E+02
 4.650E+02, 1.044E+02, 4.750E+02, 2.899E+02
 4.800E+02, 1.100E+02, 4.750E+02, 2.968E+02
 4.950E+02, 1.158E+02, 4.750E+02, 3.034E+02
 5.100E+02, 1.217E+02, 4.750E+02, 3.098E+02
 5.250E+02, 1.276E+02, 4.750E+02, 3.159E+02
 5.400E+02, 1.337E+02, 4.750E+02, 3.218E+02
 5.550E+02, 1.398E+02, 4.750E+02, 3.274E+02
 5.700E+02, 1.461E+02, 4.750E+02, 3.328E+02
 5.850E+02, 1.526E+02, 4.750E+02, 3.380E+02
 6.000E+02, 1.591E+02, 4.750E+02, 3.429E+02
 6.150E+02, 1.656E+02, 4.750E+02, 3.477E+02
 6.300E+02, 1.720E+02, 4.750E+02, 3.521E+02
 6.450E+02, 1.784E+02, 4.750E+02, 3.564E+02
 6.600E+02, 1.848E+02, 4.750E+02, 3.605E+02
 6.750E+02, 1.911E+02, 4.750E+02, 3.644E+02
 6.900E+02, 1.976E+02, 4.750E+02, 3.681E+02
 7.050E+02, 2.041E+02, 4.750E+02, 3.717E+02
 7.200E+02, 2.105E+02, 4.750E+02, 3.751E+02
 7.350E+02, 2.170E+02, 4.750E+02, 3.783E+02
 7.500E+02, 2.233E+02, 4.750E+02, 3.813E+02
 7.650E+02, 2.295E+02, 4.750E+02, 3.843E+02
 7.800E+02, 2.356E+02, 4.750E+02, 3.871E+02
 7.950E+02, 2.417E+02, 4.750E+02, 3.897E+02
 8.100E+02, 2.477E+02, 4.750E+02, 3.923E+02
 8.250E+02, 2.536E+02, 4.750E+02, 3.947E+02
 8.400E+02, 2.594E+02, 4.750E+02, 3.971E+02
 8.550E+02, 2.651E+02, 4.750E+02, 3.993E+02
 8.700E+02, 2.707E+02, 4.750E+02, 4.014E+02
 8.850E+02, 2.763E+02, 4.750E+02, 4.034E+02
 9.000E+02, 2.816E+02, 4.750E+02, 4.053E+02
 9.150E+02, 2.867E+02, 4.750E+02, 4.072E+02
 9.300E+02, 2.917E+02, 4.750E+02, 4.089E+02
 9.450E+02, 2.967E+02, 4.750E+02, 4.106E+02
 9.600E+02, 3.016E+02, 4.750E+02, 4.122E+02
 9.750E+02, 3.063E+02, 4.750E+02, 4.137E+02
 9.900E+02, 3.108E+02, 4.750E+02, 4.152E+02
 1.005E+03, 3.152E+02, 4.750E+02, 4.165E+02
 1.020E+03, 3.196E+02, 4.750E+02, 4.178E+02
 1.035E+03, 3.238E+02, 4.750E+02, 4.190E+02
 1.050E+03, 3.278E+02, 4.750E+02, 4.202E+02
 1.065E+03, 3.316E+02, 4.750E+02, 4.212E+02
 1.080E+03, 3.353E+02, 4.750E+02, 4.223E+02
 1.095E+03, 3.391E+02, 4.750E+02, 4.234E+02
 1.110E+03, 3.428E+02, 4.750E+02, 4.243E+02
 1.125E+03, 3.463E+02, 4.750E+02, 4.253E+02
 1.140E+03, 3.496E+02, 4.750E+02, 4.262E+02
 1.155E+03, 3.528E+02, 4.750E+02, 4.271E+02
 1.170E+03, 3.560E+02, 4.750E+02, 4.280E+02
 1.185E+03, 3.592E+02, 4.750E+02, 4.288E+02
 1.200E+03, 3.622E+02, 4.750E+02, 4.296E+02
 1.215E+03, 3.650E+02, 4.750E+02, 4.303E+02
 1.230E+03, 3.678E+02, 4.750E+02, 4.310E+02
 1.245E+03, 3.704E+02, 4.750E+02, 4.317E+02
 1.260E+03, 3.729E+02, 4.750E+02, 4.323E+02
 1.275E+03, 3.754E+02, 4.750E+02, 4.329E+02
 1.290E+03, 3.777E+02, 4.750E+02, 4.335E+02
 1.305E+03, 3.800E+02, 4.750E+02, 4.341E+02
 1.320E+03, 3.823E+02, 4.750E+02, 4.346E+02
 1.335E+03, 3.846E+02, 4.750E+02, 4.352E+02
 1.350E+03, 3.866E+02, 4.750E+02, 4.356E+02
 1.365E+03, 3.885E+02, 4.750E+02, 4.361E+02
 1.380E+03, 3.905E+02, 4.750E+02, 4.366E+02
 1.395E+03, 3.926E+02, 4.750E+02, 4.370E+02
 1.410E+03, 3.943E+02, 4.750E+02, 4.375E+02
 1.425E+03, 3.961E+02, 4.750E+02, 4.379E+02
 1.440E+03, 3.978E+02, 4.750E+02, 4.382E+02
 1.455E+03, 3.994E+02, 4.750E+02, 4.386E+02
 1.470E+03, 4.010E+02, 4.750E+02, 4.390E+02
 1.485E+03, 4.026E+02, 4.750E+02, 4.393E+02
 1.500E+03, 4.039E+02, 4.750E+02, 4.396E+02
 1.515E+03, 4.051E+02, 4.750E+02, 4.398E+02
 1.530E+03, 4.061E+02, 4.750E+02, 4.400E+02
 1.545E+03, 4.073E+02, 4.750E+02, 4.403E+02
 1.560E+03, 4.085E+02, 4.750E+02, 4.406E+02
 1.575E+03, 4.099E+02, 4.750E+02, 4.409E+02
 1.590E+03, 4.113E+02, 4.750E+02, 4.412E+02
 1.605E+03, 4.125E+02, 4.750E+02, 4.415E+02
 1.620E+03, 4.134E+02, 4.750E+02, 4.416E+02
 1.635E+03, 4.142E+02, 4.750E+02, 4.417E+02
 1.650E+03, 4.151E+02, 4.750E+02, 4.419E+02
 1.665E+03, 4.160E+02, 4.750E+02, 4.421E+02
 1.680E+03, 4.169E+02, 4.750E+02, 4.422E+02
 1.695E+03, 4.177E+02, 4.750E+02, 4.425E+02
 1.710E+03, 4.188E+02, 4.750E+02, 4.427E+02
 1.725E+03, 4.198E+02, 4.750E+02, 4.429E+02
 1.740E+03, 4.202E+02, 4.750E+02, 4.430E+02
 1.755E+03, 4.209E+02, 4.750E+02, 4.432E+02
 1.770E+03, 4.217E+02, 4.750E+02, 4.434E+02
 1.785E+03, 4.226E+02, 4.750E+02, 4.437E+02
 1.800E+03, 4.235E+02, 4.750E+02, 4.439E+02
 1.815E+03, 4.244E+02, 4.750E+02, 4.441E+02
 1.830E+03, 4.249E+02, 4.750E+02, 4.442E+02
 1.845E+03, 4.256E+02, 4.750E+02, 4.444E+02
 1.860E+03, 4.262E+02, 4.750E+02, 4.445E+02
 1.875E+03, 4.266E+02, 4.750E+02, 4.445E+02
 1.890E+03, 4.268E+02, 4.750E+02, 4.445E+02
 1.905E+03, 4.269E+02, 4.750E+02, 4.445E+02
 1.920E+03, 4.273E+02, 4.750E+02, 4.447E+02
 1.935E+03, 4.279E+02, 4.750E+02, 4.448E+02
 1.950E+03, 4.284E+02, 4.750E+02, 4.449E+02
 1.965E+03, 4.289E+02, 4.750E+02, 4.450E+02
 1.980E+03, 4.292E+02, 4.750E+02, 4.450E+02
 1.995E+03, 4.296E+02, 4.750E+02, 4.451E+02
 2.010E+03, 4.299E+02, 4.750E+02, 4.452E+02
 2.025E+03, 4.304E+02, 4.750E+02, 4.453E+02
 2.040E+03, 4.310E+02, 4.750E+02, 4.455E+02
 2.055E+03, 4.315E+02, 4.750E+02, 4.456E+02
 2.070E+03, 4.319E+02, 4.750E+02, 4.456E+02
 2.085E+03, 4.319E+02, 4.750E+02, 4.456E+02
 2.100E+03, 4.321E+02, 4.750E+02, 4.456E+02
 2.115E+03, 4.324E+02, 4.750E+02, 4.457E+02
 2.130E+03, 4.327E+02, 4.750E+02, 4.457E+02
 2.145E+03, 4.328E+02, 4.750E+02, 4.458E+02
 2.160E+03, 4.329E+02, 4.750E+02, 4.457E+02
 2.175E+03, 4.329E+02, 4.750E+02, 4.457E+02
 2.190E+03, 4.332E+02, 4.750E+02, 4.458E+02
 2.205E+03, 4.334E+02, 4.750E+02, 4.458E+02
 2.220E+03, 4.335E+02, 4.750E+02, 4.458E+02
 2.235E+03, 4.336E+02, 4.750E+02, 4.458E+02
 2.250E+03, 4.338E+02, 4.750E+02, 4.458E+02
 2.265E+03, 4.342E+02, 4.750E+02, 4.459E+02
 2.280E+03, 4.345E+02, 4.750E+02, 4.460E+02
 2.295E+03, 4.349E+02, 4.750E+02, 4.461E+02
 2.310E+03, 4.350E+02, 4.750E+02, 4.461E+02
 2.325E+03, 4.351E+02, 4.750E+02, 4.461E+02
 2.340E+03, 4.351E+02, 4.750E+02, 4.461E+02
 2.355E+03, 4.351E+02, 4.750E+02, 4.461E+02
 2.370E+03, 4.352E+02, 4.750E+02, 4.461E+02
 2.385E+03, 4.355E+02, 4.750E+02, 4.462E+02
 2.400E+03, 4.359E+02, 4.750E+02, 4.463E+02
 2.415E+03, 4.361E+02, 4.750E+02, 4.463E+02
 2.430E+03, 4.364E+02, 4.750E+02, 4.463E+02
 2.445E+03, 4.364E+02, 4.750E+02, 4.463E+02
 2.460E+03, 4.364E+02, 4.750E+02, 4.463E+02
 2.475E+03, 4.363E+02, 4.750E+02, 4.463E+02
 2.490E+03, 4.364E+02, 4.750E+02, 4.463E+02
 2.505E+03, 4.364E+02, 4.750E+02, 4.463E+02
 2.520E+03, 4.363E+02, 4.750E+02, 4.463E+02
 2.535E+03, 4.363E+02, 4.750E+02, 4.463E+02
 2.550E+03, 4.365E+02, 4.750E+02, 4.463E+02
 2.565E+03, 4.364E+02, 4.750E+02, 4.463E+02
 2.580E+03, 4.364E+02, 4.750E+02, 4.463E+02
 2.595E+03, 4.365E+02, 4.750E+02, 4.463E+02
 2.610E+03, 4.364E+02, 4.750E+02, 4.463E+02
 2.625E+03, 4.365E+02, 4.750E+02, 4.463E+02
 2.640E+03, 4.366E+02, 4.750E+02, 4.463E+02
 2.655E+03, 4.367E+02, 4.750E+02, 4.463E+02
 2.670E+03, 4.368E+02, 4.750E+02, 4.463E+02
 2.685E+03, 4.369E+02, 4.750E+02, 4.463E+02
 2.700E+03, 4.367E+02, 4.750E+02, 4.462E+02
 2.715E+03, 4.367E+02, 4.750E+02, 4.462E+02
 2.730E+03, 4.369E+02, 4.750E+02, 4.462E+02
 2.745E+03, 4.372E+02, 4.750E+02, 4.462E+02
 2.760E+03, 4.372E+02, 4.750E+02, 4.463E+02
 2.775E+03, 4.373E+02, 4.750E+02, 4.463E+02
 2.790E+03, 4.374E+02, 4.750E+02, 4.463E+02
 2.805E+03, 4.373E+02, 4.750E+02, 4.463E+02
 2.820E+03, 4.372E+02, 4.741E+02, 4.462E+02
 2.835E+03, 4.372E+02, 4.701E+02, 4.460E+02
 2.850E+03, 4.371E+02, 4.659E+02, 4.456E+02
 2.865E+03, 4.371E+02, 4.616E+02, 4.450E+02
 2.880E+03, 4.371E+02, 4.574E+02, 4.442E+02
 2.895E+03, 4.370E+02, 4.532E+02, 4.431E+02
 2.910E+03, 4.367E+02, 4.490E+02, 4.419E+02
 2.925E+03, 4.364E+02, 4.448E+02, 4.405E+02
 2.940E+03, 4.361E+02, 4.406E+02, 4.390E+02
 2.955E+03, 4.357E+02, 4.364E+02, 4.373E+02
 2.970E+03, 4.351E+02, 4.321E+02, 4.355E+02
 2.985E+03, 4.345E+02, 4.279E+02, 4.335E+02
 3.000E+03, 4.337E+02, 4.237E+02, 4.315E+02
 3.015E+03, 4.330E+02, 4.195E+02, 4.294E+02
 3.030E+03, 4.321E+02, 4.153E+02, 4.271E+02
 3.045E+03, 4.313E+02, 4.111E+02, 4.249E+02
 3.060E+03, 4.303E+02, 4.068E+02, 4.225E+02
 3.075E+03, 4.294E+02, 4.026E+02, 4.201E+02
 3.090E+03, 4.284E+02, 3.984E+02, 4.177E+02
 3.105E+03, 4.273E+02, 3.942E+02, 4.152E+02
 3.120E+03, 4.262E+02, 3.900E+02, 4.128E+02
 3.135E+03, 4.252E+02, 3.858E+02, 4.102E+02
 3.150E+03, 4.236E+02, 3.816E+02, 4.075E+02
 3.165E+03, 4.219E+02, 3.773E+02, 4.048E+02
 3.180E+03, 4.202E+02, 3.731E+02, 4.021E+02
 3.195E+03, 4.185E+02, 3.689E+02, 3.993E+02
 3.210E+03, 4.167E+02, 3.647E+02, 3.965E+02
 3.225E+03, 4.151E+02, 3.605E+02, 3.937E+02
 3.240E+03, 4.135E+02, 3.563E+02, 3.910E+02
 3.255E+03, 4.119E+02, 3.520E+02, 3.882E+02
 3.270E+03, 4.100E+02, 3.478E+02, 3.853E+02
 3.285E+03, 4.082E+02, 3.436E+02, 3.825E+02
 3.300E+03, 4.062E+02, 3.394E+02, 3.796E+02
 3.315E+03, 4.041E+02, 3.352E+02, 3.767E+02
 3.330E+03, 4.025E+02, 3.310E+02, 3.740E+02
 3.345E+03, 4.011E+02, 3.268E+02, 3.713E+02
 3.360E+03, 3.996E+02, 3.225E+02, 3.685E+02
 3.375E+03, 3.980E+02, 3.183E+02, 3.658E+02
 3.390E+03, 3.962E+02, 3.141E+02, 3.630E+02
 3.405E+03, 3.940E+02, 3.099E+02, 3.600E+02
 3.420E+03, 3.915E+02, 3.057E+02, 3.571E+02
 3.435E+03, 3.894E+02, 3.015E+02, 3.542E+02
 3.450E+03, 3.873E+02, 2.973E+02, 3.512E+02
 3.465E+03, 3.850E+02, 2.930E+02, 3.483E+02
 3.480E+03, 3.829E+02, 2.888E+02, 3.455E+02
 3.495E+03, 3.811E+02, 2.846E+02, 3.427E+02
 3.510E+03, 3.794E+02, 2.804E+02, 3.400E+02
 3.525E+03, 3.776E+02, 2.762E+02, 3.372E+02
 3.540E+03, 3.757E+02, 2.720E+02, 3.344E+02
 3.555E+03, 3.734E+02, 2.677E+02, 3.315E+02
 3.570E+03, 3.709E+02, 2.635E+02, 3.286E+02
 3.585E+03, 3.687E+02, 2.593E+02, 3.258E+02
 3.600E+03, 3.668E+02, 2.551E+02, 3.230E+02
