s,C,C,C
Time,"Cable Temp","Shroud Temp","Conduit"
 0.000E+00, 3.100E+01, 3.100E+01, 3.100E+01
 1.506E+01, 3.100E+01, 7.158E+01, 3.107E+01
 3.004E+01, 3.101E+01, 1.517E+02, 3.172E+01
 4.501E+01, 3.112E+01, 2.317E+02, 3.354E+01
 6.002E+01, 3.122E+01, 3.073E+02, 3.722E+01
 7.502E+01, 3.157E+01, 3.250E+02, 4.243E+01
 9.003E+01, 3.200E+01, 3.250E+02, 4.770E+01
 1.050E+02, 3.258E+01, 3.250E+02, 5.290E+01
 1.200E+02, 3.328E+01, 3.250E+02, 5.801E+01
 1.350E+02, 3.425E+01, 3.250E+02, 6.303E+01
 1.500E+02, 3.491E+01, 3.250E+02, 6.800E+01
 1.650E+02, 3.577E+01, 3.250E+02, 7.288E+01
 1.800E+02, 3.646E+01, 3.250E+02, 7.769E+01
 1.950E+02, 3.768E+01, 3.250E+02, 8.243E+01
 2.100E+02, 3.881E+01, 3.250E+02, 8.710E+01
 2.250E+02, 3.962E+01, 3.250E+02, 9.166E+01
 2.400E+02, 4.060E+01, 3.250E+02, 9.613E+01
 2.550E+02, 4.186E+01, 3.250E+02, 1.005E+02
 2.700E+02, 4.313E+01, 3.250E+02, 1.049E+02
 2.850E+02, 4.457E+01, 3.250E+02, 1.091E+02
 3.000E+02, 4.596E+01, 3.250E+02, 1.134E+02
 3.150E+02, 4.718E+01, 3.250E+02, 1.175E+02
 3.300E+02, 4.868E+01, 3.250E+02, 1.215E+02
 3.450E+02, 5.027E+01, 3.250E+02, 1.255E+02
 3.600E+02, 5.189E+01, 3.250E+02, 1.294E+02
 3.750E+02, 5.341E+01, 3.250E+02, 1.331E+02
 3.900E+02, 5.509E+01, 3.250E+02, 1.368E+02
 4.050E+02, 5.688E+01, 3.250E+02, 1.405E+02
 4.200E+02, 5.882E+01, 3.250E+02, 1.441E+02
 4.350E+02, 6.070E+01, 3.250E+02, 1.476E+02
 4.500E+02, 6.261E+01, 3.250E+02, 1.510E+02
 4.650E+02, 6.460E+01, 3.250E+02, 1.544E+02
 4.800E+02, 6.666E+01, 3.250E+02, 1.577E+02
 4.950E+02, 6.878E+01, 3.250E+02, 1.610E+02
 5.100E+02, 7.078E+01, 3.250E+02, 1.641E+02
 5.250E+02, 7.289E+01, 3.250E+02, 1.672E+02
 5.400E+02, 7.501E+01, 3.250E+02, 1.703E+02
 5.550E+02, 7.734E+01, 3.250E+02, 1.733E+02
 5.700E+02, 7.963E+01, 3.250E+02, 1.762E+02
 5.850E+02, 8.189E+01, 3.250E+02, 1.791E+02
 6.000E+02, 8.404E+01, 3.250E+02, 1.819E+02
 6.150E+02, 8.643E+01, 3.250E+02, 1.847E+02
 6.300E+02, 8.870E+01, 3.250E+02, 1.874E+02
 6.450E+02, 9.089E+01, 3.250E+02, 1.901E+02
 6.600E+02, 9.320E+01, 3.250E+02, 1.927E+02
 6.750E+02, 9.567E+01, 3.250E+02, 1.953E+02
 6.900E+02, 9.813E+01, 3.250E+02, 1.978E+02
 7.050E+02, 1.007E+02, 3.250E+02, 2.003E+02
 7.200E+02, 1.032E+02, 3.250E+02, 2.026E+02
 7.350E+02, 1.057E+02, 3.250E+02, 2.050E+02
 7.500E+02, 1.083E+02, 3.250E+02, 2.072E+02
 7.650E+02, 1.108E+02, 3.250E+02, 2.094E+02
 7.800E+02, 1.134E+02, 3.250E+02, 2.115E+02
 7.950E+02, 1.159E+02, 3.250E+02, 2.136E+02
 8.100E+02, 1.187E+02, 3.250E+02, 2.156E+02
 8.250E+02, 1.212E+02, 3.250E+02, 2.176E+02
 8.400E+02, 1.238E+02, 3.250E+02, 2.195E+02
 8.550E+02, 1.264E+02, 3.250E+02, 2.214E+02
 8.700E+02, 1.290E+02, 3.250E+02, 2.233E+02
 8.850E+02, 1.316E+02, 3.250E+02, 2.252E+02
 9.000E+02, 1.340E+02, 3.250E+02, 2.270E+02
 9.150E+02, 1.366E+02, 3.250E+02, 2.287E+02
 9.300E+02, 1.392E+02, 3.250E+02, 2.304E+02
 9.450E+02, 1.417E+02, 3.250E+02, 2.320E+02
 9.600E+02, 1.443E+02, 3.250E+02, 2.336E+02
 9.750E+02, 1.469E+02, 3.250E+02, 2.351E+02
 9.900E+02, 1.493E+02, 3.250E+02, 2.366E+02
 1.005E+03, 1.517E+02, 3.250E+02, 2.381E+02
 1.020E+03, 1.542E+02, 3.250E+02, 2.395E+02
 1.035E+03, 1.567E+02, 3.250E+02, 2.409E+02
 1.050E+03, 1.591E+02, 3.250E+02, 2.422E+02
 1.065E+03, 1.615E+02, 3.250E+02, 2.436E+02
 1.080E+03, 1.638E+02, 3.250E+02, 2.449E+02
 1.095E+03, 1.662E+02, 3.250E+02, 2.462E+02
 1.110E+03, 1.685E+02, 3.250E+02, 2.475E+02
 1.125E+03, 1.708E+02, 3.250E+02, 2.487E+02
 1.140E+03, 1.731E+02, 3.250E+02, 2.499E+02
 1.155E+03, 1.754E+02, 3.250E+02, 2.511E+02
 1.170E+03, 1.776E+02, 3.250E+02, 2.521E+02
 1.185E+03, 1.798E+02, 3.250E+02, 2.531E+02
 1.200E+03, 1.820E+02, 3.250E+02, 2.541E+02
 1.215E+03, 1.841E+02, 3.250E+02, 2.550E+02
 1.230E+03, 1.862E+02, 3.250E+02, 2.561E+02
 1.245E+03, 1.884E+02, 3.250E+02, 2.571E+02
 1.260E+03, 1.905E+02, 3.250E+02, 2.581E+02
 1.275E+03, 1.925E+02, 3.250E+02, 2.589E+02
 1.290E+03, 1.945E+02, 3.250E+02, 2.598E+02
 1.305E+03, 1.965E+02, 3.250E+02, 2.608E+02
 1.320E+03, 1.985E+02, 3.250E+02, 2.617E+02
 1.335E+03, 2.004E+02, 3.250E+02, 2.624E+02
 1.350E+03, 2.022E+02, 3.250E+02, 2.632E+02
 1.365E+03, 2.040E+02, 3.250E+02, 2.638E+02
 1.380E+03, 2.059E+02, 3.250E+02, 2.645E+02
 1.395E+03, 2.077E+02, 3.250E+02, 2.653E+02
 1.410E+03, 2.096E+02, 3.250E+02, 2.661E+02
 1.425E+03, 2.114E+02, 3.250E+02, 2.669E+02
 1.440E+03, 2.131E+02, 3.250E+02, 2.676E+02
 1.455E+03, 2.149E+02, 3.250E+02, 2.684E+02
 1.470E+03, 2.165E+02, 3.250E+02, 2.691E+02
 1.485E+03, 2.182E+02, 3.250E+02, 2.697E+02
 1.500E+03, 2.199E+02, 3.250E+02, 2.704E+02
 1.515E+03, 2.215E+02, 3.250E+02, 2.711E+02
 1.530E+03, 2.231E+02, 3.250E+02, 2.717E+02
 1.545E+03, 2.247E+02, 3.250E+02, 2.723E+02
 1.560E+03, 2.262E+02, 3.250E+02, 2.730E+02
 1.575E+03, 2.277E+02, 3.250E+02, 2.736E+02
 1.590E+03, 2.292E+02, 3.250E+02, 2.742E+02
 1.605E+03, 2.306E+02, 3.250E+02, 2.747E+02
 1.620E+03, 2.320E+02, 3.250E+02, 2.753E+02
 1.635E+03, 2.334E+02, 3.250E+02, 2.758E+02
 1.650E+03, 2.348E+02, 3.250E+02, 2.763E+02
 1.665E+03, 2.361E+02, 3.250E+02, 2.767E+02
 1.680E+03, 2.374E+02, 3.250E+02, 2.772E+02
 1.695E+03, 2.385E+02, 3.250E+02, 2.775E+02
 1.710E+03, 2.394E+02, 3.250E+02, 2.778E+02
 1.725E+03, 2.406E+02, 3.250E+02, 2.782E+02
 1.740E+03, 2.418E+02, 3.250E+02, 2.786E+02
 1.755E+03, 2.431E+02, 3.250E+02, 2.790E+02
 1.770E+03, 2.443E+02, 3.250E+02, 2.795E+02
 1.785E+03, 2.455E+02, 3.250E+02, 2.800E+02
 1.800E+03, 2.466E+02, 3.250E+02, 2.804E+02
 1.815E+03, 2.474E+02, 3.250E+02, 2.806E+02
 1.830E+03, 2.483E+02, 3.250E+02, 2.809E+02
 1.845E+03, 2.494E+02, 3.250E+02, 2.812E+02
 1.860E+03, 2.504E+02, 3.250E+02, 2.816E+02
 1.875E+03, 2.514E+02, 3.250E+02, 2.819E+02
 1.890E+03, 2.525E+02, 3.250E+02, 2.823E+02
 1.905E+03, 2.534E+02, 3.250E+02, 2.826E+02
 1.920E+03, 2.543E+02, 3.250E+02, 2.829E+02
 1.935E+03, 2.549E+02, 3.250E+02, 2.831E+02
 1.950E+03, 2.556E+02, 3.250E+02, 2.833E+02
 1.965E+03, 2.563E+02, 3.250E+02, 2.834E+02
 1.980E+03, 2.569E+02, 3.250E+02, 2.836E+02
 1.995E+03, 2.577E+02, 3.250E+02, 2.838E+02
 2.010E+03, 2.585E+02, 3.250E+02, 2.840E+02
 2.025E+03, 2.594E+02, 3.250E+02, 2.843E+02
 2.040E+03, 2.601E+02, 3.250E+02, 2.846E+02
 2.055E+03, 2.606E+02, 3.250E+02, 2.847E+02
 2.070E+03, 2.610E+02, 3.250E+02, 2.849E+02
 2.085E+03, 2.617E+02, 3.250E+02, 2.850E+02
 2.100E+03, 2.627E+02, 3.250E+02, 2.854E+02
 2.115E+03, 2.635E+02, 3.250E+02, 2.856E+02
 2.130E+03, 2.641E+02, 3.250E+02, 2.858E+02
 2.145E+03, 2.648E+02, 3.250E+02, 2.860E+02
 2.160E+03, 2.653E+02, 3.250E+02, 2.862E+02
 2.175E+03, 2.657E+02, 3.250E+02, 2.863E+02
 2.190E+03, 2.664E+02, 3.250E+02, 2.865E+02
 2.205E+03, 2.672E+02, 3.250E+02, 2.868E+02
 2.220E+03, 2.677E+02, 3.250E+02, 2.870E+02
 2.235E+03, 2.683E+02, 3.250E+02, 2.872E+02
 2.250E+03, 2.690E+02, 3.250E+02, 2.875E+02
 2.265E+03, 2.696E+02, 3.250E+02, 2.877E+02
 2.280E+03, 2.699E+02, 3.250E+02, 2.878E+02
 2.295E+03, 2.704E+02, 3.250E+02, 2.880E+02
 2.310E+03, 2.709E+02, 3.250E+02, 2.881E+02
 2.325E+03, 2.715E+02, 3.250E+02, 2.884E+02
 2.340E+03, 2.721E+02, 3.250E+02, 2.886E+02
 2.355E+03, 2.723E+02, 3.250E+02, 2.887E+02
 2.370E+03, 2.725E+02, 3.250E+02, 2.888E+02
 2.385E+03, 2.731E+02, 3.250E+02, 2.890E+02
 2.400E+03, 2.735E+02, 3.250E+02, 2.891E+02
 2.415E+03, 2.739E+02, 3.250E+02, 2.893E+02
 2.430E+03, 2.744E+02, 3.250E+02, 2.894E+02
 2.445E+03, 2.750E+02, 3.250E+02, 2.896E+02
 2.460E+03, 2.754E+02, 3.250E+02, 2.898E+02
 2.475E+03, 2.759E+02, 3.250E+02, 2.900E+02
 2.490E+03, 2.763E+02, 3.250E+02, 2.901E+02
 2.505E+03, 2.768E+02, 3.250E+02, 2.903E+02
 2.520E+03, 2.767E+02, 3.250E+02, 2.903E+02
 2.535E+03, 2.771E+02, 3.250E+02, 2.905E+02
 2.550E+03, 2.776E+02, 3.250E+02, 2.906E+02
 2.565E+03, 2.780E+02, 3.250E+02, 2.908E+02
 2.580E+03, 2.784E+02, 3.250E+02, 2.909E+02
 2.595E+03, 2.788E+02, 3.250E+02, 2.911E+02
 2.610E+03, 2.791E+02, 3.250E+02, 2.912E+02
 2.625E+03, 2.795E+02, 3.250E+02, 2.913E+02
 2.640E+03, 2.799E+02, 3.250E+02, 2.914E+02
 2.655E+03, 2.802E+02, 3.250E+02, 2.915E+02
 2.670E+03, 2.804E+02, 3.250E+02, 2.917E+02
 2.685E+03, 2.805E+02, 3.250E+02, 2.917E+02
 2.700E+03, 2.809E+02, 3.250E+02, 2.918E+02
 2.715E+03, 2.812E+02, 3.250E+02, 2.919E+02
 2.730E+03, 2.815E+02, 3.250E+02, 2.920E+02
 2.745E+03, 2.816E+02, 3.250E+02, 2.921E+02
 2.760E+03, 2.816E+02, 3.250E+02, 2.921E+02
 2.775E+03, 2.812E+02, 3.250E+02, 2.920E+02
 2.790E+03, 2.812E+02, 3.250E+02, 2.920E+02
 2.805E+03, 2.816E+02, 3.250E+02, 2.921E+02
 2.820E+03, 2.821E+02, 3.250E+02, 2.922E+02
 2.835E+03, 2.825E+02, 3.250E+02, 2.922E+02
 2.850E+03, 2.823E+02, 3.250E+02, 2.922E+02
 2.865E+03, 2.822E+02, 3.250E+02, 2.921E+02
 2.880E+03, 2.822E+02, 3.250E+02, 2.921E+02
 2.895E+03, 2.820E+02, 3.250E+02, 2.920E+02
 2.910E+03, 2.822E+02, 3.250E+02, 2.920E+02
 2.925E+03, 2.825E+02, 3.250E+02, 2.920E+02
 2.940E+03, 2.828E+02, 3.250E+02, 2.921E+02
 2.955E+03, 2.827E+02, 3.250E+02, 2.921E+02
 2.970E+03, 2.829E+02, 3.250E+02, 2.921E+02
 2.985E+03, 2.830E+02, 3.250E+02, 2.921E+02
 3.000E+03, 2.832E+02, 3.250E+02, 2.922E+02
 3.015E+03, 2.834E+02, 3.250E+02, 2.922E+02
 3.030E+03, 2.833E+02, 3.250E+02, 2.922E+02
 3.045E+03, 2.833E+02, 3.250E+02, 2.921E+02
 3.060E+03, 2.833E+02, 3.250E+02, 2.921E+02
 3.075E+03, 2.837E+02, 3.250E+02, 2.922E+02
 3.090E+03, 2.841E+02, 3.250E+02, 2.923E+02
 3.105E+03, 2.844E+02, 3.250E+02, 2.925E+02
 3.120E+03, 2.847E+02, 3.250E+02, 2.926E+02
 3.135E+03, 2.850E+02, 3.250E+02, 2.927E+02
 3.150E+03, 2.852E+02, 3.250E+02, 2.929E+02
 3.165E+03, 2.853E+02, 3.250E+02, 2.929E+02
 3.180E+03, 2.851E+02, 3.250E+02, 2.929E+02
 3.195E+03, 2.854E+02, 3.250E+02, 2.929E+02
 3.210E+03, 2.857E+02, 3.250E+02, 2.930E+02
 3.225E+03, 2.859E+02, 3.250E+02, 2.932E+02
 3.240E+03, 2.861E+02, 3.250E+02, 2.933E+02
 3.255E+03, 2.862E+02, 3.250E+02, 2.934E+02
 3.270E+03, 2.864E+02, 3.250E+02, 2.934E+02
 3.285E+03, 2.866E+02, 3.250E+02, 2.935E+02
 3.300E+03, 2.867E+02, 3.250E+02, 2.936E+02
 3.315E+03, 2.868E+02, 3.250E+02, 2.936E+02
 3.330E+03, 2.869E+02, 3.250E+02, 2.937E+02
 3.345E+03, 2.871E+02, 3.250E+02, 2.938E+02
 3.360E+03, 2.873E+02, 3.250E+02, 2.939E+02
 3.375E+03, 2.873E+02, 3.139E+02, 2.937E+02
 3.390E+03, 2.868E+02, 2.919E+02, 2.929E+02
 3.405E+03, 2.864E+02, 2.698E+02, 2.914E+02
 3.420E+03, 2.858E+02, 2.478E+02, 2.893E+02
 3.435E+03, 2.857E+02, 2.257E+02, 2.869E+02
 3.450E+03, 2.855E+02, 2.037E+02, 2.842E+02
 3.465E+03, 2.847E+02, 1.829E+02, 2.811E+02
 3.480E+03, 2.838E+02, 1.780E+02, 2.779E+02
 3.495E+03, 2.828E+02, 1.780E+02, 2.747E+02
 3.510E+03, 2.819E+02, 1.780E+02, 2.717E+02
 3.525E+03, 2.811E+02, 1.780E+02, 2.689E+02
 3.540E+03, 2.798E+02, 1.780E+02, 2.660E+02
 3.555E+03, 2.790E+02, 1.780E+02, 2.634E+02
 3.570E+03, 2.780E+02, 1.780E+02, 2.608E+02
 3.585E+03, 2.766E+02, 1.780E+02, 2.583E+02
 3.600E+03, 2.756E+02, 1.780E+02, 2.560E+02
