s,C,C
Time,"Cable Temp","Shroud Temp"
 0.000E+00, 2.800E+01, 2.800E+01
 1.507E+01, 2.822E+01, 6.236E+01
 3.002E+01, 3.036E+01, 1.300E+02
 4.503E+01, 3.539E+01, 1.977E+02
 6.000E+01, 4.403E+01, 2.655E+02
 7.501E+01, 5.727E+01, 3.332E+02
 9.001E+01, 7.628E+01, 4.010E+02
 1.050E+02, 1.027E+02, 4.650E+02
 1.200E+02, 1.310E+02, 4.800E+02
 1.350E+02, 1.528E+02, 4.800E+02
 1.500E+02, 1.708E+02, 4.800E+02
 1.650E+02, 1.866E+02, 4.800E+02
 1.800E+02, 2.006E+02, 4.800E+02
 1.950E+02, 2.135E+02, 4.800E+02
 2.100E+02, 2.254E+02, 4.800E+02
 2.250E+02, 2.365E+02, 4.800E+02
 2.400E+02, 2.468E+02, 4.800E+02
 2.550E+02, 2.566E+02, 4.800E+02
 2.700E+02, 2.657E+02, 4.800E+02
 2.850E+02, 2.745E+02, 4.800E+02
 3.000E+02, 2.827E+02, 4.800E+02
 3.150E+02, 2.905E+02, 4.800E+02
 3.300E+02, 2.979E+02, 4.800E+02
 3.450E+02, 3.048E+02, 4.800E+02
 3.600E+02, 3.112E+02, 4.800E+02
 3.750E+02, 3.175E+02, 4.800E+02
 3.900E+02, 3.237E+02, 4.800E+02
 4.050E+02, 3.292E+02, 4.800E+02
 4.200E+02, 3.342E+02, 4.800E+02
 4.350E+02, 3.390E+02, 4.800E+02
 4.500E+02, 3.442E+02, 4.800E+02
 4.650E+02, 3.489E+02, 4.800E+02
 4.800E+02, 3.532E+02, 4.800E+02
 4.950E+02, 3.571E+02, 4.800E+02
 5.100E+02, 3.609E+02, 4.800E+02
 5.250E+02, 3.643E+02, 4.800E+02
 5.400E+02, 3.674E+02, 4.800E+02
 5.550E+02, 3.708E+02, 4.800E+02
 5.700E+02, 3.739E+02, 4.800E+02
 5.850E+02, 3.772E+02, 4.800E+02
 6.000E+02, 3.799E+02, 4.800E+02
 6.150E+02, 3.829E+02, 4.800E+02
 6.300E+02, 3.848E+02, 4.800E+02
 6.450E+02, 3.874E+02, 4.800E+02
 6.600E+02, 3.897E+02, 4.800E+02
 6.750E+02, 3.915E+02, 4.800E+02
 6.900E+02, 3.939E+02, 4.800E+02
 7.050E+02, 3.957E+02, 4.800E+02
 7.200E+02, 3.976E+02, 4.800E+02
 7.350E+02, 3.986E+02, 4.800E+02
 7.500E+02, 4.001E+02, 4.800E+02
 7.650E+02, 4.018E+02, 4.800E+02
 7.800E+02, 4.034E+02, 4.800E+02
 7.950E+02, 4.048E+02, 4.800E+02
 8.100E+02, 4.058E+02, 4.800E+02
 8.250E+02, 4.069E+02, 4.800E+02
 8.400E+02, 4.078E+02, 4.800E+02
 8.550E+02, 4.091E+02, 4.800E+02
 8.700E+02, 4.103E+02, 4.800E+02
 8.850E+02, 4.112E+02, 4.800E+02
 9.000E+02, 4.121E+02, 4.800E+02
 9.150E+02, 4.127E+02, 4.800E+02
 9.300E+02, 4.133E+02, 4.800E+02
 9.450E+02, 4.135E+02, 4.800E+02
 9.600E+02, 4.141E+02, 4.800E+02
 9.750E+02, 4.149E+02, 4.800E+02
 9.900E+02, 4.158E+02, 4.800E+02
 1.005E+03, 4.165E+02, 4.800E+02
 1.020E+03, 4.167E+02, 4.800E+02
 1.035E+03, 4.176E+02, 4.800E+02
 1.050E+03, 4.184E+02, 4.800E+02
 1.065E+03, 4.192E+02, 4.800E+02
 1.080E+03, 4.192E+02, 4.800E+02
 1.095E+03, 4.195E+02, 4.800E+02
 1.110E+03, 4.202E+02, 4.800E+02
 1.125E+03, 4.204E+02, 4.800E+02
 1.140E+03, 4.211E+02, 4.800E+02
 1.155E+03, 4.212E+02, 4.800E+02
 1.170E+03, 4.214E+02, 4.800E+02
 1.185E+03, 4.219E+02, 4.800E+02
 1.200E+03, 4.222E+02, 4.800E+02
 1.215E+03, 4.222E+02, 4.800E+02
 1.230E+03, 4.223E+02, 4.800E+02
 1.245E+03, 4.225E+02, 4.800E+02
 1.260E+03, 4.229E+02, 4.800E+02
 1.275E+03, 4.232E+02, 4.800E+02
 1.290E+03, 4.236E+02, 4.800E+02
 1.305E+03, 4.236E+02, 4.800E+02
 1.320E+03, 4.233E+02, 4.800E+02
 1.335E+03, 4.230E+02, 4.800E+02
 1.350E+03, 4.237E+02, 4.800E+02
 1.365E+03, 4.244E+02, 4.800E+02
 1.380E+03, 4.245E+02, 4.800E+02
 1.395E+03, 4.248E+02, 4.800E+02
 1.410E+03, 4.245E+02, 4.800E+02
 1.425E+03, 4.243E+02, 4.780E+02
 1.440E+03, 4.232E+02, 4.694E+02
 1.455E+03, 4.208E+02, 4.604E+02
 1.470E+03, 4.174E+02, 4.514E+02
 1.485E+03, 4.138E+02, 4.423E+02
 1.500E+03, 4.102E+02, 4.333E+02
 1.515E+03, 4.060E+02, 4.242E+02
 1.530E+03, 4.017E+02, 4.152E+02
 1.545E+03, 3.972E+02, 4.061E+02
 1.560E+03, 3.929E+02, 3.971E+02
 1.575E+03, 3.878E+02, 3.881E+02
 1.590E+03, 3.831E+02, 3.790E+02
 1.605E+03, 3.780E+02, 3.700E+02
 1.620E+03, 3.732E+02, 3.610E+02
 1.635E+03, 3.678E+02, 3.519E+02
 1.650E+03, 3.627E+02, 3.429E+02
 1.665E+03, 3.571E+02, 3.338E+02
 1.680E+03, 3.525E+02, 3.248E+02
 1.695E+03, 3.473E+02, 3.158E+02
 1.710E+03, 3.422E+02, 3.067E+02
 1.725E+03, 3.371E+02, 2.997E+02
 1.740E+03, 3.322E+02, 2.992E+02
 1.755E+03, 3.282E+02, 2.992E+02
 1.770E+03, 3.244E+02, 2.992E+02
 1.785E+03, 3.211E+02, 2.992E+02
 1.800E+03, 3.182E+02, 2.992E+02
