s,C,C,C
Time,"Cable Temp","Shroud Temp","Conduit"
 0.000E+00, 3.100E+01, 3.100E+01, 3.100E+01
 1.506E+01, 3.100E+01, 6.851E+01, 3.106E+01
 3.004E+01, 3.100E+01, 1.424E+02, 3.163E+01
 4.501E+01, 3.102E+01, 2.162E+02, 3.323E+01
 6.002E+01, 3.105E+01, 2.902E+02, 3.644E+01
 7.502E+01, 3.116E+01, 3.642E+02, 4.196E+01
 9.000E+01, 3.134E+01, 4.382E+02, 5.069E+01
 1.050E+02, 3.165E+01, 4.750E+02, 6.283E+01
 1.200E+02, 3.212E+01, 4.750E+02, 7.550E+01
 1.350E+02, 3.278E+01, 4.750E+02, 8.799E+01
 1.500E+02, 3.363E+01, 4.750E+02, 1.002E+02
 1.650E+02, 3.466E+01, 4.750E+02, 1.122E+02
 1.800E+02, 3.596E+01, 4.750E+02, 1.240E+02
 1.950E+02, 3.751E+01, 4.750E+02, 1.355E+02
 2.100E+02, 3.910E+01, 4.750E+02, 1.467E+02
 2.250E+02, 4.085E+01, 4.750E+02, 1.577E+02
 2.400E+02, 4.282E+01, 4.750E+02, 1.684E+02
 2.550E+02, 4.505E+01, 4.750E+02, 1.789E+02
 2.700E+02, 4.737E+01, 4.750E+02, 1.890E+02
 2.850E+02, 4.993E+01, 4.750E+02, 1.989E+02
 3.000E+02, 5.280E+01, 4.750E+02, 2.085E+02
 3.150E+02, 5.582E+01, 4.750E+02, 2.178E+02
 3.300E+02, 5.901E+01, 4.750E+02, 2.269E+02
 3.450E+02, 6.239E+01, 4.750E+02, 2.357E+02
 3.600E+02, 6.594E+01, 4.750E+02, 2.442E+02
 3.750E+02, 6.969E+01, 4.750E+02, 2.524E+02
 3.900E+02, 7.363E+01, 4.750E+02, 2.604E+02
 4.050E+02, 7.772E+01, 4.750E+02, 2.682E+02
 4.200E+02, 8.200E+01, 4.750E+02, 2.757E+02
 4.350E+02, 8.650E+01, 4.750E+02, 2.829E+02
 4.500E+02, 9.116E+01, 4.750E+02, 2.899E+02
 4.650E+02, 9.600E+01, 4.750E+02, 2.966E+02
 4.800E+02, 1.010E+02, 4.750E+02, 3.031E+02
 4.950E+02, 1.061E+02, 4.750E+02, 3.092E+02
 5.100E+02, 1.115E+02, 4.750E+02, 3.151E+02
 5.250E+02, 1.169E+02, 4.750E+02, 3.207E+02
 5.400E+02, 1.224E+02, 4.750E+02, 3.261E+02
 5.550E+02, 1.281E+02, 4.750E+02, 3.313E+02
 5.700E+02, 1.338E+02, 4.750E+02, 3.362E+02
 5.850E+02, 1.396E+02, 4.750E+02, 3.410E+02
 6.000E+02, 1.454E+02, 4.750E+02, 3.455E+02
 6.150E+02, 1.513E+02, 4.750E+02, 3.499E+02
 6.300E+02, 1.572E+02, 4.750E+02, 3.540E+02
 6.450E+02, 1.631E+02, 4.750E+02, 3.579E+02
 6.600E+02, 1.691E+02, 4.750E+02, 3.617E+02
 6.750E+02, 1.750E+02, 4.750E+02, 3.653E+02
 6.900E+02, 1.809E+02, 4.750E+02, 3.687E+02
 7.050E+02, 1.868E+02, 4.750E+02, 3.720E+02
 7.200E+02, 1.927E+02, 4.750E+02, 3.751E+02
 7.350E+02, 1.985E+02, 4.750E+02, 3.781E+02
 7.500E+02, 2.043E+02, 4.750E+02, 3.809E+02
 7.650E+02, 2.101E+02, 4.750E+02, 3.836E+02
 7.800E+02, 2.158E+02, 4.750E+02, 3.862E+02
 7.950E+02, 2.215E+02, 4.750E+02, 3.886E+02
 8.100E+02, 2.271E+02, 4.750E+02, 3.909E+02
 8.250E+02, 2.326E+02, 4.750E+02, 3.931E+02
 8.400E+02, 2.380E+02, 4.750E+02, 3.952E+02
 8.550E+02, 2.434E+02, 4.750E+02, 3.972E+02
 8.700E+02, 2.486E+02, 4.750E+02, 3.992E+02
 8.850E+02, 2.538E+02, 4.750E+02, 4.010E+02
 9.000E+02, 2.589E+02, 4.750E+02, 4.027E+02
 9.150E+02, 2.639E+02, 4.750E+02, 4.043E+02
 9.300E+02, 2.687E+02, 4.750E+02, 4.058E+02
 9.450E+02, 2.735E+02, 4.750E+02, 4.073E+02
 9.600E+02, 2.782E+02, 4.750E+02, 4.087E+02
 9.750E+02, 2.827E+02, 4.750E+02, 4.100E+02
 9.900E+02, 2.872E+02, 4.750E+02, 4.113E+02
 1.005E+03, 2.916E+02, 4.750E+02, 4.125E+02
 1.020E+03, 2.959E+02, 4.750E+02, 4.138E+02
 1.035E+03, 3.001E+02, 4.750E+02, 4.149E+02
 1.050E+03, 3.041E+02, 4.750E+02, 4.161E+02
 1.065E+03, 3.081E+02, 4.750E+02, 4.172E+02
 1.080E+03, 3.120E+02, 4.750E+02, 4.182E+02
 1.095E+03, 3.158E+02, 4.750E+02, 4.192E+02
 1.110E+03, 3.195E+02, 4.750E+02, 4.201E+02
 1.125E+03, 3.230E+02, 4.750E+02, 4.210E+02
 1.140E+03, 3.266E+02, 4.750E+02, 4.218E+02
 1.155E+03, 3.300E+02, 4.750E+02, 4.226E+02
 1.170E+03, 3.333E+02, 4.750E+02, 4.234E+02
 1.185E+03, 3.365E+02, 4.750E+02, 4.241E+02
 1.200E+03, 3.395E+02, 4.750E+02, 4.248E+02
 1.215E+03, 3.426E+02, 4.750E+02, 4.255E+02
 1.230E+03, 3.455E+02, 4.750E+02, 4.261E+02
 1.245E+03, 3.484E+02, 4.750E+02, 4.267E+02
 1.260E+03, 3.511E+02, 4.750E+02, 4.274E+02
 1.275E+03, 3.538E+02, 4.750E+02, 4.279E+02
 1.290E+03, 3.564E+02, 4.750E+02, 4.284E+02
 1.305E+03, 3.589E+02, 4.750E+02, 4.289E+02
 1.320E+03, 3.614E+02, 4.750E+02, 4.295E+02
 1.335E+03, 3.638E+02, 4.750E+02, 4.301E+02
 1.350E+03, 3.662E+02, 4.750E+02, 4.307E+02
 1.365E+03, 3.685E+02, 4.750E+02, 4.312E+02
 1.380E+03, 3.708E+02, 4.750E+02, 4.317E+02
 1.395E+03, 3.729E+02, 4.750E+02, 4.320E+02
 1.410E+03, 3.748E+02, 4.750E+02, 4.323E+02
 1.425E+03, 3.768E+02, 4.750E+02, 4.326E+02
 1.440E+03, 3.786E+02, 4.750E+02, 4.331E+02
 1.455E+03, 3.805E+02, 4.750E+02, 4.334E+02
 1.470E+03, 3.823E+02, 4.750E+02, 4.338E+02
 1.485E+03, 3.841E+02, 4.750E+02, 4.341E+02
 1.500E+03, 3.859E+02, 4.750E+02, 4.345E+02
 1.515E+03, 3.877E+02, 4.750E+02, 4.350E+02
 1.530E+03, 3.894E+02, 4.750E+02, 4.353E+02
 1.545E+03, 3.910E+02, 4.750E+02, 4.357E+02
 1.560E+03, 3.926E+02, 4.750E+02, 4.359E+02
 1.575E+03, 3.940E+02, 4.750E+02, 4.361E+02
 1.590E+03, 3.954E+02, 4.750E+02, 4.364E+02
 1.605E+03, 3.967E+02, 4.750E+02, 4.366E+02
 1.620E+03, 3.980E+02, 4.750E+02, 4.368E+02
 1.635E+03, 3.993E+02, 4.750E+02, 4.369E+02
 1.650E+03, 4.005E+02, 4.750E+02, 4.371E+02
 1.665E+03, 4.017E+02, 4.750E+02, 4.373E+02
 1.680E+03, 4.028E+02, 4.750E+02, 4.375E+02
 1.695E+03, 4.039E+02, 4.750E+02, 4.377E+02
 1.710E+03, 4.050E+02, 4.750E+02, 4.381E+02
 1.725E+03, 4.062E+02, 4.750E+02, 4.384E+02
 1.740E+03, 4.074E+02, 4.750E+02, 4.387E+02
 1.755E+03, 4.085E+02, 4.750E+02, 4.389E+02
 1.770E+03, 4.095E+02, 4.750E+02, 4.391E+02
 1.785E+03, 4.105E+02, 4.750E+02, 4.393E+02
 1.800E+03, 4.115E+02, 4.750E+02, 4.394E+02
 1.815E+03, 4.124E+02, 4.750E+02, 4.397E+02
 1.830E+03, 4.133E+02, 4.750E+02, 4.399E+02
 1.845E+03, 4.142E+02, 4.750E+02, 4.401E+02
 1.860E+03, 4.149E+02, 4.750E+02, 4.402E+02
 1.875E+03, 4.156E+02, 4.750E+02, 4.403E+02
 1.890E+03, 4.164E+02, 4.750E+02, 4.405E+02
 1.905E+03, 4.171E+02, 4.750E+02, 4.406E+02
 1.920E+03, 4.178E+02, 4.750E+02, 4.407E+02
 1.935E+03, 4.186E+02, 4.750E+02, 4.409E+02
 1.950E+03, 4.193E+02, 4.750E+02, 4.411E+02
 1.965E+03, 4.200E+02, 4.750E+02, 4.412E+02
 1.980E+03, 4.206E+02, 4.750E+02, 4.413E+02
 1.995E+03, 4.212E+02, 4.750E+02, 4.414E+02
 2.010E+03, 4.217E+02, 4.750E+02, 4.414E+02
 2.025E+03, 4.223E+02, 4.750E+02, 4.415E+02
 2.040E+03, 4.228E+02, 4.750E+02, 4.416E+02
 2.055E+03, 4.234E+02, 4.750E+02, 4.417E+02
 2.070E+03, 4.239E+02, 4.750E+02, 4.417E+02
 2.085E+03, 4.244E+02, 4.750E+02, 4.418E+02
 2.100E+03, 4.249E+02, 4.750E+02, 4.419E+02
 2.115E+03, 4.254E+02, 4.750E+02, 4.421E+02
 2.130E+03, 4.259E+02, 4.750E+02, 4.421E+02
 2.145E+03, 4.262E+02, 4.750E+02, 4.421E+02
 2.160E+03, 4.266E+02, 4.750E+02, 4.423E+02
 2.175E+03, 4.271E+02, 4.750E+02, 4.424E+02
 2.190E+03, 4.275E+02, 4.750E+02, 4.424E+02
 2.205E+03, 4.279E+02, 4.750E+02, 4.425E+02
 2.220E+03, 4.283E+02, 4.750E+02, 4.426E+02
 2.235E+03, 4.287E+02, 4.750E+02, 4.427E+02
 2.250E+03, 4.291E+02, 4.750E+02, 4.429E+02
 2.265E+03, 4.295E+02, 4.750E+02, 4.430E+02
 2.280E+03, 4.299E+02, 4.750E+02, 4.431E+02
 2.295E+03, 4.301E+02, 4.750E+02, 4.431E+02
 2.310E+03, 4.304E+02, 4.750E+02, 4.432E+02
 2.325E+03, 4.307E+02, 4.750E+02, 4.433E+02
 2.340E+03, 4.311E+02, 4.750E+02, 4.435E+02
 2.355E+03, 4.314E+02, 4.750E+02, 4.435E+02
 2.370E+03, 4.317E+02, 4.750E+02, 4.435E+02
 2.385E+03, 4.319E+02, 4.750E+02, 4.436E+02
 2.400E+03, 4.323E+02, 4.750E+02, 4.437E+02
 2.415E+03, 4.326E+02, 4.750E+02, 4.437E+02
 2.430E+03, 4.327E+02, 4.750E+02, 4.436E+02
 2.445E+03, 4.329E+02, 4.750E+02, 4.436E+02
 2.460E+03, 4.331E+02, 4.750E+02, 4.437E+02
 2.475E+03, 4.333E+02, 4.750E+02, 4.438E+02
 2.490E+03, 4.335E+02, 4.750E+02, 4.437E+02
 2.505E+03, 4.337E+02, 4.750E+02, 4.438E+02
 2.520E+03, 4.339E+02, 4.750E+02, 4.437E+02
 2.535E+03, 4.341E+02, 4.750E+02, 4.437E+02
 2.550E+03, 4.343E+02, 4.750E+02, 4.438E+02
 2.565E+03, 4.344E+02, 4.750E+02, 4.438E+02
 2.580E+03, 4.346E+02, 4.750E+02, 4.438E+02
 2.595E+03, 4.346E+02, 4.750E+02, 4.437E+02
 2.610E+03, 4.347E+02, 4.750E+02, 4.437E+02
 2.625E+03, 4.347E+02, 4.750E+02, 4.437E+02
 2.640E+03, 4.348E+02, 4.750E+02, 4.436E+02
 2.655E+03, 4.349E+02, 4.750E+02, 4.436E+02
 2.670E+03, 4.350E+02, 4.750E+02, 4.435E+02
 2.685E+03, 4.350E+02, 4.750E+02, 4.435E+02
 2.700E+03, 4.351E+02, 4.750E+02, 4.435E+02
 2.715E+03, 4.352E+02, 4.750E+02, 4.436E+02
 2.730E+03, 4.354E+02, 4.750E+02, 4.435E+02
 2.745E+03, 4.355E+02, 4.750E+02, 4.435E+02
 2.760E+03, 4.355E+02, 4.750E+02, 4.434E+02
 2.775E+03, 4.355E+02, 4.750E+02, 4.435E+02
 2.790E+03, 4.357E+02, 4.750E+02, 4.436E+02
 2.805E+03, 4.359E+02, 4.750E+02, 4.437E+02
 2.820E+03, 4.360E+02, 4.750E+02, 4.437E+02
 2.835E+03, 4.362E+02, 4.750E+02, 4.437E+02
 2.850E+03, 4.361E+02, 4.750E+02, 4.437E+02
 2.865E+03, 4.362E+02, 4.750E+02, 4.437E+02
 2.880E+03, 4.363E+02, 4.750E+02, 4.437E+02
 2.895E+03, 4.362E+02, 4.750E+02, 4.437E+02
 2.910E+03, 4.363E+02, 4.750E+02, 4.437E+02
 2.925E+03, 4.364E+02, 4.750E+02, 4.437E+02
 2.940E+03, 4.365E+02, 4.750E+02, 4.438E+02
 2.955E+03, 4.365E+02, 4.750E+02, 4.438E+02
 2.970E+03, 4.366E+02, 4.750E+02, 4.439E+02
 2.985E+03, 4.367E+02, 4.715E+02, 4.439E+02
 3.000E+03, 4.368E+02, 4.646E+02, 4.435E+02
 3.015E+03, 4.369E+02, 4.576E+02, 4.427E+02
 3.030E+03, 4.368E+02, 4.507E+02, 4.413E+02
 3.045E+03, 4.366E+02, 4.438E+02, 4.397E+02
 3.060E+03, 4.364E+02, 4.368E+02, 4.379E+02
 3.075E+03, 4.361E+02, 4.299E+02, 4.358E+02
 3.090E+03, 4.356E+02, 4.229E+02, 4.334E+02
 3.105E+03, 4.351E+02, 4.160E+02, 4.308E+02
 3.120E+03, 4.345E+02, 4.091E+02, 4.279E+02
 3.135E+03, 4.337E+02, 4.021E+02, 4.250E+02
 3.150E+03, 4.329E+02, 3.952E+02, 4.221E+02
 3.165E+03, 4.321E+02, 3.883E+02, 4.189E+02
 3.180E+03, 4.311E+02, 3.813E+02, 4.157E+02
 3.195E+03, 4.300E+02, 3.744E+02, 4.123E+02
 3.210E+03, 4.288E+02, 3.675E+02, 4.089E+02
 3.225E+03, 4.276E+02, 3.605E+02, 4.054E+02
 3.240E+03, 4.263E+02, 3.536E+02, 4.019E+02
 3.255E+03, 4.249E+02, 3.466E+02, 3.983E+02
 3.270E+03, 4.234E+02, 3.397E+02, 3.946E+02
 3.285E+03, 4.218E+02, 3.328E+02, 3.909E+02
 3.300E+03, 4.201E+02, 3.258E+02, 3.871E+02
 3.315E+03, 4.184E+02, 3.189E+02, 3.833E+02
 3.330E+03, 4.166E+02, 3.119E+02, 3.795E+02
 3.345E+03, 4.148E+02, 3.050E+02, 3.756E+02
 3.360E+03, 4.129E+02, 2.981E+02, 3.717E+02
 3.375E+03, 4.109E+02, 2.911E+02, 3.678E+02
 3.390E+03, 4.089E+02, 2.842E+02, 3.639E+02
 3.405E+03, 4.068E+02, 2.773E+02, 3.599E+02
 3.420E+03, 4.047E+02, 2.703E+02, 3.560E+02
 3.435E+03, 4.025E+02, 2.634E+02, 3.521E+02
 3.450E+03, 4.003E+02, 2.564E+02, 3.482E+02
 3.465E+03, 3.981E+02, 2.530E+02, 3.443E+02
 3.480E+03, 3.959E+02, 2.530E+02, 3.406E+02
 3.495E+03, 3.935E+02, 2.530E+02, 3.370E+02
 3.510E+03, 3.911E+02, 2.530E+02, 3.335E+02
 3.525E+03, 3.887E+02, 2.530E+02, 3.303E+02
 3.540E+03, 3.864E+02, 2.530E+02, 3.272E+02
 3.555E+03, 3.842E+02, 2.530E+02, 3.243E+02
 3.570E+03, 3.819E+02, 2.530E+02, 3.214E+02
 3.585E+03, 3.796E+02, 2.530E+02, 3.187E+02
 3.600E+03, 3.773E+02, 2.530E+02, 3.160E+02
