s,C,C
Time,"Cable Temp","Shroud Temp"
 0.000E+00, 2.800E+01, 2.800E+01
 1.508E+01, 2.822E+01, 6.237E+01
 3.002E+01, 3.038E+01, 1.301E+02
 4.500E+01, 3.548E+01, 1.977E+02
 6.003E+01, 4.410E+01, 2.655E+02
 7.502E+01, 5.732E+01, 3.333E+02
 9.002E+01, 7.649E+01, 4.011E+02
 1.050E+02, 1.029E+02, 4.651E+02
 1.200E+02, 1.311E+02, 4.800E+02
 1.350E+02, 1.529E+02, 4.800E+02
 1.500E+02, 1.710E+02, 4.800E+02
 1.650E+02, 1.866E+02, 4.800E+02
 1.800E+02, 2.007E+02, 4.800E+02
 1.950E+02, 2.135E+02, 4.800E+02
 2.100E+02, 2.255E+02, 4.800E+02
 2.250E+02, 2.365E+02, 4.800E+02
 2.400E+02, 2.468E+02, 4.800E+02
 2.550E+02, 2.565E+02, 4.800E+02
 2.700E+02, 2.655E+02, 4.800E+02
 2.850E+02, 2.744E+02, 4.800E+02
 3.000E+02, 2.826E+02, 4.800E+02
 3.150E+02, 2.905E+02, 4.800E+02
 3.300E+02, 2.974E+02, 4.800E+02
 3.450E+02, 3.044E+02, 4.800E+02
 3.600E+02, 3.110E+02, 4.800E+02
 3.750E+02, 3.175E+02, 4.800E+02
 3.900E+02, 3.234E+02, 4.800E+02
 4.050E+02, 3.292E+02, 4.800E+02
 4.200E+02, 3.343E+02, 4.800E+02
 4.350E+02, 3.396E+02, 4.800E+02
 4.500E+02, 3.444E+02, 4.800E+02
 4.650E+02, 3.488E+02, 4.800E+02
 4.800E+02, 3.531E+02, 4.800E+02
 4.950E+02, 3.572E+02, 4.800E+02
 5.100E+02, 3.612E+02, 4.800E+02
 5.250E+02, 3.646E+02, 4.800E+02
 5.400E+02, 3.680E+02, 4.800E+02
 5.550E+02, 3.708E+02, 4.800E+02
 5.700E+02, 3.740E+02, 4.800E+02
 5.850E+02, 3.767E+02, 4.800E+02
 6.000E+02, 3.798E+02, 4.800E+02
 6.150E+02, 3.824E+02, 4.800E+02
 6.300E+02, 3.850E+02, 4.800E+02
 6.450E+02, 3.875E+02, 4.800E+02
 6.600E+02, 3.900E+02, 4.800E+02
 6.750E+02, 3.922E+02, 4.800E+02
 6.900E+02, 3.942E+02, 4.800E+02
 7.050E+02, 3.958E+02, 4.800E+02
 7.200E+02, 3.973E+02, 4.800E+02
 7.350E+02, 3.991E+02, 4.800E+02
 7.500E+02, 4.007E+02, 4.800E+02
 7.650E+02, 4.022E+02, 4.800E+02
 7.800E+02, 4.034E+02, 4.800E+02
 7.950E+02, 4.045E+02, 4.800E+02
 8.100E+02, 4.057E+02, 4.800E+02
 8.250E+02, 4.069E+02, 4.800E+02
 8.400E+02, 4.080E+02, 4.800E+02
 8.550E+02, 4.091E+02, 4.800E+02
 8.700E+02, 4.101E+02, 4.800E+02
 8.850E+02, 4.113E+02, 4.800E+02
 9.000E+02, 4.123E+02, 4.800E+02
 9.150E+02, 4.129E+02, 4.800E+02
 9.300E+02, 4.136E+02, 4.800E+02
 9.450E+02, 4.144E+02, 4.800E+02
 9.600E+02, 4.151E+02, 4.800E+02
 9.750E+02, 4.157E+02, 4.800E+02
 9.900E+02, 4.165E+02, 4.800E+02
 1.005E+03, 4.170E+02, 4.800E+02
 1.020E+03, 4.175E+02, 4.800E+02
 1.035E+03, 4.179E+02, 4.800E+02
 1.050E+03, 4.182E+02, 4.800E+02
 1.065E+03, 4.186E+02, 4.800E+02
 1.080E+03, 4.189E+02, 4.800E+02
 1.095E+03, 4.198E+02, 4.800E+02
 1.110E+03, 4.204E+02, 4.800E+02
 1.125E+03, 4.209E+02, 4.800E+02
 1.140E+03, 4.212E+02, 4.800E+02
 1.155E+03, 4.217E+02, 4.800E+02
 1.170E+03, 4.218E+02, 4.800E+02
 1.185E+03, 4.221E+02, 4.800E+02
 1.200E+03, 4.226E+02, 4.800E+02
 1.215E+03, 4.224E+02, 4.800E+02
 1.230E+03, 4.223E+02, 4.800E+02
 1.245E+03, 4.227E+02, 4.800E+02
 1.260E+03, 4.230E+02, 4.800E+02
 1.275E+03, 4.232E+02, 4.800E+02
 1.290E+03, 4.236E+02, 4.800E+02
 1.305E+03, 4.237E+02, 4.800E+02
 1.320E+03, 4.239E+02, 4.800E+02
 1.335E+03, 4.241E+02, 4.800E+02
 1.350E+03, 4.240E+02, 4.800E+02
 1.365E+03, 4.241E+02, 4.800E+02
 1.380E+03, 4.243E+02, 4.800E+02
 1.395E+03, 4.245E+02, 4.800E+02
 1.410E+03, 4.243E+02, 4.800E+02
 1.425E+03, 4.245E+02, 4.780E+02
 1.440E+03, 4.232E+02, 4.694E+02
 1.455E+03, 4.211E+02, 4.604E+02
 1.470E+03, 4.179E+02, 4.514E+02
 1.485E+03, 4.139E+02, 4.423E+02
 1.500E+03, 4.100E+02, 4.333E+02
 1.515E+03, 4.059E+02, 4.242E+02
 1.530E+03, 4.018E+02, 4.152E+02
 1.545E+03, 3.973E+02, 4.062E+02
 1.560E+03, 3.925E+02, 3.971E+02
 1.575E+03, 3.874E+02, 3.881E+02
 1.590E+03, 3.827E+02, 3.790E+02
 1.605E+03, 3.783E+02, 3.700E+02
 1.620E+03, 3.730E+02, 3.610E+02
 1.635E+03, 3.681E+02, 3.519E+02
 1.650E+03, 3.632E+02, 3.429E+02
 1.665E+03, 3.578E+02, 3.338E+02
 1.680E+03, 3.525E+02, 3.248E+02
 1.695E+03, 3.473E+02, 3.157E+02
 1.710E+03, 3.422E+02, 3.067E+02
 1.725E+03, 3.368E+02, 2.997E+02
 1.740E+03, 3.320E+02, 2.992E+02
 1.755E+03, 3.280E+02, 2.992E+02
 1.770E+03, 3.243E+02, 2.992E+02
 1.785E+03, 3.208E+02, 2.992E+02
 1.800E+03, 3.181E+02, 2.992E+02
