s,C,C
Time,"Cable Temp","Shroud Temp"
 0.000E+00, 2.400E+01, 2.400E+01
 1.504E+01, 2.401E+01, 6.154E+01
 3.002E+01, 2.432E+01, 1.354E+02
 4.502E+01, 2.570E+01, 2.084E+02
 6.001E+01, 2.891E+01, 2.787E+02
 7.502E+01, 3.458E+01, 3.147E+02
 9.002E+01, 4.219E+01, 3.256E+02
 1.050E+02, 5.035E+01, 3.223E+02
 1.200E+02, 5.813E+01, 3.179E+02
 1.350E+02, 6.517E+01, 3.134E+02
 1.500E+02, 7.147E+01, 3.090E+02
 1.650E+02, 7.715E+01, 3.054E+02
 1.800E+02, 8.233E+01, 3.050E+02
 1.950E+02, 8.718E+01, 3.050E+02
 2.100E+02, 9.185E+01, 3.050E+02
 2.250E+02, 9.636E+01, 3.050E+02
 2.400E+02, 1.007E+02, 3.050E+02
 2.550E+02, 1.050E+02, 3.050E+02
 2.700E+02, 1.091E+02, 3.050E+02
 2.850E+02, 1.131E+02, 3.050E+02
 3.000E+02, 1.170E+02, 3.050E+02
 3.150E+02, 1.208E+02, 3.050E+02
 3.300E+02, 1.244E+02, 3.050E+02
 3.450E+02, 1.280E+02, 3.050E+02
 3.600E+02, 1.315E+02, 3.050E+02
 3.750E+02, 1.350E+02, 3.050E+02
 3.900E+02, 1.383E+02, 3.050E+02
 4.050E+02, 1.416E+02, 3.050E+02
 4.200E+02, 1.447E+02, 3.050E+02
 4.350E+02, 1.478E+02, 3.050E+02
 4.500E+02, 1.509E+02, 3.050E+02
 4.650E+02, 1.539E+02, 3.050E+02
 4.800E+02, 1.568E+02, 3.050E+02
 4.950E+02, 1.597E+02, 3.050E+02
 5.100E+02, 1.624E+02, 3.050E+02
 5.250E+02, 1.651E+02, 3.050E+02
 5.400E+02, 1.678E+02, 3.050E+02
 5.550E+02, 1.704E+02, 3.050E+02
 5.700E+02, 1.729E+02, 3.050E+02
 5.850E+02, 1.754E+02, 3.050E+02
 6.000E+02, 1.778E+02, 3.050E+02
 6.150E+02, 1.801E+02, 3.050E+02
 6.300E+02, 1.824E+02, 3.050E+02
 6.450E+02, 1.845E+02, 3.050E+02
 6.600E+02, 1.867E+02, 3.050E+02
 6.750E+02, 1.888E+02, 3.050E+02
 6.900E+02, 1.909E+02, 3.050E+02
 7.050E+02, 1.928E+02, 3.050E+02
 7.200E+02, 1.948E+02, 3.050E+02
 7.350E+02, 1.966E+02, 3.050E+02
 7.500E+02, 1.984E+02, 3.050E+02
 7.650E+02, 2.002E+02, 3.050E+02
 7.800E+02, 2.019E+02, 3.050E+02
 7.950E+02, 2.036E+02, 3.050E+02
 8.100E+02, 2.052E+02, 3.050E+02
 8.250E+02, 2.068E+02, 3.050E+02
 8.400E+02, 2.084E+02, 3.050E+02
 8.550E+02, 2.099E+02, 3.050E+02
 8.700E+02, 2.114E+02, 3.050E+02
 8.850E+02, 2.128E+02, 3.050E+02
 9.000E+02, 2.142E+02, 3.050E+02
 9.150E+02, 2.156E+02, 3.050E+02
 9.300E+02, 2.171E+02, 3.050E+02
 9.450E+02, 2.184E+02, 3.050E+02
 9.600E+02, 2.196E+02, 3.050E+02
 9.750E+02, 2.208E+02, 3.050E+02
 9.900E+02, 2.220E+02, 3.050E+02
 1.005E+03, 2.232E+02, 3.050E+02
 1.020E+03, 2.244E+02, 3.050E+02
 1.035E+03, 2.254E+02, 3.050E+02
 1.050E+03, 2.265E+02, 3.050E+02
 1.065E+03, 2.275E+02, 3.050E+02
 1.080E+03, 2.285E+02, 3.050E+02
 1.095E+03, 2.295E+02, 3.024E+02
 1.110E+03, 2.303E+02, 2.979E+02
 1.125E+03, 2.309E+02, 2.933E+02
 1.140E+03, 2.313E+02, 2.888E+02
 1.155E+03, 2.315E+02, 2.843E+02
 1.170E+03, 2.315E+02, 2.797E+02
 1.185E+03, 2.314E+02, 2.752E+02
 1.200E+03, 2.312E+02, 2.706E+02
 1.215E+03, 2.309E+02, 2.661E+02
 1.230E+03, 2.304E+02, 2.616E+02
 1.245E+03, 2.298E+02, 2.570E+02
 1.260E+03, 2.291E+02, 2.525E+02
 1.275E+03, 2.284E+02, 2.479E+02
 1.290E+03, 2.275E+02, 2.434E+02
 1.305E+03, 2.265E+02, 2.389E+02
 1.320E+03, 2.255E+02, 2.343E+02
 1.335E+03, 2.245E+02, 2.298E+02
 1.350E+03, 2.233E+02, 2.252E+02
 1.365E+03, 2.220E+02, 2.207E+02
 1.380E+03, 2.207E+02, 2.162E+02
 1.395E+03, 2.195E+02, 2.116E+02
 1.410E+03, 2.181E+02, 2.075E+02
 1.425E+03, 2.166E+02, 2.067E+02
 1.440E+03, 2.152E+02, 2.067E+02
 1.455E+03, 2.139E+02, 2.066E+02
 1.470E+03, 2.128E+02, 2.066E+02
 1.485E+03, 2.117E+02, 2.066E+02
 1.500E+03, 2.106E+02, 2.066E+02
 1.515E+03, 2.096E+02, 2.066E+02
 1.530E+03, 2.087E+02, 2.066E+02
 1.545E+03, 2.078E+02, 2.067E+02
 1.560E+03, 2.069E+02, 2.067E+02
 1.575E+03, 2.059E+02, 2.066E+02
 1.590E+03, 2.050E+02, 2.067E+02
 1.605E+03, 2.041E+02, 2.066E+02
 1.620E+03, 2.033E+02, 2.066E+02
 1.635E+03, 2.025E+02, 2.067E+02
 1.650E+03, 2.016E+02, 2.067E+02
 1.665E+03, 2.009E+02, 2.067E+02
 1.680E+03, 2.001E+02, 2.066E+02
 1.695E+03, 1.993E+02, 2.067E+02
 1.710E+03, 1.985E+02, 2.067E+02
 1.725E+03, 1.978E+02, 2.067E+02
 1.740E+03, 1.972E+02, 2.066E+02
 1.755E+03, 1.966E+02, 2.067E+02
 1.770E+03, 1.960E+02, 2.067E+02
 1.785E+03, 1.954E+02, 2.067E+02
 1.800E+03, 1.948E+02, 2.067E+02
