s,C,C,C
Time,"Cable Temp","Shroud Temp","Conduit"
 0.000E+00, 3.100E+01, 3.100E+01, 3.100E+01
 1.508E+01, 3.100E+01, 6.658E+01, 3.105E+01
 3.000E+01, 3.100E+01, 1.365E+02, 3.158E+01
 4.504E+01, 3.104E+01, 2.064E+02, 3.306E+01
 6.002E+01, 3.114E+01, 2.766E+02, 3.598E+01
 7.501E+01, 3.133E+01, 3.467E+02, 4.094E+01
 9.003E+01, 3.158E+01, 4.168E+02, 4.873E+01
 1.050E+02, 3.195E+01, 4.712E+02, 6.006E+01
 1.200E+02, 3.257E+01, 4.750E+02, 7.274E+01
 1.350E+02, 3.336E+01, 4.750E+02, 8.518E+01
 1.500E+02, 3.436E+01, 4.750E+02, 9.748E+01
 1.650E+02, 3.558E+01, 4.750E+02, 1.096E+02
 1.800E+02, 3.704E+01, 4.750E+02, 1.214E+02
 1.950E+02, 3.870E+01, 4.750E+02, 1.330E+02
 2.100E+02, 4.046E+01, 4.750E+02, 1.443E+02
 2.250E+02, 4.245E+01, 4.750E+02, 1.553E+02
 2.400E+02, 4.460E+01, 4.750E+02, 1.661E+02
 2.550E+02, 4.699E+01, 4.750E+02, 1.766E+02
 2.700E+02, 4.973E+01, 4.750E+02, 1.869E+02
 2.850E+02, 5.262E+01, 4.750E+02, 1.969E+02
 3.000E+02, 5.584E+01, 4.750E+02, 2.066E+02
 3.150E+02, 5.928E+01, 4.750E+02, 2.160E+02
 3.300E+02, 6.291E+01, 4.750E+02, 2.252E+02
 3.450E+02, 6.679E+01, 4.750E+02, 2.341E+02
 3.600E+02, 7.096E+01, 4.750E+02, 2.426E+02
 3.750E+02, 7.535E+01, 4.750E+02, 2.509E+02
 3.900E+02, 7.988E+01, 4.750E+02, 2.590E+02
 4.050E+02, 8.456E+01, 4.750E+02, 2.669E+02
 4.200E+02, 8.952E+01, 4.750E+02, 2.744E+02
 4.350E+02, 9.472E+01, 4.750E+02, 2.817E+02
 4.500E+02, 1.001E+02, 4.750E+02, 2.888E+02
 4.650E+02, 1.056E+02, 4.750E+02, 2.956E+02
 4.800E+02, 1.113E+02, 4.750E+02, 3.022E+02
 4.950E+02, 1.172E+02, 4.750E+02, 3.084E+02
 5.100E+02, 1.231E+02, 4.750E+02, 3.144E+02
 5.250E+02, 1.292E+02, 4.750E+02, 3.202E+02
 5.400E+02, 1.354E+02, 4.750E+02, 3.258E+02
 5.550E+02, 1.418E+02, 4.750E+02, 3.311E+02
 5.700E+02, 1.482E+02, 4.750E+02, 3.361E+02
 5.850E+02, 1.546E+02, 4.750E+02, 3.410E+02
 6.000E+02, 1.611E+02, 4.750E+02, 3.456E+02
 6.150E+02, 1.676E+02, 4.750E+02, 3.501E+02
 6.300E+02, 1.741E+02, 4.750E+02, 3.543E+02
 6.450E+02, 1.806E+02, 4.750E+02, 3.583E+02
 6.600E+02, 1.872E+02, 4.750E+02, 3.622E+02
 6.750E+02, 1.937E+02, 4.750E+02, 3.659E+02
 6.900E+02, 2.002E+02, 4.750E+02, 3.694E+02
 7.050E+02, 2.067E+02, 4.750E+02, 3.728E+02
 7.200E+02, 2.132E+02, 4.750E+02, 3.759E+02
 7.350E+02, 2.195E+02, 4.750E+02, 3.789E+02
 7.500E+02, 2.258E+02, 4.750E+02, 3.819E+02
 7.650E+02, 2.320E+02, 4.750E+02, 3.846E+02
 7.800E+02, 2.382E+02, 4.750E+02, 3.873E+02
 7.950E+02, 2.442E+02, 4.750E+02, 3.898E+02
 8.100E+02, 2.502E+02, 4.750E+02, 3.922E+02
 8.250E+02, 2.561E+02, 4.750E+02, 3.945E+02
 8.400E+02, 2.618E+02, 4.750E+02, 3.966E+02
 8.550E+02, 2.674E+02, 4.750E+02, 3.987E+02
 8.700E+02, 2.728E+02, 4.750E+02, 4.007E+02
 8.850E+02, 2.781E+02, 4.750E+02, 4.026E+02
 9.000E+02, 2.834E+02, 4.750E+02, 4.044E+02
 9.150E+02, 2.886E+02, 4.750E+02, 4.061E+02
 9.300E+02, 2.936E+02, 4.750E+02, 4.078E+02
 9.450E+02, 2.985E+02, 4.750E+02, 4.095E+02
 9.600E+02, 3.032E+02, 4.750E+02, 4.110E+02
 9.750E+02, 3.079E+02, 4.750E+02, 4.123E+02
 9.900E+02, 3.123E+02, 4.750E+02, 4.136E+02
 1.005E+03, 3.167E+02, 4.750E+02, 4.148E+02
 1.020E+03, 3.208E+02, 4.750E+02, 4.159E+02
 1.035E+03, 3.249E+02, 4.750E+02, 4.171E+02
 1.050E+03, 3.289E+02, 4.750E+02, 4.184E+02
 1.065E+03, 3.328E+02, 4.750E+02, 4.195E+02
 1.080E+03, 3.366E+02, 4.750E+02, 4.205E+02
 1.095E+03, 3.403E+02, 4.750E+02, 4.215E+02
 1.110E+03, 3.438E+02, 4.750E+02, 4.225E+02
 1.125E+03, 3.473E+02, 4.750E+02, 4.234E+02
 1.140E+03, 3.507E+02, 4.750E+02, 4.244E+02
 1.155E+03, 3.539E+02, 4.750E+02, 4.252E+02
 1.170E+03, 3.571E+02, 4.750E+02, 4.260E+02
 1.185E+03, 3.600E+02, 4.750E+02, 4.267E+02
 1.200E+03, 3.628E+02, 4.750E+02, 4.273E+02
 1.215E+03, 3.656E+02, 4.750E+02, 4.280E+02
 1.230E+03, 3.683E+02, 4.750E+02, 4.287E+02
 1.245E+03, 3.710E+02, 4.750E+02, 4.294E+02
 1.260E+03, 3.735E+02, 4.750E+02, 4.300E+02
 1.275E+03, 3.760E+02, 4.750E+02, 4.305E+02
 1.290E+03, 3.782E+02, 4.750E+02, 4.310E+02
 1.305E+03, 3.804E+02, 4.750E+02, 4.315E+02
 1.320E+03, 3.826E+02, 4.750E+02, 4.321E+02
 1.335E+03, 3.848E+02, 4.750E+02, 4.326E+02
 1.350E+03, 3.868E+02, 4.750E+02, 4.330E+02
 1.365E+03, 3.887E+02, 4.750E+02, 4.335E+02
 1.380E+03, 3.906E+02, 4.750E+02, 4.339E+02
 1.395E+03, 3.925E+02, 4.750E+02, 4.344E+02
 1.410E+03, 3.942E+02, 4.750E+02, 4.348E+02
 1.425E+03, 3.959E+02, 4.750E+02, 4.352E+02
 1.440E+03, 3.976E+02, 4.750E+02, 4.356E+02
 1.455E+03, 3.992E+02, 4.750E+02, 4.359E+02
 1.470E+03, 4.007E+02, 4.750E+02, 4.363E+02
 1.485E+03, 4.022E+02, 4.750E+02, 4.366E+02
 1.500E+03, 4.036E+02, 4.750E+02, 4.369E+02
 1.515E+03, 4.050E+02, 4.750E+02, 4.373E+02
 1.530E+03, 4.063E+02, 4.750E+02, 4.375E+02
 1.545E+03, 4.075E+02, 4.750E+02, 4.377E+02
 1.560E+03, 4.086E+02, 4.750E+02, 4.379E+02
 1.575E+03, 4.097E+02, 4.750E+02, 4.381E+02
 1.590E+03, 4.108E+02, 4.750E+02, 4.383E+02
 1.605E+03, 4.118E+02, 4.750E+02, 4.385E+02
 1.620E+03, 4.128E+02, 4.750E+02, 4.387E+02
 1.635E+03, 4.136E+02, 4.750E+02, 4.388E+02
 1.650E+03, 4.146E+02, 4.750E+02, 4.390E+02
 1.665E+03, 4.155E+02, 4.750E+02, 4.391E+02
 1.680E+03, 4.162E+02, 4.750E+02, 4.393E+02
 1.695E+03, 4.170E+02, 4.750E+02, 4.395E+02
 1.710E+03, 4.179E+02, 4.750E+02, 4.397E+02
 1.725E+03, 4.187E+02, 4.750E+02, 4.399E+02
 1.740E+03, 4.194E+02, 4.750E+02, 4.400E+02
 1.755E+03, 4.202E+02, 4.750E+02, 4.401E+02
 1.770E+03, 4.208E+02, 4.750E+02, 4.402E+02
 1.785E+03, 4.214E+02, 4.750E+02, 4.404E+02
 1.800E+03, 4.221E+02, 4.750E+02, 4.404E+02
 1.815E+03, 4.227E+02, 4.750E+02, 4.406E+02
 1.830E+03, 4.232E+02, 4.750E+02, 4.408E+02
 1.845E+03, 4.239E+02, 4.750E+02, 4.410E+02
 1.860E+03, 4.245E+02, 4.750E+02, 4.411E+02
 1.875E+03, 4.251E+02, 4.750E+02, 4.414E+02
 1.890E+03, 4.257E+02, 4.750E+02, 4.416E+02
 1.905E+03, 4.263E+02, 4.750E+02, 4.418E+02
 1.920E+03, 4.268E+02, 4.750E+02, 4.419E+02
 1.935E+03, 4.273E+02, 4.750E+02, 4.420E+02
 1.950E+03, 4.277E+02, 4.750E+02, 4.421E+02
 1.965E+03, 4.282E+02, 4.750E+02, 4.422E+02
 1.980E+03, 4.286E+02, 4.750E+02, 4.422E+02
 1.995E+03, 4.290E+02, 4.750E+02, 4.424E+02
 2.010E+03, 4.293E+02, 4.750E+02, 4.423E+02
 2.025E+03, 4.296E+02, 4.750E+02, 4.423E+02
 2.040E+03, 4.298E+02, 4.750E+02, 4.423E+02
 2.055E+03, 4.301E+02, 4.750E+02, 4.424E+02
 2.070E+03, 4.304E+02, 4.750E+02, 4.425E+02
 2.085E+03, 4.306E+02, 4.750E+02, 4.425E+02
 2.100E+03, 4.309E+02, 4.750E+02, 4.426E+02
 2.115E+03, 4.313E+02, 4.750E+02, 4.427E+02
 2.130E+03, 4.316E+02, 4.750E+02, 4.428E+02
 2.145E+03, 4.321E+02, 4.750E+02, 4.430E+02
 2.160E+03, 4.324E+02, 4.750E+02, 4.430E+02
 2.175E+03, 4.326E+02, 4.750E+02, 4.430E+02
 2.190E+03, 4.328E+02, 4.750E+02, 4.431E+02
 2.205E+03, 4.331E+02, 4.750E+02, 4.431E+02
 2.220E+03, 4.333E+02, 4.750E+02, 4.432E+02
 2.235E+03, 4.336E+02, 4.750E+02, 4.432E+02
 2.250E+03, 4.337E+02, 4.750E+02, 4.432E+02
 2.265E+03, 4.340E+02, 4.750E+02, 4.434E+02
 2.280E+03, 4.342E+02, 4.750E+02, 4.434E+02
 2.295E+03, 4.344E+02, 4.750E+02, 4.434E+02
 2.310E+03, 4.344E+02, 4.750E+02, 4.433E+02
 2.325E+03, 4.345E+02, 4.750E+02, 4.434E+02
 2.340E+03, 4.347E+02, 4.750E+02, 4.434E+02
 2.355E+03, 4.347E+02, 4.750E+02, 4.434E+02
 2.370E+03, 4.349E+02, 4.750E+02, 4.434E+02
 2.385E+03, 4.352E+02, 4.750E+02, 4.435E+02
 2.400E+03, 4.352E+02, 4.750E+02, 4.434E+02
 2.415E+03, 4.351E+02, 4.750E+02, 4.433E+02
 2.430E+03, 4.352E+02, 4.750E+02, 4.433E+02
 2.445E+03, 4.353E+02, 4.750E+02, 4.434E+02
 2.460E+03, 4.354E+02, 4.750E+02, 4.433E+02
 2.475E+03, 4.355E+02, 4.750E+02, 4.434E+02
 2.490E+03, 4.355E+02, 4.750E+02, 4.434E+02
 2.505E+03, 4.357E+02, 4.750E+02, 4.435E+02
 2.520E+03, 4.359E+02, 4.750E+02, 4.435E+02
 2.535E+03, 4.359E+02, 4.750E+02, 4.434E+02
 2.550E+03, 4.360E+02, 4.750E+02, 4.435E+02
 2.565E+03, 4.362E+02, 4.750E+02, 4.437E+02
 2.580E+03, 4.363E+02, 4.750E+02, 4.436E+02
 2.595E+03, 4.362E+02, 4.750E+02, 4.436E+02
 2.610E+03, 4.363E+02, 4.750E+02, 4.437E+02
 2.625E+03, 4.364E+02, 4.750E+02, 4.436E+02
 2.640E+03, 4.366E+02, 4.750E+02, 4.438E+02
 2.655E+03, 4.368E+02, 4.750E+02, 4.439E+02
 2.670E+03, 4.369E+02, 4.750E+02, 4.439E+02
 2.685E+03, 4.370E+02, 4.750E+02, 4.440E+02
 2.700E+03, 4.372E+02, 4.750E+02, 4.441E+02
 2.715E+03, 4.371E+02, 4.750E+02, 4.440E+02
 2.730E+03, 4.372E+02, 4.750E+02, 4.440E+02
 2.745E+03, 4.373E+02, 4.750E+02, 4.440E+02
 2.760E+03, 4.373E+02, 4.750E+02, 4.440E+02
 2.775E+03, 4.373E+02, 4.750E+02, 4.440E+02
 2.790E+03, 4.373E+02, 4.750E+02, 4.440E+02
 2.805E+03, 4.375E+02, 4.750E+02, 4.441E+02
 2.820E+03, 4.375E+02, 4.741E+02, 4.440E+02
 2.835E+03, 4.374E+02, 4.701E+02, 4.439E+02
 2.850E+03, 4.376E+02, 4.659E+02, 4.435E+02
 2.865E+03, 4.377E+02, 4.616E+02, 4.429E+02
 2.880E+03, 4.377E+02, 4.574E+02, 4.421E+02
 2.895E+03, 4.377E+02, 4.532E+02, 4.410E+02
 2.910E+03, 4.374E+02, 4.490E+02, 4.396E+02
 2.925E+03, 4.369E+02, 4.448E+02, 4.381E+02
 2.940E+03, 4.365E+02, 4.406E+02, 4.365E+02
 2.955E+03, 4.360E+02, 4.364E+02, 4.348E+02
 2.970E+03, 4.355E+02, 4.321E+02, 4.330E+02
 2.985E+03, 4.350E+02, 4.279E+02, 4.312E+02
 3.000E+03, 4.345E+02, 4.237E+02, 4.292E+02
 3.015E+03, 4.337E+02, 4.195E+02, 4.269E+02
 3.030E+03, 4.327E+02, 4.153E+02, 4.247E+02
 3.045E+03, 4.317E+02, 4.111E+02, 4.224E+02
 3.060E+03, 4.307E+02, 4.068E+02, 4.200E+02
 3.075E+03, 4.296E+02, 4.026E+02, 4.175E+02
 3.090E+03, 4.284E+02, 3.984E+02, 4.151E+02
 3.105E+03, 4.273E+02, 3.942E+02, 4.127E+02
 3.120E+03, 4.263E+02, 3.900E+02, 4.102E+02
 3.135E+03, 4.251E+02, 3.858E+02, 4.075E+02
 3.150E+03, 4.237E+02, 3.816E+02, 4.049E+02
 3.165E+03, 4.223E+02, 3.773E+02, 4.022E+02
 3.180E+03, 4.209E+02, 3.731E+02, 3.995E+02
 3.195E+03, 4.194E+02, 3.689E+02, 3.968E+02
 3.210E+03, 4.178E+02, 3.647E+02, 3.941E+02
 3.225E+03, 4.161E+02, 3.605E+02, 3.913E+02
 3.240E+03, 4.145E+02, 3.563E+02, 3.885E+02
 3.255E+03, 4.128E+02, 3.520E+02, 3.857E+02
 3.270E+03, 4.112E+02, 3.478E+02, 3.829E+02
 3.285E+03, 4.095E+02, 3.436E+02, 3.801E+02
 3.300E+03, 4.078E+02, 3.394E+02, 3.773E+02
 3.315E+03, 4.060E+02, 3.352E+02, 3.745E+02
 3.330E+03, 4.042E+02, 3.310E+02, 3.717E+02
 3.345E+03, 4.024E+02, 3.268E+02, 3.688E+02
 3.360E+03, 4.006E+02, 3.225E+02, 3.660E+02
 3.375E+03, 3.988E+02, 3.183E+02, 3.631E+02
 3.390E+03, 3.968E+02, 3.141E+02, 3.603E+02
 3.405E+03, 3.949E+02, 3.099E+02, 3.574E+02
 3.420E+03, 3.928E+02, 3.057E+02, 3.544E+02
 3.435E+03, 3.906E+02, 3.015E+02, 3.515E+02
 3.450E+03, 3.886E+02, 2.972E+02, 3.487E+02
 3.465E+03, 3.866E+02, 2.930E+02, 3.459E+02
 3.480E+03, 3.846E+02, 2.888E+02, 3.430E+02
 3.495E+03, 3.826E+02, 2.846E+02, 3.402E+02
 3.510E+03, 3.805E+02, 2.804E+02, 3.373E+02
 3.525E+03, 3.783E+02, 2.762E+02, 3.344E+02
 3.540E+03, 3.760E+02, 2.720E+02, 3.314E+02
 3.555E+03, 3.738E+02, 2.677E+02, 3.285E+02
 3.570E+03, 3.717E+02, 2.635E+02, 3.257E+02
 3.585E+03, 3.695E+02, 2.593E+02, 3.229E+02
 3.600E+03, 3.674E+02, 2.551E+02, 3.200E+02
