s,C,C
Time,"Cable Temp","Shroud Temp"
 0.000E+00, 2.400E+01, 2.400E+01
 1.501E+01, 2.401E+01, 6.145E+01
 3.001E+01, 2.426E+01, 1.356E+02
 4.502E+01, 2.535E+01, 2.100E+02
 6.000E+01, 2.792E+01, 2.843E+02
 7.501E+01, 3.274E+01, 3.586E+02
 9.001E+01, 4.084E+01, 4.329E+02
 1.050E+02, 5.328E+01, 4.700E+02
 1.200E+02, 6.893E+01, 4.700E+02
 1.350E+02, 8.488E+01, 4.700E+02
 1.500E+02, 9.998E+01, 4.700E+02
 1.650E+02, 1.140E+02, 4.700E+02
 1.800E+02, 1.271E+02, 4.700E+02
 1.950E+02, 1.392E+02, 4.700E+02
 2.100E+02, 1.505E+02, 4.700E+02
 2.250E+02, 1.612E+02, 4.700E+02
 2.400E+02, 1.713E+02, 4.700E+02
 2.550E+02, 1.809E+02, 4.700E+02
 2.700E+02, 1.899E+02, 4.700E+02
 2.850E+02, 1.985E+02, 4.700E+02
 3.000E+02, 2.066E+02, 4.700E+02
 3.150E+02, 2.143E+02, 4.700E+02
 3.300E+02, 2.218E+02, 4.700E+02
 3.450E+02, 2.290E+02, 4.700E+02
 3.600E+02, 2.359E+02, 4.700E+02
 3.750E+02, 2.426E+02, 4.700E+02
 3.900E+02, 2.490E+02, 4.700E+02
 4.050E+02, 2.551E+02, 4.700E+02
 4.200E+02, 2.611E+02, 4.700E+02
 4.350E+02, 2.668E+02, 4.700E+02
 4.500E+02, 2.724E+02, 4.700E+02
 4.650E+02, 2.777E+02, 4.700E+02
 4.800E+02, 2.827E+02, 4.700E+02
 4.950E+02, 2.876E+02, 4.700E+02
 5.100E+02, 2.923E+02, 4.700E+02
 5.250E+02, 2.969E+02, 4.700E+02
 5.400E+02, 3.014E+02, 4.700E+02
 5.550E+02, 3.057E+02, 4.700E+02
 5.700E+02, 3.098E+02, 4.700E+02
 5.850E+02, 3.138E+02, 4.700E+02
 6.000E+02, 3.177E+02, 4.700E+02
 6.150E+02, 3.215E+02, 4.700E+02
 6.300E+02, 3.250E+02, 4.700E+02
 6.450E+02, 3.284E+02, 4.700E+02
 6.600E+02, 3.318E+02, 4.700E+02
 6.750E+02, 3.351E+02, 4.700E+02
 6.900E+02, 3.382E+02, 4.700E+02
 7.050E+02, 3.413E+02, 4.700E+02
 7.200E+02, 3.442E+02, 4.700E+02
 7.350E+02, 3.468E+02, 4.700E+02
 7.500E+02, 3.495E+02, 4.700E+02
 7.650E+02, 3.521E+02, 4.700E+02
 7.800E+02, 3.546E+02, 4.700E+02
 7.950E+02, 3.569E+02, 4.700E+02
 8.100E+02, 3.592E+02, 4.700E+02
 8.250E+02, 3.612E+02, 4.700E+02
 8.400E+02, 3.632E+02, 4.700E+02
 8.550E+02, 3.654E+02, 4.700E+02
 8.700E+02, 3.675E+02, 4.700E+02
 8.850E+02, 3.695E+02, 4.700E+02
 9.000E+02, 3.714E+02, 4.700E+02
 9.150E+02, 3.732E+02, 4.700E+02
 9.300E+02, 3.750E+02, 4.700E+02
 9.450E+02, 3.766E+02, 4.700E+02
 9.600E+02, 3.782E+02, 4.700E+02
 9.750E+02, 3.798E+02, 4.700E+02
 9.900E+02, 3.813E+02, 4.700E+02
 1.005E+03, 3.827E+02, 4.700E+02
 1.020E+03, 3.842E+02, 4.700E+02
 1.035E+03, 3.855E+02, 4.700E+02
 1.050E+03, 3.866E+02, 4.700E+02
 1.065E+03, 3.878E+02, 4.700E+02
 1.080E+03, 3.888E+02, 4.700E+02
 1.095E+03, 3.898E+02, 4.700E+02
 1.110E+03, 3.909E+02, 4.700E+02
 1.125E+03, 3.920E+02, 4.700E+02
 1.140E+03, 3.932E+02, 4.700E+02
 1.155E+03, 3.943E+02, 4.700E+02
 1.170E+03, 3.953E+02, 4.700E+02
 1.185E+03, 3.962E+02, 4.700E+02
 1.200E+03, 3.970E+02, 4.700E+02
 1.215E+03, 3.979E+02, 4.700E+02
 1.230E+03, 3.987E+02, 4.700E+02
 1.245E+03, 3.994E+02, 4.700E+02
 1.260E+03, 4.002E+02, 4.700E+02
 1.275E+03, 4.009E+02, 4.700E+02
 1.290E+03, 4.016E+02, 4.700E+02
 1.305E+03, 4.023E+02, 4.700E+02
 1.320E+03, 4.029E+02, 4.700E+02
 1.335E+03, 4.034E+02, 4.700E+02
 1.350E+03, 4.039E+02, 4.700E+02
 1.365E+03, 4.043E+02, 4.700E+02
 1.380E+03, 4.048E+02, 4.700E+02
 1.395E+03, 4.053E+02, 4.700E+02
 1.410E+03, 4.057E+02, 4.700E+02
 1.425E+03, 4.063E+02, 4.700E+02
 1.440E+03, 4.068E+02, 4.700E+02
 1.455E+03, 4.073E+02, 4.700E+02
 1.470E+03, 4.077E+02, 4.700E+02
 1.485E+03, 4.082E+02, 4.700E+02
 1.500E+03, 4.086E+02, 4.700E+02
 1.515E+03, 4.088E+02, 4.700E+02
 1.530E+03, 4.092E+02, 4.700E+02
 1.545E+03, 4.096E+02, 4.700E+02
 1.560E+03, 4.099E+02, 4.700E+02
 1.575E+03, 4.101E+02, 4.700E+02
 1.590E+03, 4.103E+02, 4.700E+02
 1.605E+03, 4.105E+02, 4.700E+02
 1.620E+03, 4.107E+02, 4.700E+02
 1.635E+03, 4.109E+02, 4.700E+02
 1.650E+03, 4.112E+02, 4.700E+02
 1.665E+03, 4.116E+02, 4.700E+02
 1.680E+03, 4.120E+02, 4.700E+02
 1.695E+03, 4.124E+02, 4.700E+02
 1.710E+03, 4.126E+02, 4.700E+02
 1.725E+03, 4.128E+02, 4.700E+02
 1.740E+03, 4.129E+02, 4.700E+02
 1.755E+03, 4.132E+02, 4.700E+02
 1.770E+03, 4.133E+02, 4.700E+02
 1.785E+03, 4.134E+02, 4.700E+02
 1.800E+03, 4.136E+02, 4.700E+02
