s,C,C
Time,"Cable Temp","Shroud Temp"
 0.000E+00, 2.400E+01, 2.400E+01
 1.500E+01, 2.401E+01, 6.143E+01
 3.001E+01, 2.427E+01, 1.356E+02
 4.502E+01, 2.538E+01, 2.100E+02
 6.000E+01, 2.799E+01, 2.843E+02
 7.501E+01, 3.285E+01, 3.586E+02
 9.000E+01, 4.096E+01, 4.329E+02
 1.050E+02, 5.336E+01, 4.700E+02
 1.200E+02, 6.896E+01, 4.700E+02
 1.350E+02, 8.487E+01, 4.700E+02
 1.500E+02, 9.992E+01, 4.700E+02
 1.650E+02, 1.139E+02, 4.700E+02
 1.800E+02, 1.269E+02, 4.700E+02
 1.950E+02, 1.390E+02, 4.700E+02
 2.100E+02, 1.501E+02, 4.700E+02
 2.250E+02, 1.606E+02, 4.700E+02
 2.400E+02, 1.705E+02, 4.700E+02
 2.550E+02, 1.799E+02, 4.700E+02
 2.700E+02, 1.887E+02, 4.700E+02
 2.850E+02, 1.971E+02, 4.700E+02
 3.000E+02, 2.051E+02, 4.700E+02
 3.150E+02, 2.127E+02, 4.700E+02
 3.300E+02, 2.200E+02, 4.700E+02
 3.450E+02, 2.271E+02, 4.700E+02
 3.600E+02, 2.338E+02, 4.700E+02
 3.750E+02, 2.403E+02, 4.700E+02
 3.900E+02, 2.465E+02, 4.700E+02
 4.050E+02, 2.525E+02, 4.700E+02
 4.200E+02, 2.583E+02, 4.700E+02
 4.350E+02, 2.637E+02, 4.700E+02
 4.500E+02, 2.690E+02, 4.700E+02
 4.650E+02, 2.742E+02, 4.700E+02
 4.800E+02, 2.791E+02, 4.700E+02
 4.950E+02, 2.840E+02, 4.700E+02
 5.100E+02, 2.886E+02, 4.700E+02
 5.250E+02, 2.930E+02, 4.700E+02
 5.400E+02, 2.973E+02, 4.700E+02
 5.550E+02, 3.015E+02, 4.700E+02
 5.700E+02, 3.055E+02, 4.700E+02
 5.850E+02, 3.093E+02, 4.700E+02
 6.000E+02, 3.130E+02, 4.700E+02
 6.150E+02, 3.166E+02, 4.700E+02
 6.300E+02, 3.200E+02, 4.700E+02
 6.450E+02, 3.234E+02, 4.700E+02
 6.600E+02, 3.266E+02, 4.700E+02
 6.750E+02, 3.297E+02, 4.700E+02
 6.900E+02, 3.326E+02, 4.700E+02
 7.050E+02, 3.354E+02, 4.700E+02
 7.200E+02, 3.382E+02, 4.700E+02
 7.350E+02, 3.409E+02, 4.700E+02
 7.500E+02, 3.435E+02, 4.700E+02
 7.650E+02, 3.459E+02, 4.700E+02
 7.800E+02, 3.481E+02, 4.700E+02
 7.950E+02, 3.503E+02, 4.700E+02
 8.100E+02, 3.525E+02, 4.700E+02
 8.250E+02, 3.547E+02, 4.700E+02
 8.400E+02, 3.567E+02, 4.700E+02
 8.550E+02, 3.587E+02, 4.700E+02
 8.700E+02, 3.605E+02, 4.700E+02
 8.850E+02, 3.623E+02, 4.700E+02
 9.000E+02, 3.640E+02, 4.700E+02
 9.150E+02, 3.657E+02, 4.700E+02
 9.300E+02, 3.674E+02, 4.700E+02
 9.450E+02, 3.689E+02, 4.700E+02
 9.600E+02, 3.704E+02, 4.700E+02
 9.750E+02, 3.719E+02, 4.700E+02
 9.900E+02, 3.732E+02, 4.700E+02
 1.005E+03, 3.745E+02, 4.700E+02
 1.020E+03, 3.759E+02, 4.700E+02
 1.035E+03, 3.772E+02, 4.700E+02
 1.050E+03, 3.784E+02, 4.700E+02
 1.065E+03, 3.796E+02, 4.700E+02
 1.080E+03, 3.807E+02, 4.700E+02
 1.095E+03, 3.817E+02, 4.700E+02
 1.110E+03, 3.827E+02, 4.700E+02
 1.125E+03, 3.837E+02, 4.700E+02
 1.140E+03, 3.847E+02, 4.700E+02
 1.155E+03, 3.856E+02, 4.700E+02
 1.170E+03, 3.864E+02, 4.700E+02
 1.185E+03, 3.872E+02, 4.700E+02
 1.200E+03, 3.881E+02, 4.700E+02
 1.215E+03, 3.889E+02, 4.700E+02
 1.230E+03, 3.896E+02, 4.700E+02
 1.245E+03, 3.903E+02, 4.700E+02
 1.260E+03, 3.910E+02, 4.700E+02
 1.275E+03, 3.917E+02, 4.700E+02
 1.290E+03, 3.924E+02, 4.700E+02
 1.305E+03, 3.930E+02, 4.700E+02
 1.320E+03, 3.937E+02, 4.700E+02
 1.335E+03, 3.943E+02, 4.700E+02
 1.350E+03, 3.948E+02, 4.700E+02
 1.365E+03, 3.954E+02, 4.700E+02
 1.380E+03, 3.959E+02, 4.700E+02
 1.395E+03, 3.965E+02, 4.700E+02
 1.410E+03, 3.971E+02, 4.700E+02
 1.425E+03, 3.976E+02, 4.700E+02
 1.440E+03, 3.982E+02, 4.700E+02
 1.455E+03, 3.986E+02, 4.700E+02
 1.470E+03, 3.990E+02, 4.700E+02
 1.485E+03, 3.994E+02, 4.700E+02
 1.500E+03, 3.998E+02, 4.700E+02
 1.515E+03, 4.001E+02, 4.700E+02
 1.530E+03, 4.004E+02, 4.700E+02
 1.545E+03, 4.007E+02, 4.700E+02
 1.560E+03, 4.009E+02, 4.700E+02
 1.575E+03, 4.012E+02, 4.700E+02
 1.590E+03, 4.015E+02, 4.700E+02
 1.605E+03, 4.018E+02, 4.700E+02
 1.620E+03, 4.021E+02, 4.700E+02
 1.635E+03, 4.023E+02, 4.700E+02
 1.650E+03, 4.026E+02, 4.700E+02
 1.665E+03, 4.028E+02, 4.700E+02
 1.680E+03, 4.031E+02, 4.700E+02
 1.695E+03, 4.032E+02, 4.700E+02
 1.710E+03, 4.033E+02, 4.700E+02
 1.725E+03, 4.036E+02, 4.700E+02
 1.740E+03, 4.038E+02, 4.700E+02
 1.755E+03, 4.039E+02, 4.700E+02
 1.770E+03, 4.042E+02, 4.700E+02
 1.785E+03, 4.044E+02, 4.700E+02
 1.800E+03, 4.046E+02, 4.700E+02
