s,kW,C,kg/s,m,kW/m2
Time,"HRR","temp","MLR","thick","flux"
 0.000E+000, 0.000E+000, 2.000E+001, 0.000E+000, 1.900E-002,-4.813E-011
 2.012E+000, 0.000E+000, 3.628E+001, 7.224E-022, 1.900E-002, 3.502E+001
 4.003E+000, 0.000E+000, 5.873E+001, 7.433E-020, 1.900E-002, 3.510E+001
 6.012E+000, 0.000E+000, 7.501E+001, 2.084E-018, 1.900E-002, 3.519E+001
 8.021E+000, 0.000E+000, 8.847E+001, 2.798E-017, 1.900E-002, 3.523E+001
 1.001E+001, 0.000E+000, 1.001E+002, 2.341E-016, 1.900E-002, 3.526E+001
 1.200E+001, 0.000E+000, 1.103E+002, 1.407E-015, 1.900E-002, 3.527E+001
 1.402E+001, 0.000E+000, 1.197E+002, 6.770E-015, 1.900E-002, 3.528E+001
 1.601E+001, 0.000E+000, 1.284E+002, 2.693E-014, 1.900E-002, 3.530E+001
 1.801E+001, 0.000E+000, 1.365E+002, 9.255E-014, 1.900E-002, 3.533E+001
 2.001E+001, 0.000E+000, 1.440E+002, 2.828E-013, 1.900E-002, 3.535E+001
 2.201E+001, 9.864E-011, 1.512E+002, 7.860E-013, 1.900E-002, 3.541E+001
 2.400E+001, 1.132E-008, 1.581E+002, 2.010E-012, 1.900E-002, 3.549E+001
 2.601E+001, 5.630E-008, 1.645E+002, 4.803E-012, 1.900E-002, 3.543E+001
 2.801E+001, 1.689E-007, 1.708E+002, 1.087E-011, 1.900E-002, 3.547E+001
 3.000E+001, 4.049E-007, 1.768E+002, 2.339E-011, 1.900E-002, 3.551E+001
 3.201E+001, 8.705E-007, 1.829E+002, 4.827E-011, 1.900E-002, 3.564E+001
 3.401E+001, 1.774E-006, 1.886E+002, 9.595E-011, 1.900E-002, 3.557E+001
 3.600E+001, 3.454E-006, 1.941E+002, 1.841E-010, 1.900E-002, 3.559E+001
 3.800E+001, 6.509E-006, 1.996E+002, 3.433E-010, 1.900E-002, 3.571E+001
 4.001E+001, 1.190E-005, 2.049E+002, 6.241E-010, 1.900E-002, 3.564E+001
 4.201E+001, 2.123E-005, 2.101E+002, 1.109E-009, 1.900E-002, 3.570E+001
 4.401E+001, 3.691E-005, 2.152E+002, 1.924E-009, 1.900E-002, 3.567E+001
 4.601E+001, 6.286E-005, 2.204E+002, 3.273E-009, 1.900E-002, 3.582E+001
 4.801E+001, 1.053E-004, 2.253E+002, 5.471E-009, 1.900E-002, 3.577E+001
 5.000E+001, 1.728E-004, 2.302E+002, 8.986E-009, 1.900E-002, 3.581E+001
 5.201E+001, 2.802E-004, 2.350E+002, 1.454E-008, 1.900E-002, 3.582E+001
 5.400E+001, 4.467E-004, 2.399E+002, 2.318E-008, 1.900E-002, 3.591E+001
 5.601E+001, 7.021E-004, 2.445E+002, 3.642E-008, 1.900E-002, 3.581E+001
 5.801E+001, 1.090E-003, 2.491E+002, 5.651E-008, 1.900E-002, 3.585E+001
 6.000E+001, 1.669E-003, 2.535E+002, 8.652E-008, 1.900E-002, 3.582E+001
 6.200E+001, 2.525E-003, 2.583E+002, 1.308E-007, 1.900E-002, 3.601E+001
 6.401E+001, 3.783E-003, 2.626E+002, 1.959E-007, 1.900E-002, 3.589E+001
 6.601E+001, 5.604E-003, 2.671E+002, 2.902E-007, 1.900E-002, 3.593E+001
 6.800E+001, 8.209E-003, 2.711E+002, 4.251E-007, 1.900E-002, 3.581E+001
 7.001E+001, 1.192E-002, 2.752E+002, 6.162E-007, 1.900E-002, 3.588E+001
 7.201E+001, 1.711E-002, 2.797E+002, 8.856E-007, 1.900E-002, 3.598E+001
 7.400E+001, 2.437E-002, 2.838E+002, 1.260E-006, 1.900E-002, 3.592E+001
 7.601E+001, 3.440E-002, 2.878E+002, 1.777E-006, 1.900E-002, 3.589E+001
 7.800E+001, 4.809E-002, 2.919E+002, 2.486E-006, 1.900E-002, 3.601E+001
 8.000E+001, 6.672E-002, 2.963E+002, 3.449E-006, 1.900E-002, 3.609E+001
 8.201E+001, 9.195E-002, 3.003E+002, 4.752E-006, 1.900E-002, 3.609E+001
 8.401E+001, 1.258E-001, 3.044E+002, 6.499E-006, 1.900E-002, 3.616E+001
 8.601E+001, 1.709E-001, 3.081E+002, 8.821E-006, 1.900E-002, 3.603E+001
 8.800E+001, 2.303E-001, 3.120E+002, 1.189E-005, 1.900E-002, 3.619E+001
 9.001E+001, 3.087E-001, 3.158E+002, 1.592E-005, 1.900E-002, 3.615E+001
 9.200E+001, 4.110E-001, 3.196E+002, 2.122E-005, 1.900E-002, 3.613E+001
 9.401E+001, 5.442E-001, 3.236E+002, 2.810E-005, 1.900E-002, 3.640E+001
 9.600E+001, 7.185E-001, 3.273E+002, 3.700E-005, 1.900E-002, 3.634E+001
 9.800E+001, 9.406E-001, 3.312E+002, 4.846E-005, 1.900E-002, 3.652E+001
 1.000E+002, 1.226E+000, 3.351E+002, 6.323E-005, 1.900E-002, 3.692E+001
 1.020E+002, 1.592E+000, 3.387E+002, 8.214E-005, 1.900E-002, 3.671E+001
 1.040E+002, 2.062E+000, 3.424E+002, 1.063E-004, 1.900E-002, 3.678E+001
 1.060E+002, 2.666E+000, 3.465E+002, 1.374E-004, 1.900E-002, 3.766E+001
 1.080E+002, 3.437E+000, 3.515E+002, 1.771E-004, 1.900E-002, 3.867E+001
 1.100E+002, 4.421E+000, 3.561E+002, 2.280E-004, 1.900E-002, 3.896E+001
 1.120E+002, 5.690E+000, 3.613E+002, 2.932E-004, 1.900E-002, 4.062E+001
 1.140E+002, 7.348E+000, 3.674E+002, 3.785E-004, 1.900E-002, 4.262E+001
 1.160E+002, 9.513E+000, 3.747E+002, 4.902E-004, 1.900E-002, 4.521E+001
 1.180E+002, 1.238E+001, 3.811E+002, 6.376E-004, 1.900E-002, 4.621E+001
 1.200E+002, 1.641E+001, 3.900E+002, 8.462E-004, 1.900E-002, 5.094E+001
 1.220E+002, 2.239E+001, 4.024E+002, 1.156E-003, 1.900E-002, 5.969E+001
 1.240E+002, 3.183E+001, 4.142E+002, 1.652E-003, 1.900E-002, 6.122E+001
 1.260E+002, 4.651E+001, 4.246E+002, 2.424E-003, 1.900E-002, 6.513E+001
 1.280E+002, 6.837E+001, 4.327E+002, 3.564E-003, 1.900E-002, 6.531E+001
 1.300E+002, 9.839E+001, 4.378E+002, 5.179E-003, 1.900E-002, 6.494E+001
 1.320E+002, 1.401E+002, 4.428E+002, 7.329E-003, 1.900E-002, 6.432E+001
 1.340E+002, 1.902E+002, 4.457E+002, 1.001E-002, 1.900E-002, 6.281E+001
 1.360E+002, 2.513E+002, 4.499E+002, 1.323E-002, 1.900E-002, 6.240E+001
 1.380E+002, 3.265E+002, 4.565E+002, 1.693E-002, 1.900E-002, 6.398E+001
 1.400E+002, 3.970E+002, 4.632E+002, 2.109E-002, 1.900E-002, 6.367E+001
 1.420E+002, 4.711E+002, 4.704E+002, 2.484E-002, 1.900E-002, 6.148E+001
 1.440E+002, 5.487E+002, 4.839E+002, 2.837E-002, 1.900E-002, 6.339E+001
 1.460E+002, 6.076E+002, 5.048E+002, 3.130E-002, 1.900E-002, 6.520E+001
 1.480E+002, 6.358E+002, 5.237E+002, 3.284E-002, 1.900E-002, 6.574E+001
 1.500E+002, 6.570E+002, 5.277E+002, 3.391E-002, 1.900E-002, 6.367E+001
 1.520E+002, 6.686E+002, 5.324E+002, 3.461E-002, 1.900E-002, 6.393E+001
 1.540E+002, 6.856E+002, 5.400E+002, 3.532E-002, 1.900E-002, 6.448E+001
 1.560E+002, 6.808E+002, 5.482E+002, 3.510E-002, 1.900E-002, 6.453E+001
 1.580E+002, 6.885E+002, 5.535E+002, 3.547E-002, 1.900E-002, 6.294E+001
 1.600E+002, 6.828E+002, 5.635E+002, 3.484E-002, 1.900E-002, 6.376E+001
 1.620E+002, 6.579E+002, 5.757E+002, 3.354E-002, 1.900E-002, 6.450E+001
 1.640E+002, 6.249E+002, 5.836E+002, 3.188E-002, 1.901E-002, 6.567E+001
 1.660E+002, 6.074E+002, 5.864E+002, 3.100E-002, 1.901E-002, 6.474E+001
 1.680E+002, 5.981E+002, 5.891E+002, 3.086E-002, 1.901E-002, 6.517E+001
 1.700E+002, 6.165E+002, 5.977E+002, 3.178E-002, 1.901E-002, 6.744E+001
 1.720E+002, 6.276E+002, 5.993E+002, 3.245E-002, 1.901E-002, 6.503E+001
 1.740E+002, 6.201E+002, 6.017E+002, 3.231E-002, 1.901E-002, 6.551E+001
 1.760E+002, 6.246E+002, 6.035E+002, 3.171E-002, 1.901E-002, 6.448E+001
 1.780E+002, 6.031E+002, 6.099E+002, 3.063E-002, 1.901E-002, 6.574E+001
 1.800E+002, 5.780E+002, 6.186E+002, 2.952E-002, 1.901E-002, 6.685E+001
 1.820E+002, 5.638E+002, 6.182E+002, 2.903E-002, 1.901E-002, 6.479E+001
 1.840E+002, 5.653E+002, 6.230E+002, 2.902E-002, 1.901E-002, 6.618E+001
 1.860E+002, 5.614E+002, 6.219E+002, 2.924E-002, 1.901E-002, 6.448E+001
 1.880E+002, 5.771E+002, 6.304E+002, 2.946E-002, 1.901E-002, 6.870E+001
 1.900E+002, 5.807E+002, 6.365E+002, 2.970E-002, 1.901E-002, 6.782E+001
 1.920E+002, 5.703E+002, 6.333E+002, 2.939E-002, 1.901E-002, 6.634E+001
 1.940E+002, 5.666E+002, 6.301E+002, 2.889E-002, 1.901E-002, 6.433E+001
 1.960E+002, 5.490E+002, 6.328E+002, 2.816E-002, 1.901E-002, 6.516E+001
 1.980E+002, 5.364E+002, 6.373E+002, 2.726E-002, 1.901E-002, 6.658E+001
 2.000E+002, 5.182E+002, 6.417E+002, 2.658E-002, 1.901E-002, 6.585E+001
 2.020E+002, 5.098E+002, 6.399E+002, 2.618E-002, 1.901E-002, 6.456E+001
 2.040E+002, 5.042E+002, 6.417E+002, 2.596E-002, 1.901E-002, 6.554E+001
 2.060E+002, 5.073E+002, 6.413E+002, 2.588E-002, 1.901E-002, 6.428E+001
 2.080E+002, 5.003E+002, 6.416E+002, 2.566E-002, 1.901E-002, 6.432E+001
 2.100E+002, 4.891E+002, 6.463E+002, 2.535E-002, 1.901E-002, 6.557E+001
 2.120E+002, 4.880E+002, 6.494E+002, 2.492E-002, 1.901E-002, 6.622E+001
 2.140E+002, 4.784E+002, 6.469E+002, 2.434E-002, 1.901E-002, 6.456E+001
 2.160E+002, 4.617E+002, 6.476E+002, 2.375E-002, 1.901E-002, 6.423E+001
 2.180E+002, 4.571E+002, 6.477E+002, 2.324E-002, 1.901E-002, 6.427E+001
 2.200E+002, 4.425E+002, 6.543E+002, 2.280E-002, 1.901E-002, 6.645E+001
 2.220E+002, 4.376E+002, 6.537E+002, 2.248E-002, 1.901E-002, 6.491E+001
 2.240E+002, 4.362E+002, 6.559E+002, 2.219E-002, 1.902E-002, 6.581E+001
 2.260E+002, 4.278E+002, 6.619E+002, 2.187E-002, 1.902E-002, 6.755E+001
 2.280E+002, 4.183E+002, 6.602E+002, 2.153E-002, 1.902E-002, 6.538E+001
 2.300E+002, 4.183E+002, 6.567E+002, 2.117E-002, 1.902E-002, 6.487E+001
 2.320E+002, 4.028E+002, 6.572E+002, 2.076E-002, 1.902E-002, 6.440E+001
 2.340E+002, 3.970E+002, 6.625E+002, 2.032E-002, 1.902E-002, 6.647E+001
 2.360E+002, 3.860E+002, 6.620E+002, 1.989E-002, 1.902E-002, 6.541E+001
 2.380E+002, 3.807E+002, 6.667E+002, 1.948E-002, 1.902E-002, 6.693E+001
 2.400E+002, 3.752E+002, 6.646E+002, 1.912E-002, 1.902E-002, 6.541E+001
 2.420E+002, 3.666E+002, 6.615E+002, 1.881E-002, 1.902E-002, 6.396E+001
 2.440E+002, 3.610E+002, 6.633E+002, 1.856E-002, 1.902E-002, 6.508E+001
 2.460E+002, 3.599E+002, 6.661E+002, 1.830E-002, 1.902E-002, 6.594E+001
 2.480E+002, 3.517E+002, 6.643E+002, 1.805E-002, 1.902E-002, 6.425E+001
 2.500E+002, 3.455E+002, 6.689E+002, 1.776E-002, 1.902E-002, 6.646E+001
 2.520E+002, 3.410E+002, 6.715E+002, 1.744E-002, 1.902E-002, 6.629E+001
 2.540E+002, 3.344E+002, 6.671E+002, 1.711E-002, 1.902E-002, 6.411E+001
 2.560E+002, 3.303E+002, 6.665E+002, 1.676E-002, 1.902E-002, 6.445E+001
 2.580E+002, 3.206E+002, 6.699E+002, 1.640E-002, 1.902E-002, 6.565E+001
 2.600E+002, 3.117E+002, 6.704E+002, 1.606E-002, 1.902E-002, 6.495E+001
 2.620E+002, 3.094E+002, 6.739E+002, 1.575E-002, 1.902E-002, 6.672E+001
 2.640E+002, 2.988E+002, 6.749E+002, 1.547E-002, 1.902E-002, 6.622E+001
 2.660E+002, 3.006E+002, 6.746E+002, 1.522E-002, 1.902E-002, 6.633E+001
 2.680E+002, 2.886E+002, 6.788E+002, 1.496E-002, 1.902E-002, 6.660E+001
 2.700E+002, 2.893E+002, 6.766E+002, 1.472E-002, 1.902E-002, 6.604E+001
 2.720E+002, 2.808E+002, 6.819E+002, 1.444E-002, 1.902E-002, 6.771E+001
 2.740E+002, 2.779E+002, 6.746E+002, 1.418E-002, 1.902E-002, 6.406E+001
 2.760E+002, 2.707E+002, 6.719E+002, 1.388E-002, 1.902E-002, 6.346E+001
 2.780E+002, 2.646E+002, 6.747E+002, 1.356E-002, 1.902E-002, 6.527E+001
 2.800E+002, 2.594E+002, 6.823E+002, 1.326E-002, 1.902E-002, 6.789E+001
 2.820E+002, 2.550E+002, 6.865E+002, 1.297E-002, 1.902E-002, 6.936E+001
 2.840E+002, 2.492E+002, 6.988E+002, 1.271E-002, 1.902E-002, 7.242E+001
 2.860E+002, 2.411E+002, 6.910E+002, 1.244E-002, 1.902E-002, 6.725E+001
 2.880E+002, 2.378E+002, 6.823E+002, 1.216E-002, 1.902E-002, 6.452E+001
 2.900E+002, 2.317E+002, 6.819E+002, 1.187E-002, 1.902E-002, 6.578E+001
 2.920E+002, 2.260E+002, 6.845E+002, 1.156E-002, 1.902E-002, 6.731E+001
 2.940E+002, 2.205E+002, 6.908E+002, 1.125E-002, 1.903E-002, 6.841E+001
 2.960E+002, 2.119E+002, 6.909E+002, 1.095E-002, 1.903E-002, 6.798E+001
 2.980E+002, 2.094E+002, 6.864E+002, 1.063E-002, 1.903E-002, 6.607E+001
 3.000E+002, 2.019E+002, 6.974E+002, 1.030E-002, 1.903E-002, 7.098E+001
