s,C,kg/m2/s,m
Time,"temp","MLR","thick"
 0.0000000E+000, 2.0000000E+001, 0.0000000E+000, 3.2234300E-002
 5.0100000E+000, 6.9967872E+001, 0.0000000E+000, 3.2234300E-002
 1.0010000E+001, 1.2929794E+002, 0.0000000E+000, 3.2234300E-002
 1.5010000E+001, 1.6897878E+002, 0.0000000E+000, 3.2234300E-002
 2.0000000E+001, 2.0047670E+002, 0.0000000E+000, 3.2234300E-002
 2.5000000E+001, 2.2700008E+002, 0.0000000E+000, 3.2234300E-002
 3.0000000E+001, 2.5005029E+002, 0.0000000E+000, 3.2234300E-002
 3.5000000E+001, 2.6466995E+002, 4.1643065E-010, 3.2234300E-002
 4.0000000E+001, 2.8383130E+002, 5.2145654E-009, 3.2234300E-002
 4.5010000E+001, 2.9770257E+002, 2.2334647E-008, 3.2234300E-002
 5.0010000E+001, 3.1477224E+002, 1.1880415E-007, 3.2234300E-002
 5.5010000E+001, 3.2724726E+002, 3.6666974E-007, 3.2234299E-002
 6.0010000E+001, 3.4052526E+002, 1.2394548E-006, 3.2234296E-002
 6.5010000E+001, 3.5273273E+002, 3.4525802E-006, 3.2234286E-002
 7.0010000E+001, 3.6291529E+002, 8.1987438E-006, 3.2234262E-002
 7.5000000E+001, 3.7396150E+002, 2.0020195E-005, 3.2234204E-002
 8.0000000E+001, 3.8316395E+002, 4.0792368E-005, 3.2234076E-002
 8.5000000E+001, 3.9202371E+002, 8.1084455E-005, 3.2233821E-002
 9.0000000E+001, 4.0083088E+002, 1.5600435E-004, 3.2233318E-002
 9.5000000E+001, 4.0819184E+002, 2.6655250E-004, 3.2232416E-002
 1.0000000E+002, 4.1539463E+002, 4.4826870E-004, 3.2230894E-002
 1.0500000E+002, 4.2203126E+002, 7.1256688E-004, 3.2228392E-002
 1.1000000E+002, 4.2750121E+002, 1.0406718E-003, 3.2224611E-002
 1.1500000E+002, 4.3259673E+002, 1.4760711E-003, 3.2219177E-002
 1.2000000E+002, 4.3690493E+002, 1.9682994E-003, 3.2211687E-002
 1.2500000E+002, 4.4037399E+002, 2.4801822E-003, 3.2202035E-002
 1.3000000E+002, 4.4348806E+002, 3.0450778E-003, 3.2190030E-002
 1.3500000E+002, 4.4600431E+002, 3.5773098E-003, 3.2175608E-002
 1.4000000E+002, 4.4811682E+002, 4.0940308E-003, 3.2158939E-002
 1.4500000E+002, 4.5002603E+002, 4.6134833E-003, 3.2139992E-002
 1.5000000E+002, 4.5159490E+002, 5.0745047E-003, 3.2118915E-002
 1.5500000E+002, 4.5302150E+002, 5.5334250E-003, 3.2095856E-002
 1.6001000E+002, 4.5429824E+002, 5.9649632E-003, 3.2070811E-002
 1.6501000E+002, 4.5541987E+002, 6.3679288E-003, 3.2043974E-002
 1.7001000E+002, 4.5646853E+002, 6.7660225E-003, 3.2015410E-002
 1.7501000E+002, 4.5739932E+002, 7.1341152E-003, 3.1985186E-002
 1.8001000E+002, 4.5826932E+002, 7.4984730E-003, 3.1953370E-002
 1.8501000E+002, 4.5746806E+002, 7.7255094E-003, 3.1920120E-002
 1.9001000E+002, 4.5617954E+002, 8.0132853E-003, 3.1886104E-002
 1.9501000E+002, 4.5726808E+002, 8.4427241E-003, 3.1850295E-002
 2.0001000E+002, 4.5821410E+002, 8.8115886E-003, 3.1812769E-002
 2.0501000E+002, 4.5906973E+002, 9.1469386E-003, 3.1773718E-002
 2.1001000E+002, 4.5985864E+002, 9.4615104E-003, 3.1733256E-002
 2.1501000E+002, 4.6058896E+002, 9.7602465E-003, 3.1691464E-002
 2.2001000E+002, 4.6126556E+002, 1.0045850E-002, 3.1648402E-002
 2.2501000E+002, 4.6188821E+002, 1.0318394E-002, 3.1604125E-002
 2.3001000E+002, 4.5943935E+002, 1.0374098E-002, 3.1559125E-002
 2.3501000E+002, 4.5988494E+002, 1.0738819E-002, 3.1513274E-002
 2.4001000E+002, 4.6070041E+002, 1.1056684E-002, 3.1465869E-002
 2.4501000E+002, 4.6143605E+002, 1.1338410E-002, 3.1417177E-002
 2.5001000E+002, 4.6212493E+002, 1.1614349E-002, 3.1367278E-002
 2.5501000E+002, 4.6277526E+002, 1.1893562E-002, 3.1316175E-002
 2.6001000E+002, 4.6338681E+002, 1.2177127E-002, 3.1263847E-002
 2.6501000E+002, 4.6091366E+002, 1.2246802E-002, 3.1210804E-002
 2.7001000E+002, 4.6165505E+002, 1.2688670E-002, 3.1156581E-002
 2.7501000E+002, 4.6245243E+002, 1.3048273E-002, 3.1100609E-002
 2.8001000E+002, 4.6317167E+002, 1.3368033E-002, 3.1043172E-002
 2.8501000E+002, 4.6383249E+002, 1.3669283E-002, 3.0984387E-002
 2.9001000E+002, 4.6443917E+002, 1.3958791E-002, 3.0924323E-002
 2.9501000E+002, 4.6203486E+002, 1.4026890E-002, 3.0863574E-002
 3.0001000E+002, 4.6287196E+002, 1.4475581E-002, 3.0801551E-002
 3.0501000E+002, 4.6361619E+002, 1.4812869E-002, 3.0737858E-002
 3.1001000E+002, 4.6428713E+002, 1.5109757E-002, 3.0672795E-002
 3.1501000E+002, 4.6489729E+002, 1.5385089E-002, 3.0606497E-002
 3.2001000E+002, 4.6346344E+002, 1.5477750E-002, 3.0539327E-002
 3.2501000E+002, 4.6339715E+002, 1.5847283E-002, 3.0471345E-002
 3.3001000E+002, 4.6413585E+002, 1.6181324E-002, 3.0401685E-002
 3.3501000E+002, 4.6479408E+002, 1.6459117E-002, 3.0330715E-002
 3.4001000E+002, 4.6538854E+002, 1.6709502E-002, 3.0258599E-002
 3.4501000E+002, 4.6363139E+002, 1.6760089E-002, 3.0185853E-002
 3.5001000E+002, 4.6402265E+002, 1.7139496E-002, 3.0112173E-002
 3.5501000E+002, 4.6471620E+002, 1.7420014E-002, 3.0037016E-002
 3.6001000E+002, 4.6533338E+002, 1.7646913E-002, 2.9960768E-002
 3.6501000E+002, 4.6502029E+002, 1.7748501E-002, 2.9883667E-002
 3.7001000E+002, 4.6395180E+002, 1.7937917E-002, 2.9806306E-002
 3.7501000E+002, 4.6468556E+002, 1.8228933E-002, 2.9727622E-002
 3.8001000E+002, 4.6532333E+002, 1.8427682E-002, 2.9647912E-002
 3.8501000E+002, 4.6584981E+002, 1.8583155E-002, 2.9567431E-002
 3.9001000E+002, 4.6392003E+002, 1.8548108E-002, 2.9486849E-002
 3.9501000E+002, 4.6470210E+002, 1.8852983E-002, 2.9405436E-002
 4.0001000E+002, 4.6534304E+002, 1.9010485E-002, 2.9323098E-002
 4.0501000E+002, 4.6592752E+002, 1.9129346E-002, 2.9240177E-002
 4.1001000E+002, 4.6431041E+002, 1.9050683E-002, 2.9157215E-002
 4.1501000E+002, 4.6475440E+002, 1.9297719E-002, 2.9073832E-002
 4.2001000E+002, 4.6539873E+002, 1.9420897E-002, 2.8989633E-002
 4.2501000E+002, 4.6598059E+002, 1.9499812E-002, 2.8905013E-002
 4.3001000E+002, 4.6453306E+002, 1.9392987E-002, 2.8820470E-002
 4.3501000E+002, 4.6483395E+002, 1.9602053E-002, 2.8735721E-002
 4.4001000E+002, 4.6549320E+002, 1.9709985E-002, 2.8650235E-002
 4.4501000E+002, 4.6607826E+002, 1.9766067E-002, 2.8564403E-002
 4.5001000E+002, 4.6464425E+002, 1.9639573E-002, 2.8478748E-002
 4.5501000E+002, 4.6495477E+002, 1.9825814E-002, 2.8392976E-002
 4.6001000E+002, 4.6560886E+002, 1.9910478E-002, 2.8306564E-002
 4.6501000E+002, 4.6620083E+002, 1.9952041E-002, 2.8219898E-002
 4.7001000E+002, 4.6469047E+002, 1.9815375E-002, 2.8133488E-002
 4.7501000E+002, 4.6512310E+002, 2.0003461E-002, 2.8046914E-002
 4.8001000E+002, 4.6578590E+002, 2.0076774E-002, 2.7959761E-002
 4.8501000E+002, 4.6638502E+002, 2.0105749E-002, 2.7872393E-002
 4.9001000E+002, 4.6472837E+002, 1.9963834E-002, 2.7785376E-002
 4.9501000E+002, 4.6535918E+002, 2.0153124E-002, 2.7698106E-002
 5.0001000E+002, 4.6603408E+002, 2.0212046E-002, 2.7610330E-002
 5.0501000E+002, 4.6656105E+002, 2.0215709E-002, 2.7522408E-002
 5.1001000E+002, 4.6488860E+002, 2.0098761E-002, 2.7434920E-002
 5.1501000E+002, 4.6569930E+002, 2.0277667E-002, 2.7347045E-002
 5.2001000E+002, 4.6639749E+002, 2.0314155E-002, 2.7258778E-002
 5.2501000E+002, 4.6664521E+002, 2.0265015E-002, 2.7170462E-002
 5.3001000E+002, 4.6537914E+002, 2.0229353E-002, 2.7082629E-002
 5.3501000E+002, 4.6622276E+002, 2.0365773E-002, 2.6994293E-002
 5.4001000E+002, 4.6697355E+002, 2.0371549E-002, 2.6905711E-002
 5.4501000E+002, 4.6696205E+002, 2.0275267E-002, 2.6817240E-002
 5.5001000E+002, 4.6617537E+002, 2.0313567E-002, 2.6729189E-002
 5.5501000E+002, 4.6711325E+002, 2.0382887E-002, 2.6640645E-002
 5.6001000E+002, 4.6799610E+002, 2.0351940E-002, 2.6552077E-002
 5.6501000E+002, 4.6784894E+002, 2.0229402E-002, 2.6463781E-002
 5.7001000E+002, 4.6768363E+002, 2.0282339E-002, 2.6375826E-002
 5.7501000E+002, 4.6888214E+002, 2.0251208E-002, 2.6287659E-002
 5.8001000E+002, 4.7011993E+002, 2.0160329E-002, 2.6199802E-002
 5.8501000E+002, 4.7029704E+002, 1.9988307E-002, 2.6112482E-002
 5.9001000E+002, 4.7116866E+002, 1.9925687E-002, 2.6025749E-002
 5.9501000E+002, 4.7325574E+002, 1.9758705E-002, 2.5939445E-002
 6.0001000E+002, 4.7571004E+002, 1.9525005E-002, 2.5854026E-002
 6.0501000E+002, 4.7817394E+002, 1.9087881E-002, 2.5769947E-002
 6.1001000E+002, 4.8219177E+002, 1.8670833E-002, 2.5687935E-002
 6.1501000E+002, 4.8831883E+002, 1.8077410E-002, 2.5607941E-002
 6.2001000E+002, 4.9792627E+002, 1.7036104E-002, 2.5531370E-002
 6.2501000E+002, 5.2265161E+002, 1.3718576E-002, 2.5462303E-002
 6.3001000E+002, 5.3978111E+002, 0.0000000E+000, 2.5434300E-002
 6.3501000E+002, 5.1994713E+002, 0.0000000E+000, 2.5434300E-002
 6.4001000E+002, 5.1568917E+002, 0.0000000E+000, 2.5434300E-002
 6.4501000E+002, 5.1437552E+002, 0.0000000E+000, 2.5434300E-002
 6.5001000E+002, 5.1416676E+002, 0.0000000E+000, 2.5434300E-002
 6.5501000E+002, 5.1447316E+002, 0.0000000E+000, 2.5434300E-002
 6.6001000E+002, 5.1503754E+002, 0.0000000E+000, 2.5434300E-002
 6.6501000E+002, 5.1573105E+002, 0.0000000E+000, 2.5434300E-002
 6.7001000E+002, 5.1648448E+002, 0.0000000E+000, 2.5434300E-002
 6.7501000E+002, 5.1725897E+002, 0.0000000E+000, 2.5434300E-002
 6.8001000E+002, 5.1803207E+002, 0.0000000E+000, 2.5434300E-002
 6.8501000E+002, 5.1879064E+002, 0.0000000E+000, 2.5434300E-002
 6.9001000E+002, 5.1952703E+002, 0.0000000E+000, 2.5434300E-002
 6.9501000E+002, 5.2023694E+002, 0.0000000E+000, 2.5434300E-002
 7.0001000E+002, 5.2091817E+002, 0.0000000E+000, 2.5434300E-002
 7.0501000E+002, 5.2156978E+002, 0.0000000E+000, 2.5434300E-002
 7.1001000E+002, 5.2219165E+002, 0.0000000E+000, 2.5434300E-002
 7.1501000E+002, 5.2278420E+002, 0.0000000E+000, 2.5434300E-002
 7.2001000E+002, 5.2334814E+002, 0.0000000E+000, 2.5434300E-002
 7.2501000E+002, 5.2388435E+002, 0.0000000E+000, 2.5434300E-002
 7.3001000E+002, 5.2439385E+002, 0.0000000E+000, 2.5434300E-002
 7.3501000E+002, 5.2487771E+002, 0.0000000E+000, 2.5434300E-002
 7.4001000E+002, 5.2533700E+002, 0.0000000E+000, 2.5434300E-002
 7.4501000E+002, 5.2577280E+002, 0.0000000E+000, 2.5434300E-002
 7.5000000E+002, 5.2618576E+002, 0.0000000E+000, 2.5434300E-002
