s,kW,C,kg/s,m,kW/m2
Time,"HRR","temp","MLR","thick","flux"
 0.000E+000, 0.000E+000, 2.000E+001, 0.000E+000, 1.900E-002,-4.813E-011
 2.012E+000, 0.000E+000, 3.628E+001, 7.224E-022, 1.900E-002, 3.502E+001
 4.003E+000, 0.000E+000, 5.873E+001, 7.433E-020, 1.900E-002, 3.510E+001
 6.012E+000, 0.000E+000, 7.501E+001, 2.084E-018, 1.900E-002, 3.519E+001
 8.021E+000, 0.000E+000, 8.847E+001, 2.798E-017, 1.900E-002, 3.523E+001
 1.001E+001, 0.000E+000, 1.001E+002, 2.341E-016, 1.900E-002, 3.526E+001
 1.200E+001, 0.000E+000, 1.103E+002, 1.407E-015, 1.900E-002, 3.527E+001
 1.402E+001, 0.000E+000, 1.197E+002, 6.770E-015, 1.900E-002, 3.528E+001
 1.601E+001, 0.000E+000, 1.284E+002, 2.693E-014, 1.900E-002, 3.530E+001
 1.801E+001, 0.000E+000, 1.365E+002, 9.255E-014, 1.900E-002, 3.533E+001
 2.001E+001, 0.000E+000, 1.440E+002, 2.828E-013, 1.900E-002, 3.535E+001
 2.201E+001, 9.864E-011, 1.512E+002, 7.860E-013, 1.900E-002, 3.541E+001
 2.400E+001, 1.132E-008, 1.581E+002, 2.010E-012, 1.900E-002, 3.549E+001
 2.601E+001, 5.630E-008, 1.645E+002, 4.803E-012, 1.900E-002, 3.543E+001
 2.801E+001, 1.689E-007, 1.708E+002, 1.087E-011, 1.900E-002, 3.547E+001
 3.000E+001, 4.049E-007, 1.768E+002, 2.339E-011, 1.900E-002, 3.551E+001
 3.201E+001, 8.705E-007, 1.829E+002, 4.827E-011, 1.900E-002, 3.564E+001
 3.401E+001, 1.774E-006, 1.886E+002, 9.595E-011, 1.900E-002, 3.557E+001
 3.600E+001, 3.454E-006, 1.941E+002, 1.841E-010, 1.900E-002, 3.559E+001
 3.800E+001, 6.509E-006, 1.996E+002, 3.433E-010, 1.900E-002, 3.571E+001
 4.001E+001, 1.190E-005, 2.049E+002, 6.241E-010, 1.900E-002, 3.564E+001
 4.201E+001, 2.122E-005, 2.101E+002, 1.109E-009, 1.900E-002, 3.570E+001
 4.401E+001, 3.691E-005, 2.152E+002, 1.923E-009, 1.900E-002, 3.567E+001
 4.601E+001, 6.289E-005, 2.204E+002, 3.274E-009, 1.900E-002, 3.582E+001
 4.800E+001, 1.052E-004, 2.253E+002, 5.469E-009, 1.900E-002, 3.577E+001
 5.001E+001, 1.729E-004, 2.302E+002, 8.987E-009, 1.900E-002, 3.581E+001
 5.200E+001, 2.800E-004, 2.350E+002, 1.453E-008, 1.900E-002, 3.582E+001
 5.401E+001, 4.468E-004, 2.399E+002, 2.318E-008, 1.900E-002, 3.591E+001
 5.600E+001, 7.022E-004, 2.445E+002, 3.642E-008, 1.900E-002, 3.582E+001
 5.801E+001, 1.089E-003, 2.490E+002, 5.645E-008, 1.900E-002, 3.585E+001
 6.000E+001, 1.668E-003, 2.535E+002, 8.647E-008, 1.900E-002, 3.581E+001
 6.200E+001, 2.525E-003, 2.582E+002, 1.308E-007, 1.900E-002, 3.601E+001
 6.401E+001, 3.784E-003, 2.626E+002, 1.959E-007, 1.900E-002, 3.590E+001
 6.601E+001, 5.603E-003, 2.671E+002, 2.903E-007, 1.900E-002, 3.593E+001
 6.800E+001, 8.211E-003, 2.712E+002, 4.249E-007, 1.900E-002, 3.586E+001
 7.001E+001, 1.191E-002, 2.757E+002, 6.164E-007, 1.900E-002, 3.606E+001
 7.200E+001, 1.713E-002, 2.798E+002, 8.858E-007, 1.900E-002, 3.593E+001
 7.401E+001, 2.437E-002, 2.840E+002, 1.260E-006, 1.900E-002, 3.600E+001
 7.600E+001, 3.439E-002, 2.880E+002, 1.778E-006, 1.900E-002, 3.589E+001
 7.801E+001, 4.815E-002, 2.919E+002, 2.490E-006, 1.900E-002, 3.591E+001
 8.001E+001, 6.690E-002, 2.963E+002, 3.457E-006, 1.900E-002, 3.609E+001
 8.201E+001, 9.221E-002, 3.005E+002, 4.762E-006, 1.900E-002, 3.618E+001
 8.401E+001, 1.259E-001, 3.046E+002, 6.509E-006, 1.900E-002, 3.618E+001
 8.601E+001, 1.711E-001, 3.081E+002, 8.832E-006, 1.900E-002, 3.596E+001
 8.800E+001, 2.307E-001, 3.120E+002, 1.191E-005, 1.900E-002, 3.614E+001
 9.001E+001, 3.089E-001, 3.157E+002, 1.594E-005, 1.900E-002, 3.610E+001
 9.200E+001, 4.113E-001, 3.198E+002, 2.123E-005, 1.900E-002, 3.630E+001
 9.401E+001, 5.441E-001, 3.234E+002, 2.806E-005, 1.900E-002, 3.626E+001
 9.601E+001, 7.164E-001, 3.270E+002, 3.697E-005, 1.900E-002, 3.617E+001
 9.800E+001, 9.399E-001, 3.307E+002, 4.846E-005, 1.900E-002, 3.640E+001
 1.000E+002, 1.225E+000, 3.341E+002, 6.315E-005, 1.900E-002, 3.630E+001
 1.020E+002, 1.592E+000, 3.383E+002, 8.204E-005, 1.900E-002, 3.683E+001
 1.040E+002, 2.060E+000, 3.424E+002, 1.062E-004, 1.900E-002, 3.720E+001
 1.060E+002, 2.657E+000, 3.466E+002, 1.370E-004, 1.900E-002, 3.748E+001
 1.080E+002, 3.425E+000, 3.502E+002, 1.764E-004, 1.900E-002, 3.759E+001
 1.100E+002, 4.402E+000, 3.553E+002, 2.269E-004, 1.900E-002, 3.908E+001
 1.120E+002, 5.665E+000, 3.601E+002, 2.920E-004, 1.900E-002, 3.940E+001
 1.140E+002, 7.298E+000, 3.647E+002, 3.761E-004, 1.900E-002, 4.014E+001
 1.160E+002, 9.455E+000, 3.703E+002, 4.869E-004, 1.900E-002, 4.233E+001
 1.180E+002, 1.232E+001, 3.768E+002, 6.354E-004, 1.900E-002, 4.413E+001
 1.200E+002, 1.632E+001, 3.859E+002, 8.413E-004, 1.900E-002, 4.967E+001
 1.220E+002, 2.208E+001, 3.943E+002, 1.141E-003, 1.900E-002, 5.223E+001
 1.240E+002, 3.129E+001, 4.063E+002, 1.627E-003, 1.900E-002, 5.970E+001
 1.260E+002, 4.690E+001, 4.211E+002, 2.431E-003, 1.900E-002, 6.547E+001
 1.280E+002, 6.879E+001, 4.322E+002, 3.612E-003, 1.900E-002, 7.026E+001
 1.300E+002, 1.011E+002, 4.396E+002, 5.257E-003, 1.900E-002, 6.910E+001
 1.320E+002, 1.415E+002, 4.448E+002, 7.471E-003, 1.900E-002, 6.795E+001
 1.340E+002, 1.946E+002, 4.504E+002, 1.024E-002, 1.900E-002, 6.829E+001
 1.360E+002, 2.583E+002, 4.546E+002, 1.352E-002, 1.900E-002, 6.659E+001
 1.380E+002, 3.337E+002, 4.627E+002, 1.748E-002, 1.900E-002, 6.861E+001
 1.400E+002, 4.111E+002, 4.710E+002, 2.165E-002, 1.900E-002, 6.727E+001
 1.420E+002, 4.910E+002, 4.809E+002, 2.582E-002, 1.900E-002, 6.509E+001
 1.440E+002, 5.612E+002, 4.970E+002, 2.915E-002, 1.900E-002, 6.460E+001
 1.460E+002, 6.128E+002, 5.161E+002, 3.161E-002, 1.900E-002, 6.456E+001
 1.480E+002, 6.490E+002, 5.281E+002, 3.308E-002, 1.900E-002, 6.657E+001
 1.500E+002, 6.642E+002, 5.361E+002, 3.446E-002, 1.900E-002, 6.663E+001
 1.520E+002, 6.798E+002, 5.404E+002, 3.552E-002, 1.900E-002, 6.571E+001
 1.540E+002, 6.980E+002, 5.507E+002, 3.565E-002, 1.900E-002, 6.716E+001
 1.560E+002, 6.856E+002, 5.570E+002, 3.539E-002, 1.900E-002, 6.583E+001
 1.580E+002, 6.911E+002, 5.682E+002, 3.550E-002, 1.900E-002, 6.614E+001
 1.600E+002, 6.776E+002, 5.772E+002, 3.461E-002, 1.900E-002, 6.605E+001
 1.620E+002, 6.495E+002, 5.867E+002, 3.338E-002, 1.901E-002, 6.649E+001
 1.640E+002, 6.389E+002, 5.915E+002, 3.241E-002, 1.901E-002, 6.729E+001
 1.660E+002, 6.176E+002, 5.909E+002, 3.183E-002, 1.901E-002, 6.533E+001
 1.680E+002, 6.130E+002, 5.944E+002, 3.181E-002, 1.901E-002, 6.556E+001
 1.700E+002, 6.350E+002, 5.964E+002, 3.194E-002, 1.901E-002, 6.566E+001
 1.720E+002, 6.253E+002, 6.072E+002, 3.240E-002, 1.901E-002, 6.786E+001
 1.740E+002, 6.258E+002, 6.086E+002, 3.229E-002, 1.901E-002, 6.620E+001
 1.760E+002, 6.242E+002, 6.167E+002, 3.142E-002, 1.901E-002, 6.889E+001
 1.780E+002, 5.861E+002, 6.232E+002, 3.042E-002, 1.901E-002, 6.753E+001
 1.800E+002, 5.833E+002, 6.288E+002, 2.989E-002, 1.901E-002, 6.919E+001
 1.820E+002, 5.814E+002, 6.292E+002, 2.967E-002, 1.901E-002, 6.753E+001
 1.840E+002, 5.768E+002, 6.334E+002, 2.964E-002, 1.901E-002, 6.836E+001
 1.860E+002, 5.800E+002, 6.338E+002, 2.985E-002, 1.901E-002, 6.782E+001
 1.880E+002, 5.810E+002, 6.331E+002, 2.989E-002, 1.901E-002, 6.665E+001
 1.900E+002, 5.818E+002, 6.366E+002, 2.967E-002, 1.901E-002, 6.772E+001
 1.920E+002, 5.729E+002, 6.365E+002, 2.917E-002, 1.901E-002, 6.731E+001
 1.940E+002, 5.531E+002, 6.407E+002, 2.845E-002, 1.901E-002, 6.680E+001
 1.960E+002, 5.432E+002, 6.448E+002, 2.784E-002, 1.901E-002, 6.750E+001
 1.980E+002, 5.328E+002, 6.469E+002, 2.734E-002, 1.901E-002, 6.821E+001
 2.000E+002, 5.269E+002, 6.539E+002, 2.700E-002, 1.901E-002, 6.966E+001
 2.020E+002, 5.211E+002, 6.536E+002, 2.675E-002, 1.901E-002, 6.825E+001
 2.040E+002, 5.190E+002, 6.504E+002, 2.652E-002, 1.901E-002, 6.571E+001
 2.060E+002, 5.066E+002, 6.543E+002, 2.619E-002, 1.901E-002, 6.807E+001
 2.080E+002, 5.070E+002, 6.603E+002, 2.583E-002, 1.901E-002, 7.062E+001
 2.100E+002, 4.974E+002, 6.636E+002, 2.537E-002, 1.901E-002, 6.998E+001
 2.120E+002, 4.817E+002, 6.675E+002, 2.478E-002, 1.901E-002, 7.093E+001
 2.140E+002, 4.761E+002, 6.677E+002, 2.423E-002, 1.901E-002, 6.966E+001
 2.160E+002, 4.634E+002, 6.680E+002, 2.379E-002, 1.901E-002, 6.951E+001
 2.180E+002, 4.558E+002, 6.731E+002, 2.343E-002, 1.901E-002, 7.096E+001
 2.200E+002, 4.555E+002, 6.722E+002, 2.311E-002, 1.902E-002, 6.984E+001
 2.220E+002, 4.421E+002, 6.722E+002, 2.280E-002, 1.902E-002, 6.918E+001
 2.240E+002, 4.379E+002, 6.721E+002, 2.246E-002, 1.902E-002, 6.910E+001
 2.260E+002, 4.313E+002, 6.736E+002, 2.207E-002, 1.902E-002, 6.960E+001
 2.280E+002, 4.252E+002, 6.696E+002, 2.167E-002, 1.902E-002, 6.715E+001
 2.300E+002, 4.111E+002, 6.716E+002, 2.118E-002, 1.902E-002, 6.809E+001
 2.320E+002, 4.081E+002, 6.731E+002, 2.070E-002, 1.902E-002, 6.896E+001
 2.340E+002, 3.943E+002, 6.728E+002, 2.027E-002, 1.902E-002, 6.782E+001
 2.360E+002, 3.882E+002, 6.766E+002, 1.990E-002, 1.902E-002, 6.918E+001
 2.380E+002, 3.852E+002, 6.780E+002, 1.959E-002, 1.902E-002, 6.922E+001
 2.400E+002, 3.754E+002, 6.771E+002, 1.929E-002, 1.902E-002, 6.784E+001
 2.420E+002, 3.702E+002, 6.765E+002, 1.902E-002, 1.902E-002, 6.808E+001
 2.440E+002, 3.675E+002, 6.783E+002, 1.876E-002, 1.902E-002, 6.884E+001
 2.460E+002, 3.615E+002, 6.761E+002, 1.845E-002, 1.902E-002, 6.664E+001
 2.480E+002, 3.545E+002, 6.831E+002, 1.811E-002, 1.902E-002, 7.074E+001
 2.500E+002, 3.432E+002, 6.824E+002, 1.775E-002, 1.902E-002, 6.772E+001
 2.520E+002, 3.409E+002, 6.795E+002, 1.737E-002, 1.902E-002, 6.745E+001
 2.540E+002, 3.300E+002, 6.808E+002, 1.699E-002, 1.902E-002, 6.873E+001
 2.560E+002, 3.260E+002, 6.885E+002, 1.665E-002, 1.902E-002, 6.983E+001
 2.580E+002, 3.208E+002, 6.936E+002, 1.635E-002, 1.902E-002, 7.292E+001
 2.600E+002, 3.154E+002, 6.932E+002, 1.608E-002, 1.902E-002, 7.099E+001
 2.620E+002, 3.062E+002, 7.022E+002, 1.581E-002, 1.902E-002, 7.386E+001
 2.640E+002, 3.049E+002, 6.951E+002, 1.554E-002, 1.902E-002, 7.002E+001
 2.660E+002, 2.961E+002, 6.933E+002, 1.525E-002, 1.902E-002, 6.985E+001
 2.680E+002, 2.940E+002, 6.966E+002, 1.496E-002, 1.902E-002, 7.160E+001
 2.700E+002, 2.854E+002, 6.915E+002, 1.468E-002, 1.902E-002, 6.813E+001
 2.720E+002, 2.822E+002, 6.902E+002, 1.437E-002, 1.902E-002, 6.828E+001
 2.740E+002, 2.761E+002, 7.045E+002, 1.407E-002, 1.902E-002, 7.615E+001
 2.760E+002, 2.684E+002, 7.067E+002, 1.379E-002, 1.902E-002, 7.191E+001
 2.780E+002, 2.643E+002, 7.080E+002, 1.353E-002, 1.902E-002, 7.397E+001
 2.800E+002, 2.575E+002, 7.164E+002, 1.325E-002, 1.902E-002, 7.671E+001
 2.820E+002, 2.535E+002, 7.160E+002, 1.296E-002, 1.902E-002, 7.463E+001
 2.840E+002, 2.454E+002, 7.080E+002, 1.264E-002, 1.903E-002, 7.141E+001
 2.860E+002, 2.427E+002, 6.976E+002, 1.231E-002, 1.903E-002, 6.837E+001
 2.880E+002, 2.328E+002, 7.001E+002, 1.196E-002, 1.903E-002, 6.983E+001
 2.900E+002, 2.268E+002, 7.001E+002, 1.160E-002, 1.903E-002, 6.997E+001
 2.920E+002, 2.203E+002, 7.020E+002, 1.126E-002, 1.903E-002, 7.063E+001
 2.940E+002, 2.137E+002, 7.039E+002, 1.092E-002, 1.903E-002, 7.124E+001
 2.960E+002, 2.069E+002, 7.037E+002, 1.057E-002, 1.903E-002, 7.026E+001
 2.980E+002, 1.998E+002, 7.031E+002, 1.021E-002, 1.903E-002, 7.008E+001
 3.000E+002, 1.912E+002, 6.990E+002, 9.812E-003, 1.903E-002, 6.801E+001
