s,kW,C,kg/s,m,kW/m2
Time,"HRR","temp","MLR","thick","flux"
 0.000E+000, 0.000E+000, 2.000E+001, 0.000E+000, 1.900E-002,-4.759E-011
 2.012E+000, 0.000E+000, 3.599E+001, 7.106E-022, 1.900E-002, 3.501E+001
 4.003E+000, 0.000E+000, 5.865E+001, 7.871E-020, 1.900E-002, 3.507E+001
 6.004E+000, 0.000E+000, 7.540E+001, 2.394E-018, 1.900E-002, 3.514E+001
 8.020E+000, 0.000E+000, 8.936E+001, 3.505E-017, 1.900E-002, 3.518E+001
 1.002E+001, 0.000E+000, 1.015E+002, 3.174E-016, 1.900E-002, 3.523E+001
 1.202E+001, 0.000E+000, 1.122E+002, 2.041E-015, 1.900E-002, 3.525E+001
 1.401E+001, 0.000E+000, 1.220E+002, 1.021E-014, 1.900E-002, 3.527E+001
 1.600E+001, 0.000E+000, 1.310E+002, 4.211E-014, 1.900E-002, 3.529E+001
 1.800E+001, 0.000E+000, 1.394E+002, 1.498E-013, 1.900E-002, 3.533E+001
 2.001E+001, 0.000E+000, 1.472E+002, 4.726E-013, 1.900E-002, 3.535E+001
 2.200E+001, 3.412E-009, 1.547E+002, 1.341E-012, 1.900E-002, 3.542E+001
 2.401E+001, 3.298E-008, 1.619E+002, 3.483E-012, 1.900E-002, 3.547E+001
 2.601E+001, 1.216E-007, 1.685E+002, 8.413E-012, 1.900E-002, 3.543E+001
 2.800E+001, 3.240E-007, 1.748E+002, 1.903E-011, 1.900E-002, 3.546E+001
 3.001E+001, 7.312E-007, 1.810E+002, 4.081E-011, 1.900E-002, 3.552E+001
 3.200E+001, 1.534E-006, 1.870E+002, 8.337E-011, 1.900E-002, 3.556E+001
 3.401E+001, 3.059E-006, 1.928E+002, 1.634E-010, 1.900E-002, 3.561E+001
 3.600E+001, 5.838E-006, 1.983E+002, 3.083E-010, 1.900E-002, 3.562E+001
 3.801E+001, 1.072E-005, 2.038E+002, 5.624E-010, 1.900E-002, 3.569E+001
 4.000E+001, 1.906E-005, 2.089E+002, 9.964E-010, 1.900E-002, 3.567E+001
 4.200E+001, 3.298E-005, 2.140E+002, 1.718E-009, 1.900E-002, 3.569E+001
 4.401E+001, 5.560E-005, 2.188E+002, 2.894E-009, 1.900E-002, 3.569E+001
 4.600E+001, 9.184E-005, 2.236E+002, 4.774E-009, 1.900E-002, 3.573E+001
 4.801E+001, 1.485E-004, 2.284E+002, 7.710E-009, 1.900E-002, 3.578E+001
 5.001E+001, 2.358E-004, 2.331E+002, 1.224E-008, 1.900E-002, 3.582E+001
 5.201E+001, 3.683E-004, 2.377E+002, 1.910E-008, 1.900E-002, 3.583E+001
 5.401E+001, 5.657E-004, 2.422E+002, 2.934E-008, 1.900E-002, 3.587E+001
 5.600E+001, 8.561E-004, 2.465E+002, 4.436E-008, 1.900E-002, 3.588E+001
 5.800E+001, 1.278E-003, 2.509E+002, 6.623E-008, 1.900E-002, 3.592E+001
 6.001E+001, 1.888E-003, 2.552E+002, 9.778E-008, 1.900E-002, 3.593E+001
 6.201E+001, 2.758E-003, 2.593E+002, 1.427E-007, 1.900E-002, 3.596E+001
 6.400E+001, 3.976E-003, 2.634E+002, 2.058E-007, 1.900E-002, 3.594E+001
 6.600E+001, 5.678E-003, 2.673E+002, 2.937E-007, 1.900E-002, 3.592E+001
 6.801E+001, 8.032E-003, 2.711E+002, 4.154E-007, 1.900E-002, 3.588E+001
 7.001E+001, 1.125E-002, 2.746E+002, 5.819E-007, 1.900E-002, 3.578E+001
 7.200E+001, 1.561E-002, 2.784E+002, 8.068E-007, 1.900E-002, 3.590E+001
 7.401E+001, 2.150E-002, 2.821E+002, 1.110E-006, 1.900E-002, 3.592E+001
 7.600E+001, 2.934E-002, 2.858E+002, 1.516E-006, 1.900E-002, 3.594E+001
 7.801E+001, 3.976E-002, 2.896E+002, 2.054E-006, 1.900E-002, 3.605E+001
 8.001E+001, 5.357E-002, 2.933E+002, 2.766E-006, 1.900E-002, 3.603E+001
 8.201E+001, 7.162E-002, 2.969E+002, 3.698E-006, 1.900E-002, 3.598E+001
 8.401E+001, 9.531E-002, 3.003E+002, 4.913E-006, 1.900E-002, 3.603E+001
 8.601E+001, 1.258E-001, 3.040E+002, 6.487E-006, 1.900E-002, 3.612E+001
 8.800E+001, 1.649E-001, 3.076E+002, 8.517E-006, 1.900E-002, 3.615E+001
 9.001E+001, 2.157E-001, 3.108E+002, 1.112E-005, 1.900E-002, 3.601E+001
 9.200E+001, 2.793E-001, 3.141E+002, 1.441E-005, 1.900E-002, 3.610E+001
 9.401E+001, 3.608E-001, 3.177E+002, 1.860E-005, 1.900E-002, 3.617E+001
 9.601E+001, 4.633E-001, 3.208E+002, 2.388E-005, 1.900E-002, 3.606E+001
 9.801E+001, 5.918E-001, 3.242E+002, 3.048E-005, 1.900E-002, 3.625E+001
 1.000E+002, 7.526E-001, 3.278E+002, 3.877E-005, 1.900E-002, 3.632E+001
 1.020E+002, 9.521E-001, 3.309E+002, 4.906E-005, 1.900E-002, 3.623E+001
 1.040E+002, 1.202E+000, 3.342E+002, 6.182E-005, 1.900E-002, 3.634E+001
 1.060E+002, 1.507E+000, 3.373E+002, 7.766E-005, 1.900E-002, 3.629E+001
 1.080E+002, 1.890E+000, 3.406E+002, 9.735E-005, 1.900E-002, 3.642E+001
 1.100E+002, 2.356E+000, 3.440E+002, 1.214E-004, 1.900E-002, 3.657E+001
 1.120E+002, 2.927E+000, 3.476E+002, 1.508E-004, 1.900E-002, 3.666E+001
 1.140E+002, 3.629E+000, 3.515E+002, 1.868E-004, 1.900E-002, 3.686E+001
 1.160E+002, 4.487E+000, 3.553E+002, 2.310E-004, 1.900E-002, 3.687E+001
 1.180E+002, 5.530E+000, 3.584E+002, 2.847E-004, 1.900E-002, 3.679E+001
 1.200E+002, 6.807E+000, 3.622E+002, 3.502E-004, 1.900E-002, 3.719E+001
 1.220E+002, 8.353E+000, 3.659E+002, 4.302E-004, 1.899E-002, 3.751E+001
 1.240E+002, 1.026E+001, 3.696E+002, 5.274E-004, 1.899E-002, 3.816E+001
 1.260E+002, 1.262E+001, 3.735E+002, 6.496E-004, 1.899E-002, 3.860E+001
 1.280E+002, 1.559E+001, 3.779E+002, 8.023E-004, 1.899E-002, 4.044E+001
 1.300E+002, 1.950E+001, 3.847E+002, 1.004E-003, 1.899E-002, 4.428E+001
 1.320E+002, 2.480E+001, 3.930E+002, 1.278E-003, 1.898E-002, 5.010E+001
 1.340E+002, 3.282E+001, 4.050E+002, 1.701E-003, 1.897E-002, 5.952E+001
 1.360E+002, 4.661E+001, 4.181E+002, 2.430E-003, 1.896E-002, 6.570E+001
 1.380E+002, 6.877E+001, 4.276E+002, 3.595E-003, 1.894E-002, 7.002E+001
 1.400E+002, 9.885E+001, 4.331E+002, 5.189E-003, 1.890E-002, 7.036E+001
 1.420E+002, 1.376E+002, 4.353E+002, 7.181E-003, 1.886E-002, 6.845E+001
 1.440E+002, 1.827E+002, 4.351E+002, 9.601E-003, 1.881E-002, 6.695E+001
 1.460E+002, 2.390E+002, 4.342E+002, 1.247E-002, 1.876E-002, 6.844E+001
 1.480E+002, 2.963E+002, 4.361E+002, 1.543E-002, 1.871E-002, 6.748E+001
 1.500E+002, 3.606E+002, 4.362E+002, 1.884E-002, 1.865E-002, 6.641E+001
 1.520E+002, 4.220E+002, 4.367E+002, 2.196E-002, 1.860E-002, 6.555E+001
 1.540E+002, 4.757E+002, 4.367E+002, 2.505E-002, 1.854E-002, 6.452E+001
 1.560E+002, 5.464E+002, 4.373E+002, 2.837E-002, 1.848E-002, 6.796E+001
 1.580E+002, 6.021E+002, 4.356E+002, 3.098E-002, 1.842E-002, 6.576E+001
 1.600E+002, 6.464E+002, 4.372E+002, 3.364E-002, 1.836E-002, 6.700E+001
 1.620E+002, 6.894E+002, 4.384E+002, 3.599E-002, 1.829E-002, 6.647E+001
 1.640E+002, 7.275E+002, 4.388E+002, 3.785E-002, 1.823E-002, 6.625E+001
 1.660E+002, 7.776E+002, 4.383E+002, 3.966E-002, 1.816E-002, 6.798E+001
 1.680E+002, 7.849E+002, 4.384E+002, 4.118E-002, 1.809E-002, 6.765E+001
 1.700E+002, 8.126E+002, 4.390E+002, 4.242E-002, 1.802E-002, 6.681E+001
 1.720E+002, 8.584E+002, 4.410E+002, 4.423E-002, 1.794E-002, 6.862E+001
 1.740E+002, 8.803E+002, 4.406E+002, 4.573E-002, 1.786E-002, 6.824E+001
 1.760E+002, 8.900E+002, 4.388E+002, 4.720E-002, 1.779E-002, 6.686E+001
 1.780E+002, 9.439E+002, 4.396E+002, 4.861E-002, 1.771E-002, 6.696E+001
 1.800E+002, 9.574E+002, 4.404E+002, 4.985E-002, 1.762E-002, 6.676E+001
 1.820E+002, 9.810E+002, 4.402E+002, 5.116E-002, 1.754E-002, 6.706E+001
 1.840E+002, 9.886E+002, 4.396E+002, 5.228E-002, 1.746E-002, 6.689E+001
 1.860E+002, 1.042E+003, 4.407E+002, 5.369E-002, 1.737E-002, 6.756E+001
 1.880E+002, 1.045E+003, 4.418E+002, 5.555E-002, 1.728E-002, 6.697E+001
 1.900E+002, 1.104E+003, 4.408E+002, 5.692E-002, 1.718E-002, 6.900E+001
 1.920E+002, 1.098E+003, 4.414E+002, 5.885E-002, 1.709E-002, 6.800E+001
 1.940E+002, 1.152E+003, 4.422E+002, 6.028E-002, 1.699E-002, 6.766E+001
 1.960E+002, 1.179E+003, 4.416E+002, 6.153E-002, 1.689E-002, 6.869E+001
 1.980E+002, 1.179E+003, 4.418E+002, 6.290E-002, 1.679E-002, 6.785E+001
 2.000E+002, 1.222E+003, 4.434E+002, 6.497E-002, 1.668E-002, 6.951E+001
 2.020E+002, 1.261E+003, 4.428E+002, 6.616E-002, 1.658E-002, 6.926E+001
 2.040E+002, 1.283E+003, 4.431E+002, 6.814E-002, 1.647E-002, 6.916E+001
 2.060E+002, 1.279E+003, 4.436E+002, 6.820E-002, 1.636E-002, 6.821E+001
 2.080E+002, 1.276E+003, 4.430E+002, 6.888E-002, 1.625E-002, 6.799E+001
 2.100E+002, 1.319E+003, 4.435E+002, 7.016E-002, 1.614E-002, 6.887E+001
 2.120E+002, 1.329E+003, 4.451E+002, 7.141E-002, 1.603E-002, 6.856E+001
 2.140E+002, 1.343E+003, 4.446E+002, 7.198E-002, 1.592E-002, 6.910E+001
 2.160E+002, 1.349E+003, 4.467E+002, 7.307E-002, 1.581E-002, 7.075E+001
 2.180E+002, 1.375E+003, 4.481E+002, 7.341E-002, 1.569E-002, 6.907E+001
 2.200E+002, 1.370E+003, 4.482E+002, 7.342E-002, 1.558E-002, 6.964E+001
 2.220E+002, 1.373E+003, 4.514E+002, 7.364E-002, 1.547E-002, 6.925E+001
 2.240E+002, 1.376E+003, 4.568E+002, 7.255E-002, 1.536E-002, 7.257E+001
 2.260E+002, 1.337E+003, 4.603E+002, 7.036E-002, 1.525E-002, 6.968E+001
 2.280E+002, 1.294E+003, 4.682E+002, 6.750E-002, 1.516E-002, 6.949E+001
 2.300E+002, 1.196E+003, 4.809E+002, 6.146E-002, 1.508E-002, 6.963E+001
 2.320E+002, 9.856E+002, 5.416E+002, 4.779E-002, 1.501E-002, 6.936E+001
 2.340E+002, 7.092E+002, 6.884E+002, 3.527E-002, 1.500E-002, 7.086E+001
 2.360E+002, 4.865E+002, 7.055E+002, 2.392E-002, 1.500E-002, 7.228E+001
 2.380E+002, 4.212E+002, 7.069E+002, 2.147E-002, 1.500E-002, 7.010E+001
 2.400E+002, 3.921E+002, 7.088E+002, 2.004E-002, 1.500E-002, 6.958E+001
 2.420E+002, 3.631E+002, 7.258E+002, 1.860E-002, 1.500E-002, 7.374E+001
 2.440E+002, 3.546E+002, 7.191E+002, 1.809E-002, 1.500E-002, 7.125E+001
 2.460E+002, 3.367E+002, 7.207E+002, 1.730E-002, 1.500E-002, 7.051E+001
 2.480E+002, 3.276E+002, 7.211E+002, 1.669E-002, 1.500E-002, 7.110E+001
 2.500E+002, 3.108E+002, 7.227E+002, 1.577E-002, 1.500E-002, 7.118E+001
 2.520E+002, 2.827E+002, 7.245E+002, 1.443E-002, 1.500E-002, 7.188E+001
 2.540E+002, 2.448E+002, 7.075E+002, 1.247E-002, 1.500E-002, 6.669E+001
 2.560E+002, 1.886E+002, 6.728E+002, 9.536E-003, 1.500E-002, 5.854E+001
 2.580E+002, 1.437E+002, 6.230E+002, 7.329E-003, 1.500E-002, 4.890E+001
 2.600E+002, 1.246E+002, 5.792E+002, 6.364E-003, 1.500E-002, 4.318E+001
 2.620E+002, 9.507E+001, 5.578E+002, 4.855E-003, 1.500E-002, 4.026E+001
 2.640E+002, 8.314E+001, 5.446E+002, 4.255E-003, 1.500E-002, 3.901E+001
 2.660E+002, 7.249E+001, 5.403E+002, 3.691E-003, 1.500E-002, 3.875E+001
 2.680E+002, 5.873E+001, 5.350E+002, 3.002E-003, 1.500E-002, 3.817E+001
 2.700E+002, 3.997E+001, 5.283E+002, 2.018E-003, 1.500E-002, 3.733E+001
 2.720E+002, 2.711E+001, 5.171E+002, 1.391E-003, 1.500E-002, 3.641E+001
 2.740E+002, 2.672E+001, 5.177E+002, 1.364E-003, 1.500E-002, 3.668E+001
 2.760E+002, 2.499E+001, 5.195E+002, 1.281E-003, 1.500E-002, 3.682E+001
 2.780E+002, 2.369E+001, 5.164E+002, 1.216E-003, 1.500E-002, 3.662E+001
 2.800E+002, 2.256E+001, 5.147E+002, 1.152E-003, 1.500E-002, 3.653E+001
 2.820E+002, 2.158E+001, 5.122E+002, 1.107E-003, 1.500E-002, 3.643E+001
 2.840E+002, 2.047E+001, 5.138E+002, 1.048E-003, 1.500E-002, 3.652E+001
 2.860E+002, 1.897E+001, 5.129E+002, 9.713E-004, 1.500E-002, 3.648E+001
 2.880E+002, 1.704E+001, 5.123E+002, 8.714E-004, 1.500E-002, 3.639E+001
 2.900E+002, 1.424E+001, 5.086E+002, 7.282E-004, 1.500E-002, 3.620E+001
 2.920E+002, 1.146E+001, 5.162E+002, 5.826E-004, 1.500E-002, 3.671E+001
 2.940E+002, 8.053E+000, 5.139E+002, 4.091E-004, 1.500E-002, 3.648E+001
 2.960E+002, 4.249E+000, 5.170E+002, 2.136E-004, 1.500E-002, 3.674E+001
 2.980E+002, 7.146E-001, 5.188E+002, 3.375E-005, 1.500E-002, 3.679E+001
 3.000E+002, 0.000E+000, 5.268E+002, 0.000E+000, 1.500E-002, 3.722E+001
