s,kW,C,kg/s,m,kW/m2
Time,"HRR","temp","MLR","thick","flux"
 0.000E+000, 0.000E+000, 2.000E+001, 0.000E+000, 1.900E-002,-4.759E-011
 2.012E+000, 0.000E+000, 4.281E+001, 0.000E+000, 1.900E-002, 5.003E+001
 4.003E+000, 0.000E+000, 7.515E+001, 0.000E+000, 1.900E-002, 5.016E+001
 6.006E+000, 0.000E+000, 9.898E+001, 0.000E+000, 1.900E-002, 5.028E+001
 8.002E+000, 0.000E+000, 1.187E+002, 0.000E+000, 1.900E-002, 5.032E+001
 1.000E+001, 0.000E+000, 1.358E+002, 0.000E+000, 1.900E-002, 5.035E+001
 1.201E+001, 9.156E-010, 1.510E+002, 0.000E+000, 1.900E-002, 5.038E+001
 1.401E+001, 6.716E-008, 1.648E+002, 0.000E+000, 1.900E-002, 5.040E+001
 1.601E+001, 4.791E-007, 1.775E+002, 0.000E+000, 1.900E-002, 5.053E+001
 1.801E+001, 2.085E-006, 1.894E+002, 0.000E+000, 1.900E-002, 5.064E+001
 2.001E+001, 7.525E-006, 2.003E+002, 0.000E+000, 1.900E-002, 5.058E+001
 2.201E+001, 2.363E-005, 2.104E+002, 0.000E+000, 1.900E-002, 5.054E+001
 2.401E+001, 6.642E-005, 2.202E+002, 0.000E+000, 1.900E-002, 5.069E+001
 2.601E+001, 1.704E-004, 2.296E+002, 0.000E+000, 1.900E-002, 5.080E+001
 2.800E+001, 4.046E-004, 2.383E+002, 0.000E+000, 1.900E-002, 5.077E+001
 3.000E+001, 8.991E-004, 2.467E+002, 0.000E+000, 1.900E-002, 5.081E+001
 3.201E+001, 1.889E-003, 2.550E+002, 0.000E+000, 1.900E-002, 5.100E+001
 3.400E+001, 3.774E-003, 2.626E+002, 0.000E+000, 1.900E-002, 5.091E+001
 3.601E+001, 7.228E-003, 2.701E+002, 0.000E+000, 1.900E-002, 5.102E+001
 3.801E+001, 1.331E-002, 2.771E+002, 0.000E+000, 1.900E-002, 5.093E+001
 4.001E+001, 2.366E-002, 2.842E+002, 0.000E+000, 1.900E-002, 5.116E+001
 4.200E+001, 4.079E-002, 2.912E+002, 0.000E+000, 1.900E-002, 5.129E+001
 4.401E+001, 6.850E-002, 2.977E+002, 0.000E+000, 1.900E-002, 5.118E+001
 4.601E+001, 1.120E-001, 3.041E+002, 0.000E+000, 1.900E-002, 5.131E+001
 4.801E+001, 1.792E-001, 3.104E+002, 0.000E+000, 1.900E-002, 5.138E+001
 5.000E+001, 2.808E-001, 3.164E+002, 0.000E+000, 1.900E-002, 5.141E+001
 5.201E+001, 4.324E-001, 3.222E+002, 0.000E+000, 1.900E-002, 5.138E+001
 5.401E+001, 6.557E-001, 3.281E+002, 0.000E+000, 1.900E-002, 5.159E+001
 5.601E+001, 9.797E-001, 3.340E+002, 0.000E+000, 1.900E-002, 5.188E+001
 5.800E+001, 1.447E+000, 3.399E+002, 0.000E+000, 1.900E-002, 5.230E+001
 6.000E+001, 2.117E+000, 3.462E+002, 0.000E+000, 1.900E-002, 5.297E+001
 6.200E+001, 3.064E+000, 3.521E+002, 0.000E+000, 1.900E-002, 5.320E+001
 6.400E+001, 4.411E+000, 3.581E+002, 0.000E+000, 1.900E-002, 5.400E+001
 6.600E+001, 6.351E+000, 3.654E+002, 0.000E+000, 1.900E-002, 5.652E+001
 6.800E+001, 9.179E+000, 3.734E+002, 0.000E+000, 1.900E-002, 5.791E+001
 7.000E+001, 1.333E+001, 3.824E+002, 0.000E+000, 1.899E-002, 6.200E+001
 7.200E+001, 1.981E+001, 3.916E+002, 0.000E+000, 1.899E-002, 6.372E+001
 7.400E+001, 3.082E+001, 4.053E+002, 0.000E+000, 1.898E-002, 7.629E+001
 7.600E+001, 5.008E+001, 4.217E+002, 0.000E+000, 1.897E-002, 8.215E+001
 7.800E+001, 8.175E+001, 4.314E+002, 0.000E+000, 1.894E-002, 8.402E+001
 8.000E+001, 1.272E+002, 4.359E+002, 0.000E+000, 1.891E-002, 8.244E+001
 8.200E+001, 1.924E+002, 4.379E+002, 0.000E+000, 1.886E-002, 8.136E+001
 8.400E+001, 2.702E+002, 4.390E+002, 0.000E+000, 1.882E-002, 8.145E+001
 8.600E+001, 3.626E+002, 4.365E+002, 0.000E+000, 1.877E-002, 8.052E+001
 8.800E+001, 4.491E+002, 4.383E+002, 0.000E+000, 1.871E-002, 8.038E+001
 9.000E+001, 5.310E+002, 4.391E+002, 0.000E+000, 1.866E-002, 7.856E+001
 9.200E+001, 6.133E+002, 4.406E+002, 0.000E+000, 1.860E-002, 7.965E+001
 9.400E+001, 6.936E+002, 4.420E+002, 0.000E+000, 1.854E-002, 8.022E+001
 9.600E+001, 7.315E+002, 4.410E+002, 0.000E+000, 1.848E-002, 7.964E+001
 9.800E+001, 7.969E+002, 4.404E+002, 0.000E+000, 1.842E-002, 8.099E+001
 1.000E+002, 8.331E+002, 4.418E+002, 0.000E+000, 1.835E-002, 8.049E+001
 1.020E+002, 8.562E+002, 4.433E+002, 0.000E+000, 1.828E-002, 8.071E+001
 1.040E+002, 8.974E+002, 4.447E+002, 0.000E+000, 1.821E-002, 8.136E+001
 1.060E+002, 9.415E+002, 4.422E+002, 0.000E+000, 1.814E-002, 8.111E+001
 1.080E+002, 9.498E+002, 4.436E+002, 0.000E+000, 1.806E-002, 8.201E+001
 1.100E+002, 9.797E+002, 4.450E+002, 0.000E+000, 1.798E-002, 8.168E+001
 1.120E+002, 1.009E+003, 4.462E+002, 0.000E+000, 1.790E-002, 8.169E+001
 1.140E+002, 1.048E+003, 4.439E+002, 0.000E+000, 1.781E-002, 8.211E+001
 1.160E+002, 1.076E+003, 4.452E+002, 0.000E+000, 1.773E-002, 8.272E+001
 1.180E+002, 1.105E+003, 4.474E+002, 0.000E+000, 1.763E-002, 8.308E+001
 1.200E+002, 1.155E+003, 4.467E+002, 0.000E+000, 1.754E-002, 8.274E+001
 1.220E+002, 1.176E+003, 4.456E+002, 0.000E+000, 1.744E-002, 8.213E+001
 1.240E+002, 1.204E+003, 4.473E+002, 0.000E+000, 1.734E-002, 8.206E+001
 1.260E+002, 1.266E+003, 4.477E+002, 0.000E+000, 1.723E-002, 8.313E+001
 1.280E+002, 1.329E+003, 4.469E+002, 0.000E+000, 1.712E-002, 8.312E+001
 1.300E+002, 1.349E+003, 4.485E+002, 0.000E+000, 1.701E-002, 8.302E+001
 1.320E+002, 1.354E+003, 4.482E+002, 0.000E+000, 1.689E-002, 8.323E+001
 1.340E+002, 1.423E+003, 4.481E+002, 0.000E+000, 1.677E-002, 8.316E+001
 1.360E+002, 1.477E+003, 4.497E+002, 0.000E+000, 1.664E-002, 8.326E+001
 1.380E+002, 1.524E+003, 4.482E+002, 0.000E+000, 1.651E-002, 8.305E+001
 1.400E+002, 1.588E+003, 4.500E+002, 0.000E+000, 1.637E-002, 8.381E+001
 1.420E+002, 1.634E+003, 4.495E+002, 0.000E+000, 1.623E-002, 8.406E+001
 1.440E+002, 1.654E+003, 4.506E+002, 0.000E+000, 1.609E-002, 8.354E+001
 1.460E+002, 1.691E+003, 4.508E+002, 0.000E+000, 1.595E-002, 8.372E+001
 1.480E+002, 1.746E+003, 4.519E+002, 0.000E+000, 1.580E-002, 8.437E+001
 1.500E+002, 1.667E+003, 4.536E+002, 0.000E+000, 1.566E-002, 8.371E+001
 1.520E+002, 1.712E+003, 4.556E+002, 0.000E+000, 1.551E-002, 8.445E+001
 1.540E+002, 1.733E+003, 4.603E+002, 0.000E+000, 1.537E-002, 8.469E+001
 1.560E+002, 1.608E+003, 4.666E+002, 0.000E+000, 1.524E-002, 8.424E+001
 1.580E+002, 1.485E+003, 4.782E+002, 0.000E+000, 1.512E-002, 8.323E+001
 1.600E+002, 1.208E+003, 5.167E+002, 0.000E+000, 1.503E-002, 8.413E+001
 1.620E+002, 5.947E+002, 7.275E+002, 0.000E+000, 1.500E-002, 8.746E+001
 1.640E+002, 5.073E+002, 7.548E+002, 0.000E+000, 1.500E-002, 9.068E+001
 1.660E+002, 4.702E+002, 7.585E+002, 0.000E+000, 1.500E-002, 8.894E+001
 1.680E+002, 4.029E+002, 7.595E+002, 0.000E+000, 1.500E-002, 8.802E+001
 1.700E+002, 2.610E+002, 7.553E+002, 0.000E+000, 1.500E-002, 8.659E+001
 1.720E+002, 1.584E+002, 6.706E+002, 0.000E+000, 1.500E-002, 6.410E+001
 1.740E+002, 1.154E+002, 6.421E+002, 0.000E+000, 1.500E-002, 5.895E+001
 1.760E+002, 6.655E+001, 6.170E+002, 0.000E+000, 1.500E-002, 5.427E+001
 1.780E+002, 4.835E+001, 6.068E+002, 0.000E+000, 1.500E-002, 5.312E+001
 1.800E+002, 4.464E+001, 5.936E+002, 0.000E+000, 1.500E-002, 5.231E+001
 1.820E+002, 4.048E+001, 5.987E+002, 0.000E+000, 1.500E-002, 5.283E+001
 1.840E+002, 3.125E+001, 5.937E+002, 0.000E+000, 1.500E-002, 5.236E+001
 1.860E+002, 1.313E+001, 5.929E+002, 0.000E+000, 1.500E-002, 5.195E+001
 1.880E+002, 4.967E-008, 5.955E+002, 0.000E+000, 1.500E-002, 5.207E+001
 1.900E+002, 0.000E+000, 6.073E+002, 0.000E+000, 1.500E-002, 5.299E+001
 1.920E+002, 0.000E+000, 6.050E+002, 0.000E+000, 1.500E-002, 5.279E+001
 1.940E+002, 0.000E+000, 6.038E+002, 0.000E+000, 1.500E-002, 5.266E+001
 1.960E+002, 0.000E+000, 6.052E+002, 0.000E+000, 1.500E-002, 5.283E+001
 1.980E+002, 0.000E+000, 6.058E+002, 0.000E+000, 1.500E-002, 5.278E+001
 2.000E+002, 0.000E+000, 6.069E+002, 0.000E+000, 1.500E-002, 5.296E+001
 2.020E+002, 0.000E+000, 6.000E+002, 0.000E+000, 1.500E-002, 5.237E+001
 2.040E+002, 0.000E+000, 6.049E+002, 0.000E+000, 1.500E-002, 5.272E+001
 2.060E+002, 0.000E+000, 5.985E+002, 0.000E+000, 1.500E-002, 5.228E+001
 2.080E+002, 0.000E+000, 6.065E+002, 0.000E+000, 1.500E-002, 5.294E+001
 2.100E+002, 0.000E+000, 6.059E+002, 0.000E+000, 1.500E-002, 5.293E+001
 2.120E+002, 0.000E+000, 6.040E+002, 0.000E+000, 1.500E-002, 5.276E+001
 2.140E+002, 0.000E+000, 6.088E+002, 0.000E+000, 1.500E-002, 5.311E+001
 2.160E+002, 0.000E+000, 6.098E+002, 0.000E+000, 1.500E-002, 5.319E+001
 2.180E+002, 0.000E+000, 6.053E+002, 0.000E+000, 1.500E-002, 5.271E+001
 2.200E+002, 0.000E+000, 6.027E+002, 0.000E+000, 1.500E-002, 5.256E+001
 2.220E+002, 0.000E+000, 5.985E+002, 0.000E+000, 1.500E-002, 5.226E+001
 2.240E+002, 0.000E+000, 6.006E+002, 0.000E+000, 1.500E-002, 5.253E+001
 2.260E+002, 0.000E+000, 6.029E+002, 0.000E+000, 1.500E-002, 5.260E+001
 2.280E+002, 0.000E+000, 6.057E+002, 0.000E+000, 1.500E-002, 5.284E+001
 2.300E+002, 0.000E+000, 6.036E+002, 0.000E+000, 1.500E-002, 5.267E+001
 2.320E+002, 0.000E+000, 6.030E+002, 0.000E+000, 1.500E-002, 5.270E+001
 2.340E+002, 0.000E+000, 6.021E+002, 0.000E+000, 1.500E-002, 5.256E+001
 2.360E+002, 0.000E+000, 6.034E+002, 0.000E+000, 1.500E-002, 5.267E+001
 2.380E+002, 0.000E+000, 6.033E+002, 0.000E+000, 1.500E-002, 5.262E+001
 2.400E+002, 0.000E+000, 6.017E+002, 0.000E+000, 1.500E-002, 5.251E+001
 2.420E+002, 0.000E+000, 5.973E+002, 0.000E+000, 1.500E-002, 5.218E+001
 2.440E+002, 0.000E+000, 6.029E+002, 0.000E+000, 1.500E-002, 5.264E+001
 2.460E+002, 0.000E+000, 6.037E+002, 0.000E+000, 1.500E-002, 5.267E+001
 2.480E+002, 0.000E+000, 6.007E+002, 0.000E+000, 1.500E-002, 5.246E+001
 2.500E+002, 0.000E+000, 6.045E+002, 0.000E+000, 1.500E-002, 5.270E+001
 2.520E+002, 0.000E+000, 6.009E+002, 0.000E+000, 1.500E-002, 5.244E+001
 2.540E+002, 0.000E+000, 6.022E+002, 0.000E+000, 1.500E-002, 5.265E+001
 2.560E+002, 0.000E+000, 5.993E+002, 0.000E+000, 1.500E-002, 5.232E+001
 2.580E+002, 0.000E+000, 6.049E+002, 0.000E+000, 1.500E-002, 5.282E+001
 2.600E+002, 0.000E+000, 6.084E+002, 0.000E+000, 1.500E-002, 5.313E+001
 2.620E+002, 0.000E+000, 6.037E+002, 0.000E+000, 1.500E-002, 5.266E+001
 2.640E+002, 0.000E+000, 6.027E+002, 0.000E+000, 1.500E-002, 5.256E+001
 2.660E+002, 0.000E+000, 6.029E+002, 0.000E+000, 1.500E-002, 5.264E+001
 2.680E+002, 0.000E+000, 6.010E+002, 0.000E+000, 1.500E-002, 5.242E+001
 2.700E+002, 0.000E+000, 6.047E+002, 0.000E+000, 1.500E-002, 5.282E+001
 2.720E+002, 0.000E+000, 6.012E+002, 0.000E+000, 1.500E-002, 5.252E+001
 2.740E+002, 0.000E+000, 6.088E+002, 0.000E+000, 1.500E-002, 5.319E+001
 2.760E+002, 0.000E+000, 6.025E+002, 0.000E+000, 1.500E-002, 5.254E+001
 2.780E+002, 0.000E+000, 6.075E+002, 0.000E+000, 1.500E-002, 5.306E+001
 2.800E+002, 0.000E+000, 6.032E+002, 0.000E+000, 1.500E-002, 5.261E+001
 2.820E+002, 0.000E+000, 6.028E+002, 0.000E+000, 1.500E-002, 5.262E+001
 2.840E+002, 0.000E+000, 5.989E+002, 0.000E+000, 1.500E-002, 5.229E+001
 2.860E+002, 0.000E+000, 6.026E+002, 0.000E+000, 1.500E-002, 5.258E+001
 2.880E+002, 0.000E+000, 6.029E+002, 0.000E+000, 1.500E-002, 5.266E+001
 2.900E+002, 0.000E+000, 6.013E+002, 0.000E+000, 1.500E-002, 5.252E+001
 2.920E+002, 0.000E+000, 6.093E+002, 0.000E+000, 1.500E-002, 5.324E+001
 2.940E+002, 0.000E+000, 6.070E+002, 0.000E+000, 1.500E-002, 5.295E+001
 2.960E+002, 0.000E+000, 6.086E+002, 0.000E+000, 1.500E-002, 5.307E+001
 2.980E+002, 0.000E+000, 6.042E+002, 0.000E+000, 1.500E-002, 5.267E+001
 3.000E+002, 0.000E+000, 5.930E+002, 0.000E+000, 1.500E-002, 5.185E+001
