s,kW,C,kg/s,m,kW/m2
Time,"HRR","temp","MLR","thick","flux"
 0.000E+000, 0.000E+000, 2.000E+001, 0.000E+000, 1.900E-002,-4.759E-011
 2.012E+000, 0.000E+000, 3.597E+001, 7.079E-022, 1.900E-002, 3.502E+001
 4.003E+000, 0.000E+000, 5.862E+001, 7.821E-020, 1.900E-002, 3.510E+001
 6.016E+000, 0.000E+000, 7.539E+001, 2.412E-018, 1.900E-002, 3.519E+001
 8.004E+000, 0.000E+000, 8.927E+001, 3.461E-017, 1.900E-002, 3.523E+001
 1.001E+001, 0.000E+000, 1.013E+002, 3.117E-016, 1.900E-002, 3.526E+001
 1.202E+001, 0.000E+000, 1.121E+002, 2.024E-015, 1.900E-002, 3.528E+001
 1.401E+001, 0.000E+000, 1.219E+002, 1.018E-014, 1.900E-002, 3.528E+001
 1.601E+001, 0.000E+000, 1.309E+002, 4.219E-014, 1.900E-002, 3.531E+001
 1.801E+001, 0.000E+000, 1.393E+002, 1.503E-013, 1.900E-002, 3.534E+001
 2.000E+001, 0.000E+000, 1.472E+002, 4.705E-013, 1.900E-002, 3.536E+001
 2.200E+001, 3.098E-009, 1.546E+002, 1.333E-012, 1.900E-002, 3.543E+001
 2.401E+001, 3.296E-008, 1.618E+002, 3.470E-012, 1.900E-002, 3.550E+001
 2.601E+001, 1.218E-007, 1.684E+002, 8.382E-012, 1.900E-002, 3.545E+001
 2.800E+001, 3.231E-007, 1.748E+002, 1.896E-011, 1.900E-002, 3.547E+001
 3.001E+001, 7.301E-007, 1.809E+002, 4.077E-011, 1.900E-002, 3.552E+001
 3.201E+001, 1.533E-006, 1.869E+002, 8.336E-011, 1.900E-002, 3.562E+001
 3.401E+001, 3.057E-006, 1.926E+002, 1.633E-010, 1.900E-002, 3.557E+001
 3.600E+001, 5.828E-006, 1.980E+002, 3.077E-010, 1.900E-002, 3.557E+001
 3.801E+001, 1.071E-005, 2.034E+002, 5.620E-010, 1.900E-002, 3.566E+001
 4.000E+001, 1.907E-005, 2.086E+002, 9.964E-010, 1.900E-002, 3.564E+001
 4.200E+001, 3.295E-005, 2.136E+002, 1.717E-009, 1.900E-002, 3.570E+001
 4.400E+001, 5.554E-005, 2.187E+002, 2.891E-009, 1.900E-002, 3.575E+001
 4.600E+001, 9.170E-005, 2.234E+002, 4.765E-009, 1.900E-002, 3.576E+001
 4.801E+001, 1.482E-004, 2.281E+002, 7.701E-009, 1.900E-002, 3.573E+001
 5.001E+001, 2.356E-004, 2.327E+002, 1.222E-008, 1.900E-002, 3.584E+001
 5.201E+001, 3.676E-004, 2.373E+002, 1.907E-008, 1.900E-002, 3.584E+001
 5.401E+001, 5.653E-004, 2.417E+002, 2.930E-008, 1.900E-002, 3.584E+001
 5.601E+001, 8.552E-004, 2.460E+002, 4.432E-008, 1.900E-002, 3.585E+001
 5.801E+001, 1.278E-003, 2.503E+002, 6.619E-008, 1.900E-002, 3.586E+001
 6.001E+001, 1.887E-003, 2.544E+002, 9.770E-008, 1.900E-002, 3.586E+001
 6.200E+001, 2.752E-003, 2.585E+002, 1.424E-007, 1.900E-002, 3.590E+001
 6.400E+001, 3.968E-003, 2.627E+002, 2.053E-007, 1.900E-002, 3.597E+001
 6.600E+001, 5.664E-003, 2.666E+002, 2.931E-007, 1.900E-002, 3.593E+001
 6.800E+001, 8.006E-003, 2.706E+002, 4.140E-007, 1.900E-002, 3.592E+001
 7.001E+001, 1.121E-002, 2.743E+002, 5.798E-007, 1.900E-002, 3.587E+001
 7.200E+001, 1.558E-002, 2.782E+002, 8.048E-007, 1.900E-002, 3.595E+001
 7.401E+001, 2.142E-002, 2.818E+002, 1.107E-006, 1.900E-002, 3.591E+001
 7.601E+001, 2.931E-002, 2.859E+002, 1.514E-006, 1.900E-002, 3.612E+001
 7.800E+001, 3.974E-002, 2.895E+002, 2.051E-006, 1.900E-002, 3.601E+001
 8.000E+001, 5.350E-002, 2.933E+002, 2.762E-006, 1.900E-002, 3.610E+001
 8.201E+001, 7.155E-002, 2.969E+002, 3.693E-006, 1.900E-002, 3.609E+001
 8.400E+001, 9.500E-002, 3.004E+002, 4.903E-006, 1.900E-002, 3.604E+001
 8.601E+001, 1.254E-001, 3.036E+002, 6.464E-006, 1.900E-002, 3.599E+001
 8.801E+001, 1.643E-001, 3.069E+002, 8.478E-006, 1.900E-002, 3.591E+001
 9.000E+001, 2.142E-001, 3.102E+002, 1.105E-005, 1.900E-002, 3.603E+001
 9.201E+001, 2.781E-001, 3.137E+002, 1.435E-005, 1.900E-002, 3.609E+001
 9.401E+001, 3.595E-001, 3.173E+002, 1.854E-005, 1.900E-002, 3.632E+001
 9.600E+001, 4.623E-001, 3.205E+002, 2.381E-005, 1.900E-002, 3.612E+001
 9.801E+001, 5.912E-001, 3.238E+002, 3.049E-005, 1.900E-002, 3.628E+001
 1.000E+002, 7.543E-001, 3.277E+002, 3.886E-005, 1.900E-002, 3.663E+001
 1.020E+002, 9.560E-001, 3.313E+002, 4.926E-005, 1.900E-002, 3.680E+001
 1.040E+002, 1.206E+000, 3.347E+002, 6.215E-005, 1.900E-002, 3.687E+001
 1.060E+002, 1.521E+000, 3.379E+002, 7.838E-005, 1.900E-002, 3.680E+001
 1.080E+002, 1.911E+000, 3.415E+002, 9.847E-005, 1.900E-002, 3.716E+001
 1.100E+002, 2.397E+000, 3.444E+002, 1.233E-004, 1.900E-002, 3.693E+001
 1.120E+002, 2.997E+000, 3.487E+002, 1.543E-004, 1.900E-002, 3.846E+001
 1.140E+002, 3.754E+000, 3.530E+002, 1.934E-004, 1.900E-002, 3.860E+001
 1.160E+002, 4.690E+000, 3.567E+002, 2.418E-004, 1.900E-002, 3.877E+001
 1.180E+002, 5.870E+000, 3.610E+002, 3.023E-004, 1.900E-002, 4.013E+001
 1.200E+002, 7.360E+000, 3.664E+002, 3.787E-004, 1.900E-002, 4.210E+001
 1.220E+002, 9.271E+000, 3.720E+002, 4.775E-004, 1.899E-002, 4.296E+001
 1.240E+002, 1.175E+001, 3.779E+002, 6.053E-004, 1.899E-002, 4.488E+001
 1.260E+002, 1.505E+001, 3.860E+002, 7.750E-004, 1.899E-002, 5.020E+001
 1.280E+002, 1.960E+001, 3.949E+002, 1.011E-003, 1.898E-002, 5.328E+001
 1.300E+002, 2.656E+001, 4.052E+002, 1.374E-003, 1.898E-002, 6.031E+001
 1.320E+002, 3.744E+001, 4.173E+002, 1.948E-003, 1.896E-002, 6.446E+001
 1.340E+002, 5.328E+001, 4.247E+002, 2.771E-003, 1.894E-002, 6.559E+001
 1.360E+002, 7.465E+001, 4.306E+002, 3.903E-003, 1.891E-002, 6.978E+001
 1.380E+002, 1.031E+002, 4.334E+002, 5.370E-003, 1.887E-002, 6.706E+001
 1.400E+002, 1.379E+002, 4.350E+002, 7.205E-003, 1.882E-002, 6.749E+001
 1.420E+002, 1.771E+002, 4.337E+002, 9.386E-003, 1.878E-002, 6.699E+001
 1.440E+002, 2.313E+002, 4.337E+002, 1.200E-002, 1.873E-002, 6.584E+001
 1.460E+002, 2.842E+002, 4.339E+002, 1.482E-002, 1.868E-002, 6.421E+001
 1.480E+002, 3.453E+002, 4.352E+002, 1.805E-002, 1.863E-002, 6.547E+001
 1.500E+002, 4.029E+002, 4.364E+002, 2.125E-002, 1.857E-002, 6.578E+001
 1.520E+002, 4.691E+002, 4.373E+002, 2.471E-002, 1.852E-002, 6.562E+001
 1.540E+002, 5.389E+002, 4.357E+002, 2.760E-002, 1.846E-002, 6.710E+001
 1.560E+002, 5.753E+002, 4.367E+002, 3.017E-002, 1.840E-002, 6.590E+001
 1.580E+002, 6.398E+002, 4.371E+002, 3.283E-002, 1.834E-002, 6.604E+001
 1.600E+002, 6.705E+002, 4.372E+002, 3.515E-002, 1.828E-002, 6.430E+001
 1.620E+002, 7.167E+002, 4.381E+002, 3.708E-002, 1.821E-002, 6.544E+001
 1.640E+002, 7.577E+002, 4.377E+002, 3.883E-002, 1.815E-002, 6.831E+001
 1.660E+002, 7.711E+002, 4.378E+002, 4.054E-002, 1.808E-002, 6.526E+001
 1.680E+002, 8.117E+002, 4.385E+002, 4.222E-002, 1.801E-002, 6.622E+001
 1.700E+002, 8.567E+002, 4.393E+002, 4.437E-002, 1.793E-002, 6.567E+001
 1.720E+002, 8.787E+002, 4.386E+002, 4.542E-002, 1.786E-002, 6.531E+001
 1.740E+002, 8.838E+002, 4.382E+002, 4.640E-002, 1.778E-002, 6.631E+001
 1.760E+002, 9.325E+002, 4.397E+002, 4.827E-002, 1.771E-002, 6.847E+001
 1.780E+002, 9.470E+002, 4.410E+002, 4.978E-002, 1.762E-002, 6.694E+001
 1.800E+002, 9.787E+002, 4.402E+002, 5.119E-002, 1.754E-002, 6.663E+001
 1.820E+002, 9.903E+002, 4.390E+002, 5.208E-002, 1.745E-002, 6.576E+001
 1.840E+002, 1.014E+003, 4.402E+002, 5.352E-002, 1.737E-002, 6.634E+001
 1.860E+002, 1.051E+003, 4.416E+002, 5.499E-002, 1.728E-002, 6.739E+001
 1.880E+002, 1.077E+003, 4.403E+002, 5.630E-002, 1.718E-002, 6.775E+001
 1.900E+002, 1.101E+003, 4.409E+002, 5.823E-002, 1.709E-002, 6.691E+001
 1.920E+002, 1.134E+003, 4.416E+002, 5.945E-002, 1.699E-002, 6.658E+001
 1.940E+002, 1.145E+003, 4.417E+002, 6.121E-002, 1.689E-002, 6.853E+001
 1.960E+002, 1.166E+003, 4.418E+002, 6.253E-002, 1.679E-002, 6.834E+001
 1.980E+002, 1.221E+003, 4.429E+002, 6.416E-002, 1.669E-002, 6.837E+001
 2.000E+002, 1.241E+003, 4.427E+002, 6.556E-002, 1.658E-002, 6.857E+001
 2.020E+002, 1.262E+003, 4.423E+002, 6.737E-002, 1.648E-002, 6.835E+001
 2.040E+002, 1.291E+003, 4.435E+002, 6.876E-002, 1.637E-002, 6.812E+001
 2.060E+002, 1.275E+003, 4.430E+002, 6.951E-002, 1.626E-002, 6.763E+001
 2.080E+002, 1.286E+003, 4.430E+002, 7.013E-002, 1.615E-002, 6.772E+001
 2.100E+002, 1.331E+003, 4.443E+002, 7.106E-002, 1.604E-002, 6.777E+001
 2.120E+002, 1.355E+003, 4.446E+002, 7.226E-002, 1.593E-002, 6.913E+001
 2.140E+002, 1.362E+003, 4.456E+002, 7.336E-002, 1.582E-002, 6.880E+001
 2.160E+002, 1.350E+003, 4.473E+002, 7.369E-002, 1.571E-002, 6.854E+001
 2.180E+002, 1.374E+003, 4.477E+002, 7.355E-002, 1.560E-002, 6.847E+001
 2.200E+002, 1.334E+003, 4.501E+002, 7.306E-002, 1.549E-002, 6.779E+001
 2.220E+002, 1.370E+003, 4.538E+002, 7.299E-002, 1.539E-002, 6.846E+001
 2.240E+002, 1.364E+003, 4.582E+002, 7.205E-002, 1.528E-002, 6.895E+001
 2.260E+002, 1.305E+003, 4.652E+002, 6.864E-002, 1.519E-002, 6.922E+001
 2.280E+002, 1.205E+003, 4.753E+002, 6.417E-002, 1.510E-002, 6.823E+001
 2.300E+002, 1.134E+003, 4.968E+002, 5.622E-002, 1.503E-002, 6.828E+001
 2.320E+002, 8.307E+002, 6.473E+002, 4.024E-002, 1.500E-002, 6.952E+001
 2.340E+002, 5.747E+002, 7.033E+002, 2.805E-002, 1.500E-002, 7.470E+001
 2.360E+002, 4.293E+002, 7.013E+002, 2.201E-002, 1.500E-002, 7.201E+001
 2.380E+002, 4.015E+002, 7.125E+002, 2.033E-002, 1.500E-002, 7.425E+001
 2.400E+002, 3.670E+002, 7.141E+002, 1.881E-002, 1.500E-002, 7.316E+001
 2.420E+002, 3.634E+002, 7.271E+002, 1.852E-002, 1.500E-002, 7.618E+001
 2.440E+002, 3.458E+002, 7.236E+002, 1.766E-002, 1.500E-002, 7.470E+001
 2.460E+002, 3.265E+002, 7.213E+002, 1.659E-002, 1.500E-002, 7.447E+001
 2.480E+002, 2.989E+002, 7.174E+002, 1.529E-002, 1.500E-002, 7.238E+001
 2.500E+002, 2.646E+002, 7.164E+002, 1.342E-002, 1.500E-002, 7.224E+001
 2.520E+002, 2.079E+002, 7.019E+002, 1.050E-002, 1.500E-002, 6.799E+001
 2.540E+002, 1.586E+002, 6.370E+002, 8.079E-003, 1.500E-002, 5.357E+001
 2.560E+002, 1.316E+002, 6.154E+002, 6.723E-003, 1.500E-002, 4.947E+001
 2.580E+002, 1.022E+002, 5.706E+002, 5.211E-003, 1.500E-002, 4.205E+001
 2.600E+002, 8.688E+001, 5.597E+002, 4.454E-003, 1.500E-002, 4.095E+001
 2.620E+002, 8.036E+001, 5.393E+002, 4.139E-003, 1.500E-002, 3.896E+001
 2.640E+002, 6.595E+001, 5.367E+002, 3.308E-003, 1.500E-002, 3.876E+001
 2.660E+002, 3.582E+001, 5.288E+002, 1.831E-003, 1.500E-002, 3.737E+001
 2.680E+002, 3.515E+001, 5.240E+002, 1.802E-003, 1.500E-002, 3.724E+001
 2.700E+002, 3.448E+001, 5.195E+002, 1.768E-003, 1.500E-002, 3.708E+001
 2.720E+002, 3.178E+001, 5.218E+002, 1.630E-003, 1.500E-002, 3.726E+001
 2.740E+002, 3.068E+001, 5.161E+002, 1.579E-003, 1.500E-002, 3.686E+001
 2.760E+002, 2.885E+001, 5.179E+002, 1.467E-003, 1.500E-002, 3.707E+001
 2.780E+002, 2.441E+001, 5.178E+002, 1.252E-003, 1.500E-002, 3.702E+001
 2.800E+002, 2.207E+001, 5.222E+002, 1.128E-003, 1.500E-002, 3.723E+001
 2.820E+002, 1.581E+001, 5.210E+002, 8.052E-004, 1.500E-002, 3.704E+001
 2.840E+002, 9.014E+000, 5.182E+002, 4.497E-004, 1.500E-002, 3.676E+001
 2.860E+002, 1.901E+000, 5.159E+002, 9.185E-005, 1.500E-002, 3.657E+001
 2.880E+002, 5.899E-008, 5.209E+002, 0.000E+000, 1.500E-002, 3.686E+001
 2.900E+002, 0.000E+000, 5.170E+002, 0.000E+000, 1.500E-002, 3.665E+001
 2.920E+002, 0.000E+000, 5.304E+002, 0.000E+000, 1.500E-002, 3.756E+001
 2.940E+002, 0.000E+000, 5.297E+002, 0.000E+000, 1.500E-002, 3.750E+001
 2.960E+002, 0.000E+000, 5.303E+002, 0.000E+000, 1.500E-002, 3.748E+001
 2.980E+002, 0.000E+000, 5.252E+002, 0.000E+000, 1.500E-002, 3.708E+001
 3.000E+002, 0.000E+000, 5.276E+002, 0.000E+000, 1.500E-002, 3.730E+001
