s,C,kg/m2/s,m
Time,"temp","MLR","thick"
 0.0000000E+000, 2.0000000E+001, 0.0000000E+000, 3.2234300E-002
 5.0100000E+000, 6.9967871E+001, 0.0000000E+000, 3.2234300E-002
 1.0010000E+001, 1.2929794E+002, 0.0000000E+000, 3.2234300E-002
 1.5010000E+001, 1.6897876E+002, 0.0000000E+000, 3.2234300E-002
 2.0000000E+001, 2.0047666E+002, 0.0000000E+000, 3.2234300E-002
 2.5000000E+001, 2.2700003E+002, 0.0000000E+000, 3.2234300E-002
 3.0000000E+001, 2.5005021E+002, 0.0000000E+000, 3.2234300E-002
 3.5000000E+001, 2.6466986E+002, 4.1642639E-010, 3.2234300E-002
 4.0000000E+001, 2.8383119E+002, 5.2145068E-009, 3.2234300E-002
 4.5010000E+001, 2.9770244E+002, 2.2334368E-008, 3.2234300E-002
 5.0010000E+001, 3.1477210E+002, 1.1880257E-007, 3.2234300E-002
 5.5010000E+001, 3.2724711E+002, 3.6666478E-007, 3.2234299E-002
 6.0010000E+001, 3.4052511E+002, 1.2394377E-006, 3.2234296E-002
 6.5010000E+001, 3.5273255E+002, 3.4525274E-006, 3.2234286E-002
 7.0010000E+001, 3.6291508E+002, 8.1986008E-006, 3.2234262E-002
 7.5000000E+001, 3.7396127E+002, 2.0019827E-005, 3.2234204E-002
 8.0000000E+001, 3.8316367E+002, 4.0791507E-005, 3.2234076E-002
 8.5000000E+001, 3.9202336E+002, 8.1082363E-005, 3.2233821E-002
 9.0000000E+001, 4.0083057E+002, 1.5600078E-004, 3.2233318E-002
 9.5000000E+001, 4.0819151E+002, 2.6654636E-004, 3.2232416E-002
 1.0000000E+002, 4.1539432E+002, 4.4825900E-004, 3.2230894E-002
 1.0500000E+002, 4.2203061E+002, 7.1253624E-004, 3.2228392E-002
 1.1000000E+002, 4.2750059E+002, 1.0406293E-003, 3.2224611E-002
 1.1500000E+002, 4.3259607E+002, 1.4760083E-003, 3.2219177E-002
 1.2000000E+002, 4.3690415E+002, 1.9682023E-003, 3.2211688E-002
 1.2500000E+002, 4.4037266E+002, 2.4799796E-003, 3.2202037E-002
 1.3000000E+002, 4.4348563E+002, 3.0446362E-003, 3.2190033E-002
 1.3500000E+002, 4.4600035E+002, 3.5764728E-003, 3.2175614E-002
 1.4000000E+002, 4.4811321E+002, 4.0931719E-003, 3.2158948E-002
 1.4500000E+002, 4.5002018E+002, 4.6119343E-003, 3.2140006E-002
 1.5000000E+002, 4.5158901E+002, 5.0728112E-003, 3.2118937E-002
 1.5500000E+002, 4.5301604E+002, 5.5317320E-003, 3.2095885E-002
 1.6001000E+002, 4.5429393E+002, 5.9635635E-003, 3.2070847E-002
 1.6501000E+002, 4.5541483E+002, 6.3662544E-003, 3.2044017E-002
 1.7001000E+002, 4.5646354E+002, 6.7642918E-003, 3.2015460E-002
 1.7501000E+002, 4.5739413E+002, 7.1322360E-003, 3.1985244E-002
 1.8001000E+002, 4.5826226E+002, 7.4958112E-003, 3.1953438E-002
 1.8501000E+002, 4.5747042E+002, 7.7238571E-003, 3.1920197E-002
 1.9001000E+002, 4.5617375E+002, 8.0109878E-003, 3.1886189E-002
 1.9501000E+002, 4.5726552E+002, 8.4417925E-003, 3.1850388E-002
 2.0001000E+002, 4.5820870E+002, 8.8095318E-003, 3.1812867E-002
 2.0501000E+002, 4.5906405E+002, 9.1445808E-003, 3.1773827E-002
 2.1001000E+002, 4.5985316E+002, 9.4592347E-003, 3.1733376E-002
 2.1501000E+002, 4.6058319E+002, 9.7578278E-003, 3.1691593E-002
 2.2001000E+002, 4.6125894E+002, 1.0043017E-002, 3.1648542E-002
 2.2501000E+002, 4.6188103E+002, 1.0315053E-002, 3.1604279E-002
 2.3001000E+002, 4.5944737E+002, 1.0372344E-002, 3.1559288E-002
 2.3501000E+002, 4.5988034E+002, 1.0737178E-002, 3.1513446E-002
 2.4001000E+002, 4.6069432E+002, 1.1054269E-002, 3.1466050E-002
 2.4501000E+002, 4.6143056E+002, 1.1336272E-002, 3.1417368E-002
 2.5001000E+002, 4.6211862E+002, 1.1611760E-002, 3.1367479E-002
 2.5501000E+002, 4.6276722E+002, 1.1889898E-002, 3.1316390E-002
 2.6001000E+002, 4.6337783E+002, 1.2172727E-002, 3.1264080E-002
 2.6501000E+002, 4.6092526E+002, 1.2244533E-002, 3.1211046E-002
 2.7001000E+002, 4.6164679E+002, 1.2685048E-002, 3.1156841E-002
 2.7501000E+002, 4.6244143E+002, 1.3043148E-002, 3.1100887E-002
 2.8001000E+002, 4.6316165E+002, 1.3363319E-002, 3.1043472E-002
 2.8501000E+002, 4.6382291E+002, 1.3664779E-002, 3.0984708E-002
 2.9001000E+002, 4.6442950E+002, 1.3954234E-002, 3.0924662E-002
 2.9501000E+002, 4.6204456E+002, 1.4023835E-002, 3.0863927E-002
 3.0001000E+002, 4.6286473E+002, 1.4472501E-002, 3.0801920E-002
 3.0501000E+002, 4.6360855E+002, 1.4809683E-002, 3.0738240E-002
 3.1001000E+002, 4.6427912E+002, 1.5106024E-002, 3.0673195E-002
 3.1501000E+002, 4.6489168E+002, 1.5383006E-002, 3.0606908E-002
 3.2001000E+002, 4.6347192E+002, 1.5474628E-002, 3.0539747E-002
 3.2501000E+002, 4.6338842E+002, 1.5842911E-002, 3.0471784E-002
 3.3001000E+002, 4.6412507E+002, 1.6175658E-002, 3.0402145E-002
 3.3501000E+002, 4.6478171E+002, 1.6452400E-002, 3.0331201E-002
 3.4001000E+002, 4.6537831E+002, 1.6703870E-002, 3.0259114E-002
 3.4501000E+002, 4.6363906E+002, 1.6753419E-002, 3.0186389E-002
 3.5001000E+002, 4.6401190E+002, 1.7134010E-002, 3.0112740E-002
 3.5501000E+002, 4.6470393E+002, 1.7413869E-002, 3.0037607E-002
 3.6001000E+002, 4.6532460E+002, 1.7642993E-002, 2.9961384E-002
 3.6501000E+002, 4.6503141E+002, 1.7745487E-002, 2.9884298E-002
 3.7001000E+002, 4.6393795E+002, 1.7929954E-002, 2.9806960E-002
 3.7501000E+002, 4.6467313E+002, 1.8222388E-002, 2.9728307E-002
 3.8001000E+002, 4.6531148E+002, 1.8421496E-002, 2.9648627E-002
 3.8501000E+002, 4.6586247E+002, 1.8578849E-002, 2.9568175E-002
 3.9001000E+002, 4.6390002E+002, 1.8535463E-002, 2.9487623E-002
 3.9501000E+002, 4.6468890E+002, 1.8846376E-002, 2.9406249E-002
 4.0001000E+002, 4.6533209E+002, 1.9005758E-002, 2.9323937E-002
 4.0501000E+002, 4.6591304E+002, 1.9122248E-002, 2.9241040E-002
 4.1001000E+002, 4.6431711E+002, 1.9041976E-002, 2.9158105E-002
 4.1501000E+002, 4.6473665E+002, 1.9287579E-002, 2.9074773E-002
 4.2001000E+002, 4.6538858E+002, 1.9416812E-002, 2.8990606E-002
 4.2501000E+002, 4.6597226E+002, 1.9497634E-002, 2.8905997E-002
 4.3001000E+002, 4.6454604E+002, 1.9389830E-002, 2.8821460E-002
 4.3501000E+002, 4.6481975E+002, 1.9595291E-002, 2.8736736E-002
 4.4001000E+002, 4.6547072E+002, 1.9697068E-002, 2.8651292E-002
 4.4501000E+002, 4.6605895E+002, 1.9754969E-002, 2.8565517E-002
 4.5001000E+002, 4.6465775E+002, 1.9630493E-002, 2.8479898E-002
 4.5501000E+002, 4.6493622E+002, 1.9816667E-002, 2.8394172E-002
 4.6001000E+002, 4.6559191E+002, 1.9902909E-002, 2.8307798E-002
 4.6501000E+002, 4.6618787E+002, 1.9947786E-002, 2.8221157E-002
 4.7001000E+002, 4.6470934E+002, 1.9811757E-002, 2.8134753E-002
 4.7501000E+002, 4.6510556E+002, 1.9995610E-002, 2.8048215E-002
 4.8001000E+002, 4.6576682E+002, 2.0068325E-002, 2.7961094E-002
 4.8501000E+002, 4.6636778E+002, 2.0098115E-002, 2.7873766E-002
 4.9001000E+002, 4.6474498E+002, 1.9955421E-002, 2.7786771E-002
 4.9501000E+002, 4.6533701E+002, 2.0142551E-002, 2.7699552E-002
 5.0001000E+002, 4.6601399E+002, 2.0203368E-002, 2.7611820E-002
 5.0501000E+002, 4.6658789E+002, 2.0214051E-002, 2.7523934E-002
 5.1001000E+002, 4.6485783E+002, 2.0080645E-002, 2.7436479E-002
 5.1501000E+002, 4.6567532E+002, 2.0266868E-002, 2.7348663E-002
 5.2001000E+002, 4.6637791E+002, 2.0307556E-002, 2.7260434E-002
 5.2501000E+002, 4.6667318E+002, 2.0262220E-002, 2.7172146E-002
 5.3001000E+002, 4.6535456E+002, 2.0217852E-002, 2.7084338E-002
 5.3501000E+002, 4.6620052E+002, 2.0359085E-002, 2.6996037E-002
 5.4001000E+002, 4.6695624E+002, 2.0369034E-002, 2.6907478E-002
 5.4501000E+002, 4.6699047E+002, 2.0274777E-002, 2.6819013E-002
 5.5001000E+002, 4.6614851E+002, 2.0303267E-002, 2.6730988E-002
 5.5501000E+002, 4.6708845E+002, 2.0377119E-002, 2.6642474E-002
 5.6001000E+002, 4.6796921E+002, 2.0344708E-002, 2.6553937E-002
 5.6501000E+002, 4.6787345E+002, 2.0225474E-002, 2.6465663E-002
 5.7001000E+002, 4.6765111E+002, 2.0274930E-002, 2.6377735E-002
 5.7501000E+002, 4.6885174E+002, 2.0248720E-002, 2.6289592E-002
 5.8001000E+002, 4.7009012E+002, 2.0161080E-002, 2.6201734E-002
 5.8501000E+002, 4.7030949E+002, 1.9987272E-002, 2.6114409E-002
 5.9001000E+002, 4.7111854E+002, 1.9921785E-002, 2.6027692E-002
 5.9501000E+002, 4.7319769E+002, 1.9755775E-002, 2.5941406E-002
 6.0001000E+002, 4.7563958E+002, 1.9522725E-002, 2.5855996E-002
 6.0501000E+002, 4.7809995E+002, 1.9088758E-002, 2.5771920E-002
 6.1001000E+002, 4.8205887E+002, 1.8673218E-002, 2.5689906E-002
 6.1501000E+002, 4.8813212E+002, 1.8089846E-002, 2.5609882E-002
 6.2001000E+002, 4.9760299E+002, 1.7067348E-002, 2.5533217E-002
 6.2501000E+002, 5.2116175E+002, 1.3962000E-002, 2.5463827E-002
 6.3001000E+002, 5.3980954E+002, 1.6701111E-004, 2.5434332E-002
 6.3501000E+002, 5.1984432E+002, 0.0000000E+000, 2.5434300E-002
 6.4001000E+002, 5.1557929E+002, 0.0000000E+000, 2.5434300E-002
 6.4501000E+002, 5.1427596E+002, 0.0000000E+000, 2.5434300E-002
 6.5001000E+002, 5.1407672E+002, 0.0000000E+000, 2.5434300E-002
 6.5501000E+002, 5.1439066E+002, 0.0000000E+000, 2.5434300E-002
 6.6001000E+002, 5.1496106E+002, 0.0000000E+000, 2.5434300E-002
 6.6501000E+002, 5.1565952E+002, 0.0000000E+000, 2.5434300E-002
 6.7001000E+002, 5.1641718E+002, 0.0000000E+000, 2.5434300E-002
 6.7501000E+002, 5.1719539E+002, 0.0000000E+000, 2.5434300E-002
 6.8001000E+002, 5.1797184E+002, 0.0000000E+000, 2.5434300E-002
 6.8501000E+002, 5.1873348E+002, 0.0000000E+000, 2.5434300E-002
 6.9001000E+002, 5.1947273E+002, 0.0000000E+000, 2.5434300E-002
 6.9501000E+002, 5.2018535E+002, 0.0000000E+000, 2.5434300E-002
 7.0001000E+002, 5.2086914E+002, 0.0000000E+000, 2.5434300E-002
 7.0501000E+002, 5.2152317E+002, 0.0000000E+000, 2.5434300E-002
 7.1001000E+002, 5.2214736E+002, 0.0000000E+000, 2.5434300E-002
 7.1501000E+002, 5.2274211E+002, 0.0000000E+000, 2.5434300E-002
 7.2001000E+002, 5.2330815E+002, 0.0000000E+000, 2.5434300E-002
 7.2501000E+002, 5.2384638E+002, 0.0000000E+000, 2.5434300E-002
 7.3001000E+002, 5.2435781E+002, 0.0000000E+000, 2.5434300E-002
 7.3501000E+002, 5.2484350E+002, 0.0000000E+000, 2.5434300E-002
 7.4001000E+002, 5.2530454E+002, 0.0000000E+000, 2.5434300E-002
 7.4501000E+002, 5.2574199E+002, 0.0000000E+000, 2.5434300E-002
 7.5000000E+002, 5.2615654E+002, 0.0000000E+000, 2.5434300E-002
