s,C,kg/m2/s,m
Time,"temp","MLR","thick"
 0.0000000E+000, 2.0000000E+001, 0.0000000E+000, 3.2234300E-002
 5.0100000E+000, 6.9967871E+001, 0.0000000E+000, 3.2234300E-002
 1.0010000E+001, 1.2929794E+002, 0.0000000E+000, 3.2234300E-002
 1.5010000E+001, 1.6897876E+002, 0.0000000E+000, 3.2234300E-002
 2.0000000E+001, 2.0047666E+002, 0.0000000E+000, 3.2234300E-002
 2.5000000E+001, 2.2700003E+002, 0.0000000E+000, 3.2234300E-002
 3.0000000E+001, 2.5005021E+002, 0.0000000E+000, 3.2234300E-002
 3.5000000E+001, 2.6466986E+002, 4.1642639E-010, 3.2234300E-002
 4.0000000E+001, 2.8383119E+002, 5.2145068E-009, 3.2234300E-002
 4.5010000E+001, 2.9770244E+002, 2.2334368E-008, 3.2234300E-002
 5.0010000E+001, 3.1477210E+002, 1.1880257E-007, 3.2234300E-002
 5.5010000E+001, 3.2724711E+002, 3.6666478E-007, 3.2234299E-002
 6.0010000E+001, 3.4052511E+002, 1.2394377E-006, 3.2234296E-002
 6.5010000E+001, 3.5273255E+002, 3.4525274E-006, 3.2234286E-002
 7.0010000E+001, 3.6291508E+002, 8.1986008E-006, 3.2234262E-002
 7.5000000E+001, 3.7396127E+002, 2.0019827E-005, 3.2234204E-002
 8.0000000E+001, 3.8316367E+002, 4.0791507E-005, 3.2234076E-002
 8.5000000E+001, 3.9202336E+002, 8.1082363E-005, 3.2233821E-002
 9.0000000E+001, 4.0083057E+002, 1.5600078E-004, 3.2233318E-002
 9.5000000E+001, 4.0819151E+002, 2.6654636E-004, 3.2232416E-002
 1.0000000E+002, 4.1539432E+002, 4.4825900E-004, 3.2230894E-002
 1.0500000E+002, 4.2203061E+002, 7.1253624E-004, 3.2228392E-002
 1.1000000E+002, 4.2750059E+002, 1.0406293E-003, 3.2224611E-002
 1.1500000E+002, 4.3259607E+002, 1.4760083E-003, 3.2219177E-002
 1.2000000E+002, 4.3690415E+002, 1.9682023E-003, 3.2211688E-002
 1.2500000E+002, 4.4037266E+002, 2.4799796E-003, 3.2202037E-002
 1.3000000E+002, 4.4348563E+002, 3.0446362E-003, 3.2190033E-002
 1.3500000E+002, 4.4600035E+002, 3.5764728E-003, 3.2175614E-002
 1.4000000E+002, 4.4811321E+002, 4.0931714E-003, 3.2158948E-002
 1.4500000E+002, 4.5002018E+002, 4.6119350E-003, 3.2140006E-002
 1.5000000E+002, 4.5158897E+002, 5.0728021E-003, 3.2118937E-002
 1.5500000E+002, 4.5301604E+002, 5.5317334E-003, 3.2095885E-002
 1.6001000E+002, 4.5429305E+002, 5.9632827E-003, 3.2070848E-002
 1.6501000E+002, 4.5541485E+002, 6.3662358E-003, 3.2044018E-002
 1.7001000E+002, 4.5646395E+002, 6.7644303E-003, 3.2015461E-002
 1.7501000E+002, 4.5739455E+002, 7.1324196E-003, 3.1985244E-002
 1.8001000E+002, 4.5826217E+002, 7.4957825E-003, 3.1953438E-002
 1.8501000E+002, 4.5747132E+002, 7.7242161E-003, 3.1920197E-002
 1.9001000E+002, 4.5617487E+002, 8.0114849E-003, 3.1886187E-002
 1.9501000E+002, 4.5726377E+002, 8.4410409E-003, 3.1850386E-002
 2.0001000E+002, 4.5820908E+002, 8.8096522E-003, 3.1812867E-002
 2.0501000E+002, 4.5906457E+002, 9.1448287E-003, 3.1773826E-002
 2.1001000E+002, 4.5985448E+002, 9.4598755E-003, 3.1733372E-002
 2.1501000E+002, 4.6058446E+002, 9.7584591E-003, 3.1691587E-002
 2.2001000E+002, 4.6125948E+002, 1.0043275E-002, 3.1648534E-002
 2.2501000E+002, 4.6188241E+002, 1.0315744E-002, 3.1604269E-002
 2.3001000E+002, 4.5944797E+002, 1.0372706E-002, 3.1559276E-002
 2.3501000E+002, 4.5988084E+002, 1.0737455E-002, 3.1513432E-002
 2.4001000E+002, 4.6069466E+002, 1.1054444E-002, 3.1466035E-002
 2.4501000E+002, 4.6142954E+002, 1.1335739E-002, 3.1417354E-002
 2.5001000E+002, 4.6211743E+002, 1.1610988E-002, 3.1367469E-002
 2.5501000E+002, 4.6276724E+002, 1.1889908E-002, 3.1316380E-002
 2.6001000E+002, 4.6337853E+002, 1.2173116E-002, 3.1264069E-002
 2.6501000E+002, 4.6092566E+002, 1.2244762E-002, 3.1211035E-002
 2.7001000E+002, 4.6164570E+002, 1.2684407E-002, 3.1156829E-002
 2.7501000E+002, 4.6244193E+002, 1.3043373E-002, 3.1100877E-002
 2.8001000E+002, 4.6316253E+002, 1.3363896E-002, 3.1043460E-002
 2.8501000E+002, 4.6382363E+002, 1.3665226E-002, 3.0984694E-002
 2.9001000E+002, 4.6442861E+002, 1.3953803E-002, 3.0924647E-002
 2.9501000E+002, 4.6203736E+002, 1.4022152E-002, 3.0863920E-002
 3.0001000E+002, 4.6286597E+002, 1.4472664E-002, 3.0801915E-002
 3.0501000E+002, 4.6360962E+002, 1.4809837E-002, 3.0738234E-002
 3.1001000E+002, 4.6428104E+002, 1.5106857E-002, 3.0673186E-002
 3.1501000E+002, 4.6489149E+002, 1.5382451E-002, 3.0606899E-002
 3.2001000E+002, 4.6347059E+002, 1.5473530E-002, 3.0539741E-002
 3.2501000E+002, 4.6338854E+002, 1.5842925E-002, 3.0471781E-002
 3.3001000E+002, 4.6412438E+002, 1.6175179E-002, 3.0402143E-002
 3.3501000E+002, 4.6478066E+002, 1.6451647E-002, 3.0331201E-002
 3.4001000E+002, 4.6537750E+002, 1.6703388E-002, 3.0259116E-002
 3.4501000E+002, 4.6363707E+002, 1.6751946E-002, 3.0186397E-002
 3.5001000E+002, 4.6401123E+002, 1.7133406E-002, 3.0112753E-002
 3.5501000E+002, 4.6470403E+002, 1.7414029E-002, 3.0037619E-002
 3.6001000E+002, 4.6532468E+002, 1.7643111E-002, 2.9961396E-002
 3.6501000E+002, 4.6503046E+002, 1.7744836E-002, 2.9884312E-002
 3.7001000E+002, 4.6393981E+002, 1.7931276E-002, 2.9806972E-002
 3.7501000E+002, 4.6467555E+002, 1.8224360E-002, 2.9728310E-002
 3.8001000E+002, 4.6530869E+002, 1.8419518E-002, 2.9648631E-002
 3.8501000E+002, 4.6586233E+002, 1.8578519E-002, 2.9568186E-002
 3.9001000E+002, 4.6390121E+002, 1.8536383E-002, 2.9487631E-002
 3.9501000E+002, 4.6468719E+002, 1.8845105E-002, 2.9406259E-002
 4.0001000E+002, 4.6533139E+002, 1.9005152E-002, 2.9323951E-002
 4.0501000E+002, 4.6591272E+002, 1.9122043E-002, 2.9241055E-002
 4.1001000E+002, 4.6431654E+002, 1.9041519E-002, 2.9158122E-002
 4.1501000E+002, 4.6473688E+002, 1.9287824E-002, 2.9074789E-002
 4.2001000E+002, 4.6538521E+002, 1.9414292E-002, 2.8990627E-002
 4.2501000E+002, 4.6596841E+002, 1.9494567E-002, 2.8906032E-002
 4.3001000E+002, 4.6454971E+002, 1.9389564E-002, 2.8821500E-002
 4.3501000E+002, 4.6481850E+002, 1.9594910E-002, 2.8736779E-002
 4.4001000E+002, 4.6547020E+002, 1.9697257E-002, 2.8651335E-002
 4.4501000E+002, 4.6605818E+002, 1.9755057E-002, 2.8565559E-002
 4.5001000E+002, 4.6465737E+002, 1.9630495E-002, 2.8479941E-002
 4.5501000E+002, 4.6493550E+002, 1.9816111E-002, 2.8394216E-002
 4.6001000E+002, 4.6559219E+002, 1.9903225E-002, 2.8307842E-002
 4.6501000E+002, 4.6618658E+002, 1.9946818E-002, 2.8221203E-002
 4.7001000E+002, 4.6471170E+002, 1.9810666E-002, 2.8134801E-002
 4.7501000E+002, 4.6510452E+002, 1.9995273E-002, 2.8048269E-002
 4.8001000E+002, 4.6576599E+002, 2.0068399E-002, 2.7961147E-002
 4.8501000E+002, 4.6636928E+002, 2.0099837E-002, 2.7873817E-002
 4.9001000E+002, 4.6475019E+002, 1.9956929E-002, 2.7786811E-002
 4.9501000E+002, 4.6533851E+002, 2.0144479E-002, 2.7699588E-002
 5.0001000E+002, 4.6601175E+002, 2.0202447E-002, 2.7611852E-002
 5.0501000E+002, 4.6658775E+002, 2.0214447E-002, 2.7523968E-002
 5.1001000E+002, 4.6485713E+002, 2.0080233E-002, 2.7436514E-002
 5.1501000E+002, 4.6567469E+002, 2.0266525E-002, 2.7348698E-002
 5.2001000E+002, 4.6637738E+002, 2.0307217E-002, 2.7260471E-002
 5.2501000E+002, 4.6667325E+002, 2.0262238E-002, 2.7172185E-002
 5.3001000E+002, 4.6535560E+002, 2.0219007E-002, 2.7084373E-002
 5.3501000E+002, 4.6619751E+002, 2.0356691E-002, 2.6996076E-002
 5.4001000E+002, 4.6695247E+002, 2.0365821E-002, 2.6907529E-002
 5.4501000E+002, 4.6699141E+002, 2.0275674E-002, 2.6819068E-002
 5.5001000E+002, 4.6614872E+002, 2.0303870E-002, 2.6731040E-002
 5.5501000E+002, 4.6708946E+002, 2.0378395E-002, 2.6642522E-002
 5.6001000E+002, 4.6796772E+002, 2.0343715E-002, 2.6553984E-002
 5.6501000E+002, 4.6787339E+002, 2.0225729E-002, 2.6465710E-002
 5.7001000E+002, 4.6764807E+002, 2.0272477E-002, 2.6377789E-002
 5.7501000E+002, 4.6884837E+002, 2.0246197E-002, 2.6289655E-002
 5.8001000E+002, 4.7008495E+002, 2.0156934E-002, 2.6201813E-002
 5.8501000E+002, 4.7030735E+002, 1.9986711E-002, 2.6114499E-002
 5.9001000E+002, 4.7111687E+002, 1.9922176E-002, 2.6027782E-002
 5.9501000E+002, 4.7319482E+002, 1.9755314E-002, 2.5941495E-002
 6.0001000E+002, 4.7563613E+002, 1.9522300E-002, 2.5856088E-002
 6.0501000E+002, 4.7809906E+002, 1.9090431E-002, 2.5772009E-002
 6.1001000E+002, 4.8205326E+002, 1.8673399E-002, 2.5689990E-002
 6.1501000E+002, 4.8812325E+002, 1.8089563E-002, 2.5609967E-002
 6.2001000E+002, 4.9758721E+002, 1.7067850E-002, 2.5533302E-002
 6.2501000E+002, 5.2109720E+002, 1.3972702E-002, 2.5463899E-002
 6.3001000E+002, 5.3958123E+002, 1.6881907E-004, 2.5434332E-002
 6.3501000E+002, 5.1976811E+002, 0.0000000E+000, 2.5434300E-002
 6.4001000E+002, 5.1553319E+002, 0.0000000E+000, 2.5434300E-002
 6.4501000E+002, 5.1424306E+002, 0.0000000E+000, 2.5434300E-002
 6.5001000E+002, 5.1405102E+002, 0.0000000E+000, 2.5434300E-002
 6.5501000E+002, 5.1436933E+002, 0.0000000E+000, 2.5434300E-002
 6.6001000E+002, 5.1494257E+002, 0.0000000E+000, 2.5434300E-002
 6.6501000E+002, 5.1564302E+002, 0.0000000E+000, 2.5434300E-002
 6.7001000E+002, 5.1640213E+002, 0.0000000E+000, 2.5434300E-002
 6.7501000E+002, 5.1718147E+002, 0.0000000E+000, 2.5434300E-002
 6.8001000E+002, 5.1795884E+002, 0.0000000E+000, 2.5434300E-002
 6.8501000E+002, 5.1872127E+002, 0.0000000E+000, 2.5434300E-002
 6.9001000E+002, 5.1946121E+002, 0.0000000E+000, 2.5434300E-002
 6.9501000E+002, 5.2017445E+002, 0.0000000E+000, 2.5434300E-002
 7.0001000E+002, 5.2085880E+002, 0.0000000E+000, 2.5434300E-002
 7.0501000E+002, 5.2151337E+002, 0.0000000E+000, 2.5434300E-002
 7.1001000E+002, 5.2213806E+002, 0.0000000E+000, 2.5434300E-002
 7.1501000E+002, 5.2273328E+002, 0.0000000E+000, 2.5434300E-002
 7.2001000E+002, 5.2329977E+002, 0.0000000E+000, 2.5434300E-002
 7.2501000E+002, 5.2383843E+002, 0.0000000E+000, 2.5434300E-002
 7.3001000E+002, 5.2435026E+002, 0.0000000E+000, 2.5434300E-002
 7.3501000E+002, 5.2483634E+002, 0.0000000E+000, 2.5434300E-002
 7.4001000E+002, 5.2529774E+002, 0.0000000E+000, 2.5434300E-002
 7.4501000E+002, 5.2573555E+002, 0.0000000E+000, 2.5434300E-002
 7.5000000E+002, 5.2615043E+002, 0.0000000E+000, 2.5434300E-002
