s,kg/s/m2,kg/s/m2,kg/s/m2,kg/s/m2,kg/s/m2,kg/s/m2,kg/m2/s,C,C,kW/m2,m
Time,mdot_hexane,mdot_heptane,mdot_octane,mdot_decane,mdot_benzene,mdot_toluene,mdot,Tsurf,Tsurf_max,flux,delta
 0.000E+00, 0.000E+00, 0.000E+00, 0.000E+00, 0.000E+00, 0.000E+00, 0.000E+00, 0.000E+00, 2.000E+01, 2.000E+01, 9.000E+00, 7.000E-02
 1.001E+01,-6.419E-05,-2.480E-06,-1.138E-06,-7.312E-08,-1.148E-05,-3.542E-06, 8.289E-05, 2.617E+01, 2.715E+01, 4.495E+00, 7.000E-02
 2.001E+01,-8.057E-05,-3.176E-06,-1.474E-06,-9.613E-08,-1.456E-05,-4.531E-06, 1.044E-04, 2.809E+01, 3.172E+01, 5.724E-01, 7.000E-02
 3.001E+01,-8.436E-05,-3.388E-06,-1.586E-06,-1.044E-07,-1.544E-05,-4.843E-06, 1.097E-04, 2.856E+01, 3.432E+01, 5.966E-01, 7.000E-02
 4.001E+01,-8.848E-05,-3.626E-06,-1.714E-06,-1.141E-07,-1.642E-05,-5.195E-06, 1.156E-04, 2.912E+01, 3.716E+01, 6.246E-01, 6.999E-02
 5.001E+01,-8.726E-05,-3.655E-06,-1.747E-06,-1.176E-07,-1.644E-05,-5.249E-06, 1.145E-04, 2.970E+01, 3.990E+01, 6.146E-01, 6.999E-02
 6.000E+01,-9.002E-05,-3.857E-06,-1.864E-06,-1.269E-07,-1.723E-05,-5.555E-06, 1.187E-04, 3.027E+01, 4.242E+01, 6.312E-01, 6.999E-02
 7.000E+01,-9.150E-05,-4.018E-06,-1.965E-06,-1.355E-07,-1.782E-05,-5.805E-06, 1.212E-04, 3.086E+01, 4.538E+01, 6.417E-01, 6.999E-02
 8.001E+01,-9.346E-05,-4.214E-06,-2.088E-06,-1.460E-07,-1.855E-05,-6.111E-06, 1.246E-04, 3.146E+01, 4.829E+01, 6.542E-01, 6.998E-02
 9.001E+01,-9.618E-05,-4.458E-06,-2.239E-06,-1.588E-07,-1.948E-05,-6.493E-06, 1.290E-04, 3.207E+01, 5.125E+01, 6.721E-01, 6.998E-02
 1.000E+02,-1.003E-04,-4.777E-06,-2.432E-06,-1.752E-07,-2.072E-05,-6.988E-06, 1.354E-04, 3.271E+01, 5.448E+01, 7.023E-01, 6.998E-02
 1.100E+02,-1.027E-04,-4.987E-06,-2.568E-06,-1.876E-07,-2.148E-05,-7.309E-06, 1.392E-04, 3.336E+01, 5.785E+01, 7.144E-01, 6.997E-02
 1.200E+02,-1.051E-04,-5.218E-06,-2.723E-06,-2.022E-07,-2.232E-05,-7.674E-06, 1.432E-04, 3.400E+01, 6.109E+01, 7.292E-01, 6.997E-02
 1.300E+02,-1.086E-04,-5.545E-06,-2.939E-06,-2.224E-07,-2.353E-05,-8.194E-06, 1.490E-04, 3.466E+01, 6.431E+01, 7.526E-01, 6.996E-02
 1.400E+02,-1.167E-04,-6.096E-06,-3.292E-06,-2.547E-07,-2.565E-05,-9.070E-06, 1.611E-04, 3.535E+01, 6.849E+01, 8.078E-01, 6.996E-02
 1.500E+02,-3.930E-04,-6.817E-06,-3.773E-06,-3.020E-07,-2.833E-05,-1.019E-05, 4.424E-04, 3.647E+01, 7.186E+01, 1.777E+00, 6.996E-02
 1.600E+02,-2.007E-03,-9.430E-06,-5.430E-06,-4.620E-07,-5.086E-05,-1.407E-05, 2.087E-03, 4.066E+01, 8.174E+01, 5.628E+00, 6.995E-02
 1.700E+02,-7.475E-03,-1.417E-05,-8.468E-06,-7.644E-07,-2.230E-04,-2.095E-05, 7.742E-03, 4.984E+01, 8.463E+01, 1.253E+01, 6.980E-02
 1.800E+02,-3.193E-02,-1.901E-05,-1.149E-05,-1.075E-06,-1.097E-03,-2.742E-05, 3.308E-02, 6.515E+01, 9.027E+01, 3.031E+01, 6.899E-02
 1.900E+02,-8.679E-02,-4.215E-05,-3.823E-06,-3.631E-07,-4.781E-03,-8.988E-06, 9.163E-02, 7.635E+01, 9.915E+01, 4.382E+01, 6.698E-02
 2.000E+02,-1.707E-01,-3.905E-04,-1.181E-09,-1.096E-10,-1.295E-02,-5.620E-05, 1.841E-01, 8.160E+01, 1.100E+02, 4.585E+01, 6.342E-02
 2.100E+02,-1.109E-01,-1.891E-03,-2.864E-09,-2.830E-10,-2.790E-02,-3.297E-04, 1.410E-01, 8.846E+01, 1.108E+02, 4.505E+01, 6.174E-02
 2.200E+02,-6.563E-02,-7.707E-03,-6.492E-09,-6.685E-10,-4.162E-02,-1.155E-03, 1.161E-01, 9.706E+01, 1.135E+02, 4.420E+01, 6.004E-02
 2.300E+02,-5.038E-02,-1.410E-02,-5.315E-08,-5.706E-09,-4.231E-02,-3.748E-03, 1.105E-01, 1.045E+02, 1.205E+02, 4.382E+01, 5.849E-02
 2.400E+02,-4.666E-02,-1.447E-02,-4.366E-07,-4.945E-08,-3.397E-02,-1.057E-02, 1.057E-01, 1.084E+02, 1.222E+02, 4.408E+01, 5.700E-02
 2.500E+02,-4.352E-02,-1.185E-02,-3.397E-06,-1.063E-07,-2.873E-02,-2.069E-02, 1.048E-01, 1.102E+02, 1.232E+02, 4.382E+01, 5.522E-02
 2.600E+02,-3.864E-02,-8.802E-03,-2.090E-04,-2.301E-07,-2.480E-02,-3.305E-02, 1.055E-01, 1.100E+02, 1.259E+02, 4.387E+01, 5.373E-02
 2.700E+02,-3.134E-02,-6.384E-03,-1.565E-03,-4.112E-05,-2.043E-02,-3.660E-02, 9.636E-02, 1.094E+02, 1.261E+02, 4.276E+01, 5.254E-02
 2.800E+02,-2.449E-02,-4.671E-03,-6.248E-03,-8.141E-04,-1.716E-02,-3.087E-02, 8.425E-02, 1.125E+02, 1.731E+02, 4.246E+01, 5.163E-02
 2.900E+02,-1.591E-02,-2.922E-03,-1.318E-02,-2.834E-03,-1.194E-02,-2.258E-02, 6.936E-02, 1.215E+02, 3.595E+02, 4.059E+01, 5.086E-02
 3.000E+02,-1.012E-02,-1.841E-03,-1.826E-02,-6.362E-03,-7.735E-03,-1.316E-02, 5.748E-02, 1.495E+02, 4.257E+02, 4.115E+01, 4.984E-02
 3.100E+02,-6.760E-03,-1.225E-03,-1.360E-02,-6.336E-03,-5.263E-03,-8.587E-03, 4.177E-02, 2.161E+02, 4.913E+02, 4.272E+01, 4.974E-02
 3.200E+02,-4.120E-03,-7.341E-04,-8.684E-03,-3.578E-03,-3.232E-03,-5.882E-03, 2.623E-02, 3.060E+02, 6.101E+02, 4.436E+01, 4.974E-02
 3.300E+02,-2.623E-03,-4.762E-04,-6.505E-03,-2.474E-03,-2.237E-03,-4.078E-03, 1.839E-02, 3.617E+02, 6.517E+02, 3.936E+01, 4.974E-02
 3.400E+02,-1.357E-03,-2.408E-04,-4.338E-03,-1.986E-03,-1.131E-03,-2.947E-03, 1.200E-02, 3.849E+02, 6.434E+02, 3.084E+01, 4.974E-02
 3.500E+02,-9.094E-04,-1.574E-04,-3.909E-03,-1.155E-03,-7.445E-04,-1.350E-03, 8.225E-03, 3.855E+02, 5.953E+02, 2.418E+01, 4.974E-02
 3.600E+02,-5.720E-04,-1.004E-04,-3.618E-03,-8.251E-04,-4.716E-04,-1.384E-03, 6.972E-03, 3.822E+02, 5.649E+02, 2.069E+01, 4.974E-02
 3.700E+02,-4.471E-04,-8.281E-05,-2.517E-03,-1.556E-03,-3.795E-04,-8.830E-04, 5.866E-03, 3.769E+02, 5.403E+02, 1.748E+01, 4.974E-02
 3.800E+02,-2.583E-04,-4.487E-05,-1.832E-03,-1.431E-03,-2.176E-04,-9.712E-04, 4.755E-03, 3.666E+02, 5.355E+02, 1.265E+01, 4.974E-02
 3.900E+02,-1.693E-04,-3.526E-05,-1.749E-03,-6.822E-04,-1.567E-04,-6.336E-04, 3.426E-03, 3.354E+02, 5.121E+02, 7.075E+00, 4.974E-02
 4.000E+02,-1.229E-04,-2.185E-05,-1.331E-03,-8.494E-04,-8.385E-05,-8.369E-04, 3.246E-03, 3.133E+02, 4.925E+02, 5.766E+00, 4.974E-02
 4.100E+02,-8.875E-05,-1.514E-05,-9.913E-04,-5.557E-04,-6.983E-05,-4.981E-04, 2.219E-03, 2.877E+02, 4.548E+02, 1.703E+00, 4.974E-02
 4.200E+02,-9.915E-05,-1.704E-05,-9.533E-04,-5.449E-04,-9.118E-05,-1.092E-04, 1.815E-03, 2.614E+02, 4.028E+02, 6.786E-01, 4.974E-02
 4.300E+02,-4.140E-05,-7.456E-06,-7.894E-04,-3.629E-04,-5.143E-05,-3.227E-04, 1.575E-03, 2.427E+02, 3.700E+02,-4.167E-01, 4.974E-02
 4.400E+02,-1.060E-06,-1.944E-07,-2.243E-04,-3.369E-04,-3.639E-06,-1.727E-04, 7.387E-04, 2.227E+02, 3.208E+02,-1.798E+00, 4.974E-02
 4.500E+02,-8.883E-23,-8.709E-23,-8.526E-05,-1.110E-04,-1.801E-18,-2.457E-21, 1.963E-04, 2.048E+02, 2.689E+02,-2.577E+00, 4.974E-02
 4.600E+02,-5.975E-23,-6.226E-23,-9.584E-05,-1.937E-05,-5.474E-23,-6.530E-23, 1.152E-04, 1.910E+02, 2.348E+02,-2.376E+00, 4.974E-02
 4.700E+02,-4.189E-23,-3.898E-23,-3.278E-05,-5.900E-05,-4.761E-23,-4.520E-23, 9.178E-05, 1.805E+02, 2.179E+02,-2.134E+00, 4.974E-02
 4.800E+02,-1.863E-23,-1.526E-23,-3.135E-06,-3.480E-05,-1.692E-23,-1.071E-23, 3.793E-05, 1.718E+02, 2.056E+02,-2.046E+00, 4.974E-02
 4.900E+02, 0.000E+00,-3.296E-24,-3.327E-06,-7.566E-06,-5.227E-24,-7.934E-25, 1.089E-05, 1.639E+02, 1.953E+02,-1.935E+00, 4.974E-02
 5.000E+02,-4.521E-24,-3.873E-24,-3.231E-06,-6.671E-06,-6.354E-24, 0.000E+00, 9.902E-06, 1.573E+02, 1.865E+02,-1.789E+00, 4.974E-02
 5.100E+02,-6.303E-24,-4.797E-24,-3.172E-06,-6.020E-06,-3.199E-24, 0.000E+00, 9.191E-06, 1.515E+02, 1.796E+02,-1.656E+00, 4.974E-02
 5.200E+02,-2.019E-24,-2.496E-24,-3.110E-06,-5.476E-06,-3.960E-24, 0.000E+00, 8.586E-06, 1.464E+02, 1.734E+02,-1.563E+00, 4.974E-02
 5.300E+02, 0.000E+00,-1.831E-24,-2.822E-06,-4.902E-06,-3.165E-24,-3.009E-20, 7.724E-06, 1.418E+02, 1.674E+02,-1.460E+00, 4.974E-02
 5.400E+02,-7.152E-24, 0.000E+00,-2.627E-06,-4.530E-06,-3.033E-24,-3.648E-20, 7.157E-06, 1.376E+02, 1.626E+02,-1.387E+00, 4.974E-02
 5.500E+02,-4.425E-24,-1.265E-24,-2.516E-06,-4.182E-06,-3.786E-24,-3.561E-20, 6.697E-06, 1.338E+02, 1.579E+02,-1.318E+00, 4.974E-02
 5.600E+02,-1.715E-24,-5.091E-25,-2.384E-06,-3.915E-06,-3.658E-24,-3.417E-20, 6.299E-06, 1.303E+02, 1.534E+02,-1.248E+00, 4.974E-02
 5.700E+02,-2.258E-24, 0.000E+00,-2.282E-06,-3.662E-06,-1.884E-24,-3.274E-20, 5.944E-06, 1.270E+02, 1.491E+02,-1.201E+00, 4.974E-02
 5.800E+02,-2.719E-24, 0.000E+00,-2.237E-06,-3.491E-06,-3.399E-24,-3.393E-20, 5.729E-06, 1.239E+02, 1.455E+02,-1.159E+00, 4.974E-02
 5.900E+02,-1.469E-24, 0.000E+00,-2.114E-06,-3.258E-06,-2.771E-24,-1.382E-19, 5.373E-06, 1.211E+02, 1.420E+02,-1.095E+00, 4.974E-02
 6.000E+02, 0.000E+00, 0.000E+00,-2.020E-06,-3.104E-06,-9.079E-25,-1.946E-19, 5.124E-06, 1.185E+02, 1.388E+02,-1.058E+00, 4.974E-02
 6.100E+02,-4.391E-24, 0.000E+00,-1.873E-06,-2.931E-06,-1.654E-24,-1.780E-19, 4.804E-06, 1.159E+02, 1.355E+02,-1.026E+00, 4.974E-02
 6.200E+02,-2.177E-24, 0.000E+00,-1.875E-06,-2.761E-06,-8.361E-25,-1.697E-19, 4.636E-06, 1.136E+02, 1.327E+02,-9.814E-01, 4.974E-02
 6.300E+02,-2.915E-24, 0.000E+00,-1.837E-06,-2.661E-06,-7.147E-25,-1.708E-19, 4.498E-06, 1.114E+02, 1.299E+02,-9.584E-01, 4.974E-02
 6.400E+02,-1.753E-24, 0.000E+00,-1.722E-06,-2.550E-06,-6.996E-25,-1.590E-19, 4.272E-06, 1.093E+02, 1.275E+02,-9.152E-01, 4.974E-02
 6.500E+02,-6.630E-25, 0.000E+00,-1.599E-06,-2.428E-06,-5.812E-25,-1.471E-19, 4.027E-06, 1.073E+02, 1.249E+02,-8.946E-01, 4.974E-02
 6.600E+02,-1.932E-24, 0.000E+00,-1.519E-06,-2.346E-06,-1.081E-24,-1.719E-19, 3.865E-06, 1.054E+02, 1.226E+02,-8.620E-01, 4.974E-02
 6.700E+02,-6.881E-25, 0.000E+00,-1.589E-06,-2.294E-06, 0.000E+00,-4.536E-19, 3.883E-06, 1.035E+02, 1.204E+02,-8.429E-01, 4.974E-02
 6.800E+02,-1.518E-24, 0.000E+00,-1.475E-06,-2.181E-06, 0.000E+00,-3.929E-19, 3.656E-06, 1.018E+02, 1.180E+02,-8.174E-01, 4.974E-02
 6.900E+02,-3.689E-24, 0.000E+00,-1.417E-06,-2.067E-06, 0.000E+00,-3.609E-19, 3.484E-06, 1.002E+02, 1.160E+02,-7.972E-01, 4.974E-02
 7.000E+02, 0.000E+00, 0.000E+00,-1.383E-06,-2.004E-06, 0.000E+00,-3.622E-19, 3.387E-06, 9.858E+01, 1.141E+02,-7.721E-01, 4.974E-02
 7.100E+02,-1.358E-24, 0.000E+00,-1.312E-06,-1.930E-06, 0.000E+00,-3.451E-19, 3.242E-06, 9.708E+01, 1.123E+02,-7.522E-01, 4.974E-02
 7.200E+02,-1.536E-24, 0.000E+00,-1.257E-06,-1.915E-06, 0.000E+00,-3.426E-19, 3.172E-06, 9.562E+01, 1.106E+02,-7.341E-01, 4.974E-02
 7.300E+02,-7.066E-25, 0.000E+00,-1.218E-06,-1.779E-06, 0.000E+00,-2.951E-19, 2.997E-06, 9.425E+01, 1.088E+02,-7.170E-01, 4.974E-02
 7.400E+02,-1.417E-24, 0.000E+00,-1.180E-06,-1.713E-06, 0.000E+00,-2.854E-19, 2.893E-06, 9.291E+01, 1.073E+02,-7.006E-01, 4.974E-02
 7.500E+02,-1.042E-24, 0.000E+00,-1.149E-06,-1.690E-06, 0.000E+00,-2.977E-19, 2.839E-06, 9.160E+01, 1.056E+02,-6.926E-01, 4.974E-02
 7.600E+02, 0.000E+00, 0.000E+00,-1.088E-06,-1.623E-06, 0.000E+00,-3.546E-19, 2.711E-06, 9.037E+01, 1.041E+02,-6.692E-01, 4.974E-02
 7.700E+02, 0.000E+00, 0.000E+00,-1.073E-06,-1.586E-06, 0.000E+00,-5.472E-19, 2.658E-06, 8.921E+01, 1.026E+02,-6.518E-01, 4.974E-02
 7.800E+02,-7.935E-25, 0.000E+00,-1.067E-06,-1.510E-06, 0.000E+00,-5.207E-19, 2.578E-06, 8.807E+01, 1.012E+02,-6.438E-01, 4.974E-02
 7.900E+02, 0.000E+00, 0.000E+00,-1.051E-06,-1.500E-06, 0.000E+00,-5.323E-19, 2.551E-06, 8.694E+01, 9.975E+01,-6.312E-01, 4.974E-02
 8.000E+02,-8.454E-25, 0.000E+00,-9.988E-07,-1.428E-06, 0.000E+00,-4.810E-19, 2.427E-06, 8.592E+01, 9.859E+01,-6.111E-01, 4.974E-02
 8.100E+02, 0.000E+00, 0.000E+00,-1.004E-06,-1.387E-06, 0.000E+00,-4.657E-19, 2.392E-06, 8.493E+01, 9.733E+01,-5.965E-01, 4.974E-02
 8.200E+02,-7.470E-25, 0.000E+00,-9.595E-07,-1.337E-06, 0.000E+00,-4.378E-19, 2.297E-06, 8.394E+01, 9.605E+01,-5.898E-01, 4.974E-02
 8.300E+02, 0.000E+00, 0.000E+00,-9.335E-07,-1.318E-06, 0.000E+00,-4.436E-19, 2.252E-06, 8.297E+01, 9.497E+01,-5.832E-01, 4.974E-02
 8.400E+02, 0.000E+00, 0.000E+00,-8.882E-07,-1.270E-06, 0.000E+00,-4.076E-19, 2.159E-06, 8.205E+01, 9.390E+01,-5.682E-01, 4.974E-02
 8.500E+02, 0.000E+00, 0.000E+00,-8.492E-07,-1.241E-06, 0.000E+00,-3.940E-19, 2.090E-06, 8.118E+01, 9.294E+01,-5.558E-01, 4.974E-02
 8.600E+02,-5.699E-25, 0.000E+00,-8.203E-07,-1.222E-06, 0.000E+00,-3.844E-19, 2.042E-06, 8.031E+01, 9.177E+01,-5.521E-01, 4.974E-02
 8.700E+02, 0.000E+00, 0.000E+00,-7.879E-07,-1.191E-06, 0.000E+00,-3.708E-19, 1.979E-06, 7.948E+01, 9.072E+01,-5.368E-01, 4.974E-02
 8.800E+02, 0.000E+00, 0.000E+00,-7.690E-07,-1.188E-06, 0.000E+00,-3.790E-19, 1.957E-06, 7.866E+01, 8.978E+01,-5.345E-01, 4.974E-02
 8.900E+02, 0.000E+00, 0.000E+00,-7.648E-07,-1.138E-06, 0.000E+00,-3.470E-19, 1.903E-06, 7.789E+01, 8.888E+01,-5.184E-01, 4.974E-02
 9.000E+02, 0.000E+00, 0.000E+00,-8.088E-07,-1.085E-06, 0.000E+00,-4.298E-19, 1.894E-06, 7.714E+01, 8.801E+01,-5.120E-01, 4.974E-02
