s,C,C,C,C,C,C,C
Time,"Air Temp","VTT_1","IRSN_1","TRAC_2","TRAC_4","GRS_2","NRC_2"
 0.0000000E+000, 2.5000000E+001, 2.5000000E+001, 2.5000000E+001, 2.5000000E+001, 2.5000000E+001, 2.5000000E+001, 2.5000000E+001
 1.0200000E+001, 2.5421647E+001, 2.5000022E+001, 2.5000018E+001, 2.5000026E+001, 2.5000026E+001, 2.5000027E+001, 2.5000210E+001
 2.0200000E+001, 2.6216000E+001, 2.5000620E+001, 2.5000518E+001, 2.5000722E+001, 2.5000732E+001, 2.5000688E+001, 2.5003204E+001
 3.0200000E+001, 2.9182381E+001, 2.5003260E+001, 2.5002735E+001, 2.5003731E+001, 2.5003786E+001, 2.5003305E+001, 2.5011590E+001
 4.0089325E+001, 4.4122906E+001, 2.5012116E+001, 2.5010156E+001, 2.5013856E+001, 2.5014056E+001, 2.5012245E+001, 2.5047303E+001
 5.0015642E+001, 6.0834525E+001, 2.5054660E+001, 2.5045485E+001, 2.5062504E+001, 2.5063381E+001, 2.5054636E+001, 2.5204925E+001
 6.0025516E+001, 7.7589816E+001, 2.5178870E+001, 2.5148170E+001, 2.5202786E+001, 2.5205538E+001, 2.5168988E+001, 2.5550191E+001
 7.0036633E+001, 9.4458242E+001, 2.5429875E+001, 2.5354660E+001, 2.5483366E+001, 2.5489733E+001, 2.5385103E+001, 2.6125231E+001
 8.0000263E+001, 1.1123319E+002, 2.5842760E+001, 2.5692555E+001, 2.5941178E+001, 2.5953259E+001, 2.5722015E+001, 2.6940543E+001
 9.0010673E+001, 1.2802802E+002, 2.6443637E+001, 2.6182516E+001, 2.6603240E+001, 2.6623421E+001, 2.6193171E+001, 2.7995542E+001
 1.0001921E+002, 1.4486770E+002, 2.7250954E+001, 2.6839356E+001, 2.7488619E+001, 2.7519564E+001, 2.6808855E+001, 2.9297555E+001
 1.1002613E+002, 1.6168575E+002, 2.8282525E+001, 2.7676560E+001, 2.8616195E+001, 2.8660804E+001, 2.7579542E+001, 3.0868313E+001
 1.2003029E+002, 1.7309962E+002, 2.9565783E+001, 2.8714600E+001, 3.0015480E+001, 3.0076906E+001, 2.8522961E+001, 3.2747060E+001
 1.3004090E+002, 1.7920921E+002, 3.1097586E+001, 2.9948798E+001, 3.1679838E+001, 3.1761007E+001, 2.9621480E+001, 3.4788136E+001
 1.4006771E+002, 1.8533094E+002, 3.2812932E+001, 3.1323881E+001, 3.3535019E+001, 3.3637929E+001, 3.0811111E+001, 3.6838393E+001
 1.5005944E+002, 1.9144712E+002, 3.4656368E+001, 3.2791831E+001, 3.5521816E+001, 3.5647822E+001, 3.2054715E+001, 3.8919824E+001
 1.6003098E+002, 1.9754577E+002, 3.6611899E+001, 3.4335928E+001, 3.7624556E+001, 3.7774635E+001, 3.3344771E+001, 4.1055458E+001
 1.7001107E+002, 2.0364321E+002, 3.8667960E+001, 3.5946136E+001, 3.9830992E+001, 4.0005978E+001, 3.4675303E+001, 4.3221624E+001
 1.8001475E+002, 2.0975269E+002, 4.0824486E+001, 3.7621361E+001, 4.2142483E+001, 4.2343322E+001, 3.6050505E+001, 4.5465610E+001
 1.9003922E+002, 2.1586938E+002, 4.3090453E+001, 3.9368244E+001, 4.4569372E+001, 4.4797079E+001, 3.7480178E+001, 4.7802086E+001
 2.0006352E+002, 2.2199803E+002, 4.5465786E+001, 4.1187467E+001, 4.7111366E+001, 4.7366912E+001, 3.8965035E+001, 5.0219962E+001
 2.1001132E+002, 2.3104407E+002, 4.7943958E+001, 4.3075301E+001, 4.9761567E+001, 5.0045724E+001, 4.0505286E+001, 5.2756133E+001
 2.2000070E+002, 2.4293138E+002, 5.0563522E+001, 4.5064749E+001, 5.2562461E+001, 5.2876278E+001, 4.2137861E+001, 5.5527904E+001
 2.3002845E+002, 2.5485265E+002, 5.3398941E+001, 4.7217936E+001, 5.5596023E+001, 5.5941663E+001, 4.3923283E+001, 5.8617586E+001
 2.4000901E+002, 2.6678594E+002, 5.6481896E+001, 4.9563084E+001, 5.8896493E+001, 5.9276781E+001, 4.5883670E+001, 6.2027967E+001
 2.5000992E+002, 2.7869150E+002, 5.9839664E+001, 5.2123192E+001, 6.2492318E+001, 6.2910491E+001, 4.8032323E+001, 6.5748719E+001
 2.6000430E+002, 2.9061848E+002, 6.3498939E+001, 5.4920768E+001, 6.6410772E+001, 6.6870247E+001, 5.0386497E+001, 6.9826472E+001
 2.7002092E+002, 3.0254644E+002, 6.7490244E+001, 5.7983168E+001, 7.0681974E+001, 7.1185843E+001, 5.2971483E+001, 7.4290087E+001
 2.8001804E+002, 3.1447617E+002, 7.1828173E+001, 6.1322554E+001, 7.5320021E+001, 7.5871379E+001, 5.5793358E+001, 7.9129322E+001
 2.9000536E+002, 3.2639155E+002, 7.6517596E+001, 6.4942660E+001, 8.0329145E+001, 8.0931092E+001, 5.8851731E+001, 8.4319171E+001
 3.0004651E+002, 3.3833332E+002, 8.1584387E+001, 6.8863516E+001, 8.5736185E+001, 8.6392039E+001, 6.2162913E+001, 8.9894843E+001
 3.1000915E+002, 3.5026007E+002, 8.7021958E+001, 7.3079195E+001, 9.1533850E+001, 9.2246839E+001, 6.5721465E+001, 9.5844302E+001
 3.2004881E+002, 3.6217758E+002, 9.2851194E+001, 7.7606435E+001, 9.7743390E+001, 9.8516703E+001, 6.9542760E+001, 1.0219007E+002
 3.3004825E+002, 3.7413031E+002, 9.9093008E+001, 8.2464546E+001, 1.0438477E+002, 1.0522128E+002, 7.3645953E+001, 1.0897241E+002
 3.4002640E+002, 3.8261881E+002, 1.0573947E+002, 8.7646018E+001, 1.1144947E+002, 1.1235180E+002, 7.8023865E+001, 1.1616750E+002
 3.5002969E+002, 3.8779393E+002, 1.1276571E+002, 9.3129286E+001, 1.1890371E+002, 1.1987354E+002, 8.2634108E+001, 1.2351125E+002
 3.6001381E+002, 3.9296953E+002, 1.2003836E+002, 9.8799460E+001, 1.2659819E+002, 1.2763536E+002, 8.7350935E+001, 1.3077855E+002
 3.7003210E+002, 3.9814774E+002, 1.2745575E+002, 1.0457342E+002, 1.3442193E+002, 1.3552447E+002, 9.2112697E+001, 1.3796858E+002
 3.8003339E+002, 4.0333301E+002, 1.3497532E+002, 1.1041448E+002, 1.4233275E+002, 1.4349812E+002, 9.6904570E+001, 1.4516682E+002
 3.9000746E+002, 4.0850095E+002, 1.4256020E+002, 1.1630014E+002, 1.5029090E+002, 1.5151544E+002, 1.0172823E+002, 1.5238880E+002
 4.0000617E+002, 4.1367459E+002, 1.5022358E+002, 1.2224641E+002, 1.5831048E+002, 1.5959031E+002, 1.0660650E+002, 1.5967720E+002
 4.1002344E+002, 4.1886017E+002, 1.5797616E+002, 1.2825529E+002, 1.6640744E+002, 1.6773995E+002, 1.1152755E+002, 1.6696957E+002
 4.2003263E+002, 4.2404110E+002, 1.6578806E+002, 1.3431121E+002, 1.7454822E+002, 1.7593022E+002, 1.1649056E+002, 1.7430733E+002
 4.3002766E+002, 4.2922218E+002, 1.7366028E+002, 1.4041537E+002, 1.8273751E+002, 1.8416619E+002, 1.2149719E+002, 1.8172934E+002
 4.4001505E+002, 4.3439697E+002, 1.8158645E+002, 1.4657048E+002, 1.9096554E+002, 1.9243770E+002, 1.2655280E+002, 1.8916921E+002
 4.5000483E+002, 4.3956805E+002, 1.8955884E+002, 1.5277519E+002, 1.9922421E+002, 2.0073666E+002, 1.3165603E+002, 1.9666449E+002
 4.6000481E+002, 4.4474560E+002, 1.9759897E+002, 1.5904516E+002, 2.0753888E+002, 2.0908892E+002, 1.3681900E+002, 2.0424562E+002
 4.7000325E+002, 4.4992150E+002, 2.0568848E+002, 1.6537521E+002, 2.1588626E+002, 2.1747061E+002, 1.4204123E+002, 2.1187105E+002
 4.8002265E+002, 4.5510463E+002, 2.1383728E+002, 1.7177439E+002, 2.2427889E+002, 2.2589453E+002, 1.4732993E+002, 2.1957931E+002
 4.9000926E+002, 4.6028644E+002, 2.2200752E+002, 1.7822130E+002, 2.3267346E+002, 2.3431693E+002, 1.5266890E+002, 2.2727060E+002
 5.0003734E+002, 4.6547095E+002, 2.3020672E+002, 1.8472357E+002, 2.4108052E+002, 2.4274857E+002, 1.5806736E+002, 2.3505635E+002
 5.1002289E+002, 4.7064950E+002, 2.3845547E+002, 1.9129361E+002, 2.4952487E+002, 2.5121475E+002, 1.6353273E+002, 2.4293701E+002
 5.2003259E+002, 4.7582947E+002, 2.4670364E+002, 1.9790795E+002, 2.5794521E+002, 2.5965306E+002, 1.6905173E+002, 2.5073841E+002
 5.3000343E+002, 4.8100080E+002, 2.5490962E+002, 2.0454829E+002, 2.6629545E+002, 2.6801667E+002, 1.7462152E+002, 2.5853120E+002
 5.4002285E+002, 4.8617863E+002, 2.6312791E+002, 2.1124266E+002, 2.7464359E+002, 2.7637515E+002, 1.8025628E+002, 2.6643992E+002
 5.5003483E+002, 4.9136446E+002, 2.7135219E+002, 2.1799270E+002, 2.8297766E+002, 2.8471625E+002, 1.8595680E+002, 2.7432731E+002
 5.6003904E+002, 4.9654588E+002, 2.7961479E+002, 2.2480372E+002, 2.9134544E+002, 2.9308934E+002, 1.9171627E+002, 2.8242681E+002
 5.7002301E+002, 5.0172179E+002, 2.8790946E+002, 2.3167322E+002, 2.9973462E+002, 3.0148190E+002, 1.9752823E+002, 2.9046526E+002
 5.8000352E+002, 5.0689172E+002, 2.9618352E+002, 2.3858256E+002, 3.0808231E+002, 3.0982970E+002, 2.0339920E+002, 2.9851895E+002
 5.9003104E+002, 5.1207361E+002, 3.0442847E+002, 2.4553578E+002, 3.1637605E+002, 3.1811992E+002, 2.0933524E+002, 3.0651053E+002
 6.0001187E+002, 5.1725318E+002, 3.1266482E+002, 2.5252870E+002, 3.2465015E+002, 3.2638841E+002, 2.1532103E+002, 3.1458298E+002
 6.1002381E+002, 5.2242921E+002, 3.2086247E+002, 2.5954220E+002, 3.3286835E+002, 3.3459850E+002, 2.2134187E+002, 3.2256018E+002
 6.2002135E+002, 5.2500000E+002, 3.2896813E+002, 2.6655187E+002, 3.4096798E+002, 3.4268669E+002, 2.2738856E+002, 3.3035760E+002
 6.3001617E+002, 5.2500000E+002, 3.3692893E+002, 2.7350136E+002, 3.4889773E+002, 3.5060176E+002, 2.3338781E+002, 3.3791650E+002
 6.4003554E+002, 5.2500000E+002, 3.4468297E+002, 2.8030637E+002, 3.5659330E+002, 3.5827928E+002, 2.3921392E+002, 3.4499428E+002
 6.5000621E+002, 5.2500000E+002, 3.5209175E+002, 2.8685172E+002, 3.6390755E+002, 3.6557141E+002, 2.4477473E+002, 3.5151995E+002
 6.6002684E+002, 5.2500000E+002, 3.5916540E+002, 2.9313459E+002, 3.7086190E+002, 3.7250045E+002, 2.5008510E+002, 3.5772237E+002
 6.7001393E+002, 5.3143594E+002, 3.6591068E+002, 2.9916535E+002, 3.7746554E+002, 3.7907609E+002, 2.5516972E+002, 3.6360130E+002
 6.8003622E+002, 5.4422389E+002, 3.7246351E+002, 3.0507634E+002, 3.8387736E+002, 3.8545941E+002, 2.6023055E+002, 3.6994637E+002
 6.9003423E+002, 5.5701354E+002, 3.7925941E+002, 3.1123993E+002, 3.9058031E+002, 3.9213791E+002, 2.6567364E+002, 3.7751616E+002
 7.0000746E+002, 5.6976512E+002, 3.8651184E+002, 3.1786517E+002, 3.9778743E+002, 3.9932544E+002, 2.7167069E+002, 3.8604604E+002
 7.1002052E+002, 5.8253580E+002, 3.9432282E+002, 3.2506061E+002, 4.0558936E+002, 4.0711171E+002, 2.7828683E+002, 3.9540367E+002
 7.2001478E+002, 5.9532481E+002, 4.0266362E+002, 3.3282145E+002, 4.1393993E+002, 4.1544889E+002, 2.8549679E+002, 4.0539993E+002
 7.3000661E+002, 6.0809209E+002, 4.1149864E+002, 3.4111140E+002, 4.2279736E+002, 4.2429439E+002, 2.9325080E+002, 4.1589118E+002
 7.4002836E+002, 6.2087450E+002, 4.2077286E+002, 3.4989020E+002, 4.3209639E+002, 4.3358195E+002, 3.0151321E+002, 4.2684716E+002
 7.5003110E+002, 6.3367481E+002, 4.3050766E+002, 3.5914969E+002, 4.4186641E+002, 4.4334121E+002, 3.1027137E+002, 4.3841044E+002
 7.6002994E+002, 6.4056075E+002, 4.4073348E+002, 3.6888742E+002, 4.5214108E+002, 4.5360536E+002, 3.1950796E+002, 4.5046375E+002
 7.7002426E+002, 6.4167157E+002, 4.5113902E+002, 3.7884512E+002, 4.6256092E+002, 4.6401143E+002, 3.2889390E+002, 4.6163806E+002
 7.8001420E+002, 6.4278174E+002, 4.6124348E+002, 3.8857867E+002, 4.7261128E+002, 4.7404167E+002, 3.3794111E+002, 4.7151254E+002
 7.9002518E+002, 6.4389302E+002, 4.7085668E+002, 3.9787983E+002, 4.8211339E+002, 4.8351780E+002, 3.4648643E+002, 4.8046122E+002
 8.0000234E+002, 6.4500322E+002, 4.7991106E+002, 4.0667079E+002, 4.9101308E+002, 4.9238690E+002, 3.5450322E+002, 4.8854754E+002
 8.1000007E+002, 6.4611294E+002, 4.8838589E+002, 4.1493401E+002, 4.9930020E+002, 5.0064023E+002, 3.6200977E+002, 4.9594159E+002
 8.2000952E+002, 6.4722468E+002, 4.9641044E+002, 4.2276661E+002, 5.0712516E+002, 5.0842985E+002, 3.6911272E+002, 5.0301718E+002
 8.3001044E+002, 6.4833617E+002, 5.0397420E+002, 4.3017944E+002, 5.1447197E+002, 5.1574001E+002, 3.7582732E+002, 5.0945141E+002
 8.4001746E+002, 6.4944778E+002, 5.1099667E+002, 4.3714018E+002, 5.2125188E+002, 5.2248204E+002, 3.8214297E+002, 5.1519149E+002
 8.5001400E+002, 6.5055927E+002, 5.1762080E+002, 4.4374993E+002, 5.2763543E+002, 5.2882806E+002, 3.8816451E+002, 5.2103223E+002
 8.6000768E+002, 6.5166949E+002, 5.2396262E+002, 4.5010073E+002, 5.3374115E+002, 5.3489697E+002, 3.9394556E+002, 5.2654101E+002
 8.7002943E+002, 6.5278159E+002, 5.3000391E+002, 4.5620213E+002, 5.3954308E+002, 5.4066244E+002, 3.9950139E+002, 5.3188564E+002
 8.8003027E+002, 6.5389438E+002, 5.3582680E+002, 4.6211738E+002, 5.4513194E+002, 5.4621562E+002, 4.0488390E+002, 5.3710539E+002
 8.9001465E+002, 6.5500392E+002, 5.4135586E+002, 4.6780242E+002, 5.5041949E+002, 5.5146774E+002, 4.1004735E+002, 5.4190775E+002
 9.0000299E+002, 6.5611395E+002, 5.4656245E+002, 4.7324492E+002, 5.5537570E+002, 5.5638881E+002, 4.1498920E+002, 5.4635757E+002
 9.1001521E+002, 6.5722499E+002, 5.5150417E+002, 4.7849012E+002, 5.6006763E+002, 5.6104643E+002, 4.1976007E+002, 5.5074961E+002
 9.2002967E+002, 6.5833761E+002, 5.5621113E+002, 4.8356582E+002, 5.6452472E+002, 5.6547003E+002, 4.2437880E+002, 5.5487789E+002
 9.3001621E+002, 6.5944816E+002, 5.6067458E+002, 4.8846010E+002, 5.6874014E+002, 5.6965304E+002, 4.2883107E+002, 5.5885519E+002
 9.4002304E+002, 6.5364036E+002, 5.6493136E+002, 4.9320184E+002, 5.7275262E+002, 5.7363418E+002, 4.3313927E+002, 5.6264804E+002
 9.5001329E+002, 6.4101483E+002, 5.6876788E+002, 4.9759710E+002, 5.7631548E+002, 5.7716399E+002, 4.3701255E+002, 5.6511125E+002
 9.6002227E+002, 6.2837999E+002, 5.7170298E+002, 5.0121452E+002, 5.7890650E+002, 5.7971672E+002, 4.3996528E+002, 5.6565502E+002
 9.7002854E+002, 6.1573695E+002, 5.7356180E+002, 5.0387596E+002, 5.8036337E+002, 5.8113050E+002, 4.4188504E+002, 5.6482289E+002
 9.8001210E+002, 6.0311619E+002, 5.7441586E+002, 5.0562417E+002, 5.8078461E+002, 5.8150562E+002, 4.4288278E+002, 5.6307070E+002
 9.9002190E+002, 5.9048355E+002, 5.7432206E+002, 5.0652459E+002, 5.8023444E+002, 5.8090736E+002, 4.4305717E+002, 5.6040049E+002
 1.0000189E+003, 5.7785148E+002, 5.7337371E+002, 5.0667250E+002, 5.7881733E+002, 5.7944111E+002, 4.4253158E+002, 5.5707922E+002
 1.0100029E+003, 5.6522915E+002, 5.7165167E+002, 5.0615076E+002, 5.7661885E+002, 5.7719298E+002, 4.4139512E+002, 5.5313576E+002
 1.0200246E+003, 5.5259432E+002, 5.6927860E+002, 5.0506915E+002, 5.7377333E+002, 5.7429796E+002, 4.3975991E+002, 5.4905266E+002
 1.0300340E+003, 5.3994500E+002, 5.6641898E+002, 5.0356644E+002, 5.7045215E+002, 5.7092776E+002, 4.3774269E+002, 5.4465227E+002
 1.0400053E+003, 5.2731934E+002, 5.6307828E+002, 5.0166994E+002, 5.6665361E+002, 5.6708070E+002, 4.3537328E+002, 5.3997981E+002
 1.0500116E+003, 5.1470366E+002, 5.5925186E+002, 4.9939233E+002, 5.6236614E+002, 5.6274492E+002, 4.3265819E+002, 5.3474721E+002
 1.0600115E+003, 5.0206776E+002, 5.5491328E+002, 4.9672678E+002, 5.5756204E+002, 5.5789272E+002, 4.2960939E+002, 5.2918663E+002
 1.0700183E+003, 4.8943134E+002, 5.5016431E+002, 4.9375024E+002, 5.5235494E+002, 5.5263827E+002, 4.2630913E+002, 5.2358252E+002
 1.0800118E+003, 4.7679749E+002, 5.4517531E+002, 4.9058079E+002, 5.4692836E+002, 5.4716523E+002, 4.2284635E+002, 5.1812019E+002
 1.0900259E+003, 4.6416221E+002, 5.3994645E+002, 4.8723170E+002, 5.4127034E+002, 5.4146129E+002, 4.1922321E+002, 5.1238923E+002
 1.1000357E+003, 4.5151374E+002, 5.3442002E+002, 4.8367838E+002, 5.3531606E+002, 5.3546178E+002, 4.1543553E+002, 5.0640030E+002
 1.1100027E+003, 4.3889884E+002, 5.2863470E+002, 4.7994667E+002, 5.2910869E+002, 5.2921008E+002, 4.1151766E+002, 5.0025558E+002
 1.1200375E+003, 4.2626347E+002, 5.2258030E+002, 4.7602799E+002, 5.2263693E+002, 5.2269465E+002, 4.0745805E+002, 4.9401972E+002
 1.1300223E+003, 4.1747443E+002, 5.1638308E+002, 4.7200715E+002, 5.1603949E+002, 5.1605451E+002, 4.0333579E+002, 4.8787752E+002
 1.1400141E+003, 4.1248000E+002, 5.1004437E+002, 4.6789842E+002, 5.0931133E+002, 5.0928514E+002, 3.9917818E+002, 4.8171590E+002
 1.1500131E+003, 4.0748230E+002, 5.0376046E+002, 4.6386061E+002, 5.0267534E+002, 5.0261113E+002, 3.9517343E+002, 4.7629760E+002
 1.1600106E+003, 4.0248500E+002, 4.9768050E+002, 4.6001160E+002, 4.9628106E+002, 4.9618228E+002, 3.9139481E+002, 4.7120917E+002
 1.1700121E+003, 3.9748241E+002, 4.9174625E+002, 4.5631411E+002, 4.9005528E+002, 4.8992483E+002, 3.8779172E+002, 4.6628205E+002
 1.1800270E+003, 3.9247909E+002, 4.8593005E+002, 4.5274111E+002, 4.8396527E+002, 4.8380556E+002, 3.8433084E+002, 4.6140883E+002
 1.1900454E+003, 3.8747219E+002, 4.8022048E+002, 4.4927396E+002, 4.7799980E+002, 4.7781298E+002, 3.8099771E+002, 4.5677707E+002
 1.2000301E+003, 3.8247034E+002, 4.7468376E+002, 4.4594744E+002, 4.7222920E+002, 4.7201731E+002, 3.7781398E+002, 4.5238366E+002
 1.2100403E+003, 3.7747066E+002, 4.6925289E+002, 4.4271006E+002, 4.6657524E+002, 4.6633985E+002, 3.7472835E+002, 4.4785945E+002
 1.2200268E+003, 3.7247334E+002, 4.6386378E+002, 4.3950829E+002, 4.6097137E+002, 4.6071382E+002, 3.7170182E+002, 4.4341021E+002
 1.2300269E+003, 3.6747777E+002, 4.5857491E+002, 4.3637280E+002, 4.5548310E+002, 4.5520472E+002, 3.6876002E+002, 4.3912256E+002
 1.2400021E+003, 3.6248362E+002, 4.5337984E+002, 4.3329536E+002, 4.5010092E+002, 4.4980286E+002, 3.6589581E+002, 4.3489966E+002
 1.2500235E+003, 3.5748070E+002, 4.4826018E+002, 4.3025952E+002, 4.4480422E+002, 4.4448748E+002, 3.6309274E+002, 4.3064716E+002
 1.2600267E+003, 3.5247715E+002, 4.4316180E+002, 4.2722342E+002, 4.3953431E+002, 4.3919982E+002, 3.6032042E+002, 4.2635263E+002
 1.2700409E+003, 3.4747257E+002, 4.3810577E+002, 4.2419660E+002, 4.3431582E+002, 4.3396454E+002, 3.5759219E+002, 4.2208905E+002
 1.2800209E+003, 3.4247404E+002, 4.3311904E+002, 4.2119433E+002, 4.2917774E+002, 4.2881060E+002, 3.5491699E+002, 4.1794530E+002
 1.2900009E+003, 3.3748426E+002, 4.2821390E+002, 4.1822270E+002, 4.2413127E+002, 4.2374898E+002, 3.5229281E+002, 4.1389651E+002
 1.3000233E+003, 3.3248305E+002, 4.2337528E+002, 4.1527490E+002, 4.1915975E+002, 4.1876299E+002, 3.4971382E+002, 4.0986133E+002
 1.3100034E+003, 3.2748255E+002, 4.1862038E+002, 4.1236123E+002, 4.1428170E+002, 4.1387119E+002, 3.4719106E+002, 4.0595387E+002
 1.3200258E+003, 3.2248220E+002, 4.1393150E+002, 4.0946718E+002, 4.0947509E+002, 4.0905132E+002, 3.4470315E+002, 4.0196039E+002
 1.3300041E+003, 3.1748114E+002, 4.0925585E+002, 4.0655560E+002, 4.0468385E+002, 4.0424729E+002, 3.4223011E+002, 3.9795133E+002
 1.3400009E+003, 3.1248738E+002, 4.0463538E+002, 4.0365466E+002, 3.9995461E+002, 3.9950581E+002, 3.3979427E+002, 3.9396257E+002
 1.3500204E+003, 3.0748210E+002, 4.0001315E+002, 4.0072456E+002, 3.9522551E+002, 3.9476484E+002, 3.3736152E+002, 3.8995417E+002
 1.3600399E+003, 3.0247424E+002, 3.9544925E+002, 3.9780756E+002, 3.9056337E+002, 3.9009129E+002, 3.3496736E+002, 3.8604523E+002
 1.3700156E+003, 2.9747456E+002, 3.9089798E+002, 3.9487063E+002, 3.8591361E+002, 3.8543044E+002, 3.3257630E+002, 3.8196725E+002
 1.3800351E+003, 2.9247686E+002, 3.8637374E+002, 3.9192474E+002, 3.8129681E+002, 3.8080300E+002, 3.3020939E+002, 3.7805266E+002
 1.3900108E+003, 2.8747807E+002, 3.8190640E+002, 3.8899315E+002, 3.7674335E+002, 3.7623928E+002, 3.2787836E+002, 3.7421501E+002
 1.4000302E+003, 2.8247948E+002, 3.7751798E+002, 3.8609320E+002, 3.7227608E+002, 3.7176209E+002, 3.2559442E+002, 3.7044032E+002
 1.4100060E+003, 2.7748158E+002, 3.7317368E+002, 3.8319995E+002, 3.6785593E+002, 3.6733232E+002, 3.2333443E+002, 3.6669568E+002
 1.4200254E+003, 2.7248035E+002, 3.6889928E+002, 3.8033342E+002, 3.6351109E+002, 3.6297815E+002, 3.2111318E+002, 3.6303181E+002
 1.4300012E+003, 2.6748158E+002, 3.6468578E+002, 3.7748719E+002, 3.5923044E+002, 3.5868833E+002, 3.1892192E+002, 3.5936903E+002
 1.4400206E+003, 2.6248210E+002, 3.6048306E+002, 3.7462484E+002, 3.5495920E+002, 3.5440805E+002, 3.1673255E+002, 3.5559184E+002
 1.4500401E+003, 2.5747424E+002, 3.5624546E+002, 3.7171275E+002, 3.5065031E+002, 3.5009031E+002, 3.1452331E+002, 3.5167504E+002
 1.4600158E+003, 2.5247456E+002, 3.5203752E+002, 3.6879828E+002, 3.4637631E+002, 3.4580775E+002, 3.1233934E+002, 3.4796254E+002
 1.4700353E+003, 2.4747686E+002, 3.4785223E+002, 3.6587861E+002, 3.4212635E+002, 3.4154938E+002, 3.1016642E+002, 3.4415730E+002
 1.4800110E+003, 2.4247807E+002, 3.4368929E+002, 3.6295404E+002, 3.3790166E+002, 3.3731650E+002, 3.0801000E+002, 3.4044113E+002
 1.4900305E+003, 2.3747948E+002, 3.3957166E+002, 3.6004320E+002, 3.3372652E+002, 3.3313338E+002, 3.0588287E+002, 3.3681829E+002
 1.5000062E+003, 2.3248158E+002, 3.3553285E+002, 3.5717335E+002, 3.2963631E+002, 3.2903541E+002, 3.0380423E+002, 3.3332329E+002
 1.5100257E+003, 2.2747948E+002, 3.3153273E+002, 3.5431460E+002, 3.2558444E+002, 3.2497591E+002, 3.0174048E+002, 3.2970283E+002
 1.5200014E+003, 2.2248158E+002, 3.2755354E+002, 3.5145378E+002, 3.2155424E+002, 3.2093819E+002, 2.9968830E+002, 3.2617078E+002
 1.5300209E+003, 2.1748210E+002, 3.2361497E+002, 3.4860677E+002, 3.1756648E+002, 3.1694298E+002, 2.9765797E+002, 3.2262592E+002
 1.5400404E+003, 2.1247424E+002, 3.1967206E+002, 3.4573828E+002, 3.1357322E+002, 3.1294237E+002, 2.9562232E+002, 3.1901338E+002
