s,C,C,C,C,C,C,C
Time,"Air Temp","VTT_1","IRSN_1","TRAC_2","TRAC_4","GRS_2","NRC_2"
 0.0000000E+000, 2.5000000E+001, 2.5000000E+001, 2.5000000E+001, 2.5000000E+001, 2.5000000E+001, 2.5000000E+001, 2.5000000E+001
 1.0200000E+001, 2.5421647E+001, 2.5000021E+001, 2.5000018E+001, 2.5000026E+001, 2.5000026E+001, 2.5000027E+001, 2.5000208E+001
 2.0200000E+001, 2.6216000E+001, 2.5000614E+001, 2.5000513E+001, 2.5000715E+001, 2.5000725E+001, 2.5000682E+001, 2.5003175E+001
 3.0200000E+001, 2.9182381E+001, 2.5003230E+001, 2.5002711E+001, 2.5003698E+001, 2.5003751E+001, 2.5003277E+001, 2.5011494E+001
 4.0044890E+001, 4.4098182E+001, 2.5011971E+001, 2.5010035E+001, 2.5013688E+001, 2.5013886E+001, 2.5012097E+001, 2.5046753E+001
 5.0109234E+001, 6.0899983E+001, 2.5054690E+001, 2.5045492E+001, 2.5062536E+001, 2.5063412E+001, 2.5054632E+001, 2.5205248E+001
 6.0066300E+001, 7.7730438E+001, 2.5179956E+001, 2.5148962E+001, 2.5204009E+001, 2.5206770E+001, 2.5169801E+001, 2.5553537E+001
 7.0055885E+001, 9.4483522E+001, 2.5429001E+001, 2.5353896E+001, 2.5482325E+001, 2.5488678E+001, 2.5383960E+001, 2.6118763E+001
 8.0021836E+001, 1.1126682E+002, 2.5837390E+001, 2.5688361E+001, 2.5935130E+001, 2.5947165E+001, 2.5717424E+001, 2.6919950E+001
 9.0074206E+001, 1.2810289E+002, 2.6433504E+001, 2.6174762E+001, 2.6592133E+001, 2.6612253E+001, 2.6185908E+001, 2.7978595E+001
 1.0000421E+002, 1.4489230E+002, 2.7243955E+001, 2.6833185E+001, 2.7481414E+001, 2.7512259E+001, 2.6804281E+001, 2.9313049E+001
 1.1001819E+002, 1.6167714E+002, 2.8289134E+001, 2.7679482E+001, 2.8623929E+001, 2.8668355E+001, 2.7583413E+001, 3.0922374E+001
 1.2006389E+002, 1.7309950E+002, 2.9589159E+001, 2.8729677E+001, 3.0040502E+001, 3.0101692E+001, 2.8534315E+001, 3.2799041E+001
 1.3003201E+002, 1.7922238E+002, 3.1129068E+001, 2.9969484E+001, 3.1712759E+001, 3.1793558E+001, 2.9635378E+001, 3.4850931E+001
 1.4001962E+002, 1.8531206E+002, 3.2844357E+001, 3.1343514E+001, 3.3567058E+001, 3.3669376E+001, 3.0822082E+001, 3.6896317E+001
 1.5002672E+002, 1.9142584E+002, 3.4690920E+001, 3.2812449E+001, 3.5556422E+001, 3.5681640E+001, 3.2063612E+001, 3.8975391E+001
 1.6006178E+002, 1.9754777E+002, 3.6656536E+001, 3.4363181E+001, 3.7669120E+001, 3.7818315E+001, 3.3356410E+001, 4.1114976E+001
 1.7000666E+002, 2.0365433E+002, 3.8716769E+001, 3.5974824E+001, 3.9879817E+001, 4.0053896E+001, 3.4686976E+001, 4.3288422E+001
 1.8005486E+002, 2.0976287E+002, 4.0881971E+001, 3.7655040E+001, 4.2200609E+001, 4.2400494E+001, 3.6067833E+001, 4.5547588E+001
 1.9006250E+002, 2.1588490E+002, 4.3152692E+001, 3.9404496E+001, 4.4631923E+001, 4.4858588E+001, 3.7498324E+001, 4.7870874E+001
 2.0003743E+002, 2.2199418E+002, 4.5520312E+001, 4.1217067E+001, 4.7165015E+001, 4.7419223E+001, 3.8977229E+001, 5.0290799E+001
 2.1000697E+002, 2.3103165E+002, 4.7995268E+001, 4.3101828E+001, 4.9810943E+001, 5.0093521E+001, 4.0512924E+001, 5.2817955E+001
 2.2002790E+002, 2.4294389E+002, 5.0617482E+001, 4.5091816E+001, 5.2614260E+001, 5.2926517E+001, 4.2142831E+001, 5.5567495E+001
 2.3002575E+002, 2.5488358E+002, 5.3441566E+001, 4.7232904E+001, 5.5636476E+001, 5.5980783E+001, 4.3914175E+001, 5.8629314E+001
 2.4003736E+002, 2.6680136E+002, 5.6517493E+001, 4.9569018E+001, 5.8930642E+001, 5.9309784E+001, 4.5865640E+001, 6.2044997E+001
 2.5002641E+002, 2.7872805E+002, 5.9877031E+001, 5.2129203E+001, 6.2528313E+001, 6.2945210E+001, 4.8016563E+001, 6.5788268E+001
 2.6003445E+002, 2.9064589E+002, 6.3535076E+001, 5.4925595E+001, 6.6444767E+001, 6.6902745E+001, 5.0370546E+001, 6.9848429E+001
 2.7002823E+002, 3.0256805E+002, 6.7510592E+001, 5.7972741E+001, 7.0699773E+001, 7.1202349E+001, 5.2938827E+001, 7.4249992E+001
 2.8001144E+002, 3.1447784E+002, 7.1814151E+001, 6.1280502E+001, 7.5302963E+001, 7.5853403E+001, 5.5728561E+001, 7.9013604E+001
 2.9004294E+002, 3.2641649E+002, 7.6479361E+001, 6.4877367E+001, 8.0288204E+001, 8.0889638E+001, 5.8765014E+001, 8.4174734E+001
 3.0005352E+002, 3.3835644E+002, 8.1524167E+001, 6.8776823E+001, 8.5674262E+001, 8.6329939E+001, 6.2058827E+001, 8.9749318E+001
 3.1003488E+002, 3.5027846E+002, 8.6948919E+001, 7.2978167E+001, 9.1461113E+001, 9.2174234E+001, 6.5608380E+001, 9.5706639E+001
 3.2004829E+002, 3.6220444E+002, 9.2777201E+001, 7.7500615E+001, 9.7672172E+001, 9.8445884E+001, 6.9429245E+001, 1.0208894E+002
 3.3002030E+002, 3.7410293E+002, 9.9011370E+001, 8.2349676E+001, 1.0430687E+002, 1.0514377E+002, 7.3525754E+001, 1.0886960E+002
 3.4001464E+002, 3.8261316E+002, 1.0565265E+002, 8.7527293E+001, 1.1136512E+002, 1.1226756E+002, 7.7899827E+001, 1.1604099E+002
 3.5003689E+002, 3.8779249E+002, 1.1267507E+002, 9.3010836E+001, 1.1881254E+002, 1.1978197E+002, 8.2511354E+001, 1.2337359E+002
 3.6002735E+002, 3.9297515E+002, 1.1993037E+002, 9.8677754E+001, 1.2648246E+002, 1.2751779E+002, 8.7234113E+001, 1.3063774E+002
 3.7001628E+002, 3.9814533E+002, 1.2731504E+002, 1.0443854E+002, 1.3426568E+002, 1.3536459E+002, 9.1996096E+001, 1.3784259E+002
 3.8003723E+002, 4.0332916E+002, 1.3482979E+002, 1.1028257E+002, 1.4216934E+002, 1.4333010E+002, 9.6796845E+001, 1.4507786E+002
 3.9000039E+002, 4.0850497E+002, 1.4243402E+002, 1.1617930E+002, 1.5015074E+002, 1.5137105E+002, 1.0162292E+002, 1.5231356E+002
 4.0003844E+002, 4.1368200E+002, 1.5010913E+002, 1.2212672E+002, 1.5818519E+002, 1.5946160E+002, 1.0648795E+002, 1.5954456E+002
 4.1003273E+002, 4.1886744E+002, 1.5784669E+002, 1.2812170E+002, 1.6626566E+002, 1.6759480E+002, 1.1139210E+002, 1.6680107E+002
 4.2004026E+002, 4.2404685E+002, 1.6562891E+002, 1.3414610E+002, 1.7437848E+002, 1.7575774E+002, 1.1631715E+002, 1.7407781E+002
 4.3002591E+002, 4.2922394E+002, 1.7346792E+002, 1.4021962E+002, 1.8253372E+002, 1.8395982E+002, 1.2129431E+002, 1.8145285E+002
 4.4000840E+002, 4.3439402E+002, 1.8134944E+002, 1.4634243E+002, 1.9071289E+002, 1.9218191E+002, 1.2632698E+002, 1.8885699E+002
 4.5001562E+002, 4.3956947E+002, 1.8929182E+002, 1.5252770E+002, 1.9893821E+002, 2.0044697E+002, 1.3141964E+002, 1.9632208E+002
 4.6001597E+002, 4.4475050E+002, 1.9727532E+002, 1.5876680E+002, 2.0718642E+002, 2.0873142E+002, 1.3656701E+002, 2.0381052E+002
 4.7003449E+002, 4.4993583E+002, 2.0532218E+002, 1.6507251E+002, 2.1548737E+002, 2.1706595E+002, 1.4177877E+002, 2.1146262E+002
 4.8001871E+002, 4.5511375E+002, 2.1344631E+002, 1.7145373E+002, 2.2385647E+002, 2.2546636E+002, 1.4705686E+002, 2.1917728E+002
 4.9003247E+002, 4.6029073E+002, 2.2160090E+002, 1.7789052E+002, 2.3223583E+002, 2.3387347E+002, 1.5239110E+002, 2.2688382E+002
 5.0000120E+002, 4.6546542E+002, 2.2976867E+002, 1.8437556E+002, 2.4060798E+002, 2.4226961E+002, 1.5778180E+002, 2.3462841E+002
 5.1002130E+002, 4.7063722E+002, 2.3796831E+002, 1.9092032E+002, 2.4899633E+002, 2.5067882E+002, 1.6323507E+002, 2.4245376E+002
 5.2002244E+002, 4.7582498E+002, 2.4620847E+002, 1.9753456E+002, 2.5740878E+002, 2.5910904E+002, 1.6875926E+002, 2.5031472E+002
 5.3002750E+002, 4.8100512E+002, 2.5446972E+002, 2.0420196E+002, 2.6582769E+002, 2.6754283E+002, 1.7433884E+002, 2.5825212E+002
 5.4002533E+002, 4.8618545E+002, 2.6274769E+002, 2.1092404E+002, 2.7424574E+002, 2.7597262E+002, 1.7997816E+002, 2.6618700E+002
 5.5003418E+002, 4.9136432E+002, 2.7102893E+002, 2.1769765E+002, 2.8264843E+002, 2.8438382E+002, 1.8568053E+002, 2.7417573E+002
 5.6002287E+002, 4.9654254E+002, 2.7930509E+002, 2.2451430E+002, 2.9102814E+002, 2.9276910E+002, 1.9143419E+002, 2.8211528E+002
 5.7001520E+002, 5.0171617E+002, 2.8752737E+002, 2.3135056E+002, 2.9932897E+002, 3.0107163E+002, 1.9723367E+002, 2.9004379E+002
 5.8002467E+002, 5.0689525E+002, 2.9574302E+002, 2.3823334E+002, 3.0760756E+002, 3.0934905E+002, 2.0309465E+002, 2.9802102E+002
 5.9002735E+002, 5.1207749E+002, 3.0396727E+002, 2.4516992E+002, 3.1588321E+002, 3.1762120E+002, 2.0902140E+002, 3.0610604E+002
 6.0000091E+002, 5.1725053E+002, 3.1218074E+002, 2.5214345E+002, 3.2413496E+002, 3.2586730E+002, 2.1499316E+002, 3.1412732E+002
 6.1003424E+002, 5.2242468E+002, 3.2035784E+002, 2.5914983E+002, 3.3232968E+002, 3.3405352E+002, 2.2101828E+002, 3.2211274E+002
 6.2000443E+002, 5.2500000E+002, 3.2850333E+002, 2.6618234E+002, 3.4047941E+002, 3.4219264E+002, 2.2708536E+002, 3.3010921E+002
 6.3002010E+002, 5.2500000E+002, 3.3655265E+002, 2.7317802E+002, 3.4851199E+002, 3.5021206E+002, 2.3310366E+002, 3.3774129E+002
 6.4003334E+002, 5.2500000E+002, 3.4434682E+002, 2.8000718E+002, 3.5624885E+002, 3.5793120E+002, 2.3893687E+002, 3.4478728E+002
 6.5002327E+002, 5.2500000E+002, 3.5183096E+002, 2.8659466E+002, 3.6364808E+002, 3.6530911E+002, 2.4452036E+002, 3.5146826E+002
 6.6002675E+002, 5.2500000E+002, 3.5893877E+002, 2.9289680E+002, 3.7063615E+002, 3.7227196E+002, 2.4983377E+002, 3.5757060E+002
 6.7002235E+002, 5.3144437E+002, 3.6566647E+002, 2.9891586E+002, 3.7721704E+002, 3.7882438E+002, 2.5490658E+002, 3.6340419E+002
 6.8002229E+002, 5.4421645E+002, 3.7223988E+002, 3.0483401E+002, 3.8365343E+002, 3.8523244E+002, 2.5997115E+002, 3.6983978E+002
 6.9001323E+002, 5.5699375E+002, 3.7905068E+002, 3.1100101E+002, 3.9037312E+002, 3.9192789E+002, 2.6541075E+002, 3.7737435E+002
 7.0000425E+002, 5.6975506E+002, 3.8626540E+002, 3.1760121E+002, 3.9753394E+002, 3.9906860E+002, 2.7138155E+002, 3.8568688E+002
 7.1000470E+002, 5.8252867E+002, 3.9403696E+002, 3.2476278E+002, 4.0529559E+002, 4.0681456E+002, 2.7796905E+002, 3.9515586E+002
 7.2000601E+002, 5.9530536E+002, 4.0247136E+002, 3.3256306E+002, 4.1375866E+002, 4.1526567E+002, 2.8519771E+002, 4.0542489E+002
 7.3000822E+002, 6.0807964E+002, 4.1140801E+002, 3.4091107E+002, 4.2272668E+002, 4.2422247E+002, 2.9298536E+002, 4.1599632E+002
 7.4000127E+002, 6.2086072E+002, 4.2079374E+002, 3.4975295E+002, 4.3214854E+002, 4.3363350E+002, 3.0128523E+002, 4.2714897E+002
 7.5002482E+002, 6.3364744E+002, 4.3065033E+002, 3.5908789E+002, 4.4204777E+002, 4.4352220E+002, 3.1008881E+002, 4.3877843E+002
 7.6000561E+002, 6.4055870E+002, 4.4086995E+002, 3.6882947E+002, 4.5230250E+002, 4.5376543E+002, 3.1931806E+002, 4.5053649E+002
 7.7002901E+002, 6.4167011E+002, 4.5124376E+002, 3.7877174E+002, 4.6268293E+002, 4.6413135E+002, 3.2869738E+002, 4.6174590E+002
 7.8002971E+002, 6.4278272E+002, 4.6137390E+002, 3.8853082E+002, 4.7275779E+002, 4.7418568E+002, 3.3777664E+002, 4.7165244E+002
 7.9000868E+002, 6.4389251E+002, 4.7092336E+002, 3.9779150E+002, 4.8218611E+002, 4.8358730E+002, 3.4629164E+002, 4.8038957E+002
 8.0002749E+002, 6.4500358E+002, 4.7992979E+002, 4.0654950E+002, 4.9103398E+002, 4.9240442E+002, 3.5428652E+002, 4.8845847E+002
 8.1003028E+002, 6.4611628E+002, 4.8837901E+002, 4.1479900E+002, 4.9929187E+002, 5.0062832E+002, 3.6178961E+002, 4.9580862E+002
 8.2002012E+002, 6.4722673E+002, 4.9634498E+002, 4.2258767E+002, 5.0705500E+002, 5.0835604E+002, 3.6886060E+002, 5.0281932E+002
 8.3001207E+002, 6.4833706E+002, 5.0388383E+002, 4.2997638E+002, 5.1438027E+002, 5.1564496E+002, 3.7556290E+002, 5.0939961E+002
 8.4000981E+002, 6.4944721E+002, 5.1106356E+002, 4.3703367E+002, 5.2134134E+002, 5.2256918E+002, 3.8196713E+002, 5.1568798E+002
 8.5000427E+002, 6.5055770E+002, 5.1778649E+002, 4.4371332E+002, 5.2782360E+002, 5.2901374E+002, 3.8802730E+002, 5.2126253E+002
 8.6000953E+002, 6.5166890E+002, 5.2413757E+002, 4.5007655E+002, 5.3393262E+002, 5.3508550E+002, 3.9381274E+002, 5.2679872E+002
 8.7001827E+002, 6.5278071E+002, 5.3019172E+002, 4.5619104E+002, 5.3974368E+002, 5.4085974E+002, 3.9937762E+002, 5.3202181E+002
 8.8000047E+002, 6.5389164E+002, 5.3591038E+002, 4.6204064E+002, 5.4521360E+002, 5.4629323E+002, 4.0470922E+002, 5.3700402E+002
 8.9000860E+002, 6.5500206E+002, 5.4139255E+002, 4.6769639E+002, 5.5045256E+002, 5.5149664E+002, 4.0986346E+002, 5.4189701E+002
 9.0000271E+002, 6.5611322E+002, 5.4663148E+002, 4.7316322E+002, 5.5544700E+002, 5.5645618E+002, 4.1483681E+002, 5.4652759E+002
 9.1000708E+002, 6.5722429E+002, 5.5162452E+002, 4.7844674E+002, 5.6019462E+002, 5.6116967E+002, 4.1964301E+002, 5.5094696E+002
 9.2002108E+002, 6.5833637E+002, 5.5631559E+002, 4.8351513E+002, 5.6463041E+002, 5.6557186E+002, 4.2424835E+002, 5.5489554E+002
 9.3000332E+002, 6.5944749E+002, 5.6072641E+002, 4.8837587E+002, 5.6878754E+002, 5.6969649E+002, 4.2867311E+002, 5.5880307E+002
 9.4001519E+002, 6.5365334E+002, 5.6496141E+002, 4.9309947E+002, 5.7277886E+002, 5.7365648E+002, 4.3296691E+002, 5.6267945E+002
 9.5001752E+002, 6.4101474E+002, 5.6882068E+002, 4.9750503E+002, 5.7636753E+002, 5.7721212E+002, 4.3684233E+002, 5.6514936E+002
 9.6000946E+002, 6.2838312E+002, 5.7176971E+002, 5.0112753E+002, 5.7897457E+002, 5.7978089E+002, 4.3979729E+002, 5.6578321E+002
 9.7001942E+002, 6.1574920E+002, 5.7364292E+002, 5.0379799E+002, 5.8044538E+002, 5.8120846E+002, 4.4172262E+002, 5.6487210E+002
 9.8000329E+002, 6.0312274E+002, 5.7444880E+002, 5.0551428E+002, 5.8081136E+002, 5.8152806E+002, 4.4268850E+002, 5.6299188E+002
 9.9000253E+002, 5.9050489E+002, 5.7431894E+002, 5.0638701E+002, 5.8022360E+002, 5.8089224E+002, 4.4283778E+002, 5.6030611E+002
 1.0000050E+003, 5.7786927E+002, 5.7334398E+002, 5.0651011E+002, 5.7877948E+002, 5.7939902E+002, 4.4228537E+002, 5.5698705E+002
 1.0100025E+003, 5.6523516E+002, 5.7164905E+002, 5.0600095E+002, 5.7661399E+002, 5.7718405E+002, 4.4115834E+002, 5.5321122E+002
 1.0200262E+003, 5.5259405E+002, 5.6924912E+002, 5.0490105E+002, 5.7373510E+002, 5.7425536E+002, 4.3949720E+002, 5.4881185E+002
 1.0300197E+003, 5.3994411E+002, 5.6631309E+002, 5.0334443E+002, 5.7033175E+002, 5.7080284E+002, 4.3743861E+002, 5.4440539E+002
 1.0400001E+003, 5.2733262E+002, 5.6288614E+002, 5.0138969E+002, 5.6644007E+002, 5.6686253E+002, 4.3502692E+002, 5.3952137E+002
 1.0500183E+003, 5.1470696E+002, 5.5900495E+002, 4.9907730E+002, 5.6209918E+002, 5.6247361E+002, 4.3230215E+002, 5.3443257E+002
 1.0600336E+003, 5.0205000E+002, 5.5470368E+002, 4.9644032E+002, 5.5734210E+002, 5.5766897E+002, 4.2929118E+002, 5.2911460E+002
 1.0700079E+003, 4.8942749E+002, 5.5004496E+002, 4.9353310E+002, 5.5223426E+002, 5.5251436E+002, 4.2605320E+002, 5.2358375E+002
 1.0800327E+003, 4.7679150E+002, 5.4505389E+002, 4.9037736E+002, 5.4680097E+002, 5.4703484E+002, 4.2260269E+002, 5.1794046E+002
 1.0900250E+003, 4.6414989E+002, 5.3978910E+002, 4.8701450E+002, 5.4110307E+002, 5.4129108E+002, 4.1897229E+002, 5.1217508E+002
 1.1000074E+003, 4.5153182E+002, 5.3429066E+002, 4.8348015E+002, 5.3518159E+002, 5.3532450E+002, 4.1520518E+002, 5.0637549E+002
 1.1100143E+003, 4.3890738E+002, 5.2852653E+002, 4.7976208E+002, 5.2899620E+002, 5.2909464E+002, 4.1128933E+002, 5.0018117E+002
 1.1200058E+003, 4.2627486E+002, 5.2249434E+002, 4.7585807E+002, 5.2254791E+002, 5.2260259E+002, 4.0723876E+002, 4.9397220E+002
 1.1300344E+003, 4.1748061E+002, 5.1628148E+002, 4.7182740E+002, 5.1593159E+002, 5.1594340E+002, 4.0310398E+002, 4.8778872E+002
 1.1400368E+003, 4.1247200E+002, 5.0999885E+002, 4.6775638E+002, 5.0926824E+002, 5.0923886E+002, 3.9898146E+002, 4.8195140E+002
 1.1500135E+003, 4.0747634E+002, 5.0380253E+002, 4.6377875E+002, 5.0272346E+002, 5.0265594E+002, 3.9501409E+002, 4.7645753E+002
 1.1600421E+003, 4.0247617E+002, 4.9768354E+002, 4.5990813E+002, 4.9628075E+002, 4.9617838E+002, 3.9121012E+002, 4.7111764E+002
 1.1700107E+003, 3.9747561E+002, 4.9168813E+002, 4.5617201E+002, 4.8998815E+002, 4.8985406E+002, 3.8758287E+002, 4.6611806E+002
 1.1800015E+003, 3.9248381E+002, 4.8589273E+002, 4.5261129E+002, 4.8392453E+002, 4.8376146E+002, 3.8414285E+002, 4.6150128E+002
 1.1900166E+003, 3.8748401E+002, 4.8025713E+002, 4.4919290E+002, 4.7803966E+002, 4.7784965E+002, 3.8084224E+002, 4.5692946E+002
 1.2000127E+003, 3.8248234E+002, 4.7473831E+002, 4.4587965E+002, 4.7228617E+002, 4.7207101E+002, 3.7766235E+002, 4.5252117E+002
 1.2100135E+003, 3.7748316E+002, 4.6939978E+002, 4.4270199E+002, 4.6673401E+002, 4.6649529E+002, 3.7462185E+002, 4.4837615E+002
 1.2200294E+003, 3.7247773E+002, 4.6414243E+002, 4.3958797E+002, 4.6126877E+002, 4.6100759E+002, 3.7164957E+002, 4.4395738E+002
 1.2300305E+003, 3.6747214E+002, 4.5886231E+002, 4.3646182E+002, 4.5578186E+002, 4.5549944E+002, 3.6870344E+002, 4.3943890E+002
 1.2400296E+003, 3.6247443E+002, 4.5362424E+002, 4.3335716E+002, 4.5034982E+002, 4.5004758E+002, 3.6581961E+002, 4.3508229E+002
 1.2500060E+003, 3.5747548E+002, 4.4847113E+002, 4.3029795E+002, 4.4501725E+002, 4.4469649E+002, 3.6300877E+002, 4.3082941E+002
 1.2600344E+003, 3.5247695E+002, 4.4336793E+002, 4.2725782E+002, 4.3974321E+002, 4.3940484E+002, 3.6023834E+002, 4.2654944E+002
 1.2700316E+003, 3.4746979E+002, 4.3831632E+002, 4.2423487E+002, 4.3453042E+002, 4.3417539E+002, 3.5751595E+002, 4.2233207E+002
 1.2800415E+003, 3.4246928E+002, 4.3333641E+002, 4.2123942E+002, 4.2939951E+002, 4.2902871E+002, 3.5484742E+002, 4.1819292E+002
 1.2900464E+003, 3.3746744E+002, 4.2843849E+002, 4.1827577E+002, 4.2436145E+002, 4.2397557E+002, 3.5223178E+002, 4.1416406E+002
 1.3000259E+003, 3.3247001E+002, 4.2362725E+002, 4.1534689E+002, 4.1941890E+002, 4.1901861E+002, 3.4966999E+002, 4.1017301E+002
 1.3100156E+003, 3.2747409E+002, 4.1887502E+002, 4.1243461E+002, 4.1454102E+002, 4.1412691E+002, 3.4714573E+002, 4.0615049E+002
 1.3200143E+003, 3.2248108E+002, 4.1415975E+002, 4.0952275E+002, 4.0970557E+002, 4.0927822E+002, 3.4465168E+002, 4.0212425E+002
 1.3300222E+003, 3.1747629E+002, 4.0943916E+002, 4.0657988E+002, 4.0486550E+002, 4.0442537E+002, 3.4215767E+002, 3.9794916E+002
 1.3400116E+003, 3.1247949E+002, 4.0473695E+002, 4.0362030E+002, 4.0004965E+002, 3.9959724E+002, 3.3968161E+002, 3.9389959E+002
 1.3500394E+003, 3.0747290E+002, 4.0008877E+002, 4.0066993E+002, 3.9529586E+002, 3.9483165E+002, 3.3723800E+002, 3.8994081E+002
 1.3600579E+003, 3.0246207E+002, 3.9550557E+002, 3.9773854E+002, 3.9061434E+002, 3.9013874E+002, 3.3483220E+002, 3.8603430E+002
 1.3700583E+003, 2.9745790E+002, 3.9097184E+002, 3.9481489E+002, 3.8598605E+002, 3.8549945E+002, 3.3245444E+002, 3.8211515E+002
 1.3800228E+003, 2.9246661E+002, 3.8648988E+002, 3.9189958E+002, 3.8141363E+002, 3.8091634E+002, 3.3010450E+002, 3.7822940E+002
 1.3900561E+003, 2.8746633E+002, 3.8206345E+002, 3.8899926E+002, 3.7690349E+002, 3.7639591E+002, 3.2779316E+002, 3.7447133E+002
 1.4000328E+003, 2.8245932E+002, 3.7768306E+002, 3.8610739E+002, 3.7244216E+002, 3.7192465E+002, 3.2550754E+002, 3.7059484E+002
 1.4100554E+003, 2.7746166E+002, 3.7329465E+002, 3.8318391E+002, 3.6797154E+002, 3.6744440E+002, 3.2321829E+002, 3.6663778E+002
 1.4200041E+003, 2.7246884E+002, 3.6889978E+002, 3.8022869E+002, 3.6349515E+002, 3.6295867E+002, 3.2092798E+002, 3.6263232E+002
 1.4300083E+003, 2.6748219E+002, 3.6454184E+002, 3.7727202E+002, 3.5906256E+002, 3.5851694E+002, 3.1866424E+002, 3.5887560E+002
 1.4400154E+003, 2.6248175E+002, 3.6025103E+002, 3.7434274E+002, 3.5470337E+002, 3.5414890E+002, 3.1643849E+002, 3.5510991E+002
 1.4500388E+003, 2.5747228E+002, 3.5600714E+002, 3.7142634E+002, 3.5039464E+002, 3.4983155E+002, 3.1423946E+002, 3.5144919E+002
 1.4600488E+003, 2.5246379E+002, 3.5184529E+002, 3.6854992E+002, 3.4617381E+002, 3.4560235E+002, 3.1208789E+002, 3.4787307E+002
 1.4700114E+003, 2.4746767E+002, 3.4773728E+002, 3.6569403E+002, 3.4200695E+002, 3.4142725E+002, 3.0996288E+002, 3.4421563E+002
 1.4800345E+003, 2.4247438E+002, 3.4364007E+002, 3.6282620E+002, 3.3785068E+002, 3.3726292E+002, 3.0784380E+002, 3.4056284E+002
 1.4900498E+003, 2.3746481E+002, 3.3957153E+002, 3.5995946E+002, 3.3372637E+002, 3.3313073E+002, 3.0574433E+002, 3.3695334E+002
 1.5000064E+003, 2.3247226E+002, 3.3555336E+002, 3.5710914E+002, 3.2965499E+002, 3.2905174E+002, 3.0367281E+002, 3.3338656E+002
 1.5100360E+003, 2.2747589E+002, 3.3156012E+002, 3.5425768E+002, 3.2560917E+002, 3.2499833E+002, 3.0161097E+002, 3.2978276E+002
 1.5200070E+003, 2.2247272E+002, 3.2757439E+002, 3.5139283E+002, 3.2157100E+002, 3.2095266E+002, 2.9955378E+002, 3.2618897E+002
 1.5300190E+003, 2.1747551E+002, 3.2363527E+002, 3.4854556E+002, 3.1758324E+002, 3.1695757E+002, 2.9752725E+002, 3.2269195E+002
 1.5400026E+003, 2.1247811E+002, 3.1974180E+002, 3.4571603E+002, 3.1364393E+002, 3.1301108E+002, 2.9552745E+002, 3.1922993E+002
