s,C,C,C,C,C,C,C
Time,"Air Temp","VTT_1","IRSN_1","TRAC_2","TRAC_4","GRS_2","NRC_2"
 0.0000000E+000, 2.5000000E+001, 2.5000000E+001, 2.5000000E+001, 2.5000000E+001, 2.5000000E+001, 2.5000000E+001, 2.5000000E+001
 1.0200000E+001, 2.5421647E+001, 2.5000021E+001, 2.5000018E+001, 2.5000026E+001, 2.5000026E+001, 2.5000027E+001, 2.5000208E+001
 2.0200000E+001, 2.6216000E+001, 2.5000614E+001, 2.5000513E+001, 2.5000715E+001, 2.5000725E+001, 2.5000682E+001, 2.5003175E+001
 3.0200000E+001, 2.9182381E+001, 2.5003230E+001, 2.5002711E+001, 2.5003697E+001, 2.5003751E+001, 2.5003277E+001, 2.5011494E+001
 4.0044985E+001, 4.4098221E+001, 2.5011973E+001, 2.5010036E+001, 2.5013691E+001, 2.5013888E+001, 2.5012098E+001, 2.5046784E+001
 5.0125486E+001, 6.0911952E+001, 2.5054810E+001, 2.5045559E+001, 2.5062667E+001, 2.5063540E+001, 2.5054701E+001, 2.5205739E+001
 6.0085023E+001, 7.7739430E+001, 2.5180399E+001, 2.5149218E+001, 2.5204485E+001, 2.5207240E+001, 2.5170059E+001, 2.5554680E+001
 7.0034286E+001, 9.4476725E+001, 2.5429768E+001, 2.5354297E+001, 2.5483148E+001, 2.5489490E+001, 2.5384438E+001, 2.6122698E+001
 8.0076445E+001, 1.1129767E+002, 2.5841561E+001, 2.5691331E+001, 2.5939674E+001, 2.5951707E+001, 2.5720458E+001, 2.6934225E+001
 9.0005326E+001, 1.2808336E+002, 2.6441058E+001, 2.6180068E+001, 2.6600284E+001, 2.6620377E+001, 2.6190864E+001, 2.7998397E+001
 1.0007094E+002, 1.4489616E+002, 2.7253267E+001, 2.6839985E+001, 2.7491040E+001, 2.7521840E+001, 2.6809413E+001, 2.9314508E+001
 1.1001662E+002, 1.6170140E+002, 2.8286383E+001, 2.7677744E+001, 2.8619818E+001, 2.8664184E+001, 2.7579159E+001, 3.0874414E+001
 1.2000488E+002, 1.7307748E+002, 2.9558486E+001, 2.8706460E+001, 3.0006343E+001, 3.0067325E+001, 2.8512319E+001, 3.2723914E+001
 1.3004467E+002, 1.7920557E+002, 3.1084687E+001, 2.9935753E+001, 3.1664493E+001, 3.1745098E+001, 2.9606090E+001, 3.4764403E+001
 1.4005604E+002, 1.8533059E+002, 3.2795597E+001, 3.1306623E+001, 3.3514984E+001, 3.3617248E+001, 3.0791622E+001, 3.6818251E+001
 1.5003129E+002, 1.9143323E+002, 3.4640969E+001, 3.2774460E+001, 3.5504177E+001, 3.5629359E+001, 3.2035315E+001, 3.8929157E+001
 1.6000895E+002, 1.9753572E+002, 3.6604636E+001, 3.4323666E+001, 3.7615354E+001, 3.7764456E+001, 3.3328738E+001, 4.1071671E+001
 1.7006776E+002, 2.0365435E+002, 3.8676084E+001, 3.5944723E+001, 3.9838033E+001, 4.0012118E+001, 3.4666566E+001, 4.3256377E+001
 1.8000257E+002, 2.0976677E+002, 4.0837792E+001, 3.7622982E+001, 4.2154546E+001, 4.2354434E+001, 3.6042376E+001, 4.5492607E+001
 1.9005631E+002, 2.1587396E+002, 4.3103962E+001, 3.9369433E+001, 4.4581011E+001, 4.4807512E+001, 3.7471737E+001, 4.7844483E+001
 2.0002465E+002, 2.2199031E+002, 4.5479857E+001, 4.1188781E+001, 4.7122595E+001, 4.7376628E+001, 3.8956177E+001, 5.0253465E+001
 2.1003662E+002, 2.3103563E+002, 4.7953104E+001, 4.3071623E+001, 4.9766785E+001, 5.0049335E+001, 4.0489290E+001, 5.2754377E+001
 2.2005677E+002, 2.4297339E+002, 5.0571443E+001, 4.5057543E+001, 5.2566690E+001, 5.2879160E+001, 4.2115655E+001, 5.5498399E+001
 2.3005623E+002, 2.5490838E+002, 5.3391355E+001, 4.7195039E+001, 5.5585148E+001, 5.5929742E+001, 4.3885875E+001, 5.8567746E+001
 2.4001929E+002, 2.6682086E+002, 5.6459472E+001, 4.9525407E+001, 5.8871351E+001, 5.9250707E+001, 4.5834061E+001, 6.1980897E+001
 2.5001944E+002, 2.7871811E+002, 5.9810592E+001, 5.2078766E+001, 6.2460473E+001, 6.2877599E+001, 4.7979258E+001, 6.5718155E+001
 2.6001782E+002, 2.9062545E+002, 6.3475903E+001, 5.4880957E+001, 6.6384894E+001, 6.6842998E+001, 5.0340888E+001, 6.9819142E+001
 2.7000946E+002, 3.0254343E+002, 6.7462685E+001, 5.7938441E+001, 7.0650854E+001, 7.1153165E+001, 5.2919657E+001, 7.4252380E+001
 2.8000590E+002, 3.1446802E+002, 7.1784159E+001, 6.1262009E+001, 7.5271613E+001, 7.5821406E+001, 5.5724047E+001, 7.9049889E+001
 2.9004458E+002, 3.2640691E+002, 7.6475704E+001, 6.4880988E+001, 8.0283523E+001, 8.0883997E+001, 5.8781024E+001, 8.4260902E+001
 3.0004200E+002, 3.3835630E+002, 8.1539815E+001, 6.8798840E+001, 8.5687328E+001, 8.6341463E+001, 6.2090916E+001, 8.9845588E+001
 3.1004516E+002, 3.5027992E+002, 8.6973697E+001, 7.3011392E+001, 9.1480395E+001, 9.2191362E+001, 6.5646084E+001, 9.5790993E+001
 3.2004989E+002, 3.6219875E+002, 9.2796988E+001, 7.7534725E+001, 9.7682341E+001, 9.8453236E+001, 6.9463937E+001, 1.0213880E+002
 3.3001657E+002, 3.7410012E+002, 9.9011441E+001, 8.2373659E+001, 1.0429265E+002, 1.0512592E+002, 7.3553288E+001, 1.0889670E+002
 3.4000256E+002, 3.8260887E+002, 1.0562968E+002, 8.7538706E+001, 1.1132331E+002, 1.1222129E+002, 7.7920033E+001, 1.1604478E+002
 3.5000537E+002, 3.8778189E+002, 1.1262718E+002, 9.3006486E+001, 1.1874265E+002, 1.1970702E+002, 8.2521256E+001, 1.2335883E+002
 3.6002183E+002, 3.9296488E+002, 1.1987753E+002, 9.8670448E+001, 1.2640753E+002, 1.2743770E+002, 8.7243406E+001, 1.3063258E+002
 3.7004100E+002, 3.9815139E+002, 1.2728464E+002, 1.0444597E+002, 1.3421616E+002, 1.3531044E+002, 9.2016318E+001, 1.3785668E+002
 3.8000473E+002, 4.0332581E+002, 1.3477441E+002, 1.1027450E+002, 1.4209084E+002, 1.4324644E+002, 9.6807349E+001, 1.4503702E+002
 3.9003145E+002, 4.0850142E+002, 1.4235456E+002, 1.1615627E+002, 1.5004494E+002, 1.5125974E+002, 1.0162191E+002, 1.5223439E+002
 4.0003704E+002, 4.1368977E+002, 1.5002869E+002, 1.2209836E+002, 1.5808141E+002, 1.5935299E+002, 1.0647840E+002, 1.5948354E+002
 4.1001595E+002, 4.1886172E+002, 1.5774492E+002, 1.2807640E+002, 1.6614049E+002, 1.6746475E+002, 1.1137302E+002, 1.6674215E+002
 4.2000320E+002, 4.2403039E+002, 1.6551362E+002, 1.3409447E+002, 1.7423841E+002, 1.7561241E+002, 1.1630069E+002, 1.7404166E+002
 4.3003414E+002, 4.2921815E+002, 1.7337639E+002, 1.4018371E+002, 1.8242144E+002, 1.8384291E+002, 1.2128728E+002, 1.8143479E+002
 4.4002781E+002, 4.3440298E+002, 1.8131358E+002, 1.4633454E+002, 1.9066736E+002, 1.9213368E+002, 1.2632815E+002, 1.8890060E+002
 4.5000230E+002, 4.3957106E+002, 1.8929179E+002, 1.5253070E+002, 1.9893858E+002, 2.0044643E+002, 1.3141559E+002, 1.9640997E+002
 4.6001712E+002, 4.4474786E+002, 1.9731739E+002, 1.5878723E+002, 2.0723746E+002, 2.0878311E+002, 1.3656509E+002, 2.0392874E+002
 4.7002811E+002, 4.4993300E+002, 2.0537505E+002, 1.6510188E+002, 2.1554620E+002, 2.1712537E+002, 1.4178161E+002, 2.1149243E+002
 4.8001075E+002, 4.5510867E+002, 2.1344180E+002, 1.7145601E+002, 2.2384465E+002, 2.2545348E+002, 1.4704742E+002, 2.1910376E+002
 4.9000682E+002, 4.6028177E+002, 2.2156193E+002, 1.7787031E+002, 2.3218832E+002, 2.3382469E+002, 1.5236614E+002, 2.2684551E+002
 5.0002774E+002, 4.6546373E+002, 2.2977076E+002, 1.8437484E+002, 2.4061164E+002, 2.4227344E+002, 1.5776429E+002, 2.3467867E+002
 5.1002802E+002, 4.7065007E+002, 2.3801232E+002, 1.9094157E+002, 2.4904835E+002, 2.5073218E+002, 1.6322543E+002, 2.4250832E+002
 5.2001160E+002, 4.7582500E+002, 2.4625078E+002, 1.9754878E+002, 2.5746122E+002, 2.5916337E+002, 1.6873782E+002, 2.5037167E+002
 5.3000638E+002, 4.8099659E+002, 2.5450690E+002, 2.0421254E+002, 2.6587414E+002, 2.6759128E+002, 1.7431466E+002, 2.5827149E+002
 5.4003735E+002, 4.8618096E+002, 2.6277210E+002, 2.1093726E+002, 2.7427338E+002, 2.7600164E+002, 1.7996571E+002, 2.6618733E+002
 5.5003482E+002, 4.9136777E+002, 2.7104639E+002, 2.1771517E+002, 2.8266585E+002, 2.8440225E+002, 1.8567999E+002, 2.7417354E+002
 5.6000159E+002, 4.9653633E+002, 2.7931119E+002, 2.2452766E+002, 2.9103500E+002, 2.9277700E+002, 1.9143702E+002, 2.8219325E+002
 5.7000498E+002, 5.0170668E+002, 2.8758698E+002, 2.3139237E+002, 2.9940037E+002, 3.0114548E+002, 1.9724841E+002, 2.9020115E+002
 5.8003732E+002, 5.0689564E+002, 2.9586548E+002, 2.3831420E+002, 3.0774859E+002, 3.0949373E+002, 2.0312884E+002, 2.9820871E+002
 5.9000962E+002, 5.1207541E+002, 3.0409864E+002, 2.4525639E+002, 3.1603219E+002, 3.1777432E+002, 2.0905173E+002, 3.0620031E+002
 6.0000577E+002, 5.1724573E+002, 3.1224492E+002, 2.5219412E+002, 3.2420389E+002, 3.2593951E+002, 2.1499930E+002, 3.1403826E+002
 6.1002525E+002, 5.2242874E+002, 3.2037611E+002, 2.5917384E+002, 3.3234899E+002, 3.3407584E+002, 2.2101086E+002, 3.2206833E+002
 6.2000271E+002, 5.2500000E+002, 3.2852260E+002, 2.6620372E+002, 3.4050433E+002, 3.4222114E+002, 2.2707769E+002, 3.3013416E+002
 6.3001999E+002, 5.2500000E+002, 3.3658841E+002, 2.7321292E+002, 3.4855538E+002, 3.5025925E+002, 2.3310961E+002, 3.3778722E+002
 6.4002532E+002, 5.2500000E+002, 3.4441503E+002, 2.8006122E+002, 3.5633056E+002, 3.5801727E+002, 2.3895340E+002, 3.4490331E+002
 6.5001318E+002, 5.2500000E+002, 3.5187661E+002, 2.8663580E+002, 3.6370179E+002, 3.6536705E+002, 2.4451950E+002, 3.5139824E+002
 6.6002935E+002, 5.2500000E+002, 3.5893732E+002, 2.9291098E+002, 3.7063693E+002, 3.7227662E+002, 2.4981331E+002, 3.5745173E+002
 6.7001625E+002, 5.3143962E+002, 3.6562086E+002, 2.9889642E+002, 3.7717166E+002, 3.7878301E+002, 2.5485369E+002, 3.6321211E+002
 6.8002839E+002, 5.4421685E+002, 3.7215798E+002, 3.0478798E+002, 3.8357143E+002, 3.8515463E+002, 2.5990034E+002, 3.6967380E+002
 6.9002782E+002, 5.5700270E+002, 3.7897217E+002, 3.1096107E+002, 3.9029652E+002, 3.9185557E+002, 2.6535586E+002, 3.7728005E+002
 7.0002996E+002, 5.6978180E+002, 3.8627835E+002, 3.1762325E+002, 3.9756354E+002, 3.9910345E+002, 2.7138310E+002, 3.8593144E+002
 7.1001486E+002, 5.8255202E+002, 3.9411683E+002, 3.2483933E+002, 4.0539303E+002, 4.0691725E+002, 2.7801353E+002, 3.9524815E+002
 7.2002120E+002, 5.9531941E+002, 4.0247553E+002, 3.3261082E+002, 4.1376327E+002, 4.1527427E+002, 2.8522955E+002, 4.0529210E+002
 7.3000056E+002, 6.0808818E+002, 4.1135851E+002, 3.4093048E+002, 4.2267459E+002, 4.2417423E+002, 2.9300314E+002, 4.1592221E+002
 7.4002392E+002, 6.2086829E+002, 4.2070271E+002, 3.4975304E+002, 4.3204970E+002, 4.3353825E+002, 3.0129278E+002, 4.2692085E+002
 7.5001869E+002, 6.3365742E+002, 4.3049845E+002, 3.5905522E+002, 4.4188322E+002, 4.4336089E+002, 3.1008467E+002, 4.3857740E+002
 7.6002951E+002, 6.4055974E+002, 4.4076317E+002, 3.6882519E+002, 4.5219500E+002, 4.5366218E+002, 3.1934223E+002, 4.5057259E+002
 7.7001088E+002, 6.4167064E+002, 4.5118658E+002, 3.7879683E+002, 4.6263142E+002, 4.6408484E+002, 3.2873354E+002, 4.6175363E+002
 7.8000688E+002, 6.4278061E+002, 4.6130613E+002, 3.8853837E+002, 4.7269649E+002, 4.7412976E+002, 3.3777995E+002, 4.7162557E+002
 7.9001987E+002, 6.4389238E+002, 4.7091003E+002, 3.9783655E+002, 4.8218394E+002, 4.8359088E+002, 3.4631948E+002, 4.8044106E+002
 8.0000550E+002, 6.4500352E+002, 4.7989473E+002, 4.0658407E+002, 4.9100411E+002, 4.9238005E+002, 3.5429977E+002, 4.8836785E+002
 8.1001291E+002, 6.4611367E+002, 4.8833106E+002, 4.1482305E+002, 4.9925089E+002, 5.0059328E+002, 3.6179342E+002, 4.9573871E+002
 8.2000179E+002, 6.4722465E+002, 4.9626535E+002, 4.2259878E+002, 5.0697782E+002, 5.0828477E+002, 3.6886082E+002, 5.0267396E+002
 8.3002532E+002, 6.4833632E+002, 5.0375950E+002, 4.2996974E+002, 5.1425134E+002, 5.1552162E+002, 3.7555794E+002, 5.0908466E+002
 8.4000961E+002, 6.4944840E+002, 5.1082605E+002, 4.3695818E+002, 5.2108803E+002, 5.2232113E+002, 3.8191302E+002, 5.1519936E+002
 8.5000090E+002, 6.5055784E+002, 5.1752744E+002, 4.4361736E+002, 5.2755749E+002, 5.2875377E+002, 3.8796838E+002, 5.2103105E+002
 8.6002601E+002, 6.5166972E+002, 5.2389575E+002, 4.4999163E+002, 5.3368702E+002, 5.3484639E+002, 3.9376069E+002, 5.2648365E+002
 8.7000898E+002, 6.5278162E+002, 5.2992099E+002, 4.5608433E+002, 5.3946810E+002, 5.4059067E+002, 3.9930540E+002, 5.3171417E+002
 8.8001914E+002, 6.5389202E+002, 5.3564052E+002, 4.6193086E+002, 5.4494136E+002, 5.4602779E+002, 4.0462930E+002, 5.3665860E+002
 8.9002437E+002, 6.5500443E+002, 5.4107196E+002, 4.6755486E+002, 5.5012396E+002, 5.5117499E+002, 4.0975362E+002, 5.4140309E+002
 9.0001693E+002, 6.5611559E+002, 5.4626324E+002, 4.7298887E+002, 5.5507044E+002, 5.5608696E+002, 4.1470430E+002, 5.4606435E+002
 9.1001482E+002, 6.5722599E+002, 5.5123623E+002, 4.7825499E+002, 5.5980046E+002, 5.6078329E+002, 4.1949495E+002, 5.5048314E+002
 9.2000149E+002, 6.5833583E+002, 5.5597828E+002, 4.8335229E+002, 5.6429997E+002, 5.6525002E+002, 4.2413142E+002, 5.5477461E+002
 9.3001199E+002, 6.5944685E+002, 5.6047895E+002, 4.8827780E+002, 5.6855390E+002, 5.6947187E+002, 4.2860321E+002, 5.5866368E+002
 9.4001981E+002, 6.5364705E+002, 5.6474189E+002, 4.9302858E+002, 5.7257067E+002, 5.7345728E+002, 4.3291366E+002, 5.6247054E+002
 9.5000770E+002, 6.4101662E+002, 5.6855815E+002, 4.9741289E+002, 5.7610936E+002, 5.7696288E+002, 4.3677241E+002, 5.6479901E+002
 9.6001700E+002, 6.2838595E+002, 5.7148179E+002, 5.0102367E+002, 5.7869032E+002, 5.7950584E+002, 4.3972324E+002, 5.6546321E+002
 9.7002293E+002, 6.1574742E+002, 5.7336545E+002, 5.0370523E+002, 5.8017497E+002, 5.8094779E+002, 4.4166161E+002, 5.6461485E+002
 9.8001913E+002, 6.0311030E+002, 5.7416702E+002, 5.0542124E+002, 5.8053600E+002, 5.8126273E+002, 4.4262577E+002, 5.6265814E+002
 9.9003358E+002, 5.9047318E+002, 5.7402538E+002, 5.0629009E+002, 5.7993590E+002, 5.8061464E+002, 4.4277986E+002, 5.6001832E+002
 1.0000044E+003, 5.7784595E+002, 5.7307880E+002, 5.0643736E+002, 5.7852465E+002, 5.7915443E+002, 4.4225967E+002, 5.5677772E+002
 1.0100196E+003, 5.6522902E+002, 5.7137689E+002, 5.0592663E+002, 5.7635001E+002, 5.7693010E+002, 4.4112788E+002, 5.5288204E+002
 1.0200311E+003, 5.5257696E+002, 5.6899153E+002, 5.0483806E+002, 5.7348913E+002, 5.7401950E+002, 4.3948251E+002, 5.4863514E+002
 1.0300254E+003, 5.3993814E+002, 5.6601073E+002, 5.0325554E+002, 5.7003251E+002, 5.7051349E+002, 4.3739797E+002, 5.4383268E+002
 1.0400226E+003, 5.2731254E+002, 5.6245404E+002, 5.0121017E+002, 5.6600031E+002, 5.6643221E+002, 4.3491385E+002, 5.3882520E+002
 1.0500345E+003, 5.1467440E+002, 5.5849361E+002, 4.9883721E+002, 5.6157887E+002, 5.6196241E+002, 4.3215121E+002, 5.3376825E+002
 1.0600127E+003, 5.0205578E+002, 5.5419950E+002, 4.9619905E+002, 5.5683620E+002, 5.5717244E+002, 4.2915263E+002, 5.2858148E+002
 1.0700210E+003, 4.8942744E+002, 5.4953892E+002, 4.9328591E+002, 5.5172807E+002, 5.5201754E+002, 4.2590657E+002, 5.2299448E+002
 1.0800067E+003, 4.7680309E+002, 5.4450940E+002, 4.9010253E+002, 5.4625344E+002, 5.4649664E+002, 4.2243613E+002, 5.1726463E+002
 1.0900007E+003, 4.6418124E+002, 5.3923608E+002, 4.8673778E+002, 5.4055012E+002, 5.4074799E+002, 4.1882353E+002, 5.1158978E+002
 1.1000383E+003, 4.5152858E+002, 5.3370236E+002, 4.8318618E+002, 5.3459157E+002, 5.3474457E+002, 4.1504672E+002, 5.0564248E+002
 1.1100231E+003, 4.3888106E+002, 5.2789963E+002, 4.7944508E+002, 5.2836755E+002, 5.2847641E+002, 4.1111838E+002, 4.9953561E+002
 1.1200094E+003, 4.2627279E+002, 5.2190070E+002, 4.7556333E+002, 5.2195848E+002, 5.2202406E+002, 4.0708930E+002, 4.9343961E+002
 1.1300345E+003, 4.1747884E+002, 5.1575459E+002, 4.7157659E+002, 5.1541632E+002, 5.1543918E+002, 4.0298893E+002, 4.8738734E+002
 1.1400136E+003, 4.1247717E+002, 5.0950633E+002, 4.6753081E+002, 5.0878755E+002, 5.0876921E+002, 3.9888373E+002, 4.8149556E+002
 1.1500133E+003, 4.0748209E+002, 5.0334785E+002, 4.6357861E+002, 5.0228395E+002, 5.0222750E+002, 3.9493443E+002, 4.7612705E+002
 1.1600135E+003, 4.0248225E+002, 4.9729143E+002, 4.5974491E+002, 4.9590831E+002, 4.9581673E+002, 3.9114749E+002, 4.7093264E+002
 1.1700090E+003, 3.9748506E+002, 4.9138514E+002, 4.5606328E+002, 4.8970971E+002, 4.8958611E+002, 3.8754588E+002, 4.6597137E+002
 1.1800087E+003, 3.9248426E+002, 4.8557624E+002, 4.5249316E+002, 4.8362580E+002, 4.8347274E+002, 3.8408567E+002, 4.6116931E+002
 1.1900133E+003, 3.8748342E+002, 4.7989537E+002, 4.4904372E+002, 4.7768903E+002, 4.7750877E+002, 3.8076368E+002, 4.5644790E+002
 1.2000213E+003, 3.8248149E+002, 4.7427466E+002, 4.4565845E+002, 4.7182330E+002, 4.7161753E+002, 3.7752946E+002, 4.5175250E+002
 1.2100193E+003, 3.7748056E+002, 4.6879943E+002, 4.4238493E+002, 4.6612603E+002, 4.6589667E+002, 3.7442780E+002, 4.4746832E+002
 1.2200079E+003, 3.7248002E+002, 4.6349174E+002, 4.3923379E+002, 4.6061427E+002, 4.6036280E+002, 3.7145252E+002, 4.4323994E+002
 1.2300060E+003, 3.6748395E+002, 4.5827332E+002, 4.3614566E+002, 4.5520051E+002, 4.5492812E+002, 3.6854894E+002, 4.3894989E+002
 1.2400298E+003, 3.6247918E+002, 4.5309760E+002, 4.3308251E+002, 4.4983724E+002, 4.4954509E+002, 3.6569582E+002, 4.3470514E+002
 1.2500251E+003, 3.5747279E+002, 4.4798975E+002, 4.3005439E+002, 4.4455157E+002, 4.4424070E+002, 3.6290000E+002, 4.3044525E+002
 1.2600402E+003, 3.5247425E+002, 4.4294072E+002, 4.2704985E+002, 4.3933445E+002, 4.3900565E+002, 3.6015102E+002, 4.2629646E+002
 1.2700175E+003, 3.4747261E+002, 4.3795296E+002, 4.2406854E+002, 4.3418705E+002, 4.3384127E+002, 3.5745147E+002, 4.2208241E+002
 1.2800072E+003, 3.4248237E+002, 4.3297171E+002, 4.2106855E+002, 4.2904896E+002, 4.2868694E+002, 3.5476720E+002, 4.1774688E+002
 1.2900310E+003, 3.3747618E+002, 4.2798534E+002, 4.1803975E+002, 4.2391192E+002, 4.2353441E+002, 3.5209302E+002, 4.1347909E+002
 1.3000097E+003, 3.3247748E+002, 4.2307931E+002, 4.1504025E+002, 4.1886891E+002, 4.1847681E+002, 3.4947966E+002, 4.0941028E+002
 1.3100089E+003, 3.2748099E+002, 4.1828787E+002, 4.1209503E+002, 4.1395388E+002, 4.1354800E+002, 3.4693867E+002, 4.0552880E+002
 1.3200433E+003, 3.2247447E+002, 4.1357092E+002, 4.0917796E+002, 4.0911986E+002, 4.0870060E+002, 3.4443979E+002, 4.0151920E+002
 1.3300402E+003, 3.1746556E+002, 4.0889733E+002, 4.0626534E+002, 4.0433401E+002, 4.0390189E+002, 3.4197397E+002, 3.9759584E+002
 1.3400107E+003, 3.1247517E+002, 4.0427807E+002, 4.0336273E+002, 3.9960632E+002, 3.9916189E+002, 3.3954024E+002, 3.9357398E+002
 1.3500064E+003, 3.0748155E+002, 3.9967954E+002, 4.0044664E+002, 3.9490296E+002, 3.9444667E+002, 3.3712169E+002, 3.8959533E+002
 1.3600353E+003, 3.0247621E+002, 3.9509795E+002, 3.9751540E+002, 3.9022058E+002, 3.8975275E+002, 3.3471460E+002, 3.8563261E+002
 1.3700369E+003, 2.9746833E+002, 3.9058577E+002, 3.9460596E+002, 3.8561628E+002, 3.8513739E+002, 3.3235202E+002, 3.8182841E+002
 1.3800443E+003, 2.9246722E+002, 3.8616145E+002, 3.9173254E+002, 3.8110714E+002, 3.8061756E+002, 3.3003841E+002, 3.7809526E+002
 1.3900343E+003, 2.8746542E+002, 3.8179187E+002, 3.8887293E+002, 3.7665546E+002, 3.7615546E+002, 3.2775374E+002, 3.7430294E+002
 1.4000158E+003, 2.8247036E+002, 3.7745833E+002, 3.8601289E+002, 3.7224199E+002, 3.7173176E+002, 3.2548879E+002, 3.7054185E+002
 1.4100405E+003, 2.7747326E+002, 3.7315538E+002, 3.8314937E+002, 3.6786215E+002, 3.6734196E+002, 3.2324076E+002, 3.6676303E+002
 1.4200052E+003, 2.7247553E+002, 3.6887844E+002, 3.8027884E+002, 3.6351028E+002, 3.6298039E+002, 3.2100744E+002, 3.6300140E+002
 1.4300241E+003, 2.6747828E+002, 3.6462762E+002, 3.7740232E+002, 3.5918672E+002, 3.5864739E+002, 3.1878952E+002, 3.5921476E+002
 1.4400558E+003, 2.6246418E+002, 3.6037507E+002, 3.7450072E+002, 3.5486241E+002, 3.5431384E+002, 3.1657250E+002, 3.5537610E+002
 1.4500110E+003, 2.5746588E+002, 3.5613054E+002, 3.7157892E+002, 3.5054719E+002, 3.4998962E+002, 3.1436262E+002, 3.5154207E+002
 1.4600547E+003, 2.5246937E+002, 3.5193171E+002, 3.6866827E+002, 3.4628393E+002, 3.4571764E+002, 3.1218509E+002, 3.4788422E+002
 1.4700383E+003, 2.4745985E+002, 3.4779336E+002, 3.6578221E+002, 3.4208584E+002, 3.4151108E+002, 3.1004195E+002, 3.4424910E+002
 1.4800014E+003, 2.4247596E+002, 3.4370143E+002, 3.6290903E+002, 3.3793514E+002, 3.3735215E+002, 3.0792261E+002, 3.4058287E+002
 1.4900222E+003, 2.3747739E+002, 3.3963593E+002, 3.6003499E+002, 3.3381357E+002, 3.3322257E+002, 3.0582124E+002, 3.3698566E+002
 1.5000067E+003, 2.3247643E+002, 3.3561381E+002, 3.5717549E+002, 3.2973802E+002, 3.2913906E+002, 3.0374422E+002, 3.3341425E+002
 1.5100078E+003, 2.2748517E+002, 3.3162705E+002, 3.5432505E+002, 3.2569868E+002, 3.2509187E+002, 3.0168491E+002, 3.2987120E+002
 1.5200357E+003, 2.2247477E+002, 3.2767373E+002, 3.5148215E+002, 3.2169515E+002, 3.2108065E+002, 2.9964503E+002, 3.2635224E+002
 1.5300645E+003, 2.1746098E+002, 3.2375028E+002, 3.4864420E+002, 3.1772297E+002, 3.1710102E+002, 2.9762121E+002, 3.2283212E+002
 1.5400439E+003, 2.1245695E+002, 3.1983616E+002, 3.4579476E+002, 3.1375826E+002, 3.1312899E+002, 2.9559722E+002, 3.1921238E+002
