s,C,C,C,C,C,C,C
Time,"Air Temp","VTT_1","IRSN_1","TRAC_2","TRAC_4","GRS_2","NRC_2"
 0.0000000E+000, 2.5000000E+001, 2.5000000E+001, 2.5000000E+001, 2.5000000E+001, 2.5000000E+001, 2.5000000E+001, 2.5000000E+001
 1.0200000E+001, 2.5421647E+001, 2.5000021E+001, 2.5000018E+001, 2.5000026E+001, 2.5000026E+001, 2.5000027E+001, 2.5000208E+001
 2.0200000E+001, 2.6216000E+001, 2.5000614E+001, 2.5000513E+001, 2.5000715E+001, 2.5000725E+001, 2.5000682E+001, 2.5003175E+001
 3.0200000E+001, 2.9182381E+001, 2.5003230E+001, 2.5002711E+001, 2.5003697E+001, 2.5003751E+001, 2.5003277E+001, 2.5011494E+001
 4.0044985E+001, 4.4098221E+001, 2.5011973E+001, 2.5010036E+001, 2.5013691E+001, 2.5013888E+001, 2.5012098E+001, 2.5046784E+001
 5.0125486E+001, 6.0911952E+001, 2.5054810E+001, 2.5045559E+001, 2.5062667E+001, 2.5063540E+001, 2.5054701E+001, 2.5205739E+001
 6.0085023E+001, 7.7739430E+001, 2.5180399E+001, 2.5149218E+001, 2.5204485E+001, 2.5207240E+001, 2.5170059E+001, 2.5554680E+001
 7.0034285E+001, 9.4476724E+001, 2.5429768E+001, 2.5354297E+001, 2.5483148E+001, 2.5489490E+001, 2.5384438E+001, 2.6122698E+001
 8.0076489E+001, 1.1129767E+002, 2.5841562E+001, 2.5691332E+001, 2.5939675E+001, 2.5951708E+001, 2.5720459E+001, 2.6934228E+001
 9.0081934E+001, 1.2816301E+002, 2.6443847E+001, 2.6182336E+001, 2.6603347E+001, 2.6623477E+001, 2.6193009E+001, 2.8003063E+001
 1.0008359E+002, 1.4496440E+002, 2.7257393E+001, 2.6843326E+001, 2.7495570E+001, 2.7526423E+001, 2.6812572E+001, 2.9323418E+001
 1.1002825E+002, 1.6175008E+002, 2.8293410E+001, 2.7682953E+001, 2.8627740E+001, 2.8672151E+001, 2.7584282E+001, 3.0902543E+001
 1.2004074E+002, 1.7309833E+002, 2.9581202E+001, 2.8723249E+001, 3.0031503E+001, 3.0092609E+001, 2.8527816E+001, 3.2781615E+001
 1.3003004E+002, 1.7921504E+002, 3.1115152E+001, 2.9958196E+001, 3.1697582E+001, 3.1778300E+001, 2.9624950E+001, 3.4816301E+001
 1.4004408E+002, 1.8531845E+002, 3.2826937E+001, 3.1329460E+001, 3.3548507E+001, 3.3650816E+001, 3.0809869E+001, 3.6860274E+001
 1.5000577E+002, 1.9142481E+002, 3.4669356E+001, 3.2794968E+001, 3.5533961E+001, 3.5659153E+001, 3.2050119E+001, 3.8944204E+001
 1.6004372E+002, 1.9753709E+002, 3.6628923E+001, 3.4341095E+001, 3.7640513E+001, 3.7789636E+001, 3.3340506E+001, 4.1087278E+001
 1.7003261E+002, 2.0365715E+002, 3.8700974E+001, 3.5962546E+001, 3.9863902E+001, 4.0037866E+001, 3.4680844E+001, 4.3287300E+001
 1.8002033E+002, 2.0975803E+002, 4.0864115E+001, 3.7641675E+001, 4.2182005E+001, 4.2381694E+001, 3.6058774E+001, 4.5533629E+001
 1.9003621E+002, 2.1587129E+002, 4.3139713E+001, 3.9395086E+001, 4.4618757E+001, 4.4845103E+001, 3.7494569E+001, 4.7899560E+001
 2.0002923E+002, 2.2198488E+002, 4.5528127E+001, 4.1224257E+001, 4.7173680E+001, 4.7427515E+001, 3.8988498E+001, 5.0356026E+001
 2.1002344E+002, 2.3103493E+002, 4.8028238E+001, 4.3129878E+001, 4.9845271E+001, 5.0127302E+001, 4.0542981E+001, 5.2909726E+001
 2.2000083E+002, 2.4294217E+002, 5.0657008E+001, 4.5125713E+001, 5.2654296E+001, 5.2965872E+001, 4.2175194E+001, 5.5639478E+001
 2.3005269E+002, 2.5487941E+002, 5.3484694E+001, 4.7270692E+001, 5.5678927E+001, 5.6022345E+001, 4.3949202E+001, 5.8696854E+001
 2.4005260E+002, 2.6682908E+002, 5.6567305E+001, 4.9613353E+001, 5.8978876E+001, 5.9356922E+001, 4.5906928E+001, 6.2118901E+001
 2.5006048E+002, 2.7875324E+002, 5.9928094E+001, 5.2175073E+001, 6.2577140E+001, 6.2992806E+001, 4.8058901E+001, 6.5860681E+001
 2.6003800E+002, 2.9067211E+002, 6.3583791E+001, 5.4969984E+001, 6.6490314E+001, 6.6946869E+001, 5.0410805E+001, 6.9913089E+001
 2.7002299E+002, 3.0257156E+002, 6.7551373E+001, 5.8012142E+001, 7.0735689E+001, 7.1236430E+001, 5.2975765E+001, 7.4327482E+001
 2.8001433E+002, 3.1447999E+002, 7.1859725E+001, 6.1326290E+001, 7.5342060E+001, 7.5890129E+001, 5.5773769E+001, 7.9110332E+001
 2.9002536E+002, 3.2640136E+002, 7.6532728E+001, 6.4929097E+001, 8.0335225E+001, 8.0934107E+001, 5.8816594E+001, 8.4291257E+001
 3.0001847E+002, 3.3833469E+002, 8.1581444E+001, 6.8830470E+001, 8.5725189E+001, 8.6378184E+001, 6.2110875E+001, 8.9854313E+001
 3.1003845E+002, 3.5025502E+002, 8.7012867E+001, 7.3036541E+001, 9.1518005E+001, 9.2228372E+001, 6.5659728E+001, 9.5806313E+001
 3.2000306E+002, 3.6216636E+002, 9.2838100E+001, 7.7556521E+001, 9.7724966E+001, 9.8495735E+001, 6.9475153E+001, 1.0217870E+002
 3.3002310E+002, 3.7408354E+002, 9.9070676E+001, 8.2402215E+001, 1.0435827E+002, 1.0519236E+002, 7.3564882E+001, 1.0894510E+002
 3.4002638E+002, 3.8261469E+002, 1.0572601E+002, 8.7590260E+001, 1.1143080E+002, 1.1233052E+002, 7.7947200E+001, 1.1613243E+002
 3.5003589E+002, 3.8779671E+002, 1.1274109E+002, 9.3068000E+001, 1.1886985E+002, 1.1983642E+002, 8.2553309E+001, 1.2344443E+002
 3.6000937E+002, 3.9297055E+002, 1.1997899E+002, 9.8717500E+001, 1.2652292E+002, 1.2755568E+002, 8.7258257E+001, 1.3068058E+002
 3.7001996E+002, 3.9814392E+002, 1.2735570E+002, 1.0447434E+002, 1.3429607E+002, 1.3539208E+002, 9.2022750E+001, 1.3788771E+002
 3.8000455E+002, 4.0332053E+002, 1.3483331E+002, 1.1030735E+002, 1.4215079E+002, 1.4330645E+002, 9.6834054E+001, 1.4509802E+002
 3.9002600E+002, 4.0849871E+002, 1.4240276E+002, 1.1619928E+002, 1.5008517E+002, 1.5129802E+002, 1.0167377E+002, 1.5230089E+002
 4.0003547E+002, 4.1368569E+002, 1.5005751E+002, 1.2213658E+002, 1.5809730E+002, 1.5936599E+002, 1.0652859E+002, 1.5950444E+002
 4.1000213E+002, 4.1886140E+002, 1.5775650E+002, 1.2810324E+002, 1.6613843E+002, 1.6745975E+002, 1.1141190E+002, 1.6676083E+002
 4.2002328E+002, 4.2403514E+002, 1.6552999E+002, 1.3412836E+002, 1.7424077E+002, 1.7561160E+002, 1.1634946E+002, 1.7409269E+002
 4.3001333E+002, 4.2921519E+002, 1.7337366E+002, 1.4021466E+002, 1.8239811E+002, 1.8381521E+002, 1.2134440E+002, 1.8145836E+002
 4.4000855E+002, 4.3439119E+002, 1.8126423E+002, 1.4634759E+002, 1.9058759E+002, 1.9204775E+002, 1.2638511E+002, 1.8888666E+002
 4.5000896E+002, 4.3956960E+002, 1.8921003E+002, 1.5253647E+002, 1.9881708E+002, 2.0031728E+002, 1.3147839E+002, 1.9633916E+002
 4.6004126E+002, 4.4475632E+002, 1.9721790E+002, 1.5879488E+002, 2.0709290E+002, 2.0862973E+002, 1.3664341E+002, 2.0391092E+002
 4.7001260E+002, 4.4993570E+002, 2.0528173E+002, 1.6511121E+002, 2.1541391E+002, 2.1698496E+002, 1.4185928E+002, 2.1154103E+002
 4.8003398E+002, 4.5511065E+002, 2.1339940E+002, 1.7148981E+002, 2.2377547E+002, 2.2537804E+002, 1.4713240E+002, 2.1923617E+002
 4.9000135E+002, 4.6028830E+002, 2.2155819E+002, 1.7793027E+002, 2.3216046E+002, 2.3379114E+002, 1.5246940E+002, 2.2696514E+002
 5.0002535E+002, 4.6546411E+002, 2.2975071E+002, 1.8442948E+002, 2.4056246E+002, 2.4221806E+002, 1.5786464E+002, 2.3474128E+002
 5.1003643E+002, 4.7065209E+002, 2.3796014E+002, 1.9098311E+002, 2.4895884E+002, 2.5063571E+002, 1.6331882E+002, 2.4246217E+002
 5.2003655E+002, 4.7583287E+002, 2.4615820E+002, 1.9757217E+002, 2.5732472E+002, 2.5901919E+002, 1.6882552E+002, 2.5031351E+002
 5.3003962E+002, 4.8101067E+002, 2.5440269E+002, 2.0422825E+002, 2.6572741E+002, 2.6743721E+002, 1.7439669E+002, 2.5822695E+002
 5.4002013E+002, 4.8618575E+002, 2.6265677E+002, 2.1093569E+002, 2.7412146E+002, 2.7584329E+002, 1.8002803E+002, 2.6616032E+002
 5.5002563E+002, 4.9136210E+002, 2.7090814E+002, 2.1769316E+002, 2.8249155E+002, 2.8422178E+002, 1.8572282E+002, 2.7408348E+002
 5.6002070E+002, 4.9653924E+002, 2.7914666E+002, 2.2449486E+002, 2.9082831E+002, 2.9256361E+002, 1.9147644E+002, 2.8202465E+002
 5.7000391E+002, 5.0171355E+002, 2.8736981E+002, 2.3133387E+002, 2.9913372E+002, 3.0087127E+002, 1.9728139E+002, 2.8999287E+002
 5.8000360E+002, 5.0688801E+002, 2.9555997E+002, 2.3820424E+002, 3.0738450E+002, 3.0912102E+002, 2.0313584E+002, 2.9788154E+002
 5.9002318E+002, 5.1206982E+002, 3.0372474E+002, 2.4511271E+002, 3.1559173E+002, 3.1732417E+002, 2.0904993E+002, 3.0583631E+002
 6.0000285E+002, 5.1724863E+002, 3.1188358E+002, 2.5205823E+002, 3.2378470E+002, 3.2551137E+002, 2.1500971E+002, 3.1387428E+002
 6.1002224E+002, 5.2242700E+002, 3.2006003E+002, 2.5905845E+002, 3.3198653E+002, 3.3370585E+002, 2.2102785E+002, 3.2190705E+002
 6.2000394E+002, 5.2500000E+002, 3.2819677E+002, 2.6608254E+002, 3.4012982E+002, 3.4183912E+002, 2.2708608E+002, 3.2987745E+002
 6.3001047E+002, 5.2500000E+002, 3.3624366E+002, 2.7307831E+002, 3.4816223E+002, 3.4985867E+002, 2.3310939E+002, 3.3757709E+002
 6.4000620E+002, 5.2500000E+002, 3.4410436E+002, 2.7994193E+002, 3.5598183E+002, 3.5766236E+002, 2.3896090E+002, 3.4481327E+002
 6.5003000E+002, 5.2500000E+002, 3.5162132E+002, 2.8655425E+002, 3.6341452E+002, 3.6507457E+002, 2.4455142E+002, 3.5131610E+002
 6.6002514E+002, 5.2500000E+002, 3.5868853E+002, 2.9284026E+002, 3.7035375E+002, 3.7198836E+002, 2.4985404E+002, 3.5732246E+002
 6.7002269E+002, 5.3143896E+002, 3.6536485E+002, 2.9882852E+002, 3.7687963E+002, 3.7848588E+002, 2.5490623E+002, 3.6310554E+002
 6.8000570E+002, 5.4420570E+002, 3.7190222E+002, 3.0472233E+002, 3.8328064E+002, 3.8485887E+002, 2.5995540E+002, 3.6954142E+002
 6.9000971E+002, 5.5697359E+002, 3.7867890E+002, 3.1086922E+002, 3.8996488E+002, 3.9151898E+002, 2.6538576E+002, 3.7704515E+002
 7.0002119E+002, 5.6976100E+002, 3.8595280E+002, 3.1751558E+002, 3.9719533E+002, 3.9873001E+002, 2.7141210E+002, 3.8566553E+002
 7.1000770E+002, 5.8253859E+002, 3.9378697E+002, 3.2472906E+002, 4.0502327E+002, 4.0654261E+002, 2.7804571E+002, 3.9506696E+002
 7.2000700E+002, 5.9530773E+002, 4.0213876E+002, 3.3248900E+002, 4.1338789E+002, 4.1489434E+002, 2.8524251E+002, 4.0499285E+002
 7.3000062E+002, 6.0808421E+002, 4.1096987E+002, 3.4076979E+002, 4.2224270E+002, 4.2373763E+002, 2.9298043E+002, 4.1552524E+002
 7.4002473E+002, 6.2086979E+002, 4.2033535E+002, 3.4959798E+002, 4.3164869E+002, 4.3313333E+002, 3.0127687E+002, 4.2676600E+002
 7.5002753E+002, 6.3366439E+002, 4.3019234E+002, 3.5893237E+002, 4.4155285E+002, 4.4302760E+002, 3.1008216E+002, 4.3839235E+002
 7.6002586E+002, 6.4056055E+002, 4.4043878E+002, 3.6868560E+002, 4.5184328E+002, 4.5330752E+002, 3.1931921E+002, 4.5029796E+002
 7.7001239E+002, 6.4167075E+002, 4.5082771E+002, 3.7863009E+002, 4.6224270E+002, 4.6369314E+002, 3.2868710E+002, 4.6139062E+002
 7.8000067E+002, 6.4277990E+002, 4.6088898E+002, 3.8833003E+002, 4.7224535E+002, 4.7367558E+002, 3.3770140E+002, 4.7113841E+002
 7.9002665E+002, 6.4389218E+002, 4.7044647E+002, 3.9759416E+002, 4.8168603E+002, 4.8309008E+002, 3.4622397E+002, 4.8002088E+002
 8.0000086E+002, 6.4500342E+002, 4.7947674E+002, 4.0636967E+002, 4.9056236E+002, 4.9193615E+002, 3.5424078E+002, 4.8814349E+002
 8.1001918E+002, 6.4611388E+002, 4.8796854E+002, 4.1464600E+002, 4.9887115E+002, 5.0021186E+002, 3.6176753E+002, 4.9560021E+002
 8.2000890E+002, 6.4722546E+002, 4.9597460E+002, 4.2247072E+002, 5.0667616E+002, 5.0798196E+002, 3.6886975E+002, 5.0261734E+002
 8.3000730E+002, 6.4833595E+002, 5.0354212E+002, 4.2988591E+002, 5.1403162E+002, 5.1530142E+002, 3.7559086E+002, 5.0916032E+002
 8.4000444E+002, 6.4944660E+002, 5.1070402E+002, 4.3693412E+002, 5.2097240E+002, 5.2220573E+002, 3.8197729E+002, 5.1536572E+002
 8.5000374E+002, 6.5055740E+002, 5.1744635E+002, 4.4362454E+002, 5.2747959E+002, 5.2867587E+002, 3.8804245E+002, 5.2106079E+002
 8.6000315E+002, 6.5166882E+002, 5.2381485E+002, 4.4999871E+002, 5.3360764E+002, 5.3476700E+002, 3.9383222E+002, 5.2653919E+002
 8.7001683E+002, 6.5278024E+002, 5.2986897E+002, 4.5611120E+002, 5.3941914E+002, 5.4054177E+002, 3.9939429E+002, 5.3180539E+002
 8.8001039E+002, 6.5389221E+002, 5.3560844E+002, 4.6197073E+002, 5.4491134E+002, 5.4599745E+002, 4.0472616E+002, 5.3671537E+002
 8.9000552E+002, 6.5500258E+002, 5.4101517E+002, 4.6756987E+002, 5.5006531E+002, 5.5111548E+002, 4.0982386E+002, 5.4135926E+002
 9.0002579E+002, 6.5611454E+002, 5.4617756E+002, 4.7297892E+002, 5.5497912E+002, 5.5599453E+002, 4.1475273E+002, 5.4593894E+002
 9.1003254E+002, 6.5722726E+002, 5.5114598E+002, 4.7823728E+002, 5.5970608E+002, 5.6068810E+002, 4.1953802E+002, 5.5044639E+002
 9.2002233E+002, 6.5833817E+002, 5.5588847E+002, 4.8332910E+002, 5.6420627E+002, 5.6515557E+002, 4.2416739E+002, 5.5469030E+002
 9.3002467E+002, 6.5944911E+002, 5.6041208E+002, 4.8826349E+002, 5.6848763E+002, 5.6940491E+002, 4.2865064E+002, 5.5873104E+002
 9.4000121E+002, 6.5365347E+002, 5.6468115E+002, 4.9301264E+002, 5.7251041E+002, 5.7339630E+002, 4.3295489E+002, 5.6244277E+002
 9.5000679E+002, 6.4102745E+002, 5.6850400E+002, 4.9739860E+002, 5.7605631E+002, 5.7690907E+002, 4.3681518E+002, 5.6477879E+002
 9.6000734E+002, 6.2839021E+002, 5.7140329E+002, 5.0098980E+002, 5.7860906E+002, 5.7942358E+002, 4.3974318E+002, 5.6535703E+002
 9.7000751E+002, 6.1576269E+002, 5.7329028E+002, 5.0366745E+002, 5.8010030E+002, 5.8087231E+002, 4.4167984E+002, 5.6462375E+002
 9.8000713E+002, 6.0312446E+002, 5.7414655E+002, 5.0541868E+002, 5.8052269E+002, 5.8124885E+002, 4.4267512E+002, 5.6278131E+002
 9.9000717E+002, 5.9048421E+002, 5.7406388E+002, 5.0632681E+002, 5.7998602E+002, 5.8066437E+002, 4.4285648E+002, 5.6022460E+002
 1.0000176E+003, 5.7785671E+002, 5.7314670E+002, 5.0649479E+002, 5.7860232E+002, 5.7923161E+002, 4.4234074E+002, 5.5687922E+002
 1.0100130E+003, 5.6522616E+002, 5.7143714E+002, 5.0598022E+002, 5.7641708E+002, 5.7699668E+002, 4.4120508E+002, 5.5301297E+002
 1.0200093E+003, 5.5259200E+002, 5.6909827E+002, 5.0492212E+002, 5.7360767E+002, 5.7413781E+002, 4.3958837E+002, 5.4887701E+002
 1.0300167E+003, 5.3996219E+002, 5.6620868E+002, 5.0340078E+002, 5.7025103E+002, 5.7073204E+002, 4.3755510E+002, 5.4435397E+002
 1.0400186E+003, 5.2731972E+002, 5.6279436E+002, 5.0145329E+002, 5.6637104E+002, 5.6680319E+002, 4.3514087E+002, 5.3952099E+002
 1.0500264E+003, 5.1468575E+002, 5.5892785E+002, 4.9914782E+002, 5.6204410E+002, 5.6242806E+002, 4.3241485E+002, 5.3439344E+002
 1.0600066E+003, 5.0205969E+002, 5.5462567E+002, 4.9650613E+002, 5.5728384E+002, 5.5762012E+002, 4.2939601E+002, 5.2899497E+002
 1.0700252E+003, 4.8943117E+002, 5.4993373E+002, 4.9356880E+002, 5.5213909E+002, 5.5242822E+002, 4.2612555E+002, 5.2341398E+002
 1.0800165E+003, 4.7679104E+002, 5.4489091E+002, 4.9037180E+002, 5.4664860E+002, 5.4689123E+002, 4.2263832E+002, 5.1758494E+002
 1.0900085E+003, 4.6417902E+002, 5.3954056E+002, 4.8694967E+002, 5.4085889E+002, 5.4105574E+002, 4.1897147E+002, 5.1172460E+002
 1.1000158E+003, 4.5154247E+002, 5.3399461E+002, 4.8338256E+002, 5.3489108E+002, 5.3504310E+002, 4.1519311E+002, 5.0597891E+002
 1.1100224E+003, 4.3890101E+002, 5.2823395E+002, 4.7966496E+002, 5.2871381E+002, 5.2882162E+002, 4.1128652E+002, 4.9988019E+002
 1.1200395E+003, 4.2624786E+002, 5.2219640E+002, 4.7575487E+002, 5.2226001E+002, 5.2232420E+002, 4.0722852E+002, 4.9363128E+002
 1.1300092E+003, 4.1747598E+002, 5.1598267E+002, 4.7172006E+002, 5.1564195E+002, 5.1566340E+002, 4.0308981E+002, 4.8739405E+002
 1.1400257E+003, 4.1248274E+002, 5.0964936E+002, 4.6761191E+002, 5.0892188E+002, 5.0890203E+002, 3.9893850E+002, 4.8138805E+002
 1.1500412E+003, 4.0747281E+002, 5.0338122E+002, 4.6358117E+002, 5.0230254E+002, 5.0224436E+002, 3.9493367E+002, 4.7591639E+002
 1.1600011E+003, 4.0247806E+002, 4.9728946E+002, 4.5971876E+002, 4.9589342E+002, 4.9580027E+002, 3.9113748E+002, 4.7080378E+002
 1.1700399E+003, 3.9747929E+002, 4.9137386E+002, 4.5602890E+002, 4.8968861E+002, 4.8956354E+002, 3.8753458E+002, 4.6595405E+002
 1.1800416E+003, 3.9246949E+002, 4.8560216E+002, 4.5248427E+002, 4.8364830E+002, 4.8349387E+002, 3.8409402E+002, 4.6126708E+002
 1.1900257E+003, 3.8747141E+002, 4.8000948E+002, 4.4909773E+002, 4.7780899E+002, 4.7762758E+002, 3.8082276E+002, 4.5682775E+002
 1.2000256E+003, 3.8247474E+002, 4.7453990E+002, 4.4582127E+002, 4.7210574E+002, 4.7189900E+002, 3.7766615E+002, 4.5230798E+002
 1.2100314E+003, 3.7747698E+002, 4.6906995E+002, 4.4255987E+002, 4.6640436E+002, 4.6617351E+002, 3.7455042E+002, 4.4763121E+002
 1.2200054E+003, 3.7247744E+002, 4.6367380E+002, 4.3935234E+002, 4.6079291E+002, 4.6053967E+002, 3.7152348E+002, 4.4321964E+002
 1.2300171E+003, 3.6748337E+002, 4.5837665E+002, 4.3621039E+002, 4.5529558E+002, 4.5502139E+002, 3.6858347E+002, 4.3889647E+002
 1.2400096E+003, 3.6248054E+002, 4.5315850E+002, 4.3311515E+002, 4.4988858E+002, 4.4959456E+002, 3.6570709E+002, 4.3461741E+002
 1.2500025E+003, 3.5748328E+002, 4.4802086E+002, 4.3006273E+002, 4.4457297E+002, 4.4426012E+002, 3.6289362E+002, 4.3038834E+002
 1.2600057E+003, 3.5248540E+002, 4.4297196E+002, 4.2705615E+002, 4.3935899E+002, 4.3902840E+002, 3.6015012E+002, 4.2633834E+002
 1.2700238E+003, 3.4748278E+002, 4.3803204E+002, 4.2410858E+002, 4.3426628E+002, 4.3391888E+002, 3.5747736E+002, 4.2230798E+002
 1.2800174E+003, 3.4247905E+002, 4.3313370E+002, 4.2117043E+002, 4.2921886E+002, 4.2885545E+002, 3.5483848E+002, 4.1814597E+002
 1.2900460E+003, 3.3747188E+002, 4.2824312E+002, 4.1821426E+002, 4.2418356E+002, 4.2380481E+002, 3.5221964E+002, 4.1398934E+002
 1.3000504E+003, 3.3246300E+002, 4.2339285E+002, 4.1525960E+002, 4.1919638E+002, 4.1880283E+002, 3.4963071E+002, 4.0984481E+002
 1.3100047E+003, 3.2747353E+002, 4.1857314E+002, 4.1229717E+002, 4.1424442E+002, 4.1383669E+002, 3.4706768E+002, 4.0567999E+002
 1.3200079E+003, 3.2248312E+002, 4.1381823E+002, 4.0935182E+002, 4.0936815E+002, 4.0894702E+002, 3.4455318E+002, 4.0170561E+002
 1.3300314E+003, 3.1747492E+002, 4.0910149E+002, 4.0640678E+002, 4.0453549E+002, 4.0410146E+002, 3.4206180E+002, 3.9765885E+002
 1.3400436E+003, 3.1246815E+002, 4.0443768E+002, 4.0347133E+002, 3.9976308E+002, 3.9931678E+002, 3.3960745E+002, 3.9371629E+002
 1.3500407E+003, 3.0746569E+002, 3.9983702E+002, 4.0055329E+002, 3.9505950E+002, 3.9460137E+002, 3.3718936E+002, 3.8975067E+002
 1.3600581E+003, 3.0246178E+002, 3.9527097E+002, 3.9763171E+002, 3.9039433E+002, 3.8992464E+002, 3.3479003E+002, 3.8582067E+002
 1.3700011E+003, 2.9747538E+002, 3.9075675E+002, 3.9471812E+002, 3.8578553E+002, 3.8530469E+002, 3.3241990E+002, 3.8189844E+002
 1.3800392E+003, 2.9247563E+002, 3.8627940E+002, 3.9180456E+002, 3.8121837E+002, 3.8072679E+002, 3.3007523E+002, 3.7803546E+002
 1.3900284E+003, 2.8746748E+002, 3.8183285E+002, 3.8888833E+002, 3.7668528E+002, 3.7618316E+002, 3.2774943E+002, 3.7416475E+002
 1.4000134E+003, 2.8247814E+002, 3.7745547E+002, 3.8599632E+002, 3.7222740E+002, 3.7171512E+002, 3.2546459E+002, 3.7039992E+002
 1.4100457E+003, 2.7747218E+002, 3.7310530E+002, 3.8309903E+002, 3.6779890E+002, 3.6727682E+002, 3.2319630E+002, 3.6655345E+002
 1.4200312E+003, 2.7246416E+002, 3.6875477E+002, 3.8017521E+002, 3.6336970E+002, 3.6283808E+002, 3.2092792E+002, 3.6263050E+002
 1.4300220E+003, 2.6747228E+002, 3.6443558E+002, 3.7724825E+002, 3.5897612E+002, 3.5843529E+002, 3.1868236E+002, 3.5883344E+002
 1.4400537E+003, 2.6246371E+002, 3.6012738E+002, 3.7430611E+002, 3.5459481E+002, 3.5404497E+002, 3.1644128E+002, 3.5490312E+002
 1.4500293E+003, 2.5746638E+002, 3.5581273E+002, 3.7133470E+002, 3.5020744E+002, 3.4964876E+002, 3.1419863E+002, 3.5101013E+002
 1.4600122E+003, 2.5247285E+002, 3.5157852E+002, 3.6840027E+002, 3.4590974E+002, 3.4534258E+002, 3.1201111E+002, 3.4741903E+002
 1.4700360E+003, 2.4747276E+002, 3.4745399E+002, 3.6552922E+002, 3.4173028E+002, 3.4115493E+002, 3.0988725E+002, 3.4391483E+002
 1.4800091E+003, 2.4247236E+002, 3.4338870E+002, 3.6268266E+002, 3.3761111E+002, 3.3702783E+002, 3.0779073E+002, 3.4035351E+002
 1.4900598E+003, 2.3746515E+002, 3.3935255E+002, 3.5983882E+002, 3.3352087E+002, 3.3292979E+002, 3.0570521E+002, 3.3676632E+002
 1.5000450E+003, 2.3246078E+002, 3.3531969E+002, 3.5697753E+002, 3.2943188E+002, 3.2883295E+002, 3.0361600E+002, 3.3308262E+002
 1.5100077E+003, 2.2746940E+002, 3.3131783E+002, 3.5411815E+002, 3.2537583E+002, 3.2476917E+002, 3.0154334E+002, 3.2953282E+002
 1.5200596E+003, 2.2246428E+002, 3.2735653E+002, 3.5127182E+002, 3.2136424E+002, 3.2074998E+002, 2.9949946E+002, 3.2602447E+002
 1.5300461E+003, 2.1745483E+002, 3.2341567E+002, 3.4842283E+002, 3.1737330E+002, 3.1675159E+002, 2.9746655E+002, 3.2244249E+002
 1.5400511E+003, 2.1246011E+002, 3.1950153E+002, 3.4557374E+002, 3.1341123E+002, 3.1278232E+002, 2.9545111E+002, 3.1894127E+002
