s,m/s,
Time,"Ub","FORCE X"
 0.0000000E+000,-3.6862874E-019,-6.2000000E-001
 2.5245250E-002, 1.8214141E-002,-6.1817859E-001
 5.0490499E-002, 6.0488216E-002,-6.1395118E-001
 6.3587248E-002, 1.0102517E-001,-6.0989748E-001
 7.3840591E-002, 1.4720645E-001,-6.0527936E-001
 8.1879480E-002, 1.9461706E-001,-6.0053829E-001
 8.8439402E-002, 2.4234202E-001,-5.9576580E-001
 9.3975651E-002, 2.9015569E-001,-5.9098443E-001
 9.8769138E-002, 3.3800364E-001,-5.8619964E-001
 1.0299020E-001, 3.8575446E-001,-5.8142455E-001
 1.0674130E-001, 4.3312922E-001,-5.7668708E-001
 1.1011286E-001, 4.8010799E-001,-5.7198920E-001
 1.2133445E-001, 5.9083585E-001,-5.5368986E-001
 1.3156810E-001, 7.8726952E-001,-5.3232295E-001
 1.4119651E-001, 1.0175372E+000,-5.0750657E-001
 1.5028639E-001, 1.2812206E+000,-4.7948033E-001
 1.6068495E-001, 1.6095334E+000,-4.4131727E-001
 1.7000103E-001, 2.0011265E+000,-4.0117708E-001
 1.8043110E-001, 2.4578169E+000,-3.4956459E-001
 1.9037956E-001, 2.9916182E+000,-2.9450148E-001
 2.0027715E-001, 3.5625122E+000,-2.3541131E-001
 2.1024809E-001, 4.1664079E+000,-1.7389242E-001
 2.2027731E-001, 4.7783297E+000,-1.1325866E-001
 2.3002066E-001, 5.3554250E+000,-5.8543418E-002
 2.4011075E-001, 5.8725706E+000,-1.0153616E-002
 2.5000255E-001, 6.2953291E+000, 2.6705542E-002
 2.6018695E-001, 6.6566503E+000, 6.3295665E-002
 2.7013083E-001, 6.9653127E+000, 8.6727808E-002
 2.8007470E-001, 7.1454412E+000, 1.0145918E-001
 2.9018036E-001, 7.3441245E+000, 1.2814848E-001
 3.0013742E-001, 7.5405134E+000, 1.3871569E-001
 3.1009447E-001, 7.6811116E+000, 1.6158449E-001
 3.2005152E-001, 7.9398598E+000, 1.7728322E-001
 3.3000858E-001, 7.9044113E+000, 1.5729748E-001
 3.4000892E-001, 7.5997908E+000, 1.2482590E-001
 3.5000927E-001, 7.2792399E+000, 8.9194571E-002
 3.6013554E-001, 6.7998655E+000, 2.9484981E-002
 3.7000313E-001, 6.2027640E+000,-2.3928078E-002
 3.8009747E-001, 5.7594301E+000,-6.0916330E-002
 3.9016592E-001, 5.4706975E+000,-8.2586156E-002
 4.0013083E-001, 5.3069438E+000,-9.4513878E-002
 4.1020964E-001, 5.1949519E+000,-1.0517935E-001
 4.2023150E-001, 5.1431500E+000,-1.0291985E-001
 4.3025336E-001, 5.2218253E+000,-9.2737293E-002
 4.4027522E-001, 5.3055117E+000,-8.6319573E-002
 4.5026306E-001, 5.3771014E+000,-7.9729332E-002
 4.6006880E-001, 5.4455991E+000,-7.1175878E-002
 4.7018082E-001, 5.5324703E+000,-6.1068300E-002
 4.8023308E-001, 5.6429783E+000,-4.9102359E-002
 4.9020977E-001, 5.7793284E+000,-3.7499767E-002
 5.0001004E-001, 5.8256162E+000,-3.6530229E-002
 5.1003333E-001, 5.8977198E+000,-2.2499123E-002
 5.2010613E-001, 6.0237796E+000,-1.4114514E-002
 5.3015104E-001, 6.1329612E+000, 1.7122891E-003
 5.4008529E-001, 6.3273808E+000, 2.2725726E-002
 5.5001953E-001, 6.5467791E+000, 4.5233307E-002
 5.6016667E-001, 6.7393851E+000, 6.1616592E-002
 5.7003521E-001, 6.8746207E+000, 6.9570629E-002
 5.8014525E-001, 6.9025606E+000, 7.0440331E-002
 5.9022696E-001, 6.8813043E+000, 6.5467604E-002
 6.0020224E-001, 6.8788378E+000, 6.9363936E-002
 6.1002149E-001, 6.8785730E+000, 6.3922909E-002
 6.2004636E-001, 6.7622753E+000, 5.0306759E-002
 6.3006186E-001, 6.6446352E+000, 3.7348927E-002
 6.4017795E-001, 6.4698531E+000, 1.7474430E-002
 6.5019993E-001, 6.2713192E+000,-1.2031796E-003
 6.6024073E-001, 6.1386751E+000,-1.1227987E-002
 6.7020389E-001, 6.0349970E+000,-2.1225841E-002
 6.8019556E-001, 5.9077037E+000,-3.6251194E-002
 6.9023608E-001, 5.8235092E+000,-3.7474753E-002
 7.0020112E-001, 5.8587701E+000,-2.9189477E-002
 7.1019384E-001, 5.9411898E+000,-2.2936275E-002
 7.2024192E-001, 6.0060293E+000,-1.8053512E-002
 7.3002113E-001, 5.9990749E+000,-2.1607628E-002
 7.4003727E-001, 5.9646506E+000,-2.6330923E-002
 7.5023135E-001, 5.8999315E+000,-3.3959169E-002
 7.6018272E-001, 5.8291501E+000,-3.9371619E-002
 7.7006127E-001, 5.7953674E+000,-3.9724366E-002
 7.8009411E-001, 5.8392852E+000,-3.1262604E-002
 7.9006790E-001, 5.9843651E+000,-9.9404806E-003
 8.0012001E-001, 6.2238545E+000, 1.1077391E-002
 8.1017212E-001, 6.3925040E+000, 2.6600265E-002
 8.2022423E-001, 6.5354392E+000, 3.9594261E-002
 8.3024649E-001, 6.6608235E+000, 5.1932486E-002
 8.4015855E-001, 6.6875703E+000, 4.1798240E-002
 8.5000691E-001, 6.5578246E+000, 3.1566515E-002
 8.6008606E-001, 6.4898223E+000, 2.9152170E-002
 8.7005615E-001, 6.4879721E+000, 2.6455211E-002
 8.8009847E-001, 6.3735120E+000, 7.3887423E-003
 8.9014079E-001, 6.1885774E+000,-6.5638908E-003
 9.0010963E-001, 6.1625414E+000, 1.6781410E-003
 9.1007847E-001, 6.2342454E+000, 1.0936697E-003
 9.2004732E-001, 6.1625141E+000,-8.0715347E-003
 9.3012393E-001, 6.1041932E+000,-7.8675211E-003
 9.4020054E-001, 6.1855165E+000, 5.4397609E-003
 9.5027716E-001, 6.2796190E+000, 6.3362774E-003
 9.6005740E-001, 6.2212943E+000,-1.6105056E-005
 9.7013401E-001, 6.2149410E+000, 3.6359914E-003
 9.8021062E-001, 6.2442868E+000, 3.9511524E-003
 9.9028724E-001, 6.2333510E+000, 3.1503905E-003
 1.0000675E+000, 6.2362381E+000, 3.8111055E-003
 1.0101588E+000, 6.1928489E+000,-7.4688244E-003
 1.0202649E+000, 6.0620678E+000,-1.8378919E-002
 1.0301050E+000, 5.9711529E+000,-2.6729640E-002
 1.0402110E+000, 5.8866177E+000,-3.5657639E-002
 1.0500511E+000, 5.8055244E+000,-4.1505855E-002
 1.0601580E+000, 5.7891765E+000,-4.2761688E-002
 1.0700347E+000, 5.7706732E+000,-4.1796328E-002
 1.0802447E+000, 5.7881926E+000,-4.0543553E-002
 1.0900358E+000, 5.8108989E+000,-3.5724410E-002
 1.1001148E+000, 5.9069424E+000,-2.2618579E-002
 1.1101939E+000, 6.0681711E+000,-2.7715291E-003
 1.1202730E+000, 6.3154265E+000, 2.5050673E-002
 1.1300640E+000, 6.5576971E+000, 4.4201310E-002
 1.1401431E+000, 6.7093880E+000, 5.7728131E-002
 1.1501645E+000, 6.8429276E+000, 6.8626357E-002
 1.1602037E+000, 6.8548874E+000, 5.9916415E-002
 1.1700970E+000, 6.7193695E+000, 4.4529828E-002
 1.1801579E+000, 6.5739553E+000, 3.3191194E-002
 1.1900384E+000, 6.4652055E+000, 1.9272648E-002
 1.2000170E+000, 6.3302546E+000, 4.0862672E-003
 1.2102521E+000, 6.1045410E+000,-2.1043222E-002
 1.2200683E+000, 5.9510691E+000,-2.5674518E-002
 1.2301499E+000, 5.9451033E+000,-2.4986404E-002
 1.2402314E+000, 5.9400237E+000,-2.7279403E-002
 1.2501273E+000, 5.9185079E+000,-2.6021002E-002
 1.2600496E+000, 6.0001897E+000,-1.6390848E-002
 1.2700457E+000, 6.0216062E+000,-2.0697984E-002
 1.2802620E+000, 5.9614057E+000,-2.5037334E-002
 1.2902704E+000, 5.9682821E+000,-2.1170085E-002
 1.3002788E+000, 6.0436321E+000,-9.6342397E-003
 1.3100013E+000, 6.1474312E+000,-2.4560140E-003
 1.3200097E+000, 6.2034594E+000, 6.8029223E-003
 1.3300181E+000, 6.3442478E+000, 1.9233129E-002
 1.3400264E+000, 6.4371053E+000, 2.6777855E-002
 1.3500348E+000, 6.4924611E+000, 3.1015136E-002
 1.3600432E+000, 6.5154737E+000, 3.3915150E-002
 1.3700516E+000, 6.5985406E+000, 4.4543209E-002
 1.3800283E+000, 6.6319997E+000, 4.1278984E-002
 1.3901956E+000, 6.5370272E+000, 2.5285290E-002
 1.4000728E+000, 6.4100292E+000, 1.5131777E-002
 1.4100961E+000, 6.2486098E+000,-4.3388566E-003
 1.4200694E+000, 6.0896735E+000,-1.5248480E-002
 1.4301555E+000, 6.0355641E+000,-1.7158890E-002
 1.4400550E+000, 5.9546738E+000,-3.2194683E-002
 1.4502020E+000, 5.8045609E+000,-4.6192774E-002
 1.4602500E+000, 5.6783865E+000,-5.6471766E-002
 1.4700505E+000, 5.6229319E+000,-5.7649482E-002
 1.4801233E+000, 5.6257873E+000,-5.7687687E-002
 1.4901960E+000, 5.6240203E+000,-5.7296400E-002
 1.5001037E+000, 5.6631023E+000,-4.8645419E-002
 1.5102390E+000, 5.7895621E+000,-3.3467310E-002
 1.5201816E+000, 5.9688849E+000,-1.1938710E-002
 1.5301740E+000, 6.2082655E+000, 1.2356001E-002
 1.5401377E+000, 6.4037792E+000, 2.3440167E-002
 1.5500228E+000, 6.4405164E+000, 2.4955455E-002
 1.5601551E+000, 6.4824509E+000, 3.1865910E-002
 1.5701841E+000, 6.5162960E+000, 2.8542494E-002
 1.5802130E+000, 6.4243516E+000, 1.7189363E-002
 1.5902420E+000, 6.3083003E+000, 4.1995202E-003
 1.6000263E+000, 6.2242202E+000, 2.4965655E-003
 1.6102265E+000, 6.2341499E+000, 4.5102345E-003
 1.6201821E+000, 6.3004906E+000, 1.6624447E-002
 1.6300031E+000, 6.4309633E+000, 2.8126611E-002
 1.6400352E+000, 6.5685235E+000, 4.7836547E-002
 1.6501010E+000, 6.7592269E+000, 5.9804135E-002
 1.6601884E+000, 6.7612445E+000, 4.9343693E-002
 1.6701065E+000, 6.5760847E+000, 2.7085144E-002
 1.6801652E+000, 6.4198032E+000, 1.8108662E-002
 1.6902240E+000, 6.3424261E+000, 8.6585833E-003
 1.7000249E+000, 6.1691305E+000,-1.3070477E-002
 1.7101965E+000, 6.0644002E+000,-1.1664541E-002
 1.7201440E+000, 6.1074299E+000,-7.3292748E-003
 1.7302309E+000, 6.1269472E+000,-8.3646213E-003
 1.7400007E+000, 6.1270189E+000,-4.7272535E-003
 1.7502075E+000, 6.1696020E+000,-3.5916081E-003
 1.7600296E+000, 6.1091625E+000,-1.4213705E-002
 1.7701324E+000, 6.0204885E+000,-2.0912540E-002
 1.7801097E+000, 5.9742715E+000,-2.3384747E-002
 1.7900887E+000, 5.9730780E+000,-2.4431444E-002
 1.8002017E+000, 5.8966253E+000,-3.3679348E-002
 1.8100472E+000, 5.9360957E+000,-1.6714285E-002
 1.8200148E+000, 6.0981462E+000,-6.7649328E-003
 1.8301087E+000, 6.1187304E+000,-9.7057864E-003
 1.8401478E+000, 6.1003636E+000,-9.7581622E-003
 1.8501868E+000, 6.1019786E+000,-8.2947110E-003
 1.8601422E+000, 6.1301781E+000,-7.6572052E-003
 1.8700196E+000, 6.1080262E+000,-1.0803761E-002
 1.8801143E+000, 6.0799587E+000,-1.1666354E-002
 1.8902090E+000, 6.0889314E+000,-1.1379979E-002
 1.9000381E+000, 6.0971546E+000,-7.1629573E-003
 1.9101328E+000, 6.1594242E+000,-2.6278271E-003
 1.9201213E+000, 6.1868044E+000, 6.6729496E-004
 1.9300256E+000, 6.2341706E+000, 5.7304183E-003
 1.9402122E+000, 6.2813001E+000, 1.1356018E-002
 1.9501376E+000, 6.3595439E+000, 1.9195729E-002
 1.9602052E+000, 6.3863845E+000, 1.5875505E-002
 1.9701943E+000, 6.3698761E+000, 1.9668872E-002
 1.9801560E+000, 6.3688309E+000, 1.4567060E-002
 1.9901177E+000, 6.3214357E+000, 7.2517437E-003
 2.0001561E+000, 6.2395682E+000, 4.5455532E-003
 2.0100864E+000, 6.2680470E+000, 6.0012594E-003
 2.0200940E+000, 6.1905280E+000,-8.6664253E-003
 2.0300266E+000, 6.0574236E+000,-1.7445135E-002
 2.0402093E+000, 6.0457491E+000,-1.0159340E-002
 2.0500887E+000, 6.1431984E+000,-3.5738535E-003
 2.0602172E+000, 6.1189451E+000,-1.2165168E-002
 2.0701728E+000, 6.0924571E+000,-6.4007900E-003
 2.0802433E+000, 6.1973419E+000, 4.0116867E-003
 2.0900890E+000, 6.2730528E+000, 9.9364037E-003
 2.1000117E+000, 6.3295707E+000, 1.7722755E-002
 2.1102615E+000, 6.4372584E+000, 2.8662599E-002
 2.1201641E+000, 6.4849588E+000, 2.6039488E-002
 2.1302562E+000, 6.3911865E+000, 1.3998879E-002
 2.1400667E+000, 6.2871609E+000, 3.4149888E-003
 2.1501353E+000, 6.1967416E+000,-2.5185508E-003
 2.1602039E+000, 6.0980652E+000,-1.9314742E-002
 2.1700143E+000, 5.9143835E+000,-3.6663593E-002
 2.1800524E+000, 5.7696961E+000,-4.5289163E-002
 2.1900429E+000, 5.8179078E+000,-3.2150800E-002
 2.2002182E+000, 5.8295611E+000,-4.4765208E-002
 2.2102630E+000, 5.7041460E+000,-5.0364867E-002
 2.2201120E+000, 5.7602551E+000,-3.4519696E-002
 2.2300675E+000, 5.9947744E+000,-8.7907373E-003
 2.2400057E+000, 6.1729347E+000, 2.0693868E-004
 2.2501054E+000, 6.2233997E+000, 6.4198690E-003
 2.2601012E+000, 6.3576334E+000, 2.5046103E-002
 2.2700350E+000, 6.5332157E+000, 3.9725761E-002
 2.2802687E+000, 6.6443468E+000, 4.7827786E-002
 2.2902392E+000, 6.6472259E+000, 4.1849624E-002
 2.3000089E+000, 6.6340251E+000, 4.4719988E-002
 2.3100229E+000, 6.6263857E+000, 3.8814861E-002
 2.3201101E+000, 6.5709357E+000, 3.6440813E-002
 2.3300509E+000, 6.5390132E+000, 2.9586135E-002
 2.3402034E+000, 6.3630612E+000,-2.4027695E-004
 2.3502020E+000, 6.0690226E+000,-2.2740538E-002
 2.3600288E+000, 5.9021212E+000,-3.3714755E-002
 2.3700229E+000, 5.8412704E+000,-3.8916867E-002
 2.3801749E+000, 5.8044286E+000,-3.8979823E-002
 2.3901269E+000, 5.8279121E+000,-3.5042157E-002
 2.4002061E+000, 5.8824547E+000,-2.8197224E-002
 2.4100527E+000, 5.9586107E+000,-2.0589414E-002
 2.4200026E+000, 6.0426996E+000,-9.7429193E-003
 2.4302295E+000, 6.1436976E+000,-4.7969567E-003
 2.4401344E+000, 6.1245986E+000,-8.4891286E-003
 2.4500392E+000, 6.1181550E+000,-8.1974873E-003
 2.4601981E+000, 6.1151830E+000,-8.2172527E-003
 2.4701030E+000, 6.0966615E+000,-1.5668567E-002
 2.4800079E+000, 6.0003832E+000,-2.0946117E-002
 2.4902429E+000, 6.0466379E+000,-5.4787086E-003
 2.5000208E+000, 6.2642561E+000, 1.7854714E-002
 2.5100781E+000, 6.4523091E+000, 3.1384467E-002
 2.5201353E+000, 6.5946795E+000, 4.6808993E-002
 2.5301643E+000, 6.7032863E+000, 5.1376746E-002
 2.5400691E+000, 6.7086160E+000, 5.1422914E-002
 2.5502235E+000, 6.7193923E+000, 5.0844736E-002
 2.5601034E+000, 6.6750662E+000, 4.4178610E-002
 2.5701901E+000, 6.5914892E+000, 3.2632961E-002
 2.5801164E+000, 6.4581577E+000, 2.0599711E-002
 2.5901165E+000, 6.3835933E+000, 1.6344714E-002
 2.6000864E+000, 6.3177258E+000, 6.6146275E-003
 2.6101761E+000, 6.1831520E+000,-1.0866208E-002
 2.6200736E+000, 6.0332684E+000,-1.9982922E-002
 2.6301152E+000, 5.9642737E+000,-2.7069064E-002
 2.6401569E+000, 5.8755360E+000,-3.7056440E-002
 2.6501986E+000, 5.7766501E+000,-4.8112034E-002
 2.6602402E+000, 5.6783241E+000,-5.5031739E-002
 2.6700176E+000, 5.6252088E+000,-5.8938562E-002
 2.6801914E+000, 5.6700577E+000,-4.6272333E-002
 2.6900225E+000, 5.7941435E+000,-3.6607902E-002
 2.7000226E+000, 5.8608118E+000,-3.1803991E-002
 2.7100739E+000, 5.8573123E+000,-3.6757475E-002
 2.7202278E+000, 5.8945725E+000,-2.0967878E-002
 2.7300996E+000, 6.0728825E+000,-7.2065154E-003
 2.7402535E+000, 6.1711899E+000, 8.2749077E-004
 2.7501254E+000, 6.2600631E+000, 1.3771852E-002
 2.7601036E+000, 6.4240340E+000, 2.8120443E-002
 2.7702618E+000, 6.5222463E+000, 3.6384802E-002
 2.7800613E+000, 6.5815811E+000, 3.8815568E-002
 2.7901257E+000, 6.6512284E+000, 5.2903101E-002
 2.8001901E+000, 6.7875275E+000, 6.4471214E-002
 2.8102545E+000, 6.8761425E+000, 6.5866544E-002
 2.8200541E+000, 6.8178306E+000, 5.8700009E-002
 2.8301185E+000, 6.7697349E+000, 5.5239010E-002
 2.8401466E+000, 6.6512417E+000, 3.2906723E-002
 2.8501496E+000, 6.3682332E+000, 1.7310831E-003
 2.8602223E+000, 6.0584809E+000,-2.6135774E-002
 2.8701745E+000, 5.8534929E+000,-4.2302729E-002
 2.8802173E+000, 5.6874050E+000,-5.9885780E-002
 2.8902068E+000, 5.5009794E+000,-7.6719939E-002
 2.9000740E+000, 5.4167484E+000,-7.6456119E-002
 2.9100008E+000, 5.4909286E+000,-6.5216926E-002
 2.9202285E+000, 5.6149150E+000,-5.3628753E-002
 2.9301455E+000, 5.7101528E+000,-4.2237784E-002
 2.9401253E+000, 5.9118257E+000,-1.5371021E-002
 2.9501052E+000, 6.1638592E+000, 5.0366239E-003
 2.9600850E+000, 6.3212167E+000, 1.8977516E-002
 2.9700649E+000, 6.4413835E+000, 2.9592217E-002
 2.9800437E+000, 6.5873278E+000, 4.6455787E-002
 2.9900454E+000, 6.6751530E+000, 4.6879753E-002
 3.0001371E+000, 6.6725113E+000, 4.9417258E-002
 3.0101962E+000, 6.7323204E+000, 5.7508727E-002
 3.0201340E+000, 6.7845474E+000, 5.5184391E-002
 3.0301993E+000, 6.7112597E+000, 4.4418539E-002
 3.0400359E+000, 6.5228856E+000, 2.0708583E-002
 3.0501469E+000, 6.3057753E+000, 3.8552023E-003
 3.0602626E+000, 6.1754319E+000,-6.8689894E-003
 3.0702272E+000, 6.1239008E+000,-7.8910475E-003
 3.0801919E+000, 6.0723800E+000,-2.0469300E-002
 3.0901566E+000, 5.9201180E+000,-3.0643916E-002
 3.1001212E+000, 5.9470755E+000,-1.8824358E-002
 3.1100859E+000, 6.0694633E+000,-9.7109409E-003
 3.1202424E+000, 6.1092916E+000,-1.0968480E-002
 3.1302766E+000, 6.0807246E+000,-9.8602880E-003
 3.1402340E+000, 6.1330631E+000,-7.0997857E-003
 3.1500066E+000, 6.0926651E+000,-1.3133693E-002
 3.1602063E+000, 6.0407123E+000,-1.8808889E-002
 3.1701255E+000, 5.9841078E+000,-2.2464322E-002
 3.1800947E+000, 5.9789436E+000,-2.5021523E-002
 3.1901786E+000, 5.9320275E+000,-2.7652862E-002
 3.2002458E+000, 5.8583412E+000,-3.9383291E-002
 3.2100670E+000, 5.8333812E+000,-3.0856741E-002
 3.2202640E+000, 5.9791858E+000,-1.3219394E-002
 3.2301853E+000, 6.1439239E+000, 6.7727088E-004
 3.2402170E+000, 6.2907273E+000, 1.9698183E-002
 3.2502396E+000, 6.5201437E+000, 4.0796509E-002
 3.2600971E+000, 6.6458729E+000, 4.6385906E-002
 3.2702210E+000, 6.6702304E+000, 4.7150919E-002
 3.2802649E+000, 6.6817524E+000, 4.9390479E-002
 3.2902296E+000, 6.6787259E+000, 4.4635376E-002
 3.3001359E+000, 6.6029220E+000, 3.6251812E-002
 3.3102200E+000, 6.5134742E+000, 2.9250886E-002
 3.3200509E+000, 6.5014510E+000, 2.5527580E-002
 3.3300765E+000, 6.3655201E+000, 1.2080560E-002
 3.3402203E+000, 6.2786165E+000, 2.8695120E-003
 3.3502340E+000, 6.2109488E+000, 1.4220542E-003
 3.3602477E+000, 6.2097290E+000, 6.7104263E-004
 3.3702615E+000, 6.2019141E+000,-1.1709395E-003
 3.3802752E+000, 6.1526496E+000,-7.8780246E-003
 3.3900029E+000, 6.0900763E+000,-1.3756138E-002
 3.4000166E+000, 6.0678230E+000,-1.1804146E-002
 3.4102349E+000, 6.0455649E+000,-2.1030966E-002
 3.4200005E+000, 5.9207229E+000,-3.4736196E-002
 3.4301536E+000, 5.8138538E+000,-3.9877917E-002
 3.4400806E+000, 5.8343893E+000,-3.3310227E-002
 3.4500438E+000, 5.8708383E+000,-3.2777727E-002
 3.4600070E+000, 5.8657819E+000,-3.3282952E-002
 3.4702470E+000, 5.9158247E+000,-2.3553866E-002
 3.4802102E+000, 5.9807121E+000,-2.1966330E-002
 3.4901733E+000, 5.9958494E+000,-1.6671617E-002
 3.5001365E+000, 6.0858856E+000,-6.3509360E-003
 3.5100997E+000, 6.1666908E+000,-3.7946193E-004
 3.5200629E+000, 6.2152187E+000, 3.5785450E-003
 3.5300261E+000, 6.2733930E+000, 1.0345244E-002
 3.5402661E+000, 6.3377275E+000, 1.6271176E-002
 3.5502293E+000, 6.3592064E+000, 1.6234121E-002
 3.5602755E+000, 6.3913257E+000, 2.1392778E-002
 3.5702584E+000, 6.4426509E+000, 2.7341397E-002
 3.5800081E+000, 6.4916102E+000, 2.9021593E-002
 3.5900286E+000, 6.4777337E+000, 2.9326305E-002
 3.6000491E+000, 6.5082284E+000, 3.0717509E-002
 3.6100696E+000, 6.5219938E+000, 3.3073794E-002
 3.6201984E+000, 6.5131395E+000, 3.0708789E-002
 3.6301701E+000, 6.5044712E+000, 2.9077709E-002
 3.6400565E+000, 6.4423657E+000, 1.7893014E-002
 3.6500282E+000, 6.2996848E+000, 1.5367789E-003
 3.6600722E+000, 6.1478619E+000,-1.0111085E-002
 3.6702446E+000, 6.0881417E+000,-1.1969122E-002
 3.6801139E+000, 5.9959955E+000,-3.0092674E-002
 3.6900191E+000, 5.8153751E+000,-4.6310999E-002
 3.7000653E+000, 5.6852549E+000,-5.3731522E-002
 3.7100334E+000, 5.6273646E+000,-6.2780496E-002
 3.7200338E+000, 5.5139133E+000,-7.2717214E-002
 3.7300581E+000, 5.4606911E+000,-7.3425282E-002
 3.7400183E+000, 5.4883795E+000,-6.7593570E-002
 3.7500533E+000, 5.6149425E+000,-4.8108536E-002
 3.7600882E+000, 5.8161608E+000,-2.9179140E-002
 3.7701186E+000, 6.0306674E+000,-5.1482056E-003
 3.7800378E+000, 6.2717344E+000, 2.0297689E-002
 3.7902114E+000, 6.4952798E+000, 3.5738705E-002
 3.8000300E+000, 6.6085693E+000, 4.5452992E-002
 3.8101537E+000, 6.6959886E+000, 5.5095829E-002
 3.8201369E+000, 6.8037932E+000, 6.1110000E-002
 3.8300547E+000, 6.7371629E+000, 4.8052289E-002
 3.8400952E+000, 6.6478861E+000, 3.9475353E-002
 3.8501586E+000, 6.5017838E+000, 2.3323623E-002
 3.8601737E+000, 6.3832833E+000, 1.4075635E-002
 3.8700588E+000, 6.2866518E+000, 2.8671192E-003
 3.8802109E+000, 6.1762510E+000,-5.2213758E-003
 3.8902563E+000, 6.1729762E+000,-1.2679115E-003
 3.9002293E+000, 6.1525126E+000,-7.5261077E-003
 3.9101246E+000, 6.1288999E+000,-7.5253677E-003
 3.9202013E+000, 6.1406975E+000,-3.5357280E-003
 3.9302065E+000, 6.1494514E+000,-8.5976541E-003
 3.9401664E+000, 6.1052719E+000,-5.9602411E-003
 3.9501019E+000, 6.1833313E+000,-1.2706175E-003
 3.9600470E+000, 6.1283245E+000,-1.3660085E-002
 3.9700954E+000, 6.0210869E+000,-2.0491953E-002
 3.9800909E+000, 6.0015669E+000,-1.6722510E-002
 3.9900722E+000, 6.0704975E+000,-1.0792151E-002
 4.0002191E+000, 6.1031243E+000,-9.2056234E-003
 4.0102223E+000, 6.1506320E+000, 1.8820858E-003
 4.0200517E+000, 6.2953748E+000, 1.7492175E-002
 4.0302232E+000, 6.3867723E+000, 1.6056727E-002
 4.0401401E+000, 6.2814688E+000, 7.9083998E-004
 4.0501886E+000, 6.1645861E+000,-7.3000296E-003
 4.0600758E+000, 6.0922136E+000,-1.2179061E-002
 4.0702165E+000, 6.0466553E+000,-2.1214177E-002
 4.0801037E+000, 5.9387785E+000,-2.7672496E-002
 4.0900416E+000, 5.9340812E+000,-2.4811649E-002
 4.1000809E+000, 5.9835118E+000,-1.8125853E-002
 4.1101202E+000, 6.0625856E+000,-1.0255368E-002
 4.1201595E+000, 6.1683602E+000, 6.5243839E-003
 4.1300599E+000, 6.3679897E+000, 2.5155284E-002
 4.1402327E+000, 6.5191217E+000, 3.6712986E-002
 4.1500341E+000, 6.5837556E+000, 3.7761518E-002
