s,m/s,
Time,Ub,FORCE X
 0.0000000E+000,-3.6862874E-019,-6.2000000E-001
 2.5245250E-002, 1.8213799E-002,-6.1817862E-001
 5.0490499E-002, 6.0483577E-002,-6.1395164E-001
 6.3583832E-002, 1.0097418E-001,-6.0990258E-001
 7.3893551E-002, 1.4730128E-001,-6.0526987E-001
 8.2046041E-002, 1.9515680E-001,-6.0048432E-001
 8.8269212E-002, 2.4010613E-001,-5.9598939E-001
 9.3434329E-002, 2.8430710E-001,-5.9156929E-001
 9.7864901E-002, 3.2806872E-001,-5.8719313E-001
 1.0179357E-001, 3.7200901E-001,-5.8279910E-001
 1.0572225E-001, 4.1925187E-001,-5.7807481E-001
 1.1212928E-001, 4.8453870E-001,-5.6928137E-001
 1.2023961E-001, 5.9347517E-001,-5.5607722E-001
 1.3109536E-001, 7.6539853E-001,-5.3440230E-001
 1.4124374E-001, 9.9772207E-001,-5.0941219E-001
 1.5088998E-001, 1.2651330E+000,-4.8086407E-001
 1.6083950E-001, 1.5800837E+000,-4.4609329E-001
 1.7010419E-001, 1.9399270E+000,-4.0886928E-001
 1.8014147E-001, 2.3518252E+000,-3.6346392E-001
 1.9018101E-001, 2.8265683E+000,-3.1407202E-001
 2.0006838E-001, 3.3242691E+000,-2.6392561E-001
 2.1025002E-001, 3.8308831E+000,-2.1266446E-001
 2.2026426E-001, 4.3269799E+000,-1.6426502E-001
 2.3028713E-001, 4.8156715E+000,-1.1499536E-001
 2.4005780E-001, 5.2753931E+000,-7.2522838E-002
 2.5013109E-001, 5.6766343E+000,-3.3947422E-002
 2.6011589E-001, 6.0267036E+000,-3.1360668E-003
 2.7009542E-001, 6.2934003E+000, 2.1000092E-002
 2.8017537E-001, 6.5048945E+000, 3.7688372E-002
 2.9019083E-001, 6.6548040E+000, 5.5343900E-002
 3.0008084E-001, 6.9471438E+000, 1.0040643E-001
 3.1018128E-001, 7.5456837E+000, 1.6109855E-001
 3.2007129E-001, 8.1452823E+000, 2.2263643E-001
 3.3017173E-001, 8.5058424E+000, 2.2547282E-001
 3.4006174E-001, 8.2216560E+000, 1.7317962E-001
 3.5016218E-001, 7.6480311E+000, 1.2220386E-001
 3.6015768E-001, 7.2422813E+000, 8.3506644E-002
 3.7014266E-001, 6.7782875E+000, 3.7426171E-002
 3.8014644E-001, 6.4784432E+000, 2.4334247E-002
 3.9015021E-001, 6.3105798E+000,-8.6493321E-003
 4.0019159E-001, 5.8402052E+000,-6.2496438E-002
 4.1008416E-001, 5.3563436E+000,-1.0204421E-001
 4.2028270E-001, 5.0704324E+000,-1.2005422E-001
 4.3021565E-001, 5.0016405E+000,-1.1829939E-001
 4.4014860E-001, 5.0248111E+000,-1.1700947E-001
 4.5005234E-001, 5.0401570E+000,-1.1372521E-001
 4.6001451E-001, 5.1033040E+000,-1.0339100E-001
 4.7030313E-001, 5.2763314E+000,-8.1238403E-002
 4.8019820E-001, 5.5107507E+000,-5.9088690E-002
 4.9009327E-001, 5.6873334E+000,-4.5336855E-002
 5.0029107E-001, 5.7804982E+000,-3.8870836E-002
 5.1021427E-001, 5.8748427E+000,-2.4564564E-002
 5.2025702E-001, 6.0404489E+000,-1.0162394E-002
 5.3016240E-001, 6.0829083E+000,-1.4361073E-002
 5.4016449E-001, 6.0965095E+000,-3.3843754E-003
 5.5016658E-001, 6.2324358E+000, 1.1626117E-002
 5.6016867E-001, 6.3909760E+000, 2.0280198E-002
 5.7017075E-001, 6.4087150E+000, 2.4830855E-002
 5.8000658E-001, 6.5512441E+000, 4.6471000E-002
 5.9011457E-001, 6.7074227E+000, 4.9722331E-002
 6.0022255E-001, 6.6477668E+000, 3.8995273E-002
 6.1002068E-001, 6.5774587E+000, 3.7551097E-002
 6.2000332E-001, 6.5128975E+000, 2.4325798E-002
 6.3023552E-001, 6.4149201E+000, 1.6986974E-002
 6.4021387E-001, 6.3379547E+000, 1.4036257E-002
 6.5005597E-001, 6.3337274E+000, 9.8363280E-003
 6.6016585E-001, 6.3015604E+000, 1.1626946E-002
 6.7003827E-001, 6.2799210E+000, 3.8981362E-003
 6.8017050E-001, 6.1145574E+000,-1.8675155E-002
 6.9004293E-001, 6.0323883E+000,-1.7613901E-002
 7.0017516E-001, 5.9575175E+000,-3.2460877E-002
 7.1004758E-001, 5.7841714E+000,-5.0735508E-002
 7.2017981E-001, 5.6171682E+000,-6.1658276E-002
 7.3005224E-001, 5.6396710E+000,-4.8146346E-002
 7.4018447E-001, 5.8092414E+000,-2.7167785E-002
 7.5003091E-001, 6.1165596E+000, 8.8672584E-003
 7.6003324E-001, 6.4361135E+000, 3.7201887E-002
 7.7015690E-001, 6.6350175E+000, 4.0971657E-002
 7.8001688E-001, 6.5263065E+000, 2.5898981E-002
 7.9018214E-001, 6.4538126E+000, 2.6295067E-002
 8.0014593E-001, 6.4427414E+000, 1.6591869E-002
 8.1006464E-001, 6.3073415E+000, 7.7487374E-003
 8.2023131E-001, 6.3254585E+000, 1.9142804E-002
 8.3012361E-001, 6.4067797E+000, 1.8689896E-002
 8.4007136E-001, 6.2926568E+000,-1.9945180E-003
 8.5011344E-001, 6.1047229E+000,-1.2948359E-002
 8.6017899E-001, 6.0378672E+000,-2.1881795E-002
 8.7024453E-001, 5.9232853E+000,-3.2385579E-002
 8.8005198E-001, 5.8461085E+000,-4.0142035E-002
 8.9011752E-001, 5.7851921E+000,-4.2594936E-002
 9.0018306E-001, 5.8020194E+000,-3.6715742E-002
 9.1024861E-001, 5.8225257E+000,-3.8417030E-002
 9.2005606E-001, 5.8398963E+000,-3.1150754E-002
 9.3022251E-001, 5.8671265E+000,-4.2340057E-002
 9.4004494E-001, 5.6764312E+000,-5.6978307E-002
 9.5011864E-001, 5.6682658E+000,-4.4224433E-002
 9.6003327E-001, 5.8869553E+000,-1.9260891E-002
 9.7022929E-001, 6.1094171E+000,-2.3886979E-003
 9.8017089E-001, 6.2464300E+000, 1.1243189E-002
 9.9022129E-001, 6.3883071E+000, 2.5988310E-002
 1.0001295E+000, 6.5704304E+000, 4.6431369E-002
 1.0100377E+000, 6.6836559E+000, 5.2100788E-002
 1.0201422E+000, 6.8092724E+000, 6.9565554E-002
 1.0301993E+000, 6.9180087E+000, 7.0675859E-002
 1.0400279E+000, 6.8776670E+000, 6.8967654E-002
 1.0500850E+000, 6.9397709E+000, 7.5627677E-002
 1.0601421E+000, 6.9146371E+000, 6.8459872E-002
 1.0701992E+000, 6.8653529E+000, 6.5604290E-002
 1.0800277E+000, 6.8161448E+000, 5.3590016E-002
 1.0900848E+000, 6.6041543E+000, 2.5802618E-002
 1.1001699E+000, 6.2748834E+000,-9.3549964E-003
 1.1100363E+000, 5.9251344E+000,-4.3949151E-002
 1.1201731E+000, 5.6376046E+000,-6.5407893E-002
 1.1301610E+000, 5.4737998E+000,-7.9964675E-002
 1.1402495E+000, 5.3763654E+000,-7.8890332E-002
 1.1501415E+000, 5.5162156E+000,-5.7769796E-002
 1.1601112E+000, 5.6629238E+000,-4.9996645E-002
 1.1701805E+000, 5.7464989E+000,-3.7901971E-002
 1.1801968E+000, 5.9354577E+000,-1.7267576E-002
 1.1902132E+000, 6.1006082E+000,-6.1425090E-003
 1.2002295E+000, 6.0925753E+000,-1.5761294E-002
 1.2100949E+000, 5.9905545E+000,-2.2328254E-002
 1.2200646E+000, 6.0399458E+000,-8.4649398E-003
 1.2300342E+000, 6.1842073E+000, 2.6141053E-003
 1.2401210E+000, 6.2011875E+000,-5.7965284E-003
 1.2500294E+000, 6.0582865E+000,-1.7949798E-002
 1.2601795E+000, 6.1176993E+000, 2.5007350E-003
 1.2702329E+000, 6.2818660E+000, 9.0104990E-003
 1.2800508E+000, 6.2426356E+000,-2.3547254E-003
 1.2900055E+000, 6.1408435E+000,-3.1211151E-003
 1.3001079E+000, 6.2750379E+000, 1.4418560E-002
 1.3100637E+000, 6.3377902E+000, 8.7329048E-003
 1.3200807E+000, 6.2392174E+000, 3.4302308E-003
 1.3302117E+000, 6.2638967E+000, 7.0912958E-003
 1.3400075E+000, 6.2069128E+000,-9.9677289E-003
 1.3502031E+000, 5.9764734E+000,-3.1325951E-002
 1.3601553E+000, 5.8503040E+000,-3.6817429E-002
 1.3702417E+000, 5.8325006E+000,-3.4723892E-002
 1.3801168E+000, 5.8797906E+000,-3.0554196E-002
 1.3900234E+000, 5.8658084E+000,-3.5128627E-002
 1.4001660E+000, 5.8273212E+000,-3.7296243E-002
 1.4100727E+000, 5.8848091E+000,-2.1282275E-002
 1.4200257E+000, 6.0192314E+000,-2.0723551E-002
 1.4300268E+000, 5.9465517E+000,-2.7704504E-002
 1.4401324E+000, 5.9764646E+000,-1.5447970E-002
 1.4501001E+000, 6.1950630E+000, 1.4836041E-002
 1.4600609E+000, 6.3539202E+000, 1.2921092E-002
 1.4700812E+000, 6.2676021E+000, 1.0590538E-003
 1.4801962E+000, 6.2676381E+000, 1.5936306E-002
 1.4902054E+000, 6.4799309E+000, 4.0881082E-002
 1.5000517E+000, 6.6940395E+000, 5.5092171E-002
 1.5100376E+000, 6.7761183E+000, 5.9537342E-002
 1.5201648E+000, 6.9245259E+000, 9.1502924E-002
 1.5301387E+000, 7.3081486E+000, 1.1946708E-001
 1.5402115E+000, 7.2645640E+000, 8.9840337E-002
 1.5501139E+000, 7.0086975E+000, 7.8905510E-002
 1.5600003E+000, 6.9354802E+000, 6.8094321E-002
 1.5700567E+000, 6.7988664E+000, 4.8944029E-002
 1.5801132E+000, 6.6290453E+000, 4.3282053E-002
 1.5901696E+000, 6.5548042E+000, 2.5218200E-002
 1.6002261E+000, 6.2996643E+000,-6.2626894E-003
 1.6100019E+000, 5.9757012E+000,-3.5987367E-002
 1.6200349E+000, 5.7415022E+000,-5.2743631E-002
 1.6300680E+000, 5.5975043E+000,-6.9317841E-002
 1.6402040E+000, 5.4203824E+000,-8.3460310E-002
 1.6501084E+000, 5.4178202E+000,-7.2131918E-002
 1.6601560E+000, 5.5422050E+000,-5.8967555E-002
 1.6702106E+000, 5.6919619E+000,-4.5009926E-002
 1.6802547E+000, 5.7970979E+000,-3.7386376E-002
 1.6902450E+000, 5.8490388E+000,-3.3477486E-002
 1.7002353E+000, 5.9238402E+000,-1.7263047E-002
 1.7102516E+000, 6.1395154E+000, 1.6436009E-003
 1.7202162E+000, 6.2026295E+000,-4.2161904E-003
 1.7301508E+000, 6.1374959E+000,-6.5967610E-004
 1.7401788E+000, 6.3415546E+000, 2.3984463E-002
 1.7501165E+000, 6.3929411E+000, 1.3715940E-002
 1.7600204E+000, 6.2493778E+000,-7.6125461E-004
 1.7702111E+000, 6.2464238E+000, 1.0190472E-002
 1.7801591E+000, 6.2573833E+000,-2.3470385E-003
 1.7901072E+000, 6.0746617E+000,-2.2494974E-002
 1.8000552E+000, 5.8982367E+000,-3.5358079E-002
 1.8101817E+000, 5.8653980E+000,-3.3226920E-002
 1.8202100E+000, 5.8394054E+000,-3.5164011E-002
 1.8302384E+000, 5.9280879E+000,-1.7609240E-002
 1.8402274E+000, 6.1703432E+000, 8.8467142E-003
 1.8501463E+000, 6.3129932E+000, 8.5661204E-003
 1.8600652E+000, 6.2417769E+000, 2.2686105E-003
 1.8700959E+000, 6.3011346E+000, 2.0515054E-002
 1.8800791E+000, 6.4557513E+000, 2.7332862E-002
 1.8900624E+000, 6.3861104E+000, 5.1928032E-003
 1.9000456E+000, 6.1589686E+000,-5.0257156E-003
 1.9100288E+000, 6.1689122E+000,-8.1780451E-003
 1.9200121E+000, 5.9853076E+000,-3.4834351E-002
 1.9302222E+000, 5.8114098E+000,-3.6684270E-002
 1.9401208E+000, 5.8686451E+000,-3.0929061E-002
 1.9501442E+000, 5.9186437E+000,-2.4317781E-002
 1.9601809E+000, 5.9972386E+000,-1.4832596E-002
 1.9700744E+000, 6.1254377E+000,-1.8564138E-003
 1.9800587E+000, 6.1951862E+000, 2.4989972E-004
 1.9901617E+000, 6.2315248E+000, 5.1354398E-003
 2.0000298E+000, 6.2028496E+000,-4.9882890E-003
 2.0101328E+000, 6.1295627E+000,-5.2364474E-003
 2.0200008E+000, 6.1829056E+000, 3.0255087E-003
 2.0301917E+000, 6.3392308E+000, 2.1120297E-002
 2.0400358E+000, 6.4581767E+000, 3.2019355E-002
 2.0502187E+000, 6.5613838E+000, 4.0046516E-002
 2.0600814E+000, 6.5823786E+000, 3.3913924E-002
 2.0700158E+000, 6.4560536E+000, 1.6528284E-002
 2.0802250E+000, 6.2555246E+000,-9.0970516E-004
 2.0900308E+000, 6.1151932E+000,-1.6320375E-002
 2.1000702E+000, 6.0418146E+000,-1.5012929E-002
 2.1101095E+000, 6.1437388E+000, 5.8406832E-003
 2.1201489E+000, 6.3032719E+000, 1.2143044E-002
 2.1300014E+000, 6.2984599E+000, 4.8563430E-003
 2.1401487E+000, 6.1859588E+000,-5.0779482E-003
 2.1502196E+000, 6.1367718E+000,-6.3751034E-003
 2.1601106E+000, 6.1654235E+000,-1.3589595E-005
 2.1700017E+000, 6.2608722E+000, 1.4816617E-002
 2.1801400E+000, 6.4517118E+000, 2.9980386E-002
 2.1900311E+000, 6.5276728E+000, 3.3879000E-002
 2.2001694E+000, 6.5080039E+000, 2.6664622E-002
 2.2101414E+000, 6.4685219E+000, 1.9091372E-002
 2.2202358E+000, 6.2883490E+000, 7.9941387E-004
 2.2300917E+000, 6.1520527E+000,-1.3882139E-002
 2.2401433E+000, 6.0288630E+000,-1.4929218E-002
 2.2501950E+000, 6.0595783E+000,-1.7511587E-002
 2.2602474E+000, 5.9750605E+000,-2.7764586E-002
 2.2700911E+000, 5.9163610E+000,-2.7965376E-002
 2.2801873E+000, 5.9376733E+000,-2.4937216E-002
 2.2902582E+000, 6.0005278E+000,-1.3347345E-002
 2.3001495E+000, 6.1352333E+000,-5.5262050E-004
 2.3101111E+000, 6.1615406E+000,-7.6379384E-003
 2.3200726E+000, 6.0855009E+000,-1.1294353E-002
 2.3300341E+000, 6.1735758E+000, 3.9451447E-003
 2.3402386E+000, 6.2963457E+000, 1.4053262E-002
 2.3501159E+000, 6.3280114E+000, 1.2319227E-002
 2.3601313E+000, 6.4184475E+000, 3.3375786E-002
 2.3701467E+000, 6.6208698E+000, 4.7811926E-002
 2.3801622E+000, 6.6707803E+000, 4.4873904E-002
 2.3900340E+000, 6.5738105E+000, 3.3667107E-002
 2.4001167E+000, 6.5940015E+000, 4.6267648E-002
 2.4101636E+000, 6.6930995E+000, 4.6716171E-002
 2.4200543E+000, 6.5615142E+000, 3.0061893E-002
 2.4301987E+000, 6.5317180E+000, 4.0687394E-002
 2.4401800E+000, 6.5957668E+000, 3.1896414E-002
 2.4500872E+000, 6.4058954E+000, 1.0269319E-002
 2.4600171E+000, 6.3092761E+000, 1.6548074E-002
 2.4701952E+000, 6.4281635E+000, 2.4327204E-002
 2.4801250E+000, 6.3235752E+000,-4.0030273E-003
 2.4900300E+000, 5.9691284E+000,-3.8335038E-002
 2.5001055E+000, 5.6605950E+000,-6.8972092E-002
 2.5102310E+000, 5.4537972E+000,-7.6768247E-002
 2.5200888E+000, 5.4008663E+000,-8.6115774E-002
 2.5300394E+000, 5.2587650E+000,-9.6069199E-002
 2.5402451E+000, 5.3325398E+000,-7.7719110E-002
 2.5500937E+000, 5.4964984E+000,-6.3263355E-002
 2.5601413E+000, 5.6111397E+000,-5.5853594E-002
 2.5701851E+000, 5.7143623E+000,-3.7319538E-002
 2.5801311E+000, 6.0105620E+000,-5.3725811E-003
 2.5901808E+000, 6.1772678E+000, 1.7209848E-003
 2.6000135E+000, 6.3049368E+000, 2.0443061E-002
 2.6100803E+000, 6.4110648E+000, 1.4333073E-002
 2.6201471E+000, 6.2234175E+000,-7.9690841E-003
 2.6300837E+000, 6.0854494E+000,-1.0242111E-002
 2.6400612E+000, 6.1402836E+000,-8.6534088E-004
 2.6501279E+000, 6.2400640E+000, 9.0413477E-003
 2.6601743E+000, 6.3952844E+000, 3.1192780E-002
 2.6700488E+000, 6.6613182E+000, 5.9527053E-002
 2.6801640E+000, 6.8692452E+000, 7.2270909E-002
 2.6900385E+000, 6.9138137E+000, 6.9337047E-002
 2.7001537E+000, 6.8677272E+000, 6.6673159E-002
 2.7100282E+000, 6.8347216E+000, 5.7331376E-002
 2.7201435E+000, 6.7024912E+000, 4.6240183E-002
 2.7300179E+000, 6.6889653E+000, 5.2413321E-002
 2.7400137E+000, 6.6467009E+000, 3.1865559E-002
 2.7501765E+000, 6.2978905E+000,-7.2411005E-003
 2.7601664E+000, 6.0448456E+000,-2.0226664E-002
 2.7700807E+000, 5.9813743E+000,-2.0062530E-002
 2.7800813E+000, 6.0172217E+000,-2.1947281E-002
 2.7901649E+000, 5.8129692E+000,-5.5217343E-002
 2.8001220E+000, 5.5059920E+000,-7.6223074E-002
 2.8101680E+000, 5.4358354E+000,-7.3505089E-002
 2.8201382E+000, 5.4989501E+000,-6.6283278E-002
 2.8301084E+000, 5.6126606E+000,-5.2781032E-002
 2.8402623E+000, 5.7721053E+000,-2.7733583E-002
 2.8502308E+000, 6.1099178E+000, 3.7840279E-003
 2.8602278E+000, 6.3076056E+000, 1.5037951E-002
 2.8702248E+000, 6.3882677E+000, 2.7153450E-002
 2.8800173E+000, 6.5473058E+000, 3.5887457E-002
 2.8900505E+000, 6.4380102E+000, 1.0196213E-002
 2.9000250E+000, 6.2631117E+000, 8.9315721E-003
 2.9100209E+000, 6.3193540E+000, 9.9267912E-003
 2.9200169E+000, 6.2743891E+000, 3.8580504E-003
 2.9300128E+000, 6.2789856E+000, 1.4340474E-002
 2.9400769E+000, 6.2997383E+000,-2.1522137E-003
 2.9501223E+000, 6.0025395E+000,-3.5832220E-002
 2.9600181E+000, 5.7675716E+000,-5.1140731E-002
 2.9701277E+000, 5.6781335E+000,-4.7064606E-002
 2.9800726E+000, 5.8153994E+000,-2.9850850E-002
 2.9900068E+000, 5.9976703E+000,-1.2325182E-002
 3.0001298E+000, 6.1763832E+000, 7.4251278E-003
 3.0100945E+000, 6.3892419E+000, 2.6194313E-002
 3.0201660E+000, 6.5069172E+000, 3.4647430E-002
 3.0302374E+000, 6.5440299E+000, 3.1644265E-002
 3.0400632E+000, 6.5050109E+000, 3.0423590E-002
 3.0501347E+000, 6.4905523E+000, 2.5499853E-002
 3.0600047E+000, 6.4491388E+000, 2.3732144E-002
 3.0700892E+000, 6.3932090E+000, 1.6182251E-002
 3.0801086E+000, 6.3536603E+000, 1.6504077E-002
 3.0902140E+000, 6.3353492E+000, 6.8338626E-003
 3.1001022E+000, 6.1851589E+000,-6.9475125E-003
 3.1102259E+000, 6.1523313E+000,-4.0112346E-003
 3.1201141E+000, 6.1019209E+000,-1.9681234E-002
 3.1300927E+000, 5.9598224E+000,-2.6468948E-002
 3.1400953E+000, 5.9351033E+000,-2.4670085E-002
 3.1502077E+000, 6.0013568E+000,-1.6990029E-002
 3.1601579E+000, 6.0180018E+000,-2.0980000E-002
 3.1702077E+000, 5.9045444E+000,-3.7390380E-002
 3.1800281E+000, 5.8638560E+000,-2.7937022E-002
 3.1900779E+000, 5.9499901E+000,-2.3500941E-002
 3.2000559E+000, 5.9614238E+000,-2.0522173E-002
 3.2100578E+000, 6.0877427E+000,-1.0335672E-003
 3.2201231E+000, 6.3288877E+000, 2.1713467E-002
 3.2300546E+000, 6.3668611E+000, 9.4755566E-003
 3.2401235E+000, 6.3122738E+000, 1.7741861E-002
 3.2502160E+000, 6.4277945E+000, 2.8126851E-002
 3.2602484E+000, 6.4405014E+000, 1.7197315E-002
 3.2701973E+000, 6.3012648E+000, 8.5149958E-003
 3.2800906E+000, 6.2945874E+000, 8.5232038E-003
 3.2900058E+000, 6.2303814E+000,-2.5086595E-003
 3.3001628E+000, 6.1721247E+000, 1.9479032E-003
 3.3100781E+000, 6.2784799E+000, 1.0063786E-002
 3.3200503E+000, 6.3365809E+000, 2.3154666E-002
 3.3300005E+000, 6.5300597E+000, 3.5938243E-002
 3.3400468E+000, 6.5697630E+000, 3.8508446E-002
 3.3500136E+000, 6.5955921E+000, 3.8734379E-002
 3.3601308E+000, 6.5839359E+000, 3.8083019E-002
 3.3700451E+000, 6.5138010E+000, 2.3376957E-002
 3.3802074E+000, 6.3855676E+000, 1.7009485E-002
 3.3901218E+000, 6.3862094E+000, 1.3598859E-002
 3.4001667E+000, 6.2187544E+000,-4.7484687E-003
 3.4100056E+000, 6.2542334E+000, 1.2925375E-002
 3.4201564E+000, 6.3544202E+000, 1.4705801E-002
 3.4300778E+000, 6.2513753E+000,-9.4714308E-003
 3.4400155E+000, 5.9746354E+000,-2.9190613E-002
 3.4501898E+000, 5.9402322E+000,-1.9652366E-002
 3.4600802E+000, 6.0846481E+000,-8.5672272E-003
 3.4702165E+000, 6.0948429E+000,-1.3169110E-002
 3.4801052E+000, 6.0661321E+000,-1.2397615E-002
 3.4902475E+000, 6.0846442E+000,-8.9711453E-003
 3.5000135E+000, 6.1422888E+000,-4.4585419E-003
 3.5102161E+000, 6.0558148E+000,-2.6024628E-002
 3.5200362E+000, 5.8641874E+000,-3.7973409E-002
 3.5302236E+000, 5.8080906E+000,-4.3968532E-002
 3.5402062E+000, 5.6277708E+000,-7.0275752E-002
 3.5500376E+000, 5.4190001E+000,-7.9635051E-002
 3.5601147E+000, 5.4503055E+000,-7.0012860E-002
 3.5700621E+000, 5.5593749E+000,-5.7321446E-002
 3.5802445E+000, 5.7586989E+000,-2.6991587E-002
 3.5902593E+000, 6.1900443E+000, 2.5281781E-002
 3.6000105E+000, 6.6420998E+000, 5.7816573E-002
 3.6101839E+000, 6.9012447E+000, 8.1731512E-002
 3.6200104E+000, 7.0726752E+000, 8.7311471E-002
 3.6300419E+000, 7.0867292E+000, 8.7467927E-002
 3.6400734E+000, 6.9269423E+000, 5.5565977E-002
 3.6501049E+000, 6.5884688E+000, 2.6855604E-002
 3.6601364E+000, 6.4341820E+000, 2.8306472E-002
 3.6701457E+000, 6.4389572E+000, 1.5112008E-002
 3.6801730E+000, 6.2812476E+000, 7.6741696E-003
 3.6901921E+000, 6.2711244E+000, 4.7247693E-003
 3.7002111E+000, 6.2547013E+000, 7.3056991E-003
 3.7101825E+000, 6.2153990E+000,-7.6098143E-003
 3.7200432E+000, 5.9916068E+000,-3.2277726E-002
 3.7301374E+000, 5.8367070E+000,-3.5936733E-002
 3.7401376E+000, 5.8563720E+000,-3.2250534E-002
 3.7502083E+000, 5.9173833E+000,-2.4557683E-002
 3.7600208E+000, 5.9943665E+000,-1.8001529E-002
 3.7700914E+000, 6.0769633E+000,-4.3532281E-003
 3.7801621E+000, 6.2636730E+000, 1.6034208E-002
 3.7902328E+000, 6.4342466E+000, 2.4769124E-002
 3.8000452E+000, 6.4237318E+000, 1.8931057E-002
 3.8102275E+000, 6.3611114E+000, 1.5052519E-002
 3.8201714E+000, 6.3377202E+000, 1.3554987E-002
 3.8301154E+000, 6.3530000E+000, 1.4798431E-002
 3.8400593E+000, 6.3213693E+000, 9.8310513E-003
 3.8500033E+000, 6.2253347E+000,-2.0342345E-003
 3.8602022E+000, 6.1419319E+000,-1.1746884E-002
 3.8701462E+000, 6.0178394E+000,-2.0590683E-002
 3.8800901E+000, 6.0303534E+000,-8.8246350E-003
 3.8900341E+000, 6.1619433E+000,-5.3981914E-003
 3.9002330E+000, 6.0493865E+000,-2.3133019E-002
 3.9101769E+000, 5.9729966E+000,-1.6479576E-002
 3.9200699E+000, 6.1464311E+000, 3.4050526E-003
 3.9301905E+000, 6.2359584E+000, 2.6366085E-004
 3.9400261E+000, 6.1887925E+000, 1.6406152E-003
 3.9500383E+000, 6.2283225E+000, 3.0379480E-003
 3.9601815E+000, 6.2219481E+000, 1.2333674E-003
 3.9700864E+000, 6.2283642E+000, 5.9762323E-003
 3.9802388E+000, 6.1808032E+000,-1.3745595E-002
 3.9901572E+000, 5.9247172E+000,-3.4819863E-002
 4.0001435E+000, 5.8456453E+000,-3.1452115E-002
 4.0101514E+000, 5.9955922E+000,-1.3254150E-002
 4.0200855E+000, 6.1211536E+000,-2.3475401E-003
 4.0300674E+000, 6.2307811E+000, 9.3432481E-003
 4.0400492E+000, 6.3118203E+000, 9.1783440E-003
 4.0500311E+000, 6.1836857E+000,-1.4486898E-002
 4.0600700E+000, 6.0159064E+000,-1.6602669E-002
 4.0700789E+000, 6.1430860E+000, 3.8815407E-003
 4.0800577E+000, 6.3032817E+000, 1.5945324E-002
 4.0901424E+000, 6.4688704E+000, 3.4937596E-002
 4.1001686E+000, 6.5380026E+000, 3.2928352E-002
 4.1101260E+000, 6.4943261E+000, 2.4038880E-002
 4.1201500E+000, 6.3281950E+000, 1.7541562E-003
 4.1301740E+000, 6.1331732E+000,-1.4215129E-002
 4.1401262E+000, 6.0172924E+000,-2.4381119E-002
 4.1501054E+000, 5.9386421E+000,-2.6399478E-002
