s,m/s,
Time,"Ub","FORCE X"
 0.0000000E+000, 3.1225023E-019,-6.2000000E-001
 5.0490499E-002, 3.6293439E-002,-6.1637066E-001
 8.5665911E-002, 1.1166368E-001,-6.0883363E-001
 1.0420935E-001, 1.7740895E-001,-6.0225910E-001
 1.1911273E-001, 2.5083584E-001,-5.9491642E-001
 1.3088677E-001, 3.2477992E-001,-5.8752201E-001
 1.4057799E-001, 3.9846339E-001,-5.8015366E-001
 1.4881634E-001, 4.7173774E-001,-5.7282623E-001
 1.5598204E-001, 5.4450624E-001,-5.6554938E-001
 1.6231359E-001, 6.1662181E-001,-5.5833782E-001
 1.6798425E-001, 6.8807678E-001,-5.5119232E-001
 1.7365490E-001, 7.6381741E-001,-5.4361826E-001
 1.7828022E-001, 8.3095098E-001,-5.3690490E-001
 1.8290555E-001, 9.0140453E-001,-5.2985955E-001
 1.8688902E-001, 9.6648600E-001,-5.2335140E-001
 1.9087249E-001, 1.0342537E+000,-5.1657463E-001
 1.9438028E-001, 1.0976232E+000,-5.1023768E-001
 1.9788808E-001, 1.1632172E+000,-5.0367828E-001
 2.0104163E-001, 1.2253580E+000,-4.9746420E-001
 2.0419518E-001, 1.2893861E+000,-4.9106139E-001
 2.0734873E-001, 1.3552258E+000,-4.8447742E-001
 2.1009686E-001, 1.4151811E+000,-4.7848189E-001
 2.2048898E-001, 1.5644238E+000,-4.5426256E-001
 2.3174271E-001, 1.8306866E+000,-4.2496776E-001
 2.4145767E-001, 2.1155084E+000,-3.9718229E-001
 2.5009231E-001, 2.3866582E+000,-3.7055524E-001
 2.6082344E-001, 2.6949776E+000,-3.3517084E-001
 2.7035840E-001, 3.0382400E+000,-3.0173441E-001
 2.8015862E-001, 3.3833380E+000,-2.6586302E-001
 2.9003292E-001, 3.7478845E+000,-2.2861046E-001
 3.0000987E-001, 4.1234928E+000,-1.9050228E-001
 3.1017016E-001, 4.5062757E+000,-1.5177725E-001
 3.2082222E-001, 4.9019542E+000,-1.1121066E-001
 3.3058662E-001, 5.2902168E+000,-7.4152432E-002
 3.4035101E-001, 5.6600724E+000,-3.7204380E-002
 3.5011541E-001, 6.0297911E+000,-2.2690863E-004
 3.6008345E-001, 6.3992883E+000, 3.6790166E-002
 3.7001680E-001, 6.7614777E+000, 7.2622648E-002
 3.8035196E-001, 7.1227978E+000, 1.0914901E-001
 3.9029258E-001, 7.4629142E+000, 1.4053443E-001
 4.0014617E-001, 7.7442247E+000, 1.6592955E-001
 4.1037706E-001, 7.9721787E+000, 1.8643600E-001
 4.2024715E-001, 8.1440535E+000, 2.0082117E-001
 4.3011725E-001, 8.2658875E+000, 2.1102426E-001
 4.4048085E-001, 8.3486734E+000, 2.1714290E-001
 4.5035094E-001, 8.3799835E+000, 2.1899375E-001
 4.6022104E-001, 8.3900633E+000, 2.1732126E-001
 4.7009113E-001, 8.3154466E+000, 2.0515647E-001
 4.8045473E-001, 8.1074930E+000, 1.7571125E-001
 4.9032482E-001, 7.8108729E+000, 1.4831879E-001
 5.0009622E-001, 7.4893940E+000, 1.1022380E-001
 5.1041047E-001, 7.0914239E+000, 7.1259942E-002
 5.2018186E-001, 6.7443122E+000, 3.9689766E-002
 5.3033325E-001, 6.4306429E+000, 9.0018616E-003
 5.4060407E-001, 6.1496107E+000,-1.7756750E-002
 5.5045689E-001, 5.8804599E+000,-4.3885618E-002
 5.6030972E-001, 5.6323802E+000,-6.7285121E-002
 5.7068802E-001, 5.4157109E+000,-8.8410920E-002
 5.8008105E-001, 5.2107567E+000,-1.0723101E-001
 5.9019661E-001, 5.0363604E+000,-1.2376913E-001
 6.0031217E-001, 4.8806411E+000,-1.3924223E-001
 6.1078901E-001, 4.7275218E+000,-1.5391259E-001
 6.2032654E-001, 4.6025761E+000,-1.6300925E-001
 6.3065886E-001, 4.5425894E+000,-1.6834518E-001
 6.4019640E-001, 4.4853968E+000,-1.7399111E-001
 6.5052872E-001, 4.4363083E+000,-1.7793820E-001
 6.6006625E-001, 4.4215459E+000,-1.7663352E-001
 6.7039858E-001, 4.4789877E+000,-1.6727097E-001
 6.8073090E-001, 4.5968489E+000,-1.5428618E-001
 6.9026844E-001, 4.7181323E+000,-1.4364825E-001
 7.0060076E-001, 4.8218094E+000,-1.3205868E-001
 7.1013829E-001, 4.9498495E+000,-1.1935096E-001
 7.2047062E-001, 5.0897610E+000,-1.0332002E-001
 7.3000815E-001, 5.2604918E+000,-8.6068371E-002
 7.4007843E-001, 5.4423647E+000,-6.6531635E-002
 7.5069012E-001, 5.6412806E+000,-4.7894718E-002
 7.6059436E-001, 5.8193709E+000,-2.7946396E-002
 7.7049860E-001, 6.0397721E+000,-6.3276409E-003
 7.8040284E-001, 6.2510785E+000, 1.4535567E-002
 7.9030708E-001, 6.4347136E+000, 3.0776070E-002
 8.0021132E-001, 6.6069052E+000, 4.7760162E-002
 8.1039201E-001, 6.7461471E+000, 6.0531506E-002
 8.2056182E-001, 6.8637894E+000, 7.0926630E-002
 8.3009602E-001, 6.9544808E+000, 7.9248374E-002
 8.4026583E-001, 7.0306433E+000, 8.5950832E-002
 8.5022409E-001, 7.0924952E+000, 9.1463866E-002
 8.6027886E-001, 7.1273524E+000, 9.4425835E-002
 8.7033363E-001, 7.1854884E+000, 1.0286503E-001
 8.8038840E-001, 7.2252394E+000, 1.0264224E-001
 8.9044317E-001, 7.1926609E+000, 9.3841989E-002
 9.0049793E-001, 7.0739071E+000, 8.2795259E-002
 9.1055270E-001, 6.9746030E+000, 7.2429777E-002
 9.2004887E-001, 6.8937002E+000, 6.5866389E-002
 9.3010364E-001, 6.8166401E+000, 5.9248484E-002
 9.4015841E-001, 6.7300731E+000, 4.3391323E-002
 9.5021318E-001, 6.4509522E+000, 7.9571975E-003
 9.6026795E-001, 6.1008894E+000,-2.5315827E-002
 9.7009927E-001, 5.8154664E+000,-4.9706011E-002
 9.8006947E-001, 5.6207010E+000,-6.4453361E-002
 9.9002361E-001, 5.4795991E+000,-7.9327418E-002
 1.0000904E+000, 5.3254156E+000,-9.4330630E-002
 1.0100388E+000, 5.2141723E+000,-1.0163615E-001
 1.0201731E+000, 5.1593013E+000,-1.0508457E-001
 1.0304974E+000, 5.1294213E+000,-1.0911868E-001
 1.0402516E+000, 5.1029074E+000,-1.0940386E-001
 1.0500058E+000, 5.1150620E+000,-1.0688686E-001
 1.0604568E+000, 5.1585521E+000,-1.0047527E-001
 1.0702110E+000, 5.2620720E+000,-8.7807825E-002
 1.0804530E+000, 5.3836211E+000,-7.5406088E-002
 1.0904162E+000, 5.5333258E+000,-5.8847137E-002
 1.1003795E+000, 5.7033254E+000,-4.2569623E-002
 1.1103428E+000, 5.8468867E+000,-2.9222564E-002
 1.1203081E+000, 5.9634056E+000,-1.8891465E-002
 1.1305304E+000, 6.0768887E+000,-6.8109715E-003
 1.1400711E+000, 6.1673495E+000,-6.2288730E-004
 1.1503222E+000, 6.2350060E+000, 7.2042077E-003
 1.1600657E+000, 6.3244730E+000, 1.8742193E-002
 1.1704181E+000, 6.4544924E+000, 3.1118690E-002
 1.1801616E+000, 6.5830870E+000, 4.5668639E-002
 1.1903367E+000, 6.6970338E+000, 5.2547907E-002
 1.2004737E+000, 6.7862209E+000, 6.4044941E-002
 1.2100145E+000, 6.8919084E+000, 7.4275778E-002
 1.2201515E+000, 7.0155406E+000, 8.8979454E-002
 1.2302886E+000, 7.1582162E+000, 1.0005957E-001
 1.2404256E+000, 7.2315443E+000, 1.0451262E-001
 1.2504410E+000, 7.1996255E+000, 9.4955530E-002
 1.2600792E+000, 7.1001237E+000, 8.5383819E-002
 1.2702529E+000, 7.0189379E+000, 7.8963221E-002
 1.2800518E+000, 6.9189111E+000, 6.4988152E-002
 1.2900649E+000, 6.8121383E+000, 5.9572623E-002
 1.3000780E+000, 6.7841288E+000, 5.7334453E-002
 1.3100911E+000, 6.7267278E+000, 4.7948914E-002
 1.3201041E+000, 6.6274654E+000, 3.8183045E-002
 1.3303528E+000, 6.5259987E+000, 2.7445065E-002
 1.3400714E+000, 6.4168711E+000, 1.7013605E-002
 1.3504379E+000, 6.3092372E+000, 4.6652331E-003
 1.3600142E+000, 6.1825529E+000,-7.3427990E-003
 1.3701146E+000, 6.0819651E+000,-1.4249502E-002
 1.3802150E+000, 6.0353960E+000,-1.9336846E-002
 1.3903153E+000, 5.9645517E+000,-2.7908448E-002
 1.4006051E+000, 5.8700900E+000,-3.6065663E-002
 1.4103267E+000, 5.8022777E+000,-4.3071962E-002
 1.4204991E+000, 5.7318045E+000,-5.0043649E-002
 1.4306542E+000, 5.6638592E+000,-5.7643736E-002
 1.4401322E+000, 5.5750839E+000,-6.6871602E-002
 1.4502872E+000, 5.5063664E+000,-7.1220333E-002
 1.4607131E+000, 5.4719004E+000,-7.3715097E-002
 1.4703942E+000, 5.4537232E+000,-7.3920202E-002
 1.4800754E+000, 5.4815723E+000,-7.0532421E-002
 1.4903365E+000, 5.5053945E+000,-6.9351226E-002
 1.5003704E+000, 5.4909444E+000,-7.3398638E-002
 1.5104042E+000, 5.4265739E+000,-7.8694308E-002
 1.5204380E+000, 5.4280489E+000,-7.5961477E-002
 1.5300705E+000, 5.4578768E+000,-7.2017764E-002
 1.5403719E+000, 5.5059940E+000,-6.7238115E-002
 1.5506733E+000, 5.5573256E+000,-5.9991098E-002
 1.5601274E+000, 5.6548837E+000,-4.9932126E-002
 1.5703103E+000, 5.7582702E+000,-3.8645650E-002
 1.5805283E+000, 5.8648490E+000,-2.9271388E-002
 1.5902179E+000, 5.9645691E+000,-1.9025357E-002
 1.6005534E+000, 6.0289260E+000,-1.7049365E-002
 1.6102430E+000, 6.0376270E+000,-1.3860415E-002
 1.6205785E+000, 6.0672675E+000,-1.2976804E-002
 1.6302681E+000, 6.0920669E+000,-8.7757220E-003
 1.6406036E+000, 6.1599757E+000, 1.8931055E-003
 1.6502932E+000, 6.2871277E+000, 1.4528178E-002
 1.6606287E+000, 6.4074384E+000, 2.6459033E-002
 1.6703183E+000, 6.5026318E+000, 3.3352923E-002
 1.6800079E+000, 6.5520318E+000, 3.7158755E-002
 1.6903434E+000, 6.6092507E+000, 4.4487048E-002
 1.7000330E+000, 6.6800143E+000, 5.0655155E-002
 1.7103685E+000, 6.7134336E+000, 5.2089287E-002
 1.7202098E+000, 6.7590361E+000, 5.7946958E-002
 1.7305664E+000, 6.7800208E+000, 5.9313530E-002
 1.7403476E+000, 6.8364460E+000, 6.7396227E-002
 1.7501288E+000, 6.8849405E+000, 6.6964041E-002
 1.7604854E+000, 6.7997530E+000, 5.4010901E-002
 1.7702667E+000, 6.6761271E+000, 4.2335594E-002
 1.7800479E+000, 6.5741927E+000, 3.5008170E-002
 1.7900017E+000, 6.5505763E+000, 3.4966716E-002
 1.8001282E+000, 6.5538419E+000, 3.5766631E-002
 1.8102546E+000, 6.5496367E+000, 3.3070184E-002
 1.8203810E+000, 6.5117234E+000, 3.0077009E-002
 1.8305075E+000, 6.4860189E+000, 2.6664801E-002
 1.8400010E+000, 6.4546378E+000, 2.5445251E-002
 1.8501275E+000, 6.4790681E+000, 3.0612976E-002
 1.8602539E+000, 6.5013328E+000, 2.8048878E-002
 1.8703803E+000, 6.4170854E+000, 1.5316031E-002
 1.8805068E+000, 6.2700347E+000,-2.7994594E-004
 1.8900003E+000, 6.1559745E+000,-6.8117235E-003
 1.9001268E+000, 6.1063402E+000,-9.9720839E-003
 1.9102532E+000, 6.1038951E+000,-1.0305000E-002
 1.9203797E+000, 6.0773905E+000,-1.3682305E-002
 1.9305061E+000, 6.0422481E+000,-1.8469339E-002
 1.9406325E+000, 5.9594519E+000,-2.9397657E-002
 1.9506957E+000, 5.8458119E+000,-3.9465765E-002
 1.9604424E+000, 5.7858598E+000,-4.1709983E-002
 1.9701891E+000, 5.8033873E+000,-3.8086769E-002
 1.9806320E+000, 5.8181230E+000,-3.8035598E-002
 1.9903787E+000, 5.8360489E+000,-3.4799480E-002
 2.0001254E+000, 5.8705987E+000,-3.0640184E-002
 2.0104745E+000, 5.9293268E+000,-2.5016917E-002
 2.0204964E+000, 5.9562912E+000,-2.2911903E-002
 2.0305183E+000, 5.9673537E+000,-2.5108967E-002
 2.0405403E+000, 5.9570976E+000,-2.1628864E-002
 2.0505622E+000, 6.0409521E+000,-1.0993989E-002
 2.0605841E+000, 6.1119872E+000,-8.1517194E-003
 2.0706061E+000, 6.1366455E+000,-4.7169358E-003
 2.0806280E+000, 6.1948086E+000, 2.5977836E-003
 2.0906499E+000, 6.2011248E+000,-2.9420013E-003
 2.1000037E+000, 6.1490824E+000,-6.7654854E-003
 2.1105602E+000, 6.1174432E+000,-1.0018251E-002
 2.1200247E+000, 6.1006216E+000,-9.4250186E-003
 2.1302440E+000, 6.0995076E+000,-1.2459397E-002
 2.1404633E+000, 6.0698156E+000,-1.3244152E-002
 2.1500438E+000, 6.0706948E+000,-1.2156133E-002
 2.1602631E+000, 6.1013612E+000,-8.1806062E-003
 2.1704824E+000, 6.1188741E+000,-7.1786339E-003
 2.1800630E+000, 6.1658163E+000,-2.6708256E-003
 2.1902823E+000, 6.1521304E+000,-7.3993031E-003
 2.2005016E+000, 6.0935422E+000,-1.2422710E-002
 2.2100822E+000, 6.0592285E+000,-1.6099124E-002
 2.2203015E+000, 6.0337006E+000,-1.4922465E-002
 2.2305208E+000, 6.0584319E+000,-1.3948216E-002
 2.2401014E+000, 6.0749128E+000,-1.0566354E-002
 2.2503207E+000, 6.0994192E+000,-9.8272744E-003
 2.2605400E+000, 6.1215504E+000,-5.8205055E-003
 2.2701206E+000, 6.1330667E+000,-8.2667402E-003
 2.2803399E+000, 6.1072009E+000,-9.5410570E-003
 2.2905592E+000, 6.1068789E+000,-8.0950668E-003
 2.3001398E+000, 6.1555363E+000,-1.0425459E-003
 2.3103591E+000, 6.2239248E+000, 5.2896849E-003
 2.3205784E+000, 6.2887161E+000, 1.2351057E-002
 2.3301590E+000, 6.3510738E+000, 1.6813898E-002
 2.3403782E+000, 6.3615398E+000, 1.4484005E-002
 2.3505975E+000, 6.3370267E+000, 1.3377084E-002
 2.3601781E+000, 6.3360620E+000, 1.3136812E-002
 2.3703974E+000, 6.3241939E+000, 1.2622843E-002
 2.3806167E+000, 6.3395114E+000, 1.5398674E-002
 2.3901973E+000, 6.3500428E+000, 1.4475325E-002
 2.4004166E+000, 6.3322457E+000, 1.2945177E-002
 2.4101438E+000, 6.3468886E+000, 1.5296962E-002
 2.4205457E+000, 6.3595102E+000, 1.6721962E-002
 2.4305496E+000, 6.3473655E+000, 1.2658078E-002
 2.4405535E+000, 6.3154223E+000, 1.2177998E-002
 2.4505575E+000, 6.3019394E+000, 7.1291025E-003
 2.4605614E+000, 6.2415183E+000, 1.3584169E-003
 2.4705654E+000, 6.1670017E+000,-7.9110112E-003
 2.4805693E+000, 6.0688836E+000,-1.7437078E-002
 2.4905733E+000, 5.9826230E+000,-2.4338961E-002
 2.5005772E+000, 5.9793513E+000,-2.0643415E-002
 2.5105812E+000, 5.9856868E+000,-2.0856992E-002
 2.5205851E+000, 6.0092574E+000,-1.6633262E-002
 2.5305891E+000, 6.0380770E+000,-1.7550562E-002
 2.5405205E+000, 6.0291345E+000,-1.7056869E-002
 2.5503036E+000, 6.0059211E+000,-2.2112354E-002
 2.5600315E+000, 5.9623898E+000,-2.4512267E-002
 2.5703673E+000, 5.9503201E+000,-2.4449304E-002
 2.5800952E+000, 5.9700203E+000,-2.0445358E-002
 2.5904310E+000, 6.0589264E+000,-9.3770227E-003
 2.6004629E+000, 6.1512036E+000, 5.7492316E-004
 2.6104947E+000, 6.2478615E+000, 7.6940362E-003
 2.6205266E+000, 6.2990588E+000, 1.2104383E-002
 2.6305584E+000, 6.3512975E+000, 1.6147514E-002
 2.6405903E+000, 6.3886523E+000, 2.3166817E-002
 2.6506221E+000, 6.4631685E+000, 2.8432204E-002
 2.6606540E+000, 6.4888155E+000, 3.0712577E-002
 2.6700170E+000, 6.5336648E+000, 3.5432384E-002
 2.6800489E+000, 6.5674871E+000, 3.7354035E-002
 2.6900807E+000, 6.5951584E+000, 4.1744260E-002
 2.7003876E+000, 6.5814646E+000, 3.2250180E-002
 2.7103676E+000, 6.4420258E+000, 1.8094391E-002
 2.7203476E+000, 6.3190775E+000, 7.7192162E-003
 2.7303276E+000, 6.2380410E+000, 1.8883234E-004
 2.7403076E+000, 6.1598922E+000,-5.4151342E-003
 2.7502876E+000, 6.1507114E+000,-4.9501035E-003
 2.7602676E+000, 6.1425454E+000,-6.3082945E-003
 2.7702476E+000, 6.1381321E+000,-6.8392128E-003
 2.7802276E+000, 6.1214705E+000,-9.3486482E-003
 2.7904424E+000, 6.0896073E+000,-1.2437067E-002
 2.8001288E+000, 6.0910451E+000,-8.8843465E-003
 2.8104611E+000, 6.1060851E+000,-9.9736681E-003
 2.8204058E+000, 6.1060935E+000,-8.2820148E-003
 2.8303506E+000, 6.1289901E+000,-6.7206439E-003
 2.8402954E+000, 6.1408974E+000,-5.1843973E-003
 2.8502401E+000, 6.1641832E+000,-7.0768661E-004
 2.8600509E+000, 6.2046165E+000,-1.6535626E-003
 2.8701882E+000, 6.1565751E+000,-4.9989851E-003
 2.8803255E+000, 6.1489103E+000,-6.7445148E-003
 2.8904629E+000, 6.1271555E+000,-7.2522369E-003
 2.9006002E+000, 6.1219703E+000,-8.6159808E-003
 2.9101039E+000, 6.0985436E+000,-1.0951821E-002
 2.9202412E+000, 6.1141969E+000,-6.5437617E-003
 2.9303786E+000, 6.1566896E+000,-2.5470213E-003
 2.9405159E+000, 6.1559852E+000,-6.8841228E-003
 2.9500196E+000, 6.0967525E+000,-1.3261055E-002
 2.9601570E+000, 6.0344353E+000,-1.8984678E-002
 2.9702943E+000, 6.0083516E+000,-1.8208359E-002
 2.9804316E+000, 6.0356855E+000,-1.4351223E-002
 2.9905689E+000, 6.1055472E+000,-5.6045004E-003
 3.0000727E+000, 6.1885473E+000, 2.8346327E-003
 3.0102100E+000, 6.2640848E+000, 9.0216179E-003
 3.0203473E+000, 6.2967158E+000, 9.3239168E-003
 3.0304846E+000, 6.2771618E+000, 5.0034348E-003
 3.0406220E+000, 6.2451905E+000, 6.6738756E-003
 3.0505307E+000, 6.3141890E+000, 1.5199543E-002
 3.0602308E+000, 6.3972954E+000, 2.3910118E-002
 3.0702146E+000, 6.4639718E+000, 2.7045554E-002
 3.0800940E+000, 6.4758744E+000, 2.7868771E-002
 3.0905208E+000, 6.4865561E+000, 2.9886633E-002
 3.1000786E+000, 6.4996236E+000, 2.9790965E-002
 3.1102338E+000, 6.4796942E+000, 2.3880219E-002
 3.1203890E+000, 6.4113102E+000, 1.9853051E-002
 3.1305442E+000, 6.3934582E+000, 1.9407523E-002
 3.1401020E+000, 6.3877154E+000, 1.7246639E-002
 3.1502572E+000, 6.3293329E+000, 8.9305062E-003
 3.1604124E+000, 6.2706064E+000, 6.2404044E-003
 3.1705676E+000, 6.2456960E+000, 2.1057062E-003
 3.1801254E+000, 6.2029817E+000,-4.3281680E-004
 3.1906390E+000, 6.2137078E+000, 3.5679869E-003
 3.2004955E+000, 6.2571890E+000, 7.8286809E-003
 3.2103520E+000, 6.3093949E+000, 1.2943310E-002
 3.2202086E+000, 6.3295981E+000, 1.4175783E-002
 3.2300651E+000, 6.3641779E+000, 1.6780986E-002
 3.2404878E+000, 6.3574035E+000, 1.6420665E-002
 3.2505354E+000, 6.3952399E+000, 1.8981151E-002
 3.2605829E+000, 6.3616642E+000, 1.3596332E-002
 3.2700025E+000, 6.3090553E+000, 9.6063311E-003
 3.2800501E+000, 6.3045913E+000, 1.0200214E-002
 3.2900976E+000, 6.2657211E+000, 1.3310004E-003
 3.3001452E+000, 6.1476105E+000,-9.4167749E-003
 3.3101927E+000, 6.0837008E+000,-1.2851410E-002
 3.3204915E+000, 6.0500407E+000,-1.7131005E-002
 3.3301623E+000, 6.0101693E+000,-2.1774560E-002
 3.3405238E+000, 5.9655069E+000,-2.4270567E-002
 3.3501946E+000, 5.9241985E+000,-3.0367356E-002
 3.3605561E+000, 5.8659888E+000,-3.5733417E-002
 3.3702269E+000, 5.8183893E+000,-3.9380307E-002
 3.3805194E+000, 5.7995443E+000,-4.1462087E-002
 3.3904660E+000, 5.7619344E+000,-4.5354756E-002
 3.4004126E+000, 5.7546601E+000,-4.2992670E-002
 3.4104835E+000, 5.8137225E+000,-3.4552034E-002
 3.4206036E+000, 5.8482336E+000,-3.7875286E-002
 3.4303505E+000, 5.7819411E+000,-4.4749203E-002
 3.4400973E+000, 5.7261802E+000,-4.9131825E-002
 3.4502706E+000, 5.7061378E+000,-4.9511826E-002
 3.4603220E+000, 5.7218071E+000,-4.5933080E-002
 3.4703735E+000, 5.7432913E+000,-4.5946701E-002
 3.4804249E+000, 5.7283526E+000,-4.6795089E-002
 3.4904763E+000, 5.7495526E+000,-4.3309701E-002
 3.5003034E+000, 5.7794064E+000,-4.1627314E-002
 3.5105253E+000, 5.8005966E+000,-3.7431130E-002
 3.5200858E+000, 5.8657753E+000,-2.9580443E-002
 3.5300071E+000, 5.9526667E+000,-2.0790728E-002
 3.5405897E+000, 6.0620647E+000,-6.3936230E-003
 3.5505110E+000, 6.2266779E+000, 1.0967311E-002
 3.5604323E+000, 6.3993705E+000, 2.7433538E-002
 3.5703535E+000, 6.5258973E+000, 3.6806273E-002
 3.5802748E+000, 6.6247472E+000, 4.5586676E-002
 3.5901425E+000, 6.6789761E+000, 4.9858551E-002
 3.6001711E+000, 6.7201674E+000, 5.4084598E-002
 3.6101997E+000, 6.7566895E+000, 5.7276934E-002
 3.6202283E+000, 6.7782493E+000, 5.8216321E-002
 3.6302569E+000, 6.7702985E+000, 5.4936034E-002
 3.6402855E+000, 6.7404501E+000, 5.4462473E-002
 3.6503140E+000, 6.7481255E+000, 5.3713268E-002
 3.6603426E+000, 6.7471977E+000, 5.6870656E-002
 3.6703712E+000, 6.7855735E+000, 5.9182709E-002
 3.6803998E+000, 6.7606080E+000, 5.0441102E-002
 3.6904284E+000, 6.6255103E+000, 3.6410111E-002
 3.7004570E+000, 6.5029934E+000, 2.5533293E-002
 3.7104856E+000, 6.4137305E+000, 1.8390733E-002
 3.7205142E+000, 6.3339227E+000, 9.0714734E-003
 3.7305428E+000, 6.2358584E+000,-1.0472310E-003
 3.7400994E+000, 6.1659020E+000,-6.0421161E-003
 3.7504820E+000, 6.0931349E+000,-1.5052283E-002
 3.7602156E+000, 6.0233209E+000,-1.9933898E-002
 3.7705981E+000, 5.9581612E+000,-2.5810767E-002
 3.7800290E+000, 5.9279604E+000,-2.9543372E-002
 3.7901625E+000, 5.8904244E+000,-3.1185801E-002
 3.8005175E+000, 5.8805464E+000,-3.3980332E-002
 3.8103090E+000, 5.8434203E+000,-3.9118869E-002
 3.8203528E+000, 5.8074174E+000,-3.7884243E-002
 3.8302763E+000, 5.8394834E+000,-3.4772478E-002
 3.8401999E+000, 5.8556560E+000,-3.3349661E-002
 3.8501234E+000, 5.8878706E+000,-2.9693426E-002
 3.8600470E+000, 5.9084736E+000,-2.8090790E-002
 3.8706321E+000, 5.9324735E+000,-2.6037105E-002
 3.8805556E+000, 5.9447728E+000,-2.5267865E-002
 3.8904791E+000, 5.9544961E+000,-2.3060215E-002
 3.9004027E+000, 5.9865628E+000,-2.0161995E-002
 3.9102473E+000, 5.9949344E+000,-2.0565157E-002
 3.9205872E+000, 5.9990888E+000,-1.9318651E-002
 3.9303923E+000, 6.0229683E+000,-1.5832774E-002
 3.9401974E+000, 6.0695105E+000,-1.0609992E-002
 3.9500025E+000, 6.1331879E+000,-2.0946135E-003
 3.9604613E+000, 6.2265187E+000, 5.2326213E-003
 3.9702664E+000, 6.2863890E+000, 1.1879239E-002
 3.9800715E+000, 6.3342874E+000, 1.4032145E-002
 3.9905302E+000, 6.3455577E+000, 1.5007825E-002
 4.0000525E+000, 6.3610292E+000, 1.5283412E-002
 4.0105457E+000, 6.3184886E+000, 8.3682445E-003
 4.0204560E+000, 6.2244791E+000,-3.5564907E-003
 4.0305994E+000, 6.1241007E+000,-7.9662169E-003
 4.0404489E+000, 6.1381367E+000,-3.9632960E-003
 4.0500729E+000, 6.1483321E+000,-9.5745478E-003
 4.0602630E+000, 6.0308051E+000,-2.2073129E-002
 4.0700568E+000, 5.9592000E+000,-2.4571525E-002
 4.0800205E+000, 5.9557157E+000,-2.4012651E-002
 4.0906069E+000, 5.9727600E+000,-2.0384720E-002
 4.1005706E+000, 6.0332980E+000,-1.4033752E-002
 4.1105343E+000, 6.0751510E+000,-1.1289967E-002
 4.1204979E+000, 6.0995654E+000,-8.9857174E-003
 4.1304616E+000, 6.1243483E+000,-5.1233549E-003
 4.1404253E+000, 6.1966749E+000, 3.8616229E-003
 4.1503890E+000, 6.2704256E+000, 1.0205106E-002
