s,m/s,
Time,"Ub","FORCE X"
 0.0000000E+000, 2.8622937E-019,-6.2000000E-001
 5.0490499E-002, 3.6293439E-002,-6.1637066E-001
 8.5665911E-002, 1.1166368E-001,-6.0883363E-001
 1.0420935E-001, 1.7740895E-001,-6.0225910E-001
 1.1911273E-001, 2.5083584E-001,-5.9491642E-001
 1.3088677E-001, 3.2477992E-001,-5.8752201E-001
 1.4057799E-001, 3.9846339E-001,-5.8015366E-001
 1.4881634E-001, 4.7173774E-001,-5.7282623E-001
 1.5598204E-001, 5.4450624E-001,-5.6554938E-001
 1.6231359E-001, 6.1662181E-001,-5.5833782E-001
 1.6798425E-001, 6.8807678E-001,-5.5119232E-001
 1.7365490E-001, 7.6381741E-001,-5.4361826E-001
 1.7828022E-001, 8.3095098E-001,-5.3690490E-001
 1.8290555E-001, 9.0140453E-001,-5.2985955E-001
 1.8688902E-001, 9.6648600E-001,-5.2335140E-001
 1.9087249E-001, 1.0342537E+000,-5.1657463E-001
 1.9438028E-001, 1.0976232E+000,-5.1023768E-001
 1.9788808E-001, 1.1632172E+000,-5.0367828E-001
 2.0104163E-001, 1.2253580E+000,-4.9746420E-001
 2.0419518E-001, 1.2893861E+000,-4.9106139E-001
 2.0734873E-001, 1.3552258E+000,-4.8447742E-001
 2.1009686E-001, 1.4151811E+000,-4.7848189E-001
 2.2048898E-001, 1.5644238E+000,-4.5426256E-001
 2.3174271E-001, 1.8306866E+000,-4.2496776E-001
 2.4145767E-001, 2.1155084E+000,-3.9718229E-001
 2.5009231E-001, 2.3866582E+000,-3.7055524E-001
 2.6082344E-001, 2.6949776E+000,-3.3517084E-001
 2.7035840E-001, 3.0382400E+000,-3.0173441E-001
 2.8015862E-001, 3.3833380E+000,-2.6586302E-001
 2.9003292E-001, 3.7478845E+000,-2.2861046E-001
 3.0000987E-001, 4.1234928E+000,-1.9050228E-001
 3.1017016E-001, 4.5062757E+000,-1.5177725E-001
 3.2082222E-001, 4.9019542E+000,-1.1121066E-001
 3.3058662E-001, 5.2902168E+000,-7.4152432E-002
 3.4035101E-001, 5.6600724E+000,-3.7204380E-002
 3.5011541E-001, 6.0297911E+000,-2.2690863E-004
 3.6008345E-001, 6.3992883E+000, 3.6790166E-002
 3.7001680E-001, 6.7614777E+000, 7.2622648E-002
 3.8035196E-001, 7.1227978E+000, 1.0914901E-001
 3.9029258E-001, 7.4629142E+000, 1.4053443E-001
 4.0014617E-001, 7.7442247E+000, 1.6592955E-001
 4.1037706E-001, 7.9721787E+000, 1.8643600E-001
 4.2024715E-001, 8.1440535E+000, 2.0082117E-001
 4.3011725E-001, 8.2658875E+000, 2.1102426E-001
 4.4048085E-001, 8.3486734E+000, 2.1714290E-001
 4.5035094E-001, 8.3799835E+000, 2.1899375E-001
 4.6022104E-001, 8.3900633E+000, 2.1732126E-001
 4.7009113E-001, 8.3154466E+000, 2.0515647E-001
 4.8045473E-001, 8.1074930E+000, 1.7571125E-001
 4.9032482E-001, 7.8108729E+000, 1.4831879E-001
 5.0009622E-001, 7.4893940E+000, 1.1022380E-001
 5.1041047E-001, 7.0914239E+000, 7.1259942E-002
 5.2018186E-001, 6.7443122E+000, 3.9689766E-002
 5.3033325E-001, 6.4306429E+000, 9.0018616E-003
 5.4060407E-001, 6.1496107E+000,-1.7756750E-002
 5.5045689E-001, 5.8804599E+000,-4.3885618E-002
 5.6030972E-001, 5.6323802E+000,-6.7285121E-002
 5.7068802E-001, 5.4157109E+000,-8.8410920E-002
 5.8008105E-001, 5.2107567E+000,-1.0723101E-001
 5.9019661E-001, 5.0363604E+000,-1.2376913E-001
 6.0031217E-001, 4.8806411E+000,-1.3924223E-001
 6.1078901E-001, 4.7275218E+000,-1.5391259E-001
 6.2032654E-001, 4.6025761E+000,-1.6300925E-001
 6.3065886E-001, 4.5425894E+000,-1.6834518E-001
 6.4019640E-001, 4.4853968E+000,-1.7399111E-001
 6.5052872E-001, 4.4363083E+000,-1.7793820E-001
 6.6006625E-001, 4.4215459E+000,-1.7663352E-001
 6.7039858E-001, 4.4789877E+000,-1.6727097E-001
 6.8073090E-001, 4.5968489E+000,-1.5428618E-001
 6.9026844E-001, 4.7181323E+000,-1.4364825E-001
 7.0060076E-001, 4.8218094E+000,-1.3205868E-001
 7.1013829E-001, 4.9498495E+000,-1.1935096E-001
 7.2047062E-001, 5.0897610E+000,-1.0332002E-001
 7.3000815E-001, 5.2604918E+000,-8.6068371E-002
 7.4007843E-001, 5.4423647E+000,-6.6531635E-002
 7.5069012E-001, 5.6412806E+000,-4.7894718E-002
 7.6059436E-001, 5.8193709E+000,-2.7946396E-002
 7.7049860E-001, 6.0397721E+000,-6.3276409E-003
 7.8040284E-001, 6.2510785E+000, 1.4535567E-002
 7.9030708E-001, 6.4347136E+000, 3.0776070E-002
 8.0021132E-001, 6.6069052E+000, 4.7760162E-002
 8.1039201E-001, 6.7461471E+000, 6.0531506E-002
 8.2056182E-001, 6.8637894E+000, 7.0926630E-002
 8.3009602E-001, 6.9544808E+000, 7.9248375E-002
 8.4026583E-001, 7.0306433E+000, 8.5950833E-002
 8.5022409E-001, 7.0924952E+000, 9.1463866E-002
 8.6027886E-001, 7.1273524E+000, 9.4425836E-002
 8.7033363E-001, 7.1854884E+000, 1.0286503E-001
 8.8038840E-001, 7.2252394E+000, 1.0264224E-001
 8.9044317E-001, 7.1926609E+000, 9.3841986E-002
 9.0049794E-001, 7.0739070E+000, 8.2795257E-002
 9.1055270E-001, 6.9746030E+000, 7.2429775E-002
 9.2004887E-001, 6.8937002E+000, 6.5866386E-002
 9.3010364E-001, 6.8166400E+000, 5.9248482E-002
 9.4015841E-001, 6.7300730E+000, 4.3391318E-002
 9.5021318E-001, 6.4509521E+000, 7.9571963E-003
 9.6026795E-001, 6.1008895E+000,-2.5315820E-002
 9.7009928E-001, 5.8154665E+000,-4.9706007E-002
 9.8006950E-001, 5.6207009E+000,-6.4453387E-002
 9.9002364E-001, 5.4795985E+000,-7.9327525E-002
 1.0000905E+000, 5.3254147E+000,-9.4330688E-002
 1.0100387E+000, 5.2141727E+000,-1.0163595E-001
 1.0201728E+000, 5.1593048E+000,-1.0508427E-001
 1.0304969E+000, 5.1294246E+000,-1.0911821E-001
 1.0402510E+000, 5.1029121E+000,-1.0940324E-001
 1.0500051E+000, 5.1150667E+000,-1.0688620E-001
 1.0604558E+000, 5.1585592E+000,-1.0047491E-001
 1.0702099E+000, 5.2620735E+000,-8.7807528E-002
 1.0804517E+000, 5.3836237E+000,-7.5405844E-002
 1.0904148E+000, 5.5333297E+000,-5.8847141E-002
 1.1003778E+000, 5.7033369E+000,-4.2568343E-002
 1.1103409E+000, 5.8468771E+000,-2.9226506E-002
 1.1203061E+000, 5.9633707E+000,-1.8894157E-002
 1.1305282E+000, 6.0768650E+000,-6.8149290E-003
 1.1400689E+000, 6.1672958E+000,-6.2722809E-004
 1.1503198E+000, 6.2350041E+000, 7.2070900E-003
 1.1600632E+000, 6.3246184E+000, 1.8759221E-002
 1.1704155E+000, 6.4545129E+000, 3.1103626E-002
 1.1801589E+000, 6.5827518E+000, 4.5638807E-002
 1.1904286E+000, 6.6970722E+000, 5.2593492E-002
 1.2005491E+000, 6.7869858E+000, 6.4101480E-002
 1.2100744E+000, 6.8922764E+000, 7.4298112E-002
 1.2201949E+000, 7.0156628E+000, 8.8955596E-002
 1.2303154E+000, 7.1562997E+000, 9.9672757E-002
 1.2404360E+000, 7.2244325E+000, 1.0346351E-001
 1.2505565E+000, 7.1897899E+000, 9.4196437E-002
 1.2600818E+000, 7.0958456E+000, 8.5304727E-002
 1.2702023E+000, 7.0198509E+000, 7.9287433E-002
 1.2803228E+000, 6.9265287E+000, 6.6537625E-002
 1.2904434E+000, 6.8243661E+000, 6.0501271E-002
 1.3005639E+000, 6.8009052E+000, 5.8641648E-002
 1.3100891E+000, 6.7459701E+000, 5.0147260E-002
 1.3202097E+000, 6.6402111E+000, 3.8781901E-002
 1.3303302E+000, 6.5046332E+000, 2.3585838E-002
 1.3404508E+000, 6.3676883E+000, 1.0619146E-002
 1.3505713E+000, 6.2352355E+000,-4.0683291E-003
 1.3600965E+000, 6.1031560E+000,-1.3388538E-002
 1.3702766E+000, 6.0164904E+000,-2.3223942E-002
 1.3800995E+000, 5.9154883E+000,-3.1621137E-002
 1.3905772E+000, 5.8472895E+000,-3.9559350E-002
 1.4004001E+000, 5.7571501E+000,-4.7301435E-002
 1.4102230E+000, 5.7170833E+000,-4.9029390E-002
 1.4200459E+000, 5.6907707E+000,-5.3164979E-002
 1.4303926E+000, 5.6405545E+000,-5.8375223E-002
 1.4400719E+000, 5.6274935E+000,-5.4802843E-002
 1.4501078E+000, 5.6969235E+000,-4.6561260E-002
 1.4606551E+000, 5.7665259E+000,-4.0554064E-002
 1.4704993E+000, 5.8268308E+000,-3.4354804E-002
 1.4803435E+000, 5.8684715E+000,-3.2297696E-002
 1.4901876E+000, 5.9070628E+000,-2.5224140E-002
 1.5000318E+000, 5.9912112E+000,-1.8097104E-002
 1.5105791E+000, 6.0396194E+000,-1.3768763E-002
 1.5204233E+000, 6.1042871E+000,-5.5404850E-003
 1.5302674E+000, 6.1994280E+000, 3.9492874E-003
 1.5401116E+000, 6.2534371E+000, 5.9486423E-003
 1.5506589E+000, 6.2775811E+000, 9.6341260E-003
 1.5605031E+000, 6.3184759E+000, 1.3331505E-002
 1.5703472E+000, 6.3475505E+000, 1.6181053E-002
 1.5801914E+000, 6.3602624E+000, 1.5587677E-002
 1.5900153E+000, 6.3696064E+000, 1.8186149E-002
 1.6001083E+000, 6.3888837E+000, 1.9229334E-002
 1.6102014E+000, 6.3964462E+000, 1.8571736E-002
 1.6202944E+000, 6.3612632E+000, 1.3885745E-002
 1.6303875E+000, 6.2852490E+000, 3.0846205E-003
 1.6404805E+000, 6.1888011E+000,-5.1527855E-003
 1.6505736E+000, 6.1062090E+000,-1.1004084E-002
 1.6600358E+000, 6.1059770E+000,-7.6871329E-003
 1.6701289E+000, 6.1433787E+000,-6.0036604E-003
 1.6802219E+000, 6.0977361E+000,-1.3460292E-002
 1.6903150E+000, 6.0342771E+000,-1.9139499E-002
 1.7004080E+000, 5.9832251E+000,-2.4617752E-002
 1.7103749E+000, 5.9326896E+000,-2.8614901E-002
 1.7200894E+000, 5.9004830E+000,-3.0203685E-002
 1.7304979E+000, 5.9119776E+000,-2.7266901E-002
 1.7402125E+000, 5.9387787E+000,-2.4948473E-002
 1.7506209E+000, 5.9422892E+000,-2.8633437E-002
 1.7601152E+000, 5.8728164E+000,-3.6684251E-002
 1.7700924E+000, 5.7930200E+000,-4.3832806E-002
 1.7800696E+000, 5.7176105E+000,-5.1286230E-002
 1.7900468E+000, 5.6767327E+000,-5.1975668E-002
 1.8000241E+000, 5.6991888E+000,-4.9212100E-002
 1.8100013E+000, 5.7044453E+000,-4.9029283E-002
 1.8203526E+000, 5.7221184E+000,-4.5829544E-002
 1.8306417E+000, 5.7611670E+000,-4.1973760E-002
 1.8402447E+000, 5.8072487E+000,-3.6478598E-002
 1.8505337E+000, 5.8739194E+000,-2.9805389E-002
 1.8601368E+000, 5.9160353E+000,-2.6889074E-002
 1.8704258E+000, 5.9709747E+000,-1.7454180E-002
 1.8800289E+000, 6.1023749E+000,-3.3634347E-003
 1.8900340E+000, 6.2407801E+000, 1.0644884E-002
 1.9004883E+000, 6.3669961E+000, 1.8988985E-002
 1.9103276E+000, 6.3632504E+000, 1.4061463E-002
 1.9201670E+000, 6.3355678E+000, 1.3852980E-002
 1.9300580E+000, 6.3270564E+000, 1.0688979E-002
 1.9402412E+000, 6.2914391E+000, 6.8795354E-003
 1.9504244E+000, 6.2462997E+000, 2.8102003E-003
 1.9600085E+000, 6.2327510E+000, 3.2035637E-003
 1.9701917E+000, 6.2288728E+000, 2.0641817E-003
 1.9803749E+000, 6.2073822E+000, 1.2410788E-003
 1.9905581E+000, 6.2252284E+000, 4.5311600E-003
 2.0001307E+000, 6.2688943E+000, 9.0966817E-003
 2.0102979E+000, 6.3371345E+000, 1.9304862E-002
 2.0202393E+000, 6.4549922E+000, 2.9911473E-002
 2.0303760E+000, 6.5311117E+000, 3.5085840E-002
 2.0403136E+000, 6.5510728E+000, 3.5066042E-002
 2.0500758E+000, 6.5432102E+000, 3.4125180E-002
 2.0603642E+000, 6.5587087E+000, 3.5656415E-002
 2.0700095E+000, 6.5379150E+000, 3.1721913E-002
 2.0800462E+000, 6.4917131E+000, 2.6112204E-002
 2.0903818E+000, 6.4488887E+000, 2.4480925E-002
 2.1001432E+000, 6.4463910E+000, 2.4956937E-002
 2.1104788E+000, 6.4767276E+000, 2.8599255E-002
 2.1200679E+000, 6.4741737E+000, 2.6693095E-002
 2.1301738E+000, 6.4645615E+000, 2.7431016E-002
 2.1402797E+000, 6.4829051E+000, 2.8402181E-002
 2.1503857E+000, 6.4746689E+000, 2.5141710E-002
 2.1604916E+000, 6.4410780E+000, 2.3925883E-002
 2.1705975E+000, 6.4366140E+000, 2.3602347E-002
 2.1800062E+000, 6.4575957E+000, 2.7669801E-002
 2.1901942E+000, 6.4987035E+000, 3.1416163E-002
 2.2000992E+000, 6.5062546E+000, 2.7742147E-002
 2.2100608E+000, 6.4380544E+000, 2.2521212E-002
 2.2200225E+000, 6.4073108E+000, 1.7739890E-002
 2.2306067E+000, 6.3576025E+000, 1.5469919E-002
 2.2405683E+000, 6.3567841E+000, 1.5678734E-002
 2.2505299E+000, 6.3416722E+000, 1.2222605E-002
 2.2606161E+000, 6.2887109E+000, 6.4150754E-003
 2.2702042E+000, 6.2705365E+000, 7.9310874E-003
 2.2804771E+000, 6.2892061E+000, 8.6251508E-003
 2.2900652E+000, 6.2633254E+000, 5.5144048E-003
 2.3003381E+000, 6.2521860E+000, 4.7802721E-003
 2.3106110E+000, 6.2293607E+000, 6.9704735E-004
 2.3204153E+000, 6.1837815E+000,-3.4641028E-003
 2.3301235E+000, 6.1422033E+000,-7.4867856E-003
 2.3404385E+000, 6.1268248E+000,-7.2243603E-003
 2.3504500E+000, 6.1202623E+000,-8.9287903E-003
 2.3604616E+000, 6.0969817E+000,-1.1803159E-002
 2.3704731E+000, 6.0654225E+000,-1.4296766E-002
 2.3804847E+000, 6.0416760E+000,-1.8312508E-002
 2.3904963E+000, 5.9661745E+000,-2.7156392E-002
 2.4005078E+000, 5.9050151E+000,-3.1503111E-002
 2.4105194E+000, 5.8447559E+000,-3.7947509E-002
 2.4205309E+000, 5.8168554E+000,-3.8477056E-002
 2.4305425E+000, 5.8223813E+000,-3.7572282E-002
 2.4405541E+000, 5.8223582E+000,-3.8089590E-002
 2.4505656E+000, 5.8182044E+000,-3.7359627E-002
 2.4605772E+000, 5.8366222E+000,-3.6193014E-002
 2.4705887E+000, 5.8401311E+000,-3.5075171E-002
 2.4806003E+000, 5.8438180E+000,-3.7248124E-002
 2.4906119E+000, 5.8106963E+000,-3.8541592E-002
 2.5006234E+000, 5.8407981E+000,-3.3851476E-002
 2.5106350E+000, 5.8969898E+000,-2.6555903E-002
 2.5206465E+000, 5.9822503E+000,-1.8097476E-002
 2.5306581E+000, 6.0499706E+000,-1.2426301E-002
 2.5400022E+000, 6.0923417E+000,-9.8340474E-003
 2.5504730E+000, 6.0915818E+000,-1.0582777E-002
 2.5602542E+000, 6.0976827E+000,-1.0135663E-002
 2.5701555E+000, 6.1205162E+000,-4.3648209E-003
 2.5800567E+000, 6.2126494E+000, 6.4662573E-003
 2.5906181E+000, 6.3063154E+000, 1.2208015E-002
 2.6005194E+000, 6.3420066E+000, 1.6809203E-002
 2.6104206E+000, 6.4198564E+000, 2.5890080E-002
 2.6203219E+000, 6.4843582E+000, 3.1638823E-002
 2.6302231E+000, 6.5646216E+000, 3.9489598E-002
 2.6401244E+000, 6.6201141E+000, 4.3702685E-002
 2.6501844E+000, 6.6187653E+000, 3.9181053E-002
 2.6600012E+000, 6.5853086E+000, 3.7955394E-002
 2.6700464E+000, 6.5697460E+000, 3.6275746E-002
 2.6800915E+000, 6.5448744E+000, 3.3518782E-002
 2.6901366E+000, 6.5559921E+000, 3.7485832E-002
 2.7001817E+000, 6.5908981E+000, 4.0744586E-002
 2.7102268E+000, 6.6316633E+000, 4.5066820E-002
 2.7202719E+000, 6.6577066E+000, 4.4637767E-002
 2.7303170E+000, 6.6167616E+000, 4.0300944E-002
 2.7403621E+000, 6.6136762E+000, 4.2178948E-002
 2.7504072E+000, 6.5893716E+000, 3.4466663E-002
 2.7604524E+000, 6.5062552E+000, 2.6456523E-002
 2.7704975E+000, 6.4162462E+000, 1.8008993E-002
 2.7805426E+000, 6.3604838E+000, 1.4538014E-002
 2.7905877E+000, 6.2920208E+000, 4.2185941E-003
 2.8000050E+000, 6.2056130E+000,-1.4135248E-003
 2.8100501E+000, 6.1555057E+000,-7.2991941E-003
 2.8205974E+000, 6.0829382E+000,-1.5900245E-002
 2.8302659E+000, 6.0277326E+000,-1.7250906E-002
 2.8403163E+000, 6.0261737E+000,-1.8789758E-002
 2.8506221E+000, 5.9722460E+000,-2.7011980E-002
 2.8600691E+000, 5.8861457E+000,-3.4665617E-002
 2.8701909E+000, 5.8249739E+000,-3.9944665E-002
 2.8803127E+000, 5.7918799E+000,-4.0912748E-002
 2.8904345E+000, 5.7996144E+000,-3.8906450E-002
 2.9005563E+000, 5.8183217E+000,-3.8693200E-002
 2.9100033E+000, 5.8123903E+000,-3.7468993E-002
 2.9201316E+000, 5.8437185E+000,-3.4519286E-002
 2.9306191E+000, 5.8518015E+000,-3.6508641E-002
 2.9404512E+000, 5.7904657E+000,-4.6727347E-002
 2.9502832E+000, 5.6890095E+000,-5.3056714E-002
 2.9601153E+000, 5.6641059E+000,-5.3853706E-002
 2.9706028E+000, 5.6696922E+000,-5.1786587E-002
 2.9801727E+000, 5.6826292E+000,-5.1257093E-002
 2.9903151E+000, 5.6934156E+000,-5.1452867E-002
 3.0000089E+000, 5.6810920E+000,-5.1409258E-002
 3.0103490E+000, 5.7131391E+000,-4.6869371E-002
 3.0200428E+000, 5.7340794E+000,-4.7230713E-002
 3.0303829E+000, 5.7254793E+000,-4.7384509E-002
 3.0400767E+000, 5.7484773E+000,-4.2864450E-002
 3.0504168E+000, 5.7945348E+000,-3.7445140E-002
 3.0601106E+000, 5.8521074E+000,-3.1604856E-002
 3.0704506E+000, 5.9266397E+000,-2.2959498E-002
 3.0801445E+000, 6.0125777E+000,-1.4251838E-002
 3.0904845E+000, 6.1185738E+000,-3.9315320E-003
 3.1001784E+000, 6.2004590E+000, 3.1535624E-003
 3.1105184E+000, 6.2597983E+000, 7.7403850E-003
 3.1202123E+000, 6.2983269E+000, 1.2625641E-002
 3.1305523E+000, 6.3803812E+000, 2.2905794E-002
 3.1402461E+000, 6.4829572E+000, 3.3476429E-002
 3.1503788E+000, 6.5807931E+000, 4.1035209E-002
 3.1602489E+000, 6.6264067E+000, 4.3966765E-002
 3.1701189E+000, 6.6703499E+000, 5.0120818E-002
 3.1805695E+000, 6.7075000E+000, 4.9869245E-002
 3.1904396E+000, 6.6532547E+000, 3.9746450E-002
 3.2003096E+000, 6.5375106E+000, 2.8714652E-002
 3.2101796E+000, 6.4560934E+000, 2.2946647E-002
 3.2204502E+000, 6.3388731E+000, 4.0657042E-003
 3.2303696E+000, 6.1469820E+000,-1.1411953E-002
 3.2404979E+000, 6.0397187E+000,-1.9809965E-002
 3.2502607E+000, 5.9807486E+000,-2.2670815E-002
 3.2603571E+000, 5.9584095E+000,-2.6443211E-002
 3.2705048E+000, 5.9043929E+000,-3.1976214E-002
 3.2804834E+000, 5.8499961E+000,-3.6144868E-002
 3.2904056E+000, 5.8477387E+000,-3.5348046E-002
 3.3000644E+000, 5.7962877E+000,-4.6760607E-002
 3.3104453E+000, 5.6950861E+000,-5.1196703E-002
 3.3201635E+000, 5.6938289E+000,-4.9941060E-002
 3.3302462E+000, 5.7302465E+000,-4.3785135E-002
 3.3403747E+000, 5.7906723E+000,-3.8062429E-002
 3.3505396E+000, 5.8958637E+000,-2.3306308E-002
 3.3600468E+000, 6.0214336E+000,-1.3047735E-002
 3.3705704E+000, 6.1347324E+000,-2.5908572E-004
 3.3804364E+000, 6.2769779E+000, 1.4752474E-002
 3.3903023E+000, 6.4122647E+000, 2.5195546E-002
 3.4002612E+000, 6.4953896E+000, 3.2671350E-002
 3.4102424E+000, 6.5439357E+000, 3.7047645E-002
 3.4202236E+000, 6.6045986E+000, 4.2470502E-002
 3.4305572E+000, 6.6519183E+000, 4.9209280E-002
 3.4402448E+000, 6.7184757E+000, 5.3047694E-002
 3.4503404E+000, 6.7430665E+000, 5.6654137E-002
 3.4605378E+000, 6.8035004E+000, 6.1436213E-002
 3.4701688E+000, 6.8143188E+000, 6.1894740E-002
 3.4803662E+000, 6.8020183E+000, 5.8660093E-002
 3.4905637E+000, 6.7853623E+000, 5.8206418E-002
 3.5001946E+000, 6.7802464E+000, 5.5790268E-002
 3.5103920E+000, 6.7203832E+000, 5.0039596E-002
 3.5200230E+000, 6.7037415E+000, 5.0433650E-002
 3.5302204E+000, 6.7061870E+000, 5.1684495E-002
 3.5404179E+000, 6.7609060E+000, 5.8858562E-002
 3.5503887E+000, 6.7767289E+000, 5.5607333E-002
 3.5603596E+000, 6.7174826E+000, 4.6555103E-002
 3.5703304E+000, 6.6033671E+000, 3.6140222E-002
 3.5803012E+000, 6.5419074E+000, 3.1112819E-002
 3.5902721E+000, 6.4677082E+000, 2.3055259E-002
 3.6002429E+000, 6.4139583E+000, 2.0253721E-002
 3.6102138E+000, 6.3955593E+000, 1.8680500E-002
 3.6201846E+000, 6.3186102E+000, 1.9269863E-003
 3.6301554E+000, 6.0779310E+000,-2.4716620E-002
 3.6402302E+000, 5.8362948E+000,-4.5617460E-002
 3.6503033E+000, 5.6847186E+000,-5.5288623E-002
 3.6602558E+000, 5.6010636E+000,-6.3756015E-002
 3.6700756E+000, 5.5352626E+000,-6.7527689E-002
 3.6802935E+000, 5.5227569E+000,-6.7118844E-002
 3.6900401E+000, 5.5153134E+000,-7.0800007E-002
 3.7006219E+000, 5.4708029E+000,-7.2957010E-002
 3.7104387E+000, 5.4993558E+000,-6.6857377E-002
 3.7202555E+000, 5.5496424E+000,-6.5849380E-002
 3.7300723E+000, 5.5444433E+000,-6.4383558E-002
 3.7402709E+000, 5.5472624E+000,-6.5880927E-002
 3.7501717E+000, 5.5452018E+000,-6.4304313E-002
 3.7604461E+000, 5.5907376E+000,-5.7303157E-002
 3.7700881E+000, 5.6737919E+000,-4.8876253E-002
 3.7801665E+000, 5.7605373E+000,-4.0694011E-002
 3.7902449E+000, 5.8173830E+000,-3.6024821E-002
 3.8003233E+000, 5.8712785E+000,-3.0036800E-002
 3.8104017E+000, 5.9290855E+000,-2.4173250E-002
 3.8204801E+000, 6.0011519E+000,-1.6062292E-002
 3.8305585E+000, 6.1004645E+000,-4.5137691E-003
 3.8406368E+000, 6.2247732E+000, 7.8442279E-003
 3.8503702E+000, 6.3130537E+000, 1.4973023E-002
 3.8606406E+000, 6.3920020E+000, 2.2360693E-002
 3.8704361E+000, 6.4672462E+000, 3.0461017E-002
 3.8802316E+000, 6.5436697E+000, 3.7119007E-002
 3.8902658E+000, 6.5971568E+000, 4.2517537E-002
 3.9002015E+000, 6.6334833E+000, 4.3112195E-002
 3.9105206E+000, 6.6463281E+000, 4.4012854E-002
 3.9202664E+000, 6.6075601E+000, 3.9241863E-002
 3.9300122E+000, 6.5752447E+000, 3.6457069E-002
 3.9403312E+000, 6.5770249E+000, 3.7748243E-002
 3.9500770E+000, 6.5254185E+000, 2.7362819E-002
 3.9603961E+000, 6.4347313E+000, 2.0594100E-002
 3.9701419E+000, 6.3679743E+000, 1.3663176E-002
 3.9801743E+000, 6.3026823E+000, 7.8025889E-003
 3.9902640E+000, 6.2603729E+000, 4.3403817E-003
 4.0003538E+000, 6.2241039E+000, 2.3334310E-003
 4.0104435E+000, 6.2369046E+000, 5.1941895E-003
 4.0205333E+000, 6.2822956E+000, 9.1547280E-003
 4.0306231E+000, 6.2611775E+000, 4.9509454E-004
 4.0400822E+000, 6.1539310E+000,-7.9369837E-003
 4.0501720E+000, 6.1212780E+000,-5.4447219E-003
 4.0602617E+000, 6.1723587E+000,-1.3058561E-003
 4.0703515E+000, 6.2002873E+000, 7.8841916E-004
 4.0804412E+000, 6.2227612E+000, 4.6089721E-003
 4.0905310E+000, 6.2800292E+000, 9.9950919E-003
 4.1006207E+000, 6.3075631E+000, 1.0986735E-002
 4.1103321E+000, 6.3141156E+000, 1.2759580E-002
 4.1204015E+000, 6.3574589E+000, 1.7436039E-002
 4.1300069E+000, 6.3659398E+000, 1.4950181E-002
 4.1402981E+000, 6.3155661E+000, 7.2024382E-003
 4.1505893E+000, 6.1959746E+000,-6.5727325E-003
