s,m/s,
Time,Ub,FORCE X
 0.0000000E+000, 2.8622937E-019,-6.2000000E-001
 5.0490499E-002, 3.6291443E-002,-6.1637086E-001
 8.5875113E-002, 1.1207353E-001,-6.0879265E-001
 1.0429209E-001, 1.7716556E-001,-6.0228344E-001
 1.1928122E-001, 2.5047990E-001,-5.9495201E-001
 1.3121732E-001, 3.2443159E-001,-5.8755684E-001
 1.4045681E-001, 3.9328346E-001,-5.8067165E-001
 1.4819480E-001, 4.6041835E-001,-5.7395816E-001
 1.5488760E-001, 5.2651198E-001,-5.6734880E-001
 1.6083194E-001, 5.9223884E-001,-5.6077612E-001
 1.6677628E-001, 6.6227901E-001,-5.5377210E-001
 1.7164411E-001, 7.2521673E-001,-5.4747833E-001
 1.7651194E-001, 7.9159640E-001,-5.4084036E-001
 1.8077872E-001, 8.5450257E-001,-5.3454974E-001
 1.8504549E-001, 9.2022659E-001,-5.2797734E-001
 1.8885900E-001, 9.8291038E-001,-5.2170896E-001
 1.9267252E-001, 1.0478298E+000,-5.1521702E-001
 1.9648603E-001, 1.1147932E+000,-5.0852068E-001
 1.9973494E-001, 1.1747803E+000,-5.0252197E-001
 2.0298385E-001, 1.2363818E+000,-4.9636182E-001
 2.0623276E-001, 1.2995042E+000,-4.9004958E-001
 2.1190315E-001, 1.3863625E+000,-4.7842520E-001
 2.2228212E-001, 1.5569512E+000,-4.5556724E-001
 2.3156755E-001, 1.7812289E+000,-4.3347410E-001
 2.4173155E-001, 2.0185999E+000,-4.0770334E-001
 2.5097124E-001, 2.2696820E+000,-3.8311598E-001
 2.6097838E-001, 2.5285473E+000,-3.5560338E-001
 2.7024482E-001, 2.7948512E+000,-3.2973202E-001
 2.8003183E-001, 3.0595529E+000,-3.0232252E-001
 2.9018637E-001, 3.3353478E+000,-2.7418438E-001
 3.0079966E-001, 3.6179959E+000,-2.4552958E-001
 3.1051700E-001, 3.8862579E+000,-2.2017087E-001
 3.2046953E-001, 4.1382970E+000,-1.9478771E-001
 3.3021749E-001, 4.3892402E+000,-1.6977410E-001
 3.4004007E-001, 4.6450036E+000,-1.4331637E-001
 3.5012053E-001, 4.9308530E+000,-1.1191105E-001
 3.6013320E-001, 5.2933938E+000,-7.0525603E-002
 3.7019862E-001, 5.7807691E+000,-1.5271941E-002
 3.8051086E-001, 6.3802140E+000, 4.7269572E-002
 3.9010413E-001, 6.9567166E+000, 9.8579066E-002
 4.0023868E-001, 7.3966980E+000, 1.3670523E-001
 4.1036521E-001, 7.6572475E+000, 1.4825942E-001
 4.2028938E-001, 7.6705723E+000, 1.4614903E-001
 4.3021355E-001, 7.6654796E+000, 1.4620683E-001
 4.4013773E-001, 7.6674588E+000, 1.4822561E-001
 4.5006190E-001, 7.7424737E+000, 1.6230306E-001
 4.6043717E-001, 7.9190522E+000, 1.8109707E-001
 4.7045156E-001, 8.1173559E+000, 2.0113677E-001
 4.8037573E-001, 8.1234703E+000, 1.7374833E-001
 4.9046257E-001, 7.7024372E+000, 1.2544619E-001
 5.0038879E-001, 7.1728391E+000, 7.4150927E-002
 5.1031500E-001, 6.7929981E+000, 4.8052411E-002
 5.2024122E-001, 6.5898284E+000, 3.0859846E-002
 5.3012017E-001, 6.4449236E+000, 2.0786499E-002
 5.4051906E-001, 6.4331862E+000, 2.6170998E-002
 5.5039801E-001, 6.3620168E+000,-1.2349076E-003
 5.6027695E-001, 5.9401961E+000,-5.0419464E-002
 5.7025989E-001, 5.4787426E+000,-8.8102905E-002
 5.8055479E-001, 5.2211641E+000,-1.0276366E-001
 5.9044934E-001, 5.1820216E+000,-9.9794440E-002
 6.0051547E-001, 5.1525641E+000,-1.1322839E-001
 6.1058159E-001, 4.9793864E+000,-1.2552377E-001
 6.2001859E-001, 4.9491457E+000,-1.2433473E-001
 6.3008472E-001, 5.0155148E+000,-1.1139583E-001
 6.4015084E-001, 5.1165824E+000,-1.0921162E-001
 6.5021697E-001, 5.0455711E+000,-1.2105313E-001
 6.6028310E-001, 4.9063916E+000,-1.3587743E-001
 6.7028631E-001, 4.8330793E+000,-1.3575830E-001
 6.8066701E-001, 4.8486686E+000,-1.3612883E-001
 6.9038100E-001, 4.8130782E+000,-1.4095587E-001
 7.0057748E-001, 4.7577549E+000,-1.4603050E-001
 7.1009420E-001, 4.7783048E+000,-1.3598153E-001
 7.2029068E-001, 4.9655516E+000,-1.1242673E-001
 7.3048716E-001, 5.2000853E+000,-8.7704022E-002
 7.4000387E-001, 5.5028023E+000,-5.2493568E-002
 7.5020035E-001, 5.9090119E+000,-8.9998348E-003
 7.6011850E-001, 6.2879134E+000, 2.0919277E-002
 7.7049160E-001, 6.5346011E+000, 4.5415965E-002
 7.8025452E-001, 6.7629689E+000, 6.4537154E-002
 7.9029715E-001, 6.8799864E+000, 6.6810983E-002
 8.0007102E-001, 6.8458811E+000, 6.4778532E-002
 8.1038789E-001, 6.9070385E+000, 7.6513765E-002
 8.2016177E-001, 7.0394600E+000, 9.1648044E-002
 8.3047863E-001, 7.2565721E+000, 1.1952353E-001
 8.4025251E-001, 7.5422857E+000, 1.4687210E-001
 8.5043387E-001, 7.7863683E+000, 1.6503569E-001
 8.6041392E-001, 7.6922230E+000, 1.2519339E-001
 8.7039397E-001, 7.1853199E+000, 7.7147047E-002
 8.8037402E-001, 6.8304133E+000, 5.2469738E-002
 8.9035406E-001, 6.6345721E+000, 3.6575500E-002
 9.0023906E-001, 6.5614513E+000, 4.0421721E-002
 9.1017159E-001, 6.6818605E+000, 5.1188935E-002
 9.2010411E-001, 6.6668629E+000, 3.9951779E-002
 9.3003664E-001, 6.4906898E+000, 1.6230489E-002
 9.4049192E-001, 6.1628590E+000,-2.1973576E-002
 9.5042445E-001, 5.8114560E+000,-5.1523468E-002
 9.6056608E-001, 5.6166951E+000,-6.2700457E-002
 9.7034177E-001, 5.5062982E+000,-7.6459319E-002
 9.8011747E-001, 5.3869824E+000,-8.3109316E-002
 9.9046820E-001, 5.4081644E+000,-7.3881546E-002
 1.0005889E+000, 5.4910254E+000,-6.8928307E-002
 1.0100771E+000, 5.5070901E+000,-7.0447633E-002
 1.0201978E+000, 5.4910566E+000,-7.2947775E-002
 1.0303971E+000, 5.4894068E+000,-6.6830041E-002
 1.0405267E+000, 5.5553589E+000,-6.4288374E-002
 1.0505436E+000, 5.5500799E+000,-6.6347191E-002
 1.0604481E+000, 5.5283809E+000,-6.6678651E-002
 1.0703525E+000, 5.5526884E+000,-6.2411570E-002
 1.0802569E+000, 5.6306745E+000,-5.0302745E-002
 1.0901614E+000, 5.8102523E+000,-2.7785944E-002
 1.1000658E+000, 6.0343695E+000,-7.9694452E-003
 1.1105892E+000, 6.2438017E+000, 1.5709858E-002
 1.1204937E+000, 6.4776032E+000, 3.7886584E-002
 1.1303981E+000, 6.7022579E+000, 5.9555575E-002
 1.1402784E+000, 6.8709173E+000, 7.2931919E-002
 1.1502632E+000, 6.9540136E+000, 7.5815082E-002
 1.1602480E+000, 6.9882535E+000, 8.1403920E-002
 1.1702328E+000, 7.0284173E+000, 8.3300537E-002
 1.1801585E+000, 7.0384789E+000, 8.5244580E-002
 1.1900714E+000, 7.0784000E+000, 9.0210835E-002
 1.2001331E+000, 7.0839064E+000, 8.2216477E-002
 1.2104922E+000, 6.8909666E+000, 5.5914421E-002
 1.2203060E+000, 6.5965597E+000, 2.6767162E-002
 1.2301198E+000, 6.3843679E+000, 1.0401675E-002
 1.2404789E+000, 6.1914020E+000,-1.0179299E-002
 1.2502927E+000, 5.9926275E+000,-3.2055708E-002
 1.2601065E+000, 5.7803367E+000,-4.7453558E-002
 1.2700294E+000, 5.6986690E+000,-5.2682209E-002
 1.2802249E+000, 5.6720113E+000,-5.2663213E-002
 1.2901219E+000, 5.6571123E+000,-5.5090271E-002
 1.3000073E+000, 5.6340916E+000,-5.6670813E-002
 1.3105105E+000, 5.6575900E+000,-5.3115260E-002
 1.3203958E+000, 5.6302723E+000,-6.3475515E-002
 1.3302812E+000, 5.4570368E+000,-8.2864961E-002
 1.3401666E+000, 5.3452912E+000,-8.5116682E-002
 1.3500520E+000, 5.3830452E+000,-7.7781144E-002
 1.3605552E+000, 5.4665921E+000,-6.6759938E-002
 1.3704405E+000, 5.6499059E+000,-4.2353177E-002
 1.3803259E+000, 5.9738716E+000,-4.8493349E-003
 1.3902113E+000, 6.3347103E+000, 2.9107639E-002
 1.4002385E+000, 6.6001074E+000, 4.3968836E-002
 1.4101358E+000, 6.6015605E+000, 3.5371671E-002
 1.4200330E+000, 6.4880465E+000, 2.3272654E-002
 1.4304801E+000, 6.4030154E+000, 2.0161992E-002
 1.4403773E+000, 6.3739405E+000, 1.3914250E-002
 1.4502745E+000, 6.3267008E+000, 1.3974238E-002
 1.4600549E+000, 6.4189911E+000, 3.1236237E-002
 1.4703750E+000, 6.5893839E+000, 4.3593427E-002
 1.4801053E+000, 6.7149454E+000, 5.7079470E-002
 1.4903763E+000, 6.7376056E+000, 4.7716759E-002
 1.5001066E+000, 6.6059257E+000, 3.6242972E-002
 1.5103775E+000, 6.5420392E+000, 3.0977778E-002
 1.5201079E+000, 6.4597176E+000, 2.2858073E-002
 1.5303788E+000, 6.3855193E+000, 1.6099852E-002
 1.5401092E+000, 6.4006539E+000, 2.3646257E-002
 1.5503801E+000, 6.4435171E+000, 2.5329844E-002
 1.5601105E+000, 6.4751601E+000, 2.8042859E-002
 1.5703814E+000, 6.4358279E+000, 1.7130297E-002
 1.5801117E+000, 6.2528374E+000,-6.1320209E-003
 1.5901124E+000, 5.9946387E+000,-3.0276240E-002
 1.6004206E+000, 5.7858602E+000,-5.4544986E-002
 1.6103301E+000, 5.4790195E+000,-8.8250142E-002
 1.6202929E+000, 5.1866939E+000,-1.0934513E-001
 1.6302557E+000, 5.0454488E+000,-1.1758673E-001
 1.6403942E+000, 5.0351712E+000,-1.1727198E-001
 1.6504539E+000, 5.0419669E+000,-1.1188969E-001
 1.6606047E+000, 5.1769174E+000,-9.2011552E-002
 1.6701212E+000, 5.3816099E+000,-7.3749677E-002
 1.6802721E+000, 5.5738283E+000,-5.2239890E-002
 1.6904230E+000, 5.7919616E+000,-3.0417753E-002
 1.7005739E+000, 5.9889248E+000,-1.2806008E-002
 1.7100903E+000, 6.1908930E+000, 1.0460347E-002
 1.7202412E+000, 6.4646755E+000, 4.0231514E-002
 1.7303921E+000, 6.6991152E+000, 5.5301011E-002
 1.7401872E+000, 6.8074724E+000, 6.6013570E-002
 1.7503260E+000, 6.9279213E+000, 7.9025943E-002
 1.7604649E+000, 7.0243873E+000, 8.2957974E-002
 1.7700405E+000, 7.0245877E+000, 8.3236773E-002
 1.7800646E+000, 7.0611920E+000, 8.9578134E-002
 1.7901830E+000, 7.1713007E+000, 1.0295037E-001
 1.8003013E+000, 7.2091007E+000, 9.5967349E-002
 1.8104196E+000, 7.1274094E+000, 9.0663816E-002
 1.8200319E+000, 7.0433917E+000, 7.6754453E-002
 1.8301503E+000, 6.9108067E+000, 6.7651337E-002
 1.8402686E+000, 6.8293670E+000, 5.6739122E-002
 1.8503869E+000, 6.7162664E+000, 4.9755128E-002
 1.8604040E+000, 6.6835319E+000, 4.6212025E-002
 1.8704211E+000, 6.5799408E+000, 2.9790695E-002
 1.8804382E+000, 6.3971527E+000, 1.1034927E-002
 1.8903504E+000, 6.2504316E+000, 1.4417294E-003
 1.9002483E+000, 6.1884479E+000,-5.7512500E-003
 1.9104742E+000, 6.0789524E+000,-1.6601863E-002
 1.9200986E+000, 6.0287778E+000,-1.7394265E-002
 1.9303246E+000, 5.9966486E+000,-2.3574330E-002
 1.9405506E+000, 5.8923572E+000,-3.7162364E-002
 1.9501750E+000, 5.7937935E+000,-4.1886052E-002
 1.9605212E+000, 5.7840646E+000,-4.0643212E-002
 1.9704464E+000, 5.8103771E+000,-3.9193009E-002
 1.9803716E+000, 5.8072307E+000,-3.7478429E-002
 1.9902968E+000, 5.8785921E+000,-2.7683464E-002
 2.0002220E+000, 5.9672670E+000,-2.0517099E-002
 2.0102015E+000, 5.9685914E+000,-2.7086896E-002
 2.0202746E+000, 5.8913442E+000,-3.2903966E-002
 2.0305316E+000, 5.8738254E+000,-3.1870252E-002
 2.0404958E+000, 5.8738417E+000,-3.3054238E-002
 2.0503172E+000, 5.8770400E+000,-3.0376255E-002
 2.0604258E+000, 5.9408416E+000,-2.0811243E-002
 2.0705345E+000, 6.0606250E+000,-8.6413834E-003
 2.0800113E+000, 6.1478325E+000,-2.8432015E-003
 2.0901199E+000, 6.1907824E+000, 2.1500472E-003
 2.1002285E+000, 6.3347689E+000, 2.5147751E-002
 2.1102681E+000, 6.5034646E+000, 2.8809019E-002
 2.1203977E+000, 6.3999390E+000, 9.8937379E-003
 2.1305274E+000, 6.2161200E+000,-2.1090182E-003
 2.1400942E+000, 6.1765029E+000,-1.1087576E-003
 2.1502239E+000, 6.1723682E+000,-4.9387240E-003
 2.1603535E+000, 6.1537386E+000,-3.4727300E-003
 2.1704831E+000, 6.1785180E+000,-2.8488676E-003
 2.1800500E+000, 6.1537828E+000,-3.3964447E-003
 2.1901796E+000, 6.1423218E+000,-1.3087135E-002
 2.2003093E+000, 5.8579395E+000,-5.2996058E-002
 2.2104389E+000, 5.5569483E+000,-7.0971372E-002
 2.2200058E+000, 5.4744823E+000,-7.1114273E-002
 2.2301354E+000, 5.5448822E+000,-6.0797766E-002
 2.2405464E+000, 5.5900661E+000,-6.2819442E-002
 2.2504509E+000, 5.5960163E+000,-5.4580052E-002
 2.2603554E+000, 5.8012781E+000,-2.5553587E-002
 2.2702600E+000, 6.0093221E+000,-1.7818162E-002
 2.2801645E+000, 5.9716867E+000,-2.9057549E-002
 2.2900690E+000, 5.8676164E+000,-3.4130883E-002
 2.3005926E+000, 5.8644691E+000,-3.3678793E-002
 2.3104971E+000, 5.8853417E+000,-2.9329537E-002
 2.3200982E+000, 5.9174117E+000,-2.7123634E-002
 2.3300547E+000, 5.9491131E+000,-2.1592191E-002
 2.3400666E+000, 6.0757823E+000,-4.4026685E-003
 2.3502862E+000, 6.2676141E+000, 1.9371189E-002
 2.3602851E+000, 6.5136779E+000, 3.7908403E-002
 2.3705025E+000, 6.5938872E+000, 3.9334104E-002
 2.3801189E+000, 6.5653858E+000, 3.4077840E-002
 2.3903363E+000, 6.5744176E+000, 4.0054970E-002
 2.4004301E+000, 6.5535257E+000, 3.0456538E-002
 2.4100628E+000, 6.4475509E+000, 2.1311550E-002
 2.4202306E+000, 6.4169721E+000, 2.2657681E-002
 2.4303984E+000, 6.4404400E+000, 2.3630091E-002
 2.4400311E+000, 6.4407702E+000, 2.6392039E-002
 2.4501990E+000, 6.5142974E+000, 3.7630836E-002
 2.4603668E+000, 6.6355353E+000, 4.3765571E-002
 2.4705346E+000, 6.6004747E+000, 3.8916871E-002
 2.4801673E+000, 6.5894707E+000, 3.7899761E-002
 2.4903351E+000, 6.5617399E+000, 3.5807195E-002
 2.5005029E+000, 6.5104686E+000, 2.3972185E-002
 2.5101356E+000, 6.3473721E+000, 7.7400389E-003
 2.5203034E+000, 6.1887071E+000,-8.1850350E-003
 2.5304713E+000, 6.0570864E+000,-1.9172764E-002
 2.5401039E+000, 5.9856631E+000,-2.1518460E-002
 2.5502718E+000, 6.0582624E+000,-6.3467161E-003
 2.5600650E+000, 6.2471114E+000, 1.1085713E-002
 2.5700723E+000, 6.3011429E+000, 1.0240337E-002
 2.5800796E+000, 6.2942302E+000, 9.4566751E-003
 2.5900868E+000, 6.2957489E+000, 6.3662792E-003
 2.6000941E+000, 6.1689523E+000,-1.1522083E-002
 2.6101882E+000, 6.0227963E+000,-2.0129010E-002
 2.6201141E+000, 6.0210111E+000,-1.5921112E-002
 2.6303502E+000, 6.0588714E+000,-1.1028529E-002
 2.6400177E+000, 6.1494065E+000, 5.8353436E-004
 2.6504360E+000, 6.3079004E+000, 2.0330405E-002
 2.6604010E+000, 6.5044459E+000, 3.7456388E-002
 2.6700338E+000, 6.5566387E+000, 3.0593885E-002
 2.6803864E+000, 6.4263468E+000, 1.4356630E-002
 2.6905112E+000, 6.2973760E+000, 7.8611320E-003
 2.7003143E+000, 6.2689770E+000, 5.4031749E-003
 2.7104986E+000, 6.1917740E+000,-6.2859339E-003
 2.7200838E+000, 6.1097687E+000,-9.0806635E-003
 2.7302681E+000, 6.1529298E+000,-8.3381219E-004
 2.7404524E+000, 6.2568382E+000, 1.2543913E-002
 2.7500357E+000, 6.3970290E+000, 2.5552262E-002
 2.7603301E+000, 6.5181377E+000, 3.6749582E-002
 2.7704090E+000, 6.5982349E+000, 4.2024458E-002
 2.7804878E+000, 6.5862761E+000, 3.2653229E-002
 2.7905667E+000, 6.4211812E+000, 1.3234868E-002
 2.8000527E+000, 6.2686561E+000, 2.6615783E-003
 2.8100179E+000, 6.2012648E+000,-3.3474768E-003
 2.8203056E+000, 6.1446349E+000,-6.4892221E-003
 2.8300711E+000, 6.1632945E+000, 2.7354159E-004
 2.8404110E+000, 6.2822716E+000, 1.2744097E-002
 2.8501765E+000, 6.3259994E+000, 1.0461467E-002
 2.8605164E+000, 6.2724938E+000, 6.0340490E-003
 2.8702819E+000, 6.2198391E+000,-3.5595605E-003
 2.8800474E+000, 6.0479764E+000,-2.6206537E-002
 2.8903873E+000, 5.8214131E+000,-4.8342296E-002
 2.9001528E+000, 5.6422587E+000,-6.3347151E-002
 2.9104928E+000, 5.4446898E+000,-8.5968537E-002
 2.9202582E+000, 5.3081237E+000,-8.8612503E-002
 2.9304258E+000, 5.3566920E+000,-8.0179303E-002
 2.9405575E+000, 5.4426398E+000,-7.0326457E-002
 2.9504183E+000, 5.6021508E+000,-4.8557654E-002
 2.9602791E+000, 5.8595128E+000,-2.1724413E-002
 2.9701399E+000, 6.0624742E+000,-1.1903001E-002
 2.9800007E+000, 6.0565075E+000,-1.8804475E-002
 2.9904778E+000, 5.9373302E+000,-3.2651614E-002
 3.0003385E+000, 5.8490652E+000,-3.5614184E-002
 3.0101360E+000, 5.8387799E+000,-3.7943476E-002
 3.0201172E+000, 5.7829946E+000,-4.2931647E-002
 3.0302648E+000, 5.8086896E+000,-3.4203171E-002
 3.0405075E+000, 5.8917035E+000,-3.1565117E-002
 3.0501611E+000, 5.8539196E+000,-3.4560653E-002
 3.0603510E+000, 5.8430873E+000,-3.7051568E-002
 3.0700045E+000, 5.8336756E+000,-3.7739653E-002
 3.0801944E+000, 5.7692141E+000,-4.6471910E-002
 3.0900088E+000, 5.8000652E+000,-3.3527056E-002
 3.1000378E+000, 5.8867442E+000,-3.0499267E-002
 3.1100667E+000, 5.9639320E+000,-1.6415228E-002
 3.1200957E+000, 6.1340346E+000, 2.4711424E-003
 3.1301246E+000, 6.3493081E+000, 2.5491852E-002
 3.1401536E+000, 6.5527203E+000, 4.2631885E-002
 3.1501826E+000, 6.6872423E+000, 5.5064995E-002
 3.1602115E+000, 6.8539194E+000, 7.2993393E-002
 3.1701165E+000, 6.9901803E+000, 8.3251970E-002
 3.1801469E+000, 7.0080888E+000, 7.4640642E-002
 3.1901773E+000, 6.9106714E+000, 7.1201061E-002
 3.2002077E+000, 6.9681649E+000, 7.8344691E-002
 3.2102381E+000, 6.9357578E+000, 7.2870649E-002
 3.2202685E+000, 7.0032806E+000, 8.8506514E-002
 3.2302989E+000, 7.1734907E+000, 1.0484978E-001
 3.2403293E+000, 7.3088316E+000, 1.1421053E-001
 3.2503597E+000, 7.3169285E+000, 1.0406058E-001
 3.2603901E+000, 7.1045825E+000, 8.0335399E-002
 3.2704205E+000, 6.9282238E+000, 6.5326594E-002
 3.2804509E+000, 6.7750748E+000, 5.1338042E-002
 3.2904813E+000, 6.6580983E+000, 4.0849762E-002
 3.3005117E+000, 6.5489631E+000, 3.1248628E-002
 3.3100142E+000, 6.5004391E+000, 2.9818719E-002
 3.3201502E+000, 6.5038568E+000, 2.9801850E-002
 3.3300223E+000, 6.4023911E+000, 8.1589561E-003
 3.3404750E+000, 6.1271853E+000,-2.1942025E-002
 3.3503138E+000, 5.8633658E+000,-4.3463806E-002
 3.3606084E+000, 5.6466059E+000,-6.6225494E-002
 3.3703496E+000, 5.4459185E+000,-8.2433924E-002
 3.3800907E+000, 5.3480225E+000,-8.5007216E-002
 3.3904407E+000, 5.3673161E+000,-8.2021013E-002
 3.4001819E+000, 5.4044656E+000,-7.6664351E-002
 3.4105318E+000, 5.4694927E+000,-6.9852012E-002
 3.4202730E+000, 5.4911162E+000,-7.2787576E-002
 3.4300750E+000, 5.4634920E+000,-7.3425531E-002
 3.4401206E+000, 5.4875716E+000,-6.9578715E-002
 3.4501560E+000, 5.5065707E+000,-6.8394074E-002
 3.4606226E+000, 5.5385364E+000,-6.3719693E-002
 3.4702705E+000, 5.6112541E+000,-5.5085731E-002
 3.4805617E+000, 5.7049771E+000,-4.3154615E-002
 3.4902096E+000, 5.8517429E+000,-2.6802007E-002
 3.5005008E+000, 6.0216693E+000,-1.0614194E-002
 3.5101487E+000, 6.1351596E+000,-3.9890562E-003
 3.5204399E+000, 6.1704508E+000,-2.1570742E-003
 3.5300878E+000, 6.1864328E+000,-1.3392917E-003
 3.5403790E+000, 6.1703321E+000,-4.7414254E-003
 3.5504340E+000, 6.1521082E+000,-2.9626785E-003
 3.5602184E+000, 6.2006506E+000, 3.0759395E-003
 3.5700029E+000, 6.3295339E+000, 2.4480949E-002
 3.5803629E+000, 6.5943475E+000, 5.2514452E-002
 3.5901474E+000, 6.8434423E+000, 7.0713814E-002
 3.6000371E+000, 6.8471706E+000, 5.7653785E-002
 3.6103727E+000, 6.6948058E+000, 4.1539636E-002
 3.6201914E+000, 6.5466069E+000, 2.8455650E-002
 3.6302686E+000, 6.4273162E+000, 1.9020730E-002
 3.6405008E+000, 6.3385158E+000, 7.9774377E-003
 3.6501645E+000, 6.3041237E+000, 1.6334654E-002
 3.6603967E+000, 6.4622750E+000, 3.6708813E-002
 3.6700604E+000, 6.6635941E+000, 5.2532791E-002
 3.6803544E+000, 6.7101078E+000, 4.4459797E-002
 3.6904570E+000, 6.5595966E+000, 2.9927890E-002
 3.7002564E+000, 6.4744495E+000, 2.5819953E-002
 3.7102580E+000, 6.4036038E+000, 1.5285093E-002
 3.7202595E+000, 6.2951412E+000, 3.9251712E-003
 3.7302610E+000, 6.2131408E+000, 9.0201345E-004
 3.7403737E+000, 6.2329498E+000, 4.7017214E-003
 3.7501530E+000, 6.2469674E+000, 5.6856685E-003
 3.7605434E+000, 6.2923761E+000, 1.2117238E-002
 3.7703227E+000, 6.3437136E+000, 1.6866316E-002
 3.7801020E+000, 6.3881447E+000, 2.0256339E-002
 3.7904925E+000, 6.3789471E+000, 1.5638817E-002
 3.8002717E+000, 6.3095477E+000, 2.0944529E-003
 3.8100510E+000, 6.1032234E+000,-1.8816581E-002
 3.8204415E+000, 5.9464225E+000,-3.0530094E-002
 3.8302208E+000, 5.8502365E+000,-3.7982045E-002
 3.8400000E+000, 5.7538730E+000,-5.0457516E-002
 3.8503905E+000, 5.5912322E+000,-6.6500927E-002
 3.8604848E+000, 5.5328455E+000,-6.7288657E-002
 3.8702660E+000, 5.5258851E+000,-6.7801932E-002
 3.8801529E+000, 5.5292870E+000,-6.5530760E-002
 3.8900399E+000, 5.5683416E+000,-6.1408360E-002
 3.9002758E+000, 5.5623848E+000,-6.7183588E-002
 3.9105117E+000, 5.4755443E+000,-7.7310592E-002
 3.9201078E+000, 5.4105797E+000,-7.7792462E-002
 3.9303596E+000, 5.4003565E+000,-8.5070392E-002
 3.9403990E+000, 5.3017057E+000,-9.1592079E-002
 3.9504385E+000, 5.3056130E+000,-8.7017291E-002
 3.9604779E+000, 5.3700553E+000,-7.8548957E-002
 3.9705173E+000, 5.4739808E+000,-6.6509727E-002
 3.9805567E+000, 5.6031535E+000,-5.4259646E-002
 3.9905293E+000, 5.7171307E+000,-4.3431430E-002
 4.0000601E+000, 5.7864738E+000,-3.7281531E-002
 4.0103757E+000, 5.8999842E+000,-2.4196070E-002
 4.0202428E+000, 6.0092036E+000,-1.5486727E-002
 4.0301099E+000, 6.0483403E+000,-1.5873212E-002
 4.0401352E+000, 6.0607707E+000,-9.3454562E-003
 4.0500565E+000, 6.2007556E+000, 8.8496862E-003
 4.0605291E+000, 6.3961021E+000, 3.0034649E-002
 4.0704505E+000, 6.6112261E+000, 5.2273684E-002
 4.0803718E+000, 6.8253305E+000, 7.1102375E-002
 4.0902932E+000, 7.0490770E+000, 9.8604106E-002
 4.1002146E+000, 7.2382334E+000, 1.0261771E-001
 4.1101257E+000, 7.1423236E+000, 8.5693082E-002
 4.1200368E+000, 6.9980599E+000, 7.7198558E-002
 4.1304435E+000, 6.9563918E+000, 7.3748240E-002
 4.1404538E+000, 6.9183690E+000, 6.9062269E-002
 4.1501307E+000, 6.9054502E+000, 7.4441209E-002
