s,m/s,
Time,Ub,FORCE X
 0.0000000E+000,-5.6920614E-021,-6.2000000E-001
 1.2622625E-002, 9.1183602E-003,-6.1908816E-001
 2.5245250E-002, 3.0304347E-002,-6.1696957E-001
 3.5786303E-002, 6.3035563E-002,-6.1369644E-001
 4.2177013E-002, 9.1918988E-002,-6.1080810E-001
 5.1483826E-002, 1.3596107E-001,-6.0472834E-001
 6.0221073E-002, 2.0797197E-001,-5.9604418E-001
 7.0464223E-002, 3.2380689E-001,-5.8124421E-001
 8.0013560E-002, 4.9578457E-001,-5.6137094E-001
 9.0500647E-002, 7.4429188E-001,-5.3084078E-001
 1.0014723E-001, 1.0872507E+000,-4.9268013E-001
 1.1038788E-001, 1.5396861E+000,-4.3977941E-001
 1.2007513E-001, 2.1196761E+000,-3.7680701E-001
 1.3008449E-001, 2.8263589E+000,-2.9811617E-001
 1.4005156E-001, 3.6586628E+000,-2.1228559E-001
 1.5010650E-001, 4.5063009E+000,-1.2818895E-001
 1.6009142E-001, 5.3474357E+000,-4.4036889E-002
 1.7005226E-001, 6.1439257E+000, 3.0450417E-002
 1.8008905E-001, 6.8064316E+000, 8.6433972E-002
 1.9004191E-001, 7.2413381E+000, 1.1763280E-001
 2.0004574E-001, 7.4770139E+000, 1.3550641E-001
 2.1006995E-001, 7.5794139E+000, 1.3571696E-001
 2.2006039E-001, 7.4230002E+000, 1.1153093E-001
 2.3006867E-001, 7.2547413E+000, 1.0429542E-001
 2.4000206E-001, 7.1943766E+000, 8.9508453E-002
 2.5008555E-001, 6.9577330E+000, 5.8792581E-002
 2.6010536E-001, 6.6628891E+000, 3.3642878E-002
 2.7002964E-001, 6.3359137E+000,-5.6882891E-003
 2.8013022E-001, 5.9419882E+000,-4.3956339E-002
 2.9012457E-001, 5.6195244E+000,-6.8900242E-002
 3.0001280E-001, 5.4549376E+000,-7.5988443E-002
 3.1004030E-001, 5.4468720E+000,-7.6404158E-002
 3.2009190E-001, 5.4134735E+000,-7.9535400E-002
 3.3006366E-001, 5.4774915E+000,-6.3429571E-002
 3.4007162E-001, 5.6406876E+000,-4.8508319E-002
 3.5011410E-001, 5.8120840E+000,-2.6684735E-002
 3.6009363E-001, 6.0067762E+000,-1.6102402E-002
 3.7005047E-001, 6.0932065E+000,-9.0734896E-004
 3.8002635E-001, 6.2926037E+000, 1.7079764E-002
 3.9001204E-001, 6.4114703E+000, 2.5273275E-002
 4.0004395E-001, 6.4548442E+000, 2.6765166E-002
 4.1010423E-001, 6.5054108E+000, 3.0244083E-002
 4.2006700E-001, 6.4486592E+000, 1.8637655E-002
 4.3011447E-001, 6.3016432E+000, 1.5788423E-003
 4.4006143E-001, 6.1984847E+000, 7.3625113E-004
 4.5004454E-001, 6.2452232E+000, 5.3652761E-003
 4.6011547E-001, 6.2579632E+000, 5.8670168E-003
 4.7000702E-001, 6.2906791E+000, 1.4297573E-002
 4.8005131E-001, 6.4069552E+000, 2.4363726E-002
 4.9001292E-001, 6.3917497E+000, 1.0443225E-002
 5.0009752E-001, 6.1973330E+000,-9.3399615E-003
 5.1006296E-001, 6.0243776E+000,-2.5167818E-002
 5.2003651E-001, 5.9752129E+000,-1.8995611E-002
 5.3009100E-001, 6.0033550E+000,-2.0670833E-002
 5.4001020E-001, 6.0049340E+000,-1.6998427E-002
 5.5003803E-001, 6.0489752E+000,-1.3107597E-002
 5.6002372E-001, 6.0840836E+000,-1.2822187E-002
 5.7007541E-001, 6.0682036E+000,-9.2134096E-003
 5.8012143E-001, 6.1711086E+000, 6.2155665E-004
 5.9000194E-001, 6.1895413E+000,-1.4425479E-003
 6.0005190E-001, 6.1840945E+000,-8.1815185E-004
 6.1009899E-001, 6.2465744E+000, 1.2046800E-002
 6.2008748E-001, 6.3214351E+000, 7.3501858E-003
 6.3003329E-001, 6.1792890E+000,-7.5177311E-003
 6.4008961E-001, 6.1787142E+000, 5.0842485E-003
 6.5003542E-001, 6.3232710E+000, 1.8449281E-002
 6.6005432E-001, 6.3763132E+000, 1.5857254E-002
 6.7006135E-001, 6.3482521E+000, 1.3123521E-002
 6.8000323E-001, 6.3145953E+000, 8.4671067E-003
 6.9002088E-001, 6.2051003E+000,-1.1142167E-002
 7.0009266E-001, 5.9727230E+000,-3.3214769E-002
 7.1004029E-001, 5.8697917E+000,-2.9844214E-002
 7.2005047E-001, 5.9646713E+000,-1.5231600E-002
 7.3007425E-001, 6.0740962E+000,-1.5124689E-002
 7.4001793E-001, 6.0843033E+000,-2.4609716E-003
 7.5005715E-001, 6.2659947E+000, 1.6695116E-002
 7.6008401E-001, 6.4291508E+000, 2.6876668E-002
 7.7008961E-001, 6.4473974E+000, 2.2024773E-002
 7.8010321E-001, 6.4079273E+000, 2.3328661E-002
 7.9001623E-001, 6.4355060E+000, 2.1842481E-002
 8.0004452E-001, 6.3949606E+000, 1.9282912E-002
 8.1001686E-001, 6.3410992E+000, 4.6230946E-003
 8.2001673E-001, 6.1677785E+000,-1.0101221E-002
 8.3005472E-001, 6.0120256E+000,-2.5333434E-002
 8.4006523E-001, 5.8998604E+000,-3.2028813E-002
 8.5009129E-001, 5.8531337E+000,-3.9772243E-002
 8.6008752E-001, 5.7624429E+000,-4.2565892E-002
 8.7002032E-001, 5.8627931E+000,-2.5681382E-002
 8.8001098E-001, 6.0778604E+000, 2.4067268E-003
 8.9006984E-001, 6.2907899E+000, 1.3757386E-002
 9.0001104E-001, 6.3370151E+000, 1.3150845E-002
 9.1012378E-001, 6.3932022E+000, 2.7078121E-002
 9.2000413E-001, 6.5095216E+000, 3.2581574E-002
 9.3004847E-001, 6.5172495E+000, 3.1900385E-002
 9.4003386E-001, 6.5077303E+000, 2.4278005E-002
 9.5007275E-001, 6.2494618E+000,-1.2687120E-002
 9.6007641E-001, 5.9299577E+000,-4.1124108E-002
 9.7003163E-001, 5.6933755E+000,-5.6074060E-002
 9.8003951E-001, 5.6564600E+000,-4.8252972E-002
 9.9006972E-001, 5.8478061E+000,-2.2155029E-002
 1.0000468E+000, 6.0698857E+000,-4.0526205E-003
 1.0100317E+000, 6.2243583E+000, 6.4743373E-003
 1.0200080E+000, 6.3047573E+000, 1.5786835E-002
 1.0300563E+000, 6.4395359E+000, 3.1152618E-002
 1.0400035E+000, 6.5487357E+000, 3.4762879E-002
 1.0500160E+000, 6.5403044E+000, 3.6364652E-002
 1.0600905E+000, 6.5991566E+000, 3.9636186E-002
 1.0700473E+000, 6.5771225E+000, 3.4039107E-002
 1.0800333E+000, 6.4179290E+000, 9.1234504E-003
 1.0900674E+000, 6.2340820E+000, 3.0833908E-003
 1.1000190E+000, 6.2134940E+000, 1.5204557E-003
 1.1100356E+000, 6.2071281E+000,-1.4854435E-003
 1.1200522E+000, 6.1673092E+000,-6.3245199E-003
 1.1300086E+000, 6.1512948E+000,-1.6107378E-003
 1.1400991E+000, 6.2064933E+000, 1.4012050E-003
 1.1500016E+000, 6.2005773E+000,-1.1035022E-003
 1.1600956E+000, 6.1353669E+000,-1.2757813E-002
 1.1701123E+000, 6.0551970E+000,-1.3894785E-002
 1.1800337E+000, 6.0921022E+000,-1.1218374E-002
 1.1900631E+000, 6.0499480E+000,-1.9561743E-002
 1.2000461E+000, 5.9724411E+000,-2.4934537E-002
 1.2100178E+000, 6.0033539E+000,-1.3509737E-002
 1.2200477E+000, 6.0945217E+000,-1.0972787E-002
 1.2300787E+000, 6.1230940E+000, 1.3762525E-004
 1.2400905E+000, 6.3286510E+000, 2.2580073E-002
 1.2500596E+000, 6.4812844E+000, 3.2864744E-002
 1.2600537E+000, 6.5435703E+000, 3.2168390E-002
 1.2700755E+000, 6.5101560E+000, 3.4017395E-002
 1.2800972E+000, 6.5826839E+000, 4.0380940E-002
 1.2900047E+000, 6.5702087E+000, 3.2600005E-002
 1.3000598E+000, 6.4123756E+000, 6.8938159E-003
 1.3101019E+000, 6.1594219E+000,-9.5400550E-003
 1.3200974E+000, 6.0339757E+000,-2.0897598E-002
 1.3300981E+000, 5.9666787E+000,-2.6665219E-002
 1.3401092E+000, 5.9264297E+000,-2.5841013E-002
 1.3500925E+000, 5.9433889E+000,-2.8642505E-002
 1.3600013E+000, 5.8645806E+000,-3.3067764E-002
 1.3701013E+000, 5.9648505E+000,-1.6291869E-002
 1.3801145E+000, 6.0521250E+000,-1.6995846E-002
 1.3900906E+000, 5.9907926E+000,-2.4487372E-002
 1.4000165E+000, 5.9734387E+000,-1.7859254E-002
 1.4100599E+000, 6.1407755E+000, 3.2416243E-003
 1.4200703E+000, 6.2096574E+000,-4.6816570E-003
 1.4300392E+000, 6.1417662E+000,-7.0085678E-003
 1.4400906E+000, 6.1513426E+000, 1.0109857E-003
 1.4500501E+000, 6.2484804E+000, 3.5619054E-003
 1.4600030E+000, 6.2511860E+000, 1.3579360E-002
 1.4700492E+000, 6.4363501E+000, 2.9379191E-002
 1.4800101E+000, 6.5284837E+000, 3.7462295E-002
 1.4900289E+000, 6.5303062E+000, 2.8704877E-002
 1.5000521E+000, 6.4706191E+000, 2.2741875E-002
 1.5100881E+000, 6.3675412E+000, 1.4169962E-002
 1.5200825E+000, 6.3355157E+000, 1.2515823E-002
 1.5300206E+000, 6.2837772E+000, 4.5447046E-003
 1.5400911E+000, 6.1520510E+000,-1.0026287E-002
 1.5501145E+000, 6.0836872E+000,-1.4166575E-002
 1.5600347E+000, 5.9714269E+000,-3.0318749E-002
 1.5700313E+000, 5.8670439E+000,-3.7701194E-002
 1.5800680E+000, 5.7456702E+000,-4.8582528E-002
 1.5901047E+000, 5.7963913E+000,-3.4441362E-002
 1.6000428E+000, 5.8891969E+000,-2.6220752E-002
 1.6100379E+000, 5.9736946E+000,-1.5809379E-002
 1.6200647E+000, 6.1706687E+000, 9.5884929E-003
 1.6301049E+000, 6.3319824E+000, 1.3657952E-002
 1.6400222E+000, 6.3527058E+000, 1.7722845E-002
 1.6500067E+000, 6.4383822E+000, 2.8213423E-002
 1.6600346E+000, 6.4370738E+000, 1.8382902E-002
 1.6700300E+000, 6.3212215E+000, 9.9823740E-004
 1.6801009E+000, 6.1039952E+000,-1.4676304E-002
 1.6900404E+000, 5.9992941E+000,-2.2906247E-002
 1.7000471E+000, 6.0446080E+000,-4.6693802E-003
 1.7100684E+000, 6.1986499E+000, 3.2075736E-003
 1.7200527E+000, 6.2307827E+000, 3.4641204E-003
 1.7300231E+000, 6.2691426E+000, 1.3198432E-002
 1.7400440E+000, 6.4146637E+000, 2.8488664E-002
 1.7500935E+000, 6.5141372E+000, 3.2375505E-002
 1.7600170E+000, 6.4597697E+000, 1.8456971E-002
 1.7701031E+000, 6.3650187E+000, 1.9877494E-002
 1.7800516E+000, 6.3987012E+000, 1.7722965E-002
 1.7900381E+000, 6.3985493E+000, 2.1333757E-002
 1.8000350E+000, 6.4362491E+000, 2.4537845E-002
 1.8100182E+000, 6.4210398E+000, 1.7284147E-002
 1.8200050E+000, 6.2884916E+000, 2.4686586E-005
 1.8300139E+000, 6.1337593E+000,-1.1829913E-002
 1.8400418E+000, 6.0609477E+000,-1.5772630E-002
 1.8500316E+000, 6.0844049E+000,-1.0344363E-002
 1.8600113E+000, 6.0332419E+000,-2.4443418E-002
 1.8700226E+000, 5.9283425E+000,-2.3440216E-002
 1.8800847E+000, 6.0012102E+000,-1.8555127E-002
 1.8900555E+000, 6.0331967E+000,-1.5587838E-002
 1.9000453E+000, 6.0446855E+000,-1.4849942E-002
 1.9100174E+000, 6.0790067E+000,-8.6633164E-003
 1.9200763E+000, 6.1423075E+000,-2.0914169E-003
 1.9300264E+000, 6.2116932E+000, 3.9832910E-003
 1.9400374E+000, 6.2294372E+000, 1.6368169E-003
 1.9500579E+000, 6.2490581E+000, 1.1145778E-002
 1.9600385E+000, 6.3019089E+000, 8.6906129E-003
 1.9700603E+000, 6.3214769E+000, 1.2512644E-002
 1.9800603E+000, 6.3079516E+000, 1.0229983E-002
 1.9900882E+000, 6.3071501E+000, 1.0004177E-002
 2.0001231E+000, 6.2753675E+000, 4.9453940E-003
 2.0100728E+000, 6.2685580E+000, 8.7437524E-003
 2.0200110E+000, 6.3044705E+000, 1.4060410E-002
 2.0300444E+000, 6.3491898E+000, 1.2146086E-002
 2.0400520E+000, 6.2512484E+000,-2.5164029E-005
 2.0500199E+000, 6.2237587E+000, 4.7675160E-003
 2.0600563E+000, 6.2003401E+000,-6.6651636E-003
 2.0701032E+000, 6.0241709E+000,-2.8320646E-002
 2.0800523E+000, 5.8438142E+000,-4.1785520E-002
 2.0900845E+000, 5.7789618E+000,-4.1501208E-002
 2.1001022E+000, 5.8565988E+000,-2.4999035E-002
 2.1100709E+000, 6.0396916E+000,-8.8144136E-003
 2.1201224E+000, 6.1827766E+000, 5.2244781E-003
 2.1300791E+000, 6.3696717E+000, 2.8196554E-002
 2.1400854E+000, 6.5221521E+000, 3.1278577E-002
 2.1500653E+000, 6.4958138E+000, 2.8999584E-002
 2.1601241E+000, 6.5078662E+000, 3.1126106E-002
 2.1700278E+000, 6.4943496E+000, 2.6107408E-002
 2.1800409E+000, 6.4047441E+000, 1.8169761E-002
 2.1900984E+000, 6.3845219E+000, 1.8207270E-002
 2.2000777E+000, 6.3621387E+000, 1.3453603E-002
 2.2100010E+000, 6.2967566E+000, 4.6729980E-003
 2.2200359E+000, 6.1579479E+000,-1.2743350E-002
 2.2300591E+000, 5.9490717E+000,-3.6189620E-002
 2.2400706E+000, 5.7821002E+000,-4.4144644E-002
 2.2500704E+000, 5.7938806E+000,-3.6291543E-002
 2.2600703E+000, 5.8768977E+000,-2.9692373E-002
 2.2700220E+000, 5.9505743E+000,-1.9303728E-002
 2.2800521E+000, 6.0688390E+000,-6.4716213E-003
 2.2900456E+000, 6.1915727E+000, 3.8718857E-003
 2.3000531E+000, 6.2932446E+000, 1.7659637E-002
 2.3100387E+000, 6.4258984E+000, 2.7233569E-002
 2.3200133E+000, 6.5085564E+000, 3.2257767E-002
 2.3300664E+000, 6.4880606E+000, 2.8371248E-002
 2.3400081E+000, 6.4279076E+000, 1.4216075E-002
 2.3500850E+000, 6.2478439E+000,-3.7440694E-003
 2.3601052E+000, 6.1332257E+000,-1.0924626E-002
 2.3700604E+000, 6.1016572E+000,-4.9491922E-003
 2.3801101E+000, 6.1961445E+000, 2.9511420E-003
 2.3900827E+000, 6.2400688E+000, 2.7494885E-004
 2.4000631E+000, 6.1513754E+000,-8.7265882E-003
 2.4101009E+000, 6.0227925E+000,-2.6862847E-002
 2.4200405E+000, 5.8645606E+000,-3.8018174E-002
 2.4300442E+000, 5.8337975E+000,-3.2168582E-002
 2.4400506E+000, 5.9681633E+000,-1.3543671E-002
 2.4500370E+000, 6.1266243E+000,-1.2064759E-003
 2.4600809E+000, 6.2577507E+000, 1.2986925E-002
 2.4700386E+000, 6.3095895E+000, 7.9940873E-003
 2.4800717E+000, 6.3058481E+000, 1.3425981E-002
 2.4900397E+000, 6.3297171E+000, 9.6422808E-003
 2.5000619E+000, 6.2825048E+000, 8.1117403E-003
 2.5100780E+000, 6.2965985E+000, 9.2011931E-003
 2.5200212E+000, 6.2836668E+000, 9.4234183E-003
 2.5301228E+000, 6.2648134E+000, 2.8539480E-003
 2.5400690E+000, 6.2442419E+000, 7.1477191E-003
 2.5500685E+000, 6.2866246E+000, 5.4274180E-003
 2.5600334E+000, 6.1866701E+000,-7.4258598E-003
 2.5701058E+000, 6.0627913E+000,-1.7922318E-002
 2.5800261E+000, 6.0229080E+000,-1.6638702E-002
 2.5900543E+000, 6.0051219E+000,-1.8123391E-002
 2.6000715E+000, 6.0806010E+000,-5.2673245E-003
 2.6100016E+000, 6.1506939E+000,-6.3219869E-003
 2.6200930E+000, 6.1330716E+000,-9.2423159E-003
 2.6300495E+000, 6.1162505E+000,-8.3998051E-003
 2.6400483E+000, 6.1014645E+000,-9.4819724E-003
 2.6500158E+000, 6.1441708E+000,-3.0310711E-003
 2.6600422E+000, 6.2022079E+000, 6.3577228E-003
 2.6700451E+000, 6.3205767E+000, 1.3190475E-002
 2.6800807E+000, 6.3625350E+000, 1.7894065E-002
 2.6900731E+000, 6.3363678E+000, 1.2845447E-002
 2.7000414E+000, 6.3007468E+000, 6.1281838E-003
 2.7100556E+000, 6.2706899E+000, 1.2330221E-002
 2.7201155E+000, 6.3735501E+000, 1.9766072E-002
 2.7300539E+000, 6.3749435E+000, 1.6082249E-002
 2.7400700E+000, 6.3268150E+000, 1.0805421E-002
 2.7500380E+000, 6.3688053E+000, 2.1959733E-002
 2.7600831E+000, 6.4281738E+000, 2.1931050E-002
 2.7700848E+000, 6.3870553E+000, 1.3635623E-002
 2.7800337E+000, 6.2826795E+000, 3.6773353E-003
 2.7900837E+000, 6.1711335E+000,-1.0522160E-002
 2.8000047E+000, 6.0681535E+000,-1.1837923E-002
 2.8100307E+000, 6.0640321E+000,-1.4090045E-002
 2.8200898E+000, 6.0701544E+000,-1.1848600E-002
 2.8300804E+000, 6.0725379E+000,-1.3786533E-002
 2.8400710E+000, 6.0489021E+000,-1.5144892E-002
 2.8500409E+000, 6.0645681E+000,-1.2469509E-002
 2.8600230E+000, 6.0967343E+000,-8.7650068E-003
 2.8700935E+000, 6.1697245E+000, 2.6064120E-003
 2.8800844E+000, 6.2209398E+000,-2.2314667E-004
 2.8900474E+000, 6.2074685E+000, 4.6203398E-003
 2.9000293E+000, 6.2862974E+000, 1.0371932E-002
 2.9100815E+000, 6.2444388E+000,-3.9213209E-003
 2.9200402E+000, 6.1083791E+000,-1.0883159E-002
 2.9300905E+000, 6.1084738E+000,-6.8562050E-003
 2.9400136E+000, 6.1304580E+000,-4.3486259E-003
 2.9500439E+000, 6.2134602E+000, 8.6427326E-003
 2.9600040E+000, 6.2913430E+000, 3.8105832E-003
 2.9700993E+000, 6.1878994E+000,-1.9387461E-003
 2.9800591E+000, 6.2222104E+000, 1.1546968E-003
 2.9900506E+000, 6.1440584E+000,-9.3973732E-003
 3.0000394E+000, 6.1452175E+000,-1.4811251E-003
 3.0100431E+000, 6.2055634E+000, 1.7462637E-003
 3.0201082E+000, 6.2321528E+000, 3.9219392E-003
 3.0300521E+000, 6.3002178E+000, 1.6847558E-002
 3.0401172E+000, 6.3763764E+000, 1.6571439E-002
 3.0500610E+000, 6.3558259E+000, 1.5745249E-002
 3.0601034E+000, 6.3589242E+000, 1.8005546E-002
 3.0701219E+000, 6.3693516E+000, 1.7600135E-002
 3.0801189E+000, 6.3964177E+000, 2.0676567E-002
 3.0900826E+000, 6.3637703E+000, 1.3386055E-002
 3.1000645E+000, 6.3202446E+000, 9.5598914E-003
 3.1100967E+000, 6.2379012E+000,-1.1645795E-003
 3.1200792E+000, 6.1617192E+000,-8.5146061E-003
 3.1300000E+000, 6.0911268E+000,-1.0067434E-002
 3.1400497E+000, 6.1445602E+000,-2.9301993E-003
 3.1500679E+000, 6.1470701E+000,-6.2909886E-003
 3.1600266E+000, 6.1159334E+000,-1.1828063E-002
 3.1700687E+000, 6.0595489E+000,-1.6152401E-002
 3.1800486E+000, 6.0081103E+000,-2.3408193E-002
 3.1900982E+000, 5.9750688E+000,-2.0677440E-002
 3.2001136E+000, 5.9860495E+000,-2.1194264E-002
 3.2100362E+000, 6.0109364E+000,-1.6716615E-002
 3.2200617E+000, 6.0125007E+000,-1.9585794E-002
 3.2300074E+000, 6.0003185E+000,-1.7229488E-002
 3.2400251E+000, 6.0812827E+000,-5.8500179E-003
 3.2500703E+000, 6.2498547E+000, 1.3538528E-002
 3.2600020E+000, 6.3508424E+000, 1.5873712E-002
 3.2701005E+000, 6.4169899E+000, 2.5927149E-002
 3.2800605E+000, 6.4737580E+000, 2.9528252E-002
 3.2900205E+000, 6.4824239E+000, 2.3374797E-002
 3.3000856E+000, 6.3648069E+000, 1.2499274E-002
 3.3100867E+000, 6.2408678E+000,-4.3627331E-003
 3.3200399E+000, 6.1039127E+000,-1.4029863E-002
 3.3300723E+000, 6.0763817E+000,-1.1212164E-002
 3.3400102E+000, 5.9919161E+000,-3.1507141E-002
 3.3500428E+000, 5.8698160E+000,-3.3662244E-002
 3.3600614E+000, 5.7994545E+000,-4.4874203E-002
 3.3700298E+000, 5.7585736E+000,-4.2766010E-002
 3.3801157E+000, 5.7966773E+000,-3.5816753E-002
 3.3900477E+000, 5.9542426E+000,-1.0428190E-002
 3.4000335E+000, 6.2194030E+000, 7.9521017E-003
 3.4100488E+000, 6.2897564E+000, 1.3187808E-002
 3.4200797E+000, 6.4132594E+000, 3.0368663E-002
 3.4300428E+000, 6.6347890E+000, 5.4291701E-002
 3.4400238E+000, 6.7381233E+000, 4.8949168E-002
 3.4500492E+000, 6.6370574E+000, 3.8876021E-002
 3.4600501E+000, 6.4907016E+000, 2.1004656E-002
 3.4700059E+000, 6.3101092E+000,-1.0478781E-003
 3.4800904E+000, 6.0970398E+000,-1.7759995E-002
 3.4901115E+000, 6.0510992E+000,-1.2308940E-002
 3.5000750E+000, 6.0457088E+000,-2.1051804E-002
 3.5100755E+000, 5.9366508E+000,-2.7633109E-002
 3.5200233E+000, 5.9369200E+000,-1.9289570E-002
 3.5300228E+000, 6.0793468E+000,-6.3060333E-003
 3.5400805E+000, 6.1915782E+000, 4.1858575E-003
 3.5500834E+000, 6.2490734E+000,-2.7715680E-004
 3.5600856E+000, 6.1512702E+000,-1.2394835E-003
 3.5700342E+000, 6.2716651E+000, 1.2401123E-002
 3.5800183E+000, 6.2716177E+000, 1.9217323E-003
 3.5900737E+000, 6.2094948E+000, 1.5375574E-003
 3.6000703E+000, 6.2180190E+000, 2.6314809E-003
 3.6100237E+000, 6.2419261E+000, 3.9320677E-004
 3.6200336E+000, 6.1109184E+000,-1.2745507E-002
 3.6300109E+000, 6.1254725E+000,-4.7186411E-003
 3.6401087E+000, 6.1865194E+000, 2.5795846E-003
 3.6500598E+000, 6.2076476E+000,-1.4118488E-004
 3.6601042E+000, 6.2564735E+000, 1.2649052E-002
 3.6701291E+000, 6.4367108E+000, 3.4778598E-002
 3.6800987E+000, 6.5623628E+000, 3.1791727E-002
 3.6900943E+000, 6.4268269E+000, 1.4550892E-002
 3.7000543E+000, 6.2847050E+000, 2.5171102E-003
 3.7100190E+000, 6.2063553E+000, 2.3651767E-004
 3.7200405E+000, 6.1738632E+000,-2.5845426E-003
 3.7300727E+000, 6.2192086E+000, 4.1329864E-003
 3.7401286E+000, 6.2268307E+000,-3.3287019E-004
 3.7500347E+000, 6.1834150E+000, 1.9765215E-003
 3.7600196E+000, 6.2514762E+000, 5.7308291E-003
 3.7700410E+000, 6.2529389E+000, 7.6059734E-003
 3.7800400E+000, 6.3020533E+000, 1.3568059E-002
 3.7900069E+000, 6.3481124E+000, 1.4382945E-002
 3.8000028E+000, 6.2696731E+000,-1.1754013E-003
 3.8100956E+000, 6.1511154E+000,-7.7923696E-003
 3.8200012E+000, 6.1050086E+000,-1.2092325E-002
 3.8300380E+000, 6.0616844E+000,-1.6158115E-002
 3.8400692E+000, 6.0445240E+000,-1.4443036E-002
 3.8500465E+000, 6.0469916E+000,-1.4743020E-002
 3.8600273E+000, 6.0666018E+000,-1.1563954E-002
 3.8700338E+000, 6.1023561E+000,-9.3361496E-003
 3.8800042E+000, 6.1158719E+000,-7.7445241E-003
 3.8900107E+000, 6.1381359E+000,-3.3382818E-003
 3.9000656E+000, 6.1714292E+000,-4.5145060E-003
 3.9101245E+000, 6.1803394E+000, 3.1503718E-003
 3.9200644E+000, 6.2673827E+000, 9.1799367E-003
 3.9301261E+000, 6.3331952E+000, 1.8609021E-002
 3.9400898E+000, 6.4255668E+000, 2.5746792E-002
 3.9500896E+000, 6.4896123E+000, 3.0204264E-002
 3.9600824E+000, 6.4926510E+000, 2.7248382E-002
 3.9700755E+000, 6.4551933E+000, 2.5877459E-002
 3.9800116E+000, 6.4105169E+000, 1.2643836E-002
 3.9900433E+000, 6.2343446E+000,-6.0183940E-003
 4.0000326E+000, 6.0285766E+000,-2.4149387E-002
 4.0100966E+000, 5.9098827E+000,-3.3998261E-002
 4.0200927E+000, 5.8564867E+000,-3.1511971E-002
 4.0300746E+000, 5.8282666E+000,-4.4856130E-002
 4.0401169E+000, 5.6983529E+000,-5.4185415E-002
 4.0500963E+000, 5.6830792E+000,-4.6900884E-002
 4.0601048E+000, 5.7698167E+000,-3.8136818E-002
 4.0700372E+000, 5.8328696E+000,-3.4598801E-002
 4.0800010E+000, 5.8935898E+000,-2.4484224E-002
 4.0900357E+000, 6.1398711E+000, 1.5642135E-002
 4.1000786E+000, 6.5560930E+000, 5.0321179E-002
 4.1100547E+000, 6.8061156E+000, 6.7527056E-002
 4.1200747E+000, 6.9127618E+000, 7.4823310E-002
 4.1300947E+000, 6.9405934E+000, 7.0935858E-002
 4.1400141E+000, 6.7751462E+000, 4.5678843E-002
 4.1500452E+000, 6.5701240E+000, 3.0044372E-002
