s,m/s,
Time,Ub,FORCE X
 0.0000000E+000, 2.8622937E-019,-6.2000000E-001
 5.0490499E-002, 3.6292921E-002,-6.1637071E-001
 8.3149591E-002, 1.0628325E-001,-6.0937167E-001
 1.0096338E-001, 1.6948867E-001,-6.0305113E-001
 1.1488004E-001, 2.3814514E-001,-5.9618549E-001
 1.2582977E-001, 3.0706189E-001,-5.8929381E-001
 1.3468822E-001, 3.7463848E-001,-5.8253615E-001
 1.4211084E-001, 4.4096626E-001,-5.7590337E-001
 1.4848709E-001, 5.0611149E-001,-5.6938885E-001
 1.5407975E-001, 5.7027914E-001,-5.6297209E-001
 1.5906643E-001, 6.3365668E-001,-5.5663433E-001
 1.6405312E-001, 7.0092766E-001,-5.4990723E-001
 1.6812010E-001, 7.6063891E-001,-5.4393611E-001
 1.7218708E-001, 8.2341056E-001,-5.3765894E-001
 1.7571092E-001, 8.8185911E-001,-5.3181409E-001
 1.7923475E-001, 9.4284182E-001,-5.2571582E-001
 1.8235717E-001, 1.0003383E+000,-5.1996617E-001
 1.8547959E-001, 1.0599693E+000,-5.1400307E-001
 1.8860201E-001, 1.1216569E+000,-5.0783431E-001
 1.9126955E-001, 1.1771245E+000,-5.0228755E-001
 2.0129022E-001, 1.3155531E+000,-4.7977229E-001
 2.1199488E-001, 1.5636140E+000,-4.5243821E-001
 2.2096604E-001, 1.8277302E+000,-4.2676044E-001
 2.3045251E-001, 2.1045266E+000,-3.9687729E-001
 2.4014535E-001, 2.4192454E+000,-3.6356543E-001
 2.5103320E-001, 2.7874607E+000,-3.2295090E-001
 2.6059219E-001, 3.1804435E+000,-2.8482338E-001
 2.7003824E-001, 3.5672119E+000,-2.4540564E-001
 2.8019766E-001, 3.9819076E+000,-2.0172580E-001
 2.9002440E-001, 4.4123002E+000,-1.5911230E-001
 3.0009856E-001, 4.8409611E+000,-1.1589835E-001
 3.1058819E-001, 5.2778812E+000,-7.1383639E-002
 3.2042222E-001, 5.7061463E+000,-3.0247561E-002
 3.3025625E-001, 6.1141302E+000, 1.0293568E-002
 3.4009029E-001, 6.5165637E+000, 5.0153202E-002
 3.5057992E-001, 6.9191542E+000, 9.0771703E-002
 3.6041395E-001, 7.3043249E+000, 1.2755073E-001
 3.7024798E-001, 7.6628976E+000, 1.6204611E-001
 3.8052948E-001, 7.9811791E+000, 1.9109516E-001
 3.9054522E-001, 8.2268556E+000, 2.1181894E-001
 4.0056096E-001, 8.3984151E+000, 2.2606199E-001
 4.1033526E-001, 8.5076194E+000, 2.3403164E-001
 4.2040208E-001, 8.5522488E+000, 2.3495593E-001
 4.3043747E-001, 8.5120093E+000, 2.2578151E-001
 4.4025432E-001, 8.3435435E+000, 2.0185453E-001
 4.5007117E-001, 8.0453835E+000, 1.6812430E-001
 4.6035549E-001, 7.6868379E+000, 1.3250033E-001
 4.7021909E-001, 7.3581804E+000, 1.0133225E-001
 4.8050341E-001, 7.0543234E+000, 7.0983902E-002
 4.9027352E-001, 6.7584524E+000, 4.2258604E-002
 5.0045499E-001, 6.4753416E+000, 1.4429769E-002
 5.1007083E-001, 6.1938173E+000,-1.4832343E-002
 5.2022251E-001, 5.9081478E+000,-3.9915992E-002
 5.3018493E-001, 5.6761832E+000,-6.3888346E-002
 5.4031345E-001, 5.4618640E+000,-8.1380980E-002
 5.5006408E-001, 5.3206113E+000,-9.3036499E-002
 5.6051119E-001, 5.2117326E+000,-1.0263107E-001
 5.7026182E-001, 5.1468877E+000,-1.0658818E-001
 5.8015175E-001, 5.1364375E+000,-1.0623930E-001
 5.9011133E-001, 5.1279641E+000,-1.0788218E-001
 6.0007091E-001, 5.1174732E+000,-1.0858655E-001
 6.1071884E-001, 5.1262585E+000,-1.0595677E-001
 6.2026681E-001, 5.1656982E+000,-1.0087377E-001
 6.3054924E-001, 5.2243381E+000,-9.4329768E-002
 6.4009721E-001, 5.3068183E+000,-8.6128515E-002
 6.5033230E-001, 5.3404549E+000,-8.5131915E-002
 6.6065633E-001, 5.3830643E+000,-7.9090446E-002
 6.7021403E-001, 5.4166711E+000,-7.6972416E-002
 6.8033860E-001, 5.4636929E+000,-6.9783849E-002
 6.9002296E-001, 5.5374165E+000,-6.3968193E-002
 7.0025560E-001, 5.5887429E+000,-5.8386657E-002
 7.1000379E-001, 5.6511499E+000,-5.1265201E-002
 7.2004442E-001, 5.7402901E+000,-4.0541579E-002
 7.3023129E-001, 5.8686427E+000,-2.6599766E-002
 7.4041815E-001, 5.9960924E+000,-1.4937397E-002
 7.5006886E-001, 6.1128184E+000,-2.8804802E-003
 7.6047018E-001, 6.2434815E+000, 9.5145530E-003
 7.7028622E-001, 6.3148029E+000, 1.1422065E-002
 7.8016023E-001, 6.3318856E+000, 1.5494330E-002
 7.9045541E-001, 6.3905633E+000, 2.2108469E-002
 8.0027511E-001, 6.4549531E+000, 2.6491364E-002
 8.1016780E-001, 6.4235744E+000, 1.6521334E-002
 8.2030029E-001, 6.3291977E+000, 1.3023582E-002
 8.3011673E-001, 6.2973358E+000, 3.8869035E-003
 8.4000924E-001, 6.2025436E+000,-3.9747054E-003
 8.5024987E-001, 6.1279898E+000,-7.1101416E-003
 8.6004238E-001, 6.1445745E+000,-6.6047292E-003
 8.7023335E-001, 6.1018598E+000,-1.1238929E-002
 8.8008156E-001, 6.0814973E+000,-1.2917376E-002
 8.9019467E-001, 6.0970155E+000,-8.2391541E-003
 9.0020925E-001, 6.1296825E+000,-6.8954854E-003
 9.1008077E-001, 6.1256324E+000,-6.2788960E-003
 9.2010012E-001, 6.1755434E+000, 7.0425664E-004
 9.3048667E-001, 6.2419439E+000, 7.3025587E-003
 9.4029619E-001, 6.3182535E+000, 1.6930246E-002
 9.5010571E-001, 6.4155885E+000, 2.4954601E-002
 9.6026144E-001, 6.5147920E+000, 3.8478410E-002
 9.7041718E-001, 6.6645961E+000, 5.3307253E-002
 9.8057292E-001, 6.7934095E+000, 6.3354361E-002
 9.9044980E-001, 6.8797082E+000, 7.1968745E-002
 1.0001681E+000, 6.9534425E+000, 7.7685848E-002
 1.0103763E+000, 7.0004116E+000, 7.9770002E-002
 1.0204820E+000, 6.9489385E+000, 7.1085396E-002
 1.0301878E+000, 6.8659985E+000, 6.1431518E-002
 1.0404849E+000, 6.7585753E+000, 5.2287385E-002
 1.0502400E+000, 6.6695459E+000, 4.3010870E-002
 1.0605371E+000, 6.6046475E+000, 4.1371968E-002
 1.0702923E+000, 6.6464006E+000, 4.4906003E-002
 1.0804218E+000, 6.5751555E+000, 2.9482689E-002
 1.0900910E+000, 6.3883186E+000, 9.0702908E-003
 1.1001745E+000, 6.2079972E+000,-5.8520511E-003
 1.1101876E+000, 6.0846809E+000,-1.7674447E-002
 1.1205078E+000, 5.9198579E+000,-3.6597723E-002
 1.1304210E+000, 5.7670563E+000,-4.6272710E-002
 1.1402116E+000, 5.7506677E+000,-4.3333400E-002
 1.1505299E+000, 5.7660015E+000,-4.3505457E-002
 1.1602033E+000, 5.7879112E+000,-3.9022440E-002
 1.1700090E+000, 5.7938551E+000,-4.3880863E-002
 1.1804140E+000, 5.7436844E+000,-4.6042147E-002
 1.1900018E+000, 5.7424319E+000,-4.6336017E-002
 1.2003350E+000, 5.6887157E+000,-5.5409488E-002
 1.2100609E+000, 5.6245017E+000,-5.8451718E-002
 1.2204933E+000, 5.6500099E+000,-5.0701979E-002
 1.2303390E+000, 5.7483401E+000,-4.0183370E-002
 1.2406059E+000, 5.8397292E+000,-3.1926099E-002
 1.2502311E+000, 5.9244621E+000,-2.4233924E-002
 1.2601883E+000, 5.9942472E+000,-1.8062485E-002
 1.2703447E+000, 6.0703378E+000,-7.0919299E-003
 1.2802755E+000, 6.1963532E+000, 5.3565386E-003
 1.2902063E+000, 6.3195242E+000, 1.6873479E-002
 1.3001371E+000, 6.4153781E+000, 2.6175345E-002
 1.3100679E+000, 6.5142140E+000, 3.5781029E-002
 1.3206193E+000, 6.6188695E+000, 4.6822327E-002
 1.3305501E+000, 6.7277676E+000, 5.7489382E-002
 1.3404809E+000, 6.8096134E+000, 6.2622261E-002
 1.3503552E+000, 6.8256920E+000, 6.2701345E-002
 1.3604746E+000, 6.8391855E+000, 6.4249237E-002
 1.3700420E+000, 6.8436281E+000, 6.4412928E-002
 1.3802074E+000, 6.8289305E+000, 6.2331848E-002
 1.3903729E+000, 6.8205866E+000, 6.2029786E-002
 1.4005383E+000, 6.8283464E+000, 6.3447278E-002
 1.4101057E+000, 6.8375866E+000, 6.3494654E-002
 1.4202711E+000, 6.7989018E+000, 5.6143878E-002
 1.4304366E+000, 6.7140065E+000, 4.7123607E-002
 1.4400040E+000, 6.6235191E+000, 3.6721506E-002
 1.4501694E+000, 6.4901548E+000, 2.2053887E-002
 1.4603348E+000, 6.3513992E+000, 1.0801807E-002
 1.4705003E+000, 6.2581970E+000, 8.8207288E-004
 1.4800677E+000, 6.1701764E+000,-5.3105078E-003
 1.4902929E+000, 6.1342761E+000,-7.5118321E-003
 1.5001594E+000, 6.1279569E+000,-6.8116866E-003
 1.5105218E+000, 6.1232878E+000,-1.0511079E-002
 1.5201687E+000, 6.0060610E+000,-2.8119221E-002
 1.5302743E+000, 5.8523268E+000,-3.9766915E-002
 1.5402106E+000, 5.7585419E+000,-4.7807954E-002
 1.5501468E+000, 5.6707301E+000,-5.6945463E-002
 1.5600830E+000, 5.6033559E+000,-6.0721971E-002
 1.5700193E+000, 5.5895334E+000,-6.0820077E-002
 1.5805765E+000, 5.6069930E+000,-5.7231962E-002
 1.5906068E+000, 5.6369022E+000,-5.6125638E-002
 1.6000875E+000, 5.6420058E+000,-5.5266839E-002
 1.6104862E+000, 5.6648441E+000,-5.1706985E-002
 1.6202906E+000, 5.7105650E+000,-4.6310750E-002
 1.6300951E+000, 5.7566462E+000,-4.2786639E-002
 1.6405074E+000, 5.7722029E+000,-4.2506005E-002
 1.6504303E+000, 5.7932271E+000,-3.8683552E-002
 1.6604180E+000, 5.8436871E+000,-3.3323438E-002
 1.6702916E+000, 5.8922256E+000,-2.8413868E-002
 1.6803363E+000, 5.9423760E+000,-2.2626169E-002
 1.6903810E+000, 6.0206875E+000,-1.3148608E-002
 1.7004258E+000, 6.1386630E+000,-1.7753005E-004
 1.7104705E+000, 6.2591735E+000, 1.0753269E-002
 1.7205153E+000, 6.3341518E+000, 1.5664148E-002
 1.7301884E+000, 6.3796116E+000, 1.9994042E-002
 1.7405932E+000, 6.4080944E+000, 2.1368370E-002
 1.7504291E+000, 6.4308574E+000, 2.6793429E-002
 1.7605369E+000, 6.4908172E+000, 3.1817305E-002
 1.7700501E+000, 6.5533158E+000, 3.7898760E-002
 1.7805146E+000, 6.6339796E+000, 4.9415375E-002
 1.7902528E+000, 6.7164299E+000, 5.3041536E-002
 1.8002506E+000, 6.7365367E+000, 5.3184873E-002
 1.8102485E+000, 6.7070823E+000, 4.7950112E-002
 1.8202669E+000, 6.6621542E+000, 4.3296199E-002
 1.8301601E+000, 6.5824978E+000, 3.4723089E-002
 1.8400533E+000, 6.5076371E+000, 2.7088889E-002
 1.8504961E+000, 6.4224513E+000, 1.8452203E-002
 1.8603301E+000, 6.3504061E+000, 1.1118571E-002
 1.8703843E+000, 6.2494295E+000,-2.0862383E-004
 1.8800952E+000, 6.1634877E+000,-6.5640417E-003
 1.8903456E+000, 6.1270693E+000,-7.6780582E-003
 1.9000565E+000, 6.1044286E+000,-1.1697035E-002
 1.9103069E+000, 6.0376652E+000,-2.1804974E-002
 1.9200178E+000, 5.9140691E+000,-3.4453478E-002
 1.9301064E+000, 5.8235164E+000,-3.9737310E-002
 1.9401990E+000, 5.7734983E+000,-4.4850455E-002
 1.9500871E+000, 5.7216650E+000,-5.0495113E-002
 1.9602407E+000, 5.6885879E+000,-5.1399049E-002
 1.9703161E+000, 5.6979829E+000,-4.7805687E-002
 1.9805805E+000, 5.7658872E+000,-3.8925564E-002
 1.9902782E+000, 5.8637783E+000,-3.0699036E-002
 2.0000751E+000, 5.9237172E+000,-2.3930990E-002
 2.0101782E+000, 6.0054474E+000,-1.5938557E-002
 2.0200941E+000, 6.0630186E+000,-1.2252967E-002
 2.0303249E+000, 6.0981701E+000,-6.9876432E-003
 2.0405557E+000, 6.1802506E+000, 2.9832434E-003
 2.0501847E+000, 6.2744768E+000, 1.1571739E-002
 2.0604155E+000, 6.3726850E+000, 2.1544282E-002
 2.0702146E+000, 6.4439595E+000, 2.5501505E-002
 2.0804702E+000, 6.4652243E+000, 2.6988282E-002
 2.0900848E+000, 6.4904701E+000, 3.1917336E-002
 2.1003404E+000, 6.5661290E+000, 3.9933093E-002
 2.1105960E+000, 6.6134221E+000, 4.1161059E-002
 2.1202597E+000, 6.5819752E+000, 3.5233740E-002
 2.1304918E+000, 6.5246355E+000, 3.1563863E-002
 2.1404966E+000, 6.5155448E+000, 3.0909079E-002
 2.1505014E+000, 6.5093027E+000, 3.1394653E-002
 2.1604242E+000, 6.4908193E+000, 2.6478367E-002
 2.1702776E+000, 6.4012905E+000, 1.4351080E-002
 2.1800185E+000, 6.2956817E+000, 4.6789665E-003
 2.1901233E+000, 6.1732685E+000,-8.7459104E-003
 2.2004891E+000, 6.0378449E+000,-2.1468640E-002
 2.2101987E+000, 5.9344212E+000,-2.9654339E-002
 2.2203562E+000, 5.8765119E+000,-3.4248973E-002
 2.2301998E+000, 5.8328327E+000,-3.9264863E-002
 2.2402945E+000, 5.8073908E+000,-3.7093452E-002
 2.2500564E+000, 5.8638088E+000,-3.1264555E-002
 2.2602291E+000, 5.9077825E+000,-2.8397210E-002
 2.2703100E+000, 5.9060584E+000,-2.8554879E-002
 2.2804909E+000, 5.9229251E+000,-2.8224792E-002
 2.2905111E+000, 5.9005734E+000,-3.0449397E-002
 2.3001535E+000, 5.9102822E+000,-2.6085471E-002
 2.3100898E+000, 5.9423551E+000,-2.7985057E-002
 2.3200621E+000, 5.8665054E+000,-3.8076225E-002
 2.3303386E+000, 5.7921755E+000,-4.2002743E-002
 2.3401127E+000, 5.7999803E+000,-3.7000563E-002
 2.3500003E+000, 5.8752337E+000,-2.9014580E-002
 2.3604373E+000, 5.9451717E+000,-2.1943441E-002
 2.3703249E+000, 6.0283761E+000,-1.2786487E-002
 2.3803224E+000, 6.1457910E+000, 2.2731626E-003
 2.3905946E+000, 6.2983347E+000, 1.4482858E-002
 2.4002625E+000, 6.3816258E+000, 2.0583489E-002
 2.4103095E+000, 6.3985501E+000, 1.8417297E-002
 2.4202768E+000, 6.3775168E+000, 1.7473577E-002
 2.4303004E+000, 6.3597861E+000, 1.5051477E-002
 2.4403504E+000, 6.3613130E+000, 1.7297261E-002
 2.4504005E+000, 6.3765341E+000, 1.7157974E-002
 2.4604506E+000, 6.3708170E+000, 1.7870097E-002
 2.4704168E+000, 6.3849941E+000, 1.8904814E-002
 2.4801055E+000, 6.3830860E+000, 1.7380740E-002
 2.4900340E+000, 6.3994064E+000, 2.3255973E-002
 2.5003908E+000, 6.4355503E+000, 2.3929449E-002
 2.5103052E+000, 6.4190620E+000, 2.1235381E-002
 2.5200260E+000, 6.4242259E+000, 2.4583496E-002
 2.5303186E+000, 6.4731017E+000, 2.7689145E-002
 2.5403244E+000, 6.4655691E+000, 2.4148833E-002
 2.5502337E+000, 6.4008023E+000, 1.7623623E-002
 2.5601383E+000, 6.3647986E+000, 1.4469540E-002
 2.5701514E+000, 6.2948618E+000, 4.3849459E-003
 2.5804702E+000, 6.2000695E+000,-2.9512426E-003
 2.5902732E+000, 6.1435062E+000,-6.7846659E-003
 2.6003198E+000, 6.1301322E+000,-8.7173863E-003
 2.6101449E+000, 6.1181246E+000,-6.4188950E-003
 2.6204166E+000, 6.1499039E+000,-5.5228090E-003
 2.6304642E+000, 6.1151264E+000,-1.0385934E-002
 2.6405119E+000, 6.0862692E+000,-1.2240873E-002
 2.6504917E+000, 6.0602806E+000,-1.6404247E-002
 2.6601307E+000, 6.0109920E+000,-2.1038768E-002
 2.6704123E+000, 5.9850610E+000,-2.1565340E-002
 2.6803378E+000, 5.9807153E+000,-2.1885810E-002
 2.6901521E+000, 5.9963822E+000,-1.8077270E-002
 2.7005438E+000, 6.0441543E+000,-1.4010116E-002
 2.7101272E+000, 6.0870041E+000,-8.5230465E-003
 2.7202880E+000, 6.1340287E+000,-4.5423288E-003
 2.7305543E+000, 6.2077914E+000, 6.1387496E-003
 2.7401277E+000, 6.3004443E+000, 1.1576798E-002
 2.7502666E+000, 6.3084139E+000, 8.8360089E-003
 2.7605913E+000, 6.2569475E+000, 4.0323250E-003
 2.7702899E+000, 6.2471185E+000, 5.9861247E-003
 2.7805947E+000, 6.2733505E+000, 8.0602811E-003
 2.7900479E+000, 6.2890408E+000, 9.6596370E-003
 2.8001864E+000, 6.3170787E+000, 1.4354492E-002
 2.8103249E+000, 6.3872718E+000, 2.3620344E-002
 2.8203042E+000, 6.4796636E+000, 2.8826977E-002
 2.8301233E+000, 6.4714536E+000, 2.6448334E-002
 2.8403558E+000, 6.4439990E+000, 2.3065306E-002
 2.8503538E+000, 6.4024779E+000, 1.7421642E-002
 2.8600922E+000, 6.3628716E+000, 1.5769093E-002
 2.8701874E+000, 6.3525469E+000, 1.5376194E-002
 2.8800583E+000, 6.3507434E+000, 1.6035354E-002
 2.8905461E+000, 6.3769577E+000, 1.7715240E-002
 2.9004170E+000, 6.3633057E+000, 1.2617489E-002
 2.9102879E+000, 6.2792112E+000, 4.8611764E-003
 2.9203709E+000, 6.2250807E+000, 1.6554084E-003
 2.9300496E+000, 6.2284381E+000, 4.2668018E-003
 2.9401650E+000, 6.2451186E+000, 4.8541952E-003
 2.9504306E+000, 6.2541584E+000, 3.9552443E-003
 2.9603036E+000, 6.2108204E+000,-3.0750029E-004
 2.9704251E+000, 6.1565256E+000,-8.6969148E-003
 2.9805899E+000, 6.0816028E+000,-1.3912594E-002
 2.9904124E+000, 6.0623261E+000,-1.3422307E-002
 3.0001562E+000, 6.0579255E+000,-1.6993484E-002
 3.0104726E+000, 5.9800842E+000,-2.6346201E-002
 3.0203078E+000, 5.9018643E+000,-3.2882092E-002
 3.0302440E+000, 5.8133320E+000,-4.3043954E-002
 3.0401750E+000, 5.7517116E+000,-4.5620756E-002
 3.0500113E+000, 5.7437473E+000,-4.5878158E-002
 3.0604152E+000, 5.7481038E+000,-4.2615337E-002
 3.0702989E+000, 5.8208682E+000,-3.4200176E-002
 3.0804427E+000, 5.9095823E+000,-2.4602664E-002
 3.0901703E+000, 5.9781927E+000,-1.9595581E-002
 3.1004701E+000, 6.0363393E+000,-1.3659741E-002
 3.1101977E+000, 6.0797341E+000,-1.0947712E-002
 3.1202581E+000, 6.1096768E+000,-8.2903720E-003
 3.1305428E+000, 6.1313876E+000,-4.1345980E-003
 3.1401590E+000, 6.2164766E+000, 5.1704180E-003
 3.1503409E+000, 6.2513838E+000, 5.6300127E-003
 3.1605228E+000, 6.2968627E+000, 1.3653431E-002
 3.1701390E+000, 6.3864407E+000, 2.3155104E-002
 3.1803209E+000, 6.4533936E+000, 2.4005839E-002
 3.1903830E+000, 6.4544761E+000, 2.7451179E-002
 3.2000961E+000, 6.4997401E+000, 3.1836180E-002
 3.2101619E+000, 6.5187331E+000, 3.1987910E-002
 3.2200759E+000, 6.5347303E+000, 3.3799314E-002
 3.2303582E+000, 6.5172424E+000, 3.0347227E-002
 3.2404284E+000, 6.4976528E+000, 2.7985477E-002
 3.2500216E+000, 6.4123575E+000, 1.5093571E-002
 3.2604654E+000, 6.2895433E+000, 6.1036368E-003
 3.2704542E+000, 6.2404935E+000, 2.2205586E-003
 3.2802938E+000, 6.2085208E+000,-7.8146795E-004
 3.2901335E+000, 6.1639957E+000,-6.4295074E-003
 3.3000279E+000, 6.1379363E+000,-4.3524905E-003
 3.3102502E+000, 6.1854187E+000, 2.6491187E-004
 3.3204725E+000, 6.2167106E+000, 4.4595200E-003
 3.3302008E+000, 6.2819876E+000, 9.3303971E-003
 3.3404525E+000, 6.2940968E+000, 9.0713426E-003
 3.3501647E+000, 6.2578349E+000, 1.5420006E-003
 3.3603597E+000, 6.1714180E+000,-5.9497536E-003
 3.3700169E+000, 6.0967548E+000,-1.2544786E-002
 3.3800024E+000, 6.0117539E+000,-2.8029459E-002
 3.3901592E+000, 5.8457759E+000,-4.0031714E-002
 3.4002613E+000, 5.7830376E+000,-4.3451597E-002
 3.4100866E+000, 5.7512862E+000,-4.6897334E-002
 3.4203003E+000, 5.7327080E+000,-4.4163579E-002
 3.4300445E+000, 5.8049371E+000,-3.5447406E-002
 3.4400017E+000, 5.8885541E+000,-2.7622314E-002
 3.4503272E+000, 5.9584203E+000,-2.0777359E-002
 3.4602087E+000, 6.0330363E+000,-1.2316363E-002
 3.4705466E+000, 6.1435221E+000, 9.0789341E-004
 3.4800919E+000, 6.2519221E+000, 9.9648601E-003
 3.4902785E+000, 6.3611250E+000, 2.0176857E-002
 3.5004626E+000, 6.4451583E+000, 2.6629523E-002
 3.5100425E+000, 6.4908918E+000, 3.0987145E-002
 3.5203111E+000, 6.5000726E+000, 2.8251051E-002
 3.5300555E+000, 6.4880028E+000, 3.0154024E-002
 3.5400127E+000, 6.5310568E+000, 3.5882436E-002
 3.5501790E+000, 6.5851007E+000, 3.9355687E-002
 3.5603390E+000, 6.5968009E+000, 3.9026472E-002
 3.5700926E+000, 6.5868684E+000, 3.8847038E-002
 3.5801510E+000, 6.5963079E+000, 4.0418392E-002
 3.5901208E+000, 6.5652703E+000, 2.8483551E-002
 3.6001417E+000, 6.3696487E+000, 8.2632819E-003
 3.6100306E+000, 6.2211889E+000,-2.1596681E-003
 3.6204032E+000, 6.1371208E+000,-1.1432342E-002
 3.6300099E+000, 6.0216335E+000,-2.2324414E-002
 3.6403402E+000, 5.9398296E+000,-2.9690916E-002
 3.6503446E+000, 5.8313802E+000,-4.3527837E-002
 3.6602867E+000, 5.7341444E+000,-4.8563650E-002
 3.6704056E+000, 5.6937603E+000,-5.1508640E-002
 3.6801612E+000, 5.6895674E+000,-5.0629321E-002
 3.6901877E+000, 5.7314580E+000,-4.3366688E-002
 3.7003227E+000, 5.7848710E+000,-3.9790772E-002
 3.7104367E+000, 5.8384369E+000,-3.1149495E-002
 3.7206013E+000, 5.9707668E+000,-1.5536906E-002
 3.7302715E+000, 6.1229703E+000,-8.3168717E-004
 3.7405460E+000, 6.3065046E+000, 2.1687010E-002
 3.7505043E+000, 6.5345229E+000, 4.2608367E-002
 3.7602449E+000, 6.6541803E+000, 4.6059531E-002
 3.7703644E+000, 6.6723949E+000, 4.8529679E-002
 3.7803571E+000, 6.6983456E+000, 5.0950637E-002
 3.7905697E+000, 6.7383340E+000, 5.6157587E-002
 3.8005163E+000, 6.7772460E+000, 5.9990570E-002
 3.8104629E+000, 6.8069559E+000, 6.0168274E-002
 3.8204096E+000, 6.8006974E+000, 6.0379083E-002
 3.8303562E+000, 6.8130537E+000, 6.1936717E-002
 3.8403028E+000, 6.8029670E+000, 6.0035864E-002
 3.8502494E+000, 6.8047689E+000, 5.9747295E-002
 3.8601961E+000, 6.7743565E+000, 5.4962627E-002
 3.8701427E+000, 6.7254028E+000, 5.0487196E-002
 3.8800893E+000, 6.6727840E+000, 4.4142649E-002
 3.8900453E+000, 6.5627335E+000, 2.8177381E-002
 3.9000012E+000, 6.3690163E+000, 6.6863645E-003
 3.9104812E+000, 6.1820890E+000,-9.0397647E-003
 3.9201751E+000, 6.0363269E+000,-2.2381713E-002
 3.9305503E+000, 5.9312498E+000,-2.9933425E-002
 3.9403999E+000, 5.8729616E+000,-3.4620986E-002
 3.9501372E+000, 5.8567353E+000,-3.4351668E-002
 3.9601592E+000, 5.8333701E+000,-3.8406194E-002
 3.9701812E+000, 5.8170175E+000,-3.9013371E-002
 3.9802033E+000, 5.8122469E+000,-3.7061039E-002
 3.9906638E+000, 5.8358818E+000,-3.5068313E-002
 4.0003100E+000, 5.8736186E+000,-3.0312331E-002
 4.0106452E+000, 5.9128662E+000,-2.7965534E-002
 4.0202914E+000, 5.9319762E+000,-2.5634269E-002
 4.0306266E+000, 5.9589763E+000,-2.3198656E-002
 4.0402728E+000, 5.9756994E+000,-2.0570221E-002
 4.0506080E+000, 6.0311406E+000,-1.3710489E-002
 4.0604669E+000, 6.0794249E+000,-1.1538233E-002
 4.0701592E+000, 6.1025669E+000,-8.1304624E-003
 4.0804573E+000, 6.1307082E+000,-5.6447732E-003
 4.0901496E+000, 6.1866732E+000, 3.0184560E-003
 4.1004477E+000, 6.2689291E+000, 7.9671896E-003
 4.1101401E+000, 6.2932170E+000, 1.1345334E-002
 4.1204382E+000, 6.3277184E+000, 1.3185677E-002
 4.1301305E+000, 6.3522759E+000, 1.7845096E-002
 4.1401158E+000, 6.3793105E+000, 1.5548949E-002
 4.1500021E+000, 6.3137468E+000, 9.3422895E-003
