s,m/s,
Time,"Ub","FORCE X"
 0.0000000E+000, 2.8622937E-019,-6.2000000E-001
 5.0490499E-002, 3.6292921E-002,-6.1637071E-001
 8.3149591E-002, 1.0628325E-001,-6.0937167E-001
 1.0096338E-001, 1.6948867E-001,-6.0305113E-001
 1.1488004E-001, 2.3814514E-001,-5.9618549E-001
 1.2582977E-001, 3.0706189E-001,-5.8929381E-001
 1.3468822E-001, 3.7463848E-001,-5.8253615E-001
 1.4211084E-001, 4.4096626E-001,-5.7590337E-001
 1.4848709E-001, 5.0611149E-001,-5.6938885E-001
 1.5407975E-001, 5.7027914E-001,-5.6297209E-001
 1.5906643E-001, 6.3365668E-001,-5.5663433E-001
 1.6405312E-001, 7.0092766E-001,-5.4990723E-001
 1.6812010E-001, 7.6063891E-001,-5.4393611E-001
 1.7218708E-001, 8.2341056E-001,-5.3765894E-001
 1.7571092E-001, 8.8185911E-001,-5.3181409E-001
 1.7923475E-001, 9.4284182E-001,-5.2571582E-001
 1.8235717E-001, 1.0003383E+000,-5.1996617E-001
 1.8547959E-001, 1.0599693E+000,-5.1400307E-001
 1.8860201E-001, 1.1216569E+000,-5.0783431E-001
 1.9126955E-001, 1.1771245E+000,-5.0228755E-001
 2.0129022E-001, 1.3155531E+000,-4.7977229E-001
 2.1199488E-001, 1.5636140E+000,-4.5243821E-001
 2.2096604E-001, 1.8277302E+000,-4.2676044E-001
 2.3045251E-001, 2.1045266E+000,-3.9687729E-001
 2.4014535E-001, 2.4192454E+000,-3.6356543E-001
 2.5103320E-001, 2.7874607E+000,-3.2295090E-001
 2.6059219E-001, 3.1804435E+000,-2.8482338E-001
 2.7003824E-001, 3.5672119E+000,-2.4540564E-001
 2.8019766E-001, 3.9819076E+000,-2.0172580E-001
 2.9002440E-001, 4.4123002E+000,-1.5911230E-001
 3.0009856E-001, 4.8409611E+000,-1.1589835E-001
 3.1058819E-001, 5.2778812E+000,-7.1383639E-002
 3.2042222E-001, 5.7061463E+000,-3.0247561E-002
 3.3025625E-001, 6.1141302E+000, 1.0293568E-002
 3.4009029E-001, 6.5165637E+000, 5.0153202E-002
 3.5057992E-001, 6.9191542E+000, 9.0771703E-002
 3.6041395E-001, 7.3043249E+000, 1.2755073E-001
 3.7024798E-001, 7.6628976E+000, 1.6204611E-001
 3.8052948E-001, 7.9811791E+000, 1.9109516E-001
 3.9054522E-001, 8.2268556E+000, 2.1181894E-001
 4.0056096E-001, 8.3984151E+000, 2.2606199E-001
 4.1033526E-001, 8.5076194E+000, 2.3403164E-001
 4.2040208E-001, 8.5522488E+000, 2.3495593E-001
 4.3043747E-001, 8.5120093E+000, 2.2578151E-001
 4.4025432E-001, 8.3435435E+000, 2.0185453E-001
 4.5007117E-001, 8.0453835E+000, 1.6812430E-001
 4.6035549E-001, 7.6868379E+000, 1.3250033E-001
 4.7021909E-001, 7.3581804E+000, 1.0133225E-001
 4.8050341E-001, 7.0543234E+000, 7.0983902E-002
 4.9027352E-001, 6.7584524E+000, 4.2258604E-002
 5.0045499E-001, 6.4753416E+000, 1.4429769E-002
 5.1007083E-001, 6.1938173E+000,-1.4832343E-002
 5.2022251E-001, 5.9081478E+000,-3.9915992E-002
 5.3018493E-001, 5.6761832E+000,-6.3888346E-002
 5.4031345E-001, 5.4618640E+000,-8.1380980E-002
 5.5006408E-001, 5.3206113E+000,-9.3036499E-002
 5.6051119E-001, 5.2117326E+000,-1.0263107E-001
 5.7026182E-001, 5.1468877E+000,-1.0658818E-001
 5.8015175E-001, 5.1364375E+000,-1.0623930E-001
 5.9011133E-001, 5.1279641E+000,-1.0788218E-001
 6.0007091E-001, 5.1174732E+000,-1.0858655E-001
 6.1071884E-001, 5.1262585E+000,-1.0595677E-001
 6.2026681E-001, 5.1656982E+000,-1.0087377E-001
 6.3054924E-001, 5.2243381E+000,-9.4329768E-002
 6.4009721E-001, 5.3068183E+000,-8.6128515E-002
 6.5033230E-001, 5.3404549E+000,-8.5131915E-002
 6.6065633E-001, 5.3830643E+000,-7.9090446E-002
 6.7021403E-001, 5.4166710E+000,-7.6972416E-002
 6.8033860E-001, 5.4636929E+000,-6.9783849E-002
 6.9002296E-001, 5.5374165E+000,-6.3968193E-002
 7.0025560E-001, 5.5887429E+000,-5.8386658E-002
 7.1000379E-001, 5.6511499E+000,-5.1265201E-002
 7.2004442E-001, 5.7402901E+000,-4.0541579E-002
 7.3023128E-001, 5.8686427E+000,-2.6599766E-002
 7.4041815E-001, 5.9960924E+000,-1.4937398E-002
 7.5006885E-001, 6.1128184E+000,-2.8804803E-003
 7.6047018E-001, 6.2434815E+000, 9.5145531E-003
 7.7028622E-001, 6.3148029E+000, 1.1422067E-002
 7.8016023E-001, 6.3318856E+000, 1.5494330E-002
 7.9045541E-001, 6.3905632E+000, 2.2108464E-002
 8.0027511E-001, 6.4549530E+000, 2.6491356E-002
 8.1016780E-001, 6.4235743E+000, 1.6521316E-002
 8.2030029E-001, 6.3291975E+000, 1.3023564E-002
 8.3011673E-001, 6.2973357E+000, 3.8868992E-003
 8.4000925E-001, 6.2025434E+000,-3.9747563E-003
 8.5024987E-001, 6.1279891E+000,-7.1102014E-003
 8.6004238E-001, 6.1445740E+000,-6.6047872E-003
 8.7023335E-001, 6.1018588E+000,-1.1239075E-002
 8.8008157E-001, 6.0814960E+000,-1.2917494E-002
 8.9019473E-001, 6.0970145E+000,-8.2392386E-003
 9.0020935E-001, 6.1296806E+000,-6.8958220E-003
 9.1008091E-001, 6.1256274E+000,-6.2794267E-003
 9.2010030E-001, 6.1755364E+000, 7.0350635E-004
 9.3048689E-001, 6.2419370E+000, 7.3018649E-003
 9.4029646E-001, 6.3182501E+000, 1.6929695E-002
 9.5010602E-001, 6.4155815E+000, 2.4953444E-002
 9.6026180E-001, 6.5147792E+000, 3.8477285E-002
 9.7041758E-001, 6.6645936E+000, 5.3307711E-002
 9.8057336E-001, 6.7934125E+000, 6.3355121E-002
 9.9045029E-001, 6.8797128E+000, 7.1968823E-002
 1.0001687E+000, 6.9534132E+000, 7.7679972E-002
 1.0103766E+000, 7.0003301E+000, 7.9757740E-002
 1.0204807E+000, 6.9487861E+000, 7.1072350E-002
 1.0301840E+000, 6.8660359E+000, 6.1450067E-002
 1.0404782E+000, 6.7586666E+000, 5.2283934E-002
 1.0502307E+000, 6.6694738E+000, 4.3008794E-002
 1.0605250E+000, 6.6046194E+000, 4.1355544E-002
 1.0702774E+000, 6.6460779E+000, 4.4845255E-002
 1.0803938E+000, 6.5739861E+000, 2.9283909E-002
 1.0900503E+000, 6.3857947E+000, 8.8037804E-003
 1.1000746E+000, 6.2064160E+000,-5.8421617E-003
 1.1100564E+000, 6.0851637E+000,-1.7535845E-002
 1.1204450E+000, 5.9197534E+000,-3.6769707E-002
 1.1305663E+000, 5.7638399E+000,-4.6600192E-002
 1.1403830E+000, 5.7480584E+000,-4.3717493E-002
 1.1500048E+000, 5.7587097E+000,-4.4686411E-002
 1.1601218E+000, 5.7722667E+000,-4.0604313E-002
 1.1704446E+000, 5.7821352E+000,-4.4613292E-002
 1.1804901E+000, 5.7404795E+000,-4.6197108E-002
 1.1905357E+000, 5.7536029E+000,-4.2337848E-002
 1.2000231E+000, 5.7745363E+000,-4.3380668E-002
 1.2104593E+000, 5.7601196E+000,-4.3993146E-002
 1.2200974E+000, 5.7925683E+000,-3.6563428E-002
 1.2302266E+000, 5.9022464E+000,-2.3646684E-002
 1.2401357E+000, 6.0111439E+000,-1.5606778E-002
 1.2503677E+000, 6.0607340E+000,-1.1466903E-002
 1.2605998E+000, 6.1368550E+000,-1.7695406E-003
 1.2705309E+000, 6.2251352E+000, 6.7934442E-003
 1.2804620E+000, 6.3117540E+000, 1.5059907E-002
 1.2903931E+000, 6.4049156E+000, 2.4610179E-002
 1.3004987E+000, 6.4686563E+000, 2.8273062E-002
 1.3103579E+000, 6.4899262E+000, 3.0196812E-002
 1.3202171E+000, 6.5222309E+000, 3.4177534E-002
 1.3300763E+000, 6.5530395E+000, 3.6515870E-002
 1.3405154E+000, 6.5899136E+000, 4.1567850E-002
 1.3501144E+000, 6.6338757E+000, 4.3594931E-002
 1.3604145E+000, 6.6336104E+000, 4.2867528E-002
 1.3700316E+000, 6.6234039E+000, 4.1217535E-002
 1.3802144E+000, 6.5782010E+000, 3.5166965E-002
 1.3903972E+000, 6.5189641E+000, 2.7448982E-002
 1.4003814E+000, 6.4330179E+000, 2.0902382E-002
 1.4104831E+000, 6.3833801E+000, 1.5862456E-002
 1.4203050E+000, 6.3279017E+000, 9.7600827E-003
 1.4304543E+000, 6.2554891E+000, 2.4448141E-003
 1.4400580E+000, 6.2139243E+000, 8.2702758E-004
 1.4505032E+000, 6.1780545E+000,-6.6396554E-003
 1.4600151E+000, 6.0574143E+000,-2.1400574E-002
 1.4700365E+000, 5.9363450E+000,-3.0830816E-002
 1.4803179E+000, 5.8403268E+000,-3.9365301E-002
 1.4901880E+000, 5.8008122E+000,-4.0286798E-002
 1.5003666E+000, 5.7901553E+000,-4.2932295E-002
 1.5105452E+000, 5.7540369E+000,-4.5332267E-002
 1.5201583E+000, 5.7406839E+000,-4.6140972E-002
 1.5303347E+000, 5.7351841E+000,-4.6753962E-002
 1.5404086E+000, 5.6941998E+000,-5.3894358E-002
 1.5503199E+000, 5.6431887E+000,-5.6647388E-002
 1.5602442E+000, 5.6331688E+000,-5.6507537E-002
 1.5703647E+000, 5.6357249E+000,-5.5496362E-002
 1.5802333E+000, 5.6758573E+000,-4.8319854E-002
 1.5903936E+000, 5.7493656E+000,-4.2785836E-002
 1.6000192E+000, 5.8203942E+000,-3.3623472E-002
 1.6101795E+000, 5.9134996E+000,-2.4982732E-002
 1.6203398E+000, 5.9859685E+000,-1.7154482E-002
 1.6305001E+000, 6.0701649E+000,-9.2927810E-003
 1.6401256E+000, 6.1493846E+000,-1.6989652E-003
 1.6502859E+000, 6.2240583E+000, 6.4244660E-003
 1.6605531E+000, 6.3246849E+000, 1.8118698E-002
 1.6701210E+000, 6.4300994E+000, 2.7214488E-002
 1.6805460E+000, 6.5338561E+000, 3.9176607E-002
 1.6903919E+000, 6.6709006E+000, 5.3218928E-002
 1.7003286E+000, 6.7628822E+000, 5.9176954E-002
 1.7101398E+000, 6.7975375E+000, 5.8450583E-002
 1.7204957E+000, 6.7536505E+000, 5.2392422E-002
 1.7301832E+000, 6.6722554E+000, 4.3201142E-002
 1.7403806E+000, 6.5948101E+000, 3.6534548E-002
 1.7500680E+000, 6.5177176E+000, 2.6373524E-002
 1.7604156E+000, 6.4267152E+000, 2.0856518E-002
 1.7704006E+000, 6.3656545E+000, 1.2910529E-002
 1.7800352E+000, 6.2980024E+000, 6.8812782E-003
 1.7900071E+000, 6.2399187E+000, 7.4626280E-004
 1.8000753E+000, 6.1867325E+000,-2.8873267E-003
 1.8101435E+000, 6.1731552E+000,-2.6536544E-003
 1.8202117E+000, 6.1671870E+000,-5.0820123E-003
 1.8300679E+000, 6.1020613E+000,-1.2868368E-002
 1.8401899E+000, 6.0713663E+000,-1.2250271E-002
 1.8503693E+000, 6.0630987E+000,-1.4738812E-002
 1.8600814E+000, 6.0634519E+000,-1.1687788E-002
 1.8703121E+000, 6.0535598E+000,-2.2468938E-002
 1.8801951E+000, 5.8743652E+000,-4.0736981E-002
 1.8904051E+000, 5.7156524E+000,-5.3648604E-002
 1.9000568E+000, 5.6393996E+000,-5.7324465E-002
 1.9102789E+000, 5.6421638E+000,-5.1323854E-002
 1.9204132E+000, 5.7359409E+000,-4.3234145E-002
 1.9300649E+000, 5.7956802E+000,-3.8223033E-002
 1.9401991E+000, 5.8570548E+000,-3.2030606E-002
 1.9500921E+000, 5.9196548E+000,-2.3538621E-002
 1.9604344E+000, 6.0159846E+000,-1.4289500E-002
 1.9703211E+000, 6.0996390E+000,-6.9489440E-003
 1.9802078E+000, 6.1611449E+000,-1.2352456E-004
 1.9904067E+000, 6.2811750E+000, 1.5875467E-002
 2.0001373E+000, 6.4301819E+000, 2.8619076E-002
 2.0105371E+000, 6.5864261E+000, 4.8266870E-002
 2.0204505E+000, 6.7782082E+000, 6.6027264E-002
 2.0304831E+000, 6.8892387E+000, 6.7984306E-002
 2.0403893E+000, 6.8387456E+000, 6.0934355E-002
 2.0505431E+000, 6.8329192E+000, 6.5191782E-002
 2.0603502E+000, 6.8726787E+000, 6.8731023E-002
 2.0701572E+000, 6.8777710E+000, 6.6736725E-002
 2.0803457E+000, 6.8601170E+000, 6.5718307E-002
 2.0903423E+000, 6.8668552E+000, 6.5646380E-002
 2.1005141E+000, 6.8136912E+000, 5.9993340E-002
 2.1101506E+000, 6.7484620E+000, 4.6879507E-002
 2.1200864E+000, 6.5970588E+000, 3.4509294E-002
 2.1303413E+000, 6.4819823E+000, 2.0268815E-002
 2.1400982E+000, 6.3187864E+000, 4.7663696E-003
 2.1504345E+000, 6.1814108E+000,-6.1413217E-003
 2.1604716E+000, 6.0893077E+000,-1.6335746E-002
 2.1700069E+000, 5.9567614E+000,-3.1320119E-002
 2.1804456E+000, 5.8620205E+000,-3.4371410E-002
 2.1900764E+000, 5.8221657E+000,-4.2377927E-002
 2.2003841E+000, 5.7499978E+000,-4.7499733E-002
 2.2104269E+000, 5.7124242E+000,-4.9024690E-002
 2.2205236E+000, 5.7010003E+000,-5.0115839E-002
 2.2303233E+000, 5.7089927E+000,-4.7717763E-002
 2.2401231E+000, 5.7449160E+000,-4.3486375E-002
 2.2501295E+000, 5.8021758E+000,-3.6211250E-002
 2.2604893E+000, 5.8548621E+000,-3.4648815E-002
 2.2704145E+000, 5.8240530E+000,-4.0168449E-002
 2.2801222E+000, 5.7955580E+000,-4.0105269E-002
 2.2903848E+000, 5.8157727E+000,-3.7295620E-002
 2.3004531E+000, 5.8539152E+000,-3.1483905E-002
 2.3102978E+000, 5.9333766E+000,-2.2622487E-002
 2.3201424E+000, 6.0249974E+000,-1.1890077E-002
 2.3303551E+000, 6.1373301E+000,-1.9469266E-003
 2.3402890E+000, 6.2343329E+000, 7.5897497E-003
 2.3502754E+000, 6.2834006E+000, 7.3450505E-003
 2.3600658E+000, 6.2446922E+000, 2.0720232E-003
 2.3701541E+000, 6.1742481E+000,-6.5936420E-003
 2.3804553E+000, 6.1343439E+000,-7.2753387E-003
 2.3904017E+000, 6.1056523E+000,-1.0406259E-002
 2.4002202E+000, 6.0996256E+000,-1.0236503E-002
 2.4100675E+000, 6.1155026E+000,-4.8193883E-003
 2.4203030E+000, 6.1912143E+000, 8.0508157E-004
 2.4301981E+000, 6.2169924E+000, 2.0812932E-003
 2.4401856E+000, 6.2478863E+000, 7.2472658E-003
 2.4503415E+000, 6.2973709E+000, 1.2043459E-002
 2.4600901E+000, 6.3462029E+000, 1.8415628E-002
 2.4705238E+000, 6.4534971E+000, 3.1407209E-002
 2.4804272E+000, 6.5529568E+000, 3.8393322E-002
 2.4900870E+000, 6.5812153E+000, 3.5871812E-002
 2.5001660E+000, 6.5135741E+000, 2.8994952E-002
 2.5104513E+000, 6.4910611E+000, 2.9774194E-002
 2.5200793E+000, 6.5055133E+000, 2.9272639E-002
 2.5304946E+000, 6.4550944E+000, 2.3969985E-002
 2.5404139E+000, 6.4320335E+000, 1.9737346E-002
 2.5502194E+000, 6.3165832E+000, 4.1188694E-003
 2.5600099E+000, 6.1950644E+000,-1.1040510E-003
 2.5701516E+000, 6.1923098E+000,-2.8729337E-003
 2.5802933E+000, 6.1197580E+000,-1.1271240E-002
 2.5900003E+000, 6.0639540E+000,-1.4363144E-002
 2.6000937E+000, 6.0492854E+000,-1.5465631E-002
 2.6102402E+000, 6.0612906E+000,-1.3032897E-002
 2.6201353E+000, 6.0380343E+000,-1.7488201E-002
 2.6300304E+000, 6.0381927E+000,-1.5754099E-002
 2.6401859E+000, 6.0346652E+000,-1.6165340E-002
 2.6504976E+000, 6.0558041E+000,-1.3078085E-002
 2.6605012E+000, 6.0729048E+000,-1.2678208E-002
 2.6701486E+000, 6.0940440E+000,-8.6936937E-003
 2.6801497E+000, 6.1582087E+000,-2.7298959E-004
 2.6901507E+000, 6.2241521E+000, 4.0643586E-003
 2.7001518E+000, 6.2561537E+000, 6.0802107E-003
 2.7100262E+000, 6.2465674E+000, 3.7457149E-003
 2.7201598E+000, 6.2334006E+000, 1.8567218E-003
 2.7301909E+000, 6.1936997E+000,-1.5791451E-003
 2.7403539E+000, 6.1891800E+000,-4.2510248E-004
 2.7502750E+000, 6.2023908E+000, 1.2666947E-003
 2.7603896E+000, 6.2206006E+000, 2.8771113E-003
 2.7702190E+000, 6.2055703E+000,-3.3266712E-003
 2.7802002E+000, 6.1302717E+000,-9.4098789E-003
 2.7901815E+000, 6.0783366E+000,-1.3647409E-002
 2.8001628E+000, 6.0824811E+000,-9.5432303E-003
 2.8103468E+000, 6.1299995E+000,-6.9275973E-003
 2.8203034E+000, 6.0924610E+000,-1.2524814E-002
 2.8302683E+000, 6.0951251E+000,-7.6018857E-003
 2.8400339E+000, 6.1653145E+000, 1.3417974E-004
 2.8504384E+000, 6.2133992E+000, 1.6080905E-003
 2.8601874E+000, 6.2320159E+000, 5.3332762E-003
 2.8703698E+000, 6.2862984E+000, 1.1414735E-002
 2.8803234E+000, 6.3433318E+000, 1.7149348E-002
 2.8900006E+000, 6.3773058E+000, 1.8208743E-002
 2.9000180E+000, 6.3837175E+000, 1.8001151E-002
 2.9104415E+000, 6.3778697E+000, 1.8829078E-002
 2.9200980E+000, 6.4201748E+000, 2.4586815E-002
 2.9301837E+000, 6.4735533E+000, 3.0606767E-002
 2.9400209E+000, 6.4610362E+000, 1.8543996E-002
 2.9500923E+000, 6.3421883E+000, 9.6459427E-003
 2.9602964E+000, 6.2348054E+000, 3.5847558E-005
 2.9703935E+000, 6.2049460E+000, 1.0382435E-003
 2.9802478E+000, 6.1587643E+000,-1.1345708E-002
 2.9900073E+000, 6.0045451E+000,-2.5728879E-002
 3.0004796E+000, 5.9294901E+000,-2.6433319E-002
 3.0102349E+000, 5.9555582E+000,-2.2478043E-002
 3.0200928E+000, 6.0076254E+000,-1.6591128E-002
 3.0303275E+000, 6.0670151E+000,-1.2050460E-002
 3.0400658E+000, 6.1073264E+000,-5.1148496E-003
 3.0501416E+000, 6.1804070E+000, 4.1933227E-004
 3.0601403E+000, 6.2035116E+000,-3.4381196E-004
 3.0703780E+000, 6.1992041E+000, 1.7769416E-003
 3.0804583E+000, 6.2292629E+000, 4.4046113E-003
 3.0905385E+000, 6.2697073E+000, 7.8111865E-003
 3.1004887E+000, 6.2761711E+000, 8.2743452E-003
 3.1105365E+000, 6.2952234E+000, 1.0219098E-002
 3.1203368E+000, 6.2835880E+000, 6.4329483E-003
 3.1301370E+000, 6.2557583E+000, 5.5884650E-003
 3.1404818E+000, 6.2671023E+000, 8.2582112E-003
 3.1504042E+000, 6.3079779E+000, 1.2877533E-002
 3.1602556E+000, 6.3410017E+000, 1.5294864E-002
 3.1702134E+000, 6.3853309E+000, 2.0420849E-002
 3.1801713E+000, 6.4219313E+000, 2.4033546E-002
 3.1901292E+000, 6.4723556E+000, 3.0854255E-002
 3.2000870E+000, 6.5544224E+000, 3.9391797E-002
 3.2100449E+000, 6.6313274E+000, 4.4194101E-002
 3.2200028E+000, 6.6179628E+000, 4.0624471E-002
 3.2301589E+000, 6.6046199E+000, 3.9534742E-002
 3.2404765E+000, 6.5647926E+000, 3.2824426E-002
 3.2505400E+000, 6.4894651E+000, 2.7099783E-002
 3.2600445E+000, 6.4442234E+000, 1.9633419E-002
 3.2701080E+000, 6.3382650E+000, 9.7402604E-003
 3.2800262E+000, 6.2505340E+000,-1.3858261E-005
 3.2904556E+000, 6.1217635E+000,-1.7578960E-002
 3.3004689E+000, 5.9469642E+000,-3.0443412E-002
 3.3102955E+000, 5.8380829E+000,-3.9582667E-002
 3.3204790E+000, 5.7926595E+000,-4.0211621E-002
 3.3304919E+000, 5.8455606E+000,-3.0158229E-002
 3.3405047E+000, 5.9400370E+000,-2.3073395E-002
 3.3505176E+000, 5.9859644E+000,-2.0889043E-002
 3.3605304E+000, 5.9951597E+000,-1.9978475E-002
 3.3705432E+000, 6.0190121E+000,-1.5618509E-002
 3.3805561E+000, 6.0963907E+000,-4.8807019E-003
 3.3901021E+000, 6.1981678E+000, 2.8896611E-003
 3.4005506E+000, 6.2509114E+000, 7.9454688E-003
 3.4101721E+000, 6.3055291E+000, 1.1813957E-002
 3.4202979E+000, 6.3147952E+000, 1.0416644E-002
 3.4303718E+000, 6.2865552E+000, 7.9001037E-003
 3.4403449E+000, 6.2760666E+000, 7.6923498E-003
 3.4500411E+000, 6.2949655E+000, 1.0866441E-002
 3.4604020E+000, 6.3082166E+000, 1.0738821E-002
 3.4701535E+000, 6.2961160E+000, 8.6230623E-003
 3.4801618E+000, 6.2742973E+000, 6.4138582E-003
 3.4904013E+000, 6.2363083E+000, 7.8381419E-004
 3.5002636E+000, 6.2129299E+000, 2.8870874E-003
 3.5103415E+000, 6.2338448E+000, 2.7987828E-003
 3.5201958E+000, 6.1839952E+000,-6.6950355E-003
 3.5301796E+000, 6.0825029E+000,-1.5523990E-002
 3.5401343E+000, 6.0194089E+000,-1.8099593E-002
 3.5503845E+000, 6.0237908E+000,-1.8367217E-002
 3.5604758E+000, 5.9755907E+000,-2.4904644E-002
 3.5704805E+000, 5.9227975E+000,-2.8427515E-002
 3.5802474E+000, 5.9283585E+000,-2.7301183E-002
 3.5902286E+000, 5.9081006E+000,-3.0442799E-002
 3.6000008E+000, 5.8951037E+000,-3.0771958E-002
 3.6103478E+000, 5.8997117E+000,-2.7473379E-002
 3.6202350E+000, 5.9646601E+000,-2.0295546E-002
 3.6303521E+000, 6.0549484E+000,-9.3977493E-003
 3.6404692E+000, 6.1638993E+000, 2.7178141E-003
 3.6505863E+000, 6.3076595E+000, 1.8692642E-002
 3.6605178E+000, 6.4579104E+000, 3.0928933E-002
 3.6700033E+000, 6.5444069E+000, 3.5654116E-002
 3.6801583E+000, 6.5711768E+000, 3.9940104E-002
 3.6902014E+000, 6.6216324E+000, 4.2766756E-002
 3.7003509E+000, 6.6542287E+000, 4.7149875E-002
 3.7100066E+000, 6.6682283E+000, 4.6016758E-002
 3.7202657E+000, 6.6483914E+000, 4.4093018E-002
 3.7305249E+000, 6.6706011E+000, 4.9907106E-002
 3.7401806E+000, 6.7104194E+000, 5.0780823E-002
 3.7504398E+000, 6.7086655E+000, 5.2143860E-002
 3.7600955E+000, 6.7077246E+000, 4.9192429E-002
 3.7705038E+000, 6.6858900E+000, 4.8996033E-002
 3.7805711E+000, 6.6954697E+000, 4.8084424E-002
 3.7900369E+000, 6.6461735E+000, 4.1385605E-002
 3.8001509E+000, 6.5688556E+000, 3.2414778E-002
 3.8101578E+000, 6.4786926E+000, 2.4887644E-002
 3.8202824E+000, 6.4274928E+000, 2.1998921E-002
 3.8301045E+000, 6.4183183E+000, 1.9487199E-002
 3.8405491E+000, 6.3528453E+000, 1.1945965E-002
 3.8505681E+000, 6.2810039E+000, 5.1593808E-003
 3.8603301E+000, 6.2496388E+000, 4.3320605E-003
 3.8701495E+000, 6.1784997E+000,-8.2582158E-003
 3.8802560E+000, 6.0810181E+000,-1.6553813E-002
 3.8903625E+000, 5.9726954E+000,-2.7763087E-002
 3.9004690E+000, 5.8761324E+000,-3.6326100E-002
 3.9105755E+000, 5.7868295E+000,-4.5344878E-002
 3.9205557E+000, 5.7287649E+000,-4.7654529E-002
 3.9302832E+000, 5.7198131E+000,-4.7556186E-002
 3.9403606E+000, 5.7178792E+000,-4.8149250E-002
 3.9506256E+000, 5.7363219E+000,-4.5052103E-002
 3.9605305E+000, 5.7650558E+000,-4.2641055E-002
 3.9704133E+000, 5.7679888E+000,-4.4356138E-002
 3.9800084E+000, 5.7528511E+000,-4.5088519E-002
 3.9901115E+000, 5.7479642E+000,-4.3145006E-002
 4.0000452E+000, 5.7883038E+000,-4.2160083E-002
 4.0104425E+000, 5.7261117E+000,-5.1433653E-002
 4.0203472E+000, 5.6974787E+000,-4.8230489E-002
 4.0304256E+000, 5.7314001E+000,-4.5445605E-002
 4.0403946E+000, 5.7567119E+000,-4.2300724E-002
 4.0502989E+000, 5.8015540E+000,-3.7927373E-002
 4.0603914E+000, 5.8465173E+000,-3.2879366E-002
 4.0700805E+000, 5.9098612E+000,-2.7492301E-002
 4.0802784E+000, 5.9028867E+000,-2.9248386E-002
 4.0901182E+000, 5.9269014E+000,-2.5110252E-002
 4.1004499E+000, 5.9778288E+000,-1.9605552E-002
 4.1101420E+000, 6.0225320E+000,-1.5982434E-002
 4.1201986E+000, 6.0648320E+000,-1.1014954E-002
 4.1301554E+000, 6.0986187E+000,-1.1032874E-002
 4.1403719E+000, 6.0922704E+000,-8.2319057E-003
 4.1502231E+000, 6.1706308E+000, 1.4985741E-003
