s,m/s,
Time,"Ub","FORCE X"
 0.0000000E+000, 3.1225023E-019,-6.2000000E-001
 5.0490499E-002, 3.6292921E-002,-6.1637071E-001
 8.3149591E-002, 1.0628325E-001,-6.0937167E-001
 1.0096338E-001, 1.6948867E-001,-6.0305113E-001
 1.1488004E-001, 2.3814514E-001,-5.9618549E-001
 1.2582977E-001, 3.0706189E-001,-5.8929381E-001
 1.3468822E-001, 3.7463848E-001,-5.8253615E-001
 1.4211084E-001, 4.4096626E-001,-5.7590337E-001
 1.4848709E-001, 5.0611149E-001,-5.6938885E-001
 1.5407975E-001, 5.7027914E-001,-5.6297209E-001
 1.5906643E-001, 6.3365668E-001,-5.5663433E-001
 1.6405312E-001, 7.0092766E-001,-5.4990723E-001
 1.6812010E-001, 7.6063891E-001,-5.4393611E-001
 1.7218708E-001, 8.2341056E-001,-5.3765894E-001
 1.7571092E-001, 8.8185911E-001,-5.3181409E-001
 1.7923475E-001, 9.4284182E-001,-5.2571582E-001
 1.8235717E-001, 1.0003383E+000,-5.1996617E-001
 1.8547959E-001, 1.0599693E+000,-5.1400307E-001
 1.8860201E-001, 1.1216569E+000,-5.0783431E-001
 1.9126955E-001, 1.1771245E+000,-5.0228755E-001
 2.0129022E-001, 1.3155531E+000,-4.7977229E-001
 2.1199488E-001, 1.5636140E+000,-4.5243821E-001
 2.2096604E-001, 1.8277302E+000,-4.2676044E-001
 2.3045251E-001, 2.1045266E+000,-3.9687729E-001
 2.4014535E-001, 2.4192454E+000,-3.6356543E-001
 2.5103320E-001, 2.7874607E+000,-3.2295090E-001
 2.6059219E-001, 3.1804435E+000,-2.8482338E-001
 2.7003824E-001, 3.5672119E+000,-2.4540564E-001
 2.8019766E-001, 3.9819076E+000,-2.0172580E-001
 2.9002440E-001, 4.4123002E+000,-1.5911230E-001
 3.0009856E-001, 4.8409611E+000,-1.1589835E-001
 3.1058819E-001, 5.2778812E+000,-7.1383639E-002
 3.2042222E-001, 5.7061463E+000,-3.0247561E-002
 3.3025625E-001, 6.1141302E+000, 1.0293568E-002
 3.4009029E-001, 6.5165637E+000, 5.0153202E-002
 3.5057992E-001, 6.9191542E+000, 9.0771703E-002
 3.6041395E-001, 7.3043249E+000, 1.2755073E-001
 3.7024798E-001, 7.6628976E+000, 1.6204611E-001
 3.8052948E-001, 7.9811791E+000, 1.9109516E-001
 3.9054522E-001, 8.2268556E+000, 2.1181894E-001
 4.0056096E-001, 8.3984151E+000, 2.2606199E-001
 4.1033526E-001, 8.5076194E+000, 2.3403164E-001
 4.2040208E-001, 8.5522488E+000, 2.3495593E-001
 4.3043747E-001, 8.5120093E+000, 2.2578151E-001
 4.4025432E-001, 8.3435435E+000, 2.0185453E-001
 4.5007117E-001, 8.0453835E+000, 1.6812430E-001
 4.6035549E-001, 7.6868379E+000, 1.3250033E-001
 4.7021909E-001, 7.3581804E+000, 1.0133225E-001
 4.8050341E-001, 7.0543234E+000, 7.0983902E-002
 4.9027352E-001, 6.7584524E+000, 4.2258604E-002
 5.0045499E-001, 6.4753416E+000, 1.4429769E-002
 5.1007083E-001, 6.1938173E+000,-1.4832343E-002
 5.2022251E-001, 5.9081478E+000,-3.9915992E-002
 5.3018493E-001, 5.6761832E+000,-6.3888346E-002
 5.4031345E-001, 5.4618640E+000,-8.1380980E-002
 5.5006408E-001, 5.3206113E+000,-9.3036499E-002
 5.6051119E-001, 5.2117326E+000,-1.0263107E-001
 5.7026182E-001, 5.1468877E+000,-1.0658818E-001
 5.8015175E-001, 5.1364375E+000,-1.0623930E-001
 5.9011133E-001, 5.1279641E+000,-1.0788218E-001
 6.0007091E-001, 5.1174732E+000,-1.0858655E-001
 6.1071884E-001, 5.1262585E+000,-1.0595677E-001
 6.2026681E-001, 5.1656982E+000,-1.0087377E-001
 6.3054924E-001, 5.2243381E+000,-9.4329768E-002
 6.4009721E-001, 5.3068183E+000,-8.6128515E-002
 6.5033230E-001, 5.3404549E+000,-8.5131915E-002
 6.6065633E-001, 5.3830643E+000,-7.9090446E-002
 6.7021403E-001, 5.4166710E+000,-7.6972416E-002
 6.8033860E-001, 5.4636929E+000,-6.9783849E-002
 6.9002296E-001, 5.5374165E+000,-6.3968193E-002
 7.0025560E-001, 5.5887429E+000,-5.8386658E-002
 7.1000379E-001, 5.6511499E+000,-5.1265201E-002
 7.2004442E-001, 5.7402901E+000,-4.0541580E-002
 7.3023128E-001, 5.8686427E+000,-2.6599766E-002
 7.4041815E-001, 5.9960924E+000,-1.4937398E-002
 7.5006885E-001, 6.1128184E+000,-2.8804804E-003
 7.6047018E-001, 6.2434815E+000, 9.5145531E-003
 7.7028622E-001, 6.3148029E+000, 1.1422067E-002
 7.8016023E-001, 6.3318856E+000, 1.5494330E-002
 7.9045541E-001, 6.3905632E+000, 2.2108464E-002
 8.0027511E-001, 6.4549530E+000, 2.6491356E-002
 8.1016780E-001, 6.4235743E+000, 1.6521315E-002
 8.2030029E-001, 6.3291975E+000, 1.3023563E-002
 8.3011673E-001, 6.2973357E+000, 3.8868992E-003
 8.4000925E-001, 6.2025434E+000,-3.9747593E-003
 8.5024987E-001, 6.1279891E+000,-7.1102040E-003
 8.6004238E-001, 6.1445740E+000,-6.6047910E-003
 8.7023335E-001, 6.1018587E+000,-1.1239085E-002
 8.8008157E-001, 6.0814959E+000,-1.2917504E-002
 8.9019473E-001, 6.0970145E+000,-8.2392449E-003
 9.0020936E-001, 6.1296805E+000,-6.8958474E-003
 9.1008092E-001, 6.1256270E+000,-6.2794697E-003
 9.2010031E-001, 6.1755358E+000, 7.0344518E-004
 9.3048691E-001, 6.2419364E+000, 7.3018067E-003
 9.4029647E-001, 6.3182497E+000, 1.6929647E-002
 9.5010604E-001, 6.4155811E+000, 2.4953375E-002
 9.6026182E-001, 6.5147783E+000, 3.8477201E-002
 9.7041761E-001, 6.6645934E+000, 5.3307737E-002
 9.8057339E-001, 6.7934127E+000, 6.3355181E-002
 9.9045032E-001, 6.8797128E+000, 7.1968746E-002
 1.0001687E+000, 6.9534102E+000, 7.7679510E-002
 1.0103766E+000, 7.0003244E+000, 7.9756892E-002
 1.0204807E+000, 6.9487749E+000, 7.1071376E-002
 1.0301837E+000, 6.8660390E+000, 6.1451456E-002
 1.0404778E+000, 6.7586727E+000, 5.2283439E-002
 1.0502301E+000, 6.6694667E+000, 4.3008602E-002
 1.0605242E+000, 6.6046203E+000, 4.1355099E-002
 1.0702765E+000, 6.6460657E+000, 4.4842033E-002
 1.0803917E+000, 6.5739065E+000, 2.9269176E-002
 1.0900471E+000, 6.3856085E+000, 8.7842485E-003
 1.1000703E+000, 6.2062750E+000,-5.8457985E-003
 1.1100519E+000, 6.0851281E+000,-1.7536665E-002
 1.1204461E+000, 5.9196879E+000,-3.6783632E-002
 1.1305730E+000, 5.7636232E+000,-4.6622593E-002
 1.1403950E+000, 5.7479299E+000,-4.3729226E-002
 1.1500186E+000, 5.7583362E+000,-4.4744287E-002
 1.1601363E+000, 5.7713074E+000,-4.0724059E-002
 1.1704338E+000, 5.7813527E+000,-4.4609999E-002
 1.1804524E+000, 5.7410905E+000,-4.6066978E-002
 1.1904711E+000, 5.7566602E+000,-4.1875285E-002
 1.2005454E+000, 5.7804520E+000,-4.2445875E-002
 1.2103415E+000, 5.7740565E+000,-4.2320547E-002
 1.2204436E+000, 5.8113098E+000,-3.4474907E-002
 1.2305458E+000, 5.9252198E+000,-2.1409840E-002
 1.2403795E+000, 6.0321107E+000,-1.3465195E-002
 1.2505413E+000, 6.0923047E+000,-7.8140291E-003
 1.2601774E+000, 6.1691761E+000, 1.4615520E-003
 1.2704559E+000, 6.2652443E+000, 1.0841795E-002
 1.2800920E+000, 6.3633552E+000, 2.1158262E-002
 1.2901443E+000, 6.4474830E+000, 2.7055457E-002
 1.3000749E+000, 6.4957991E+000, 3.1166565E-002
 1.3100055E+000, 6.5147531E+000, 3.2556533E-002
 1.3205567E+000, 6.5445376E+000, 3.5541171E-002
 1.3304873E+000, 6.5790384E+000, 3.9953699E-002
 1.3404179E+000, 6.6141096E+000, 4.3513260E-002
 1.3504780E+000, 6.6463759E+000, 4.5302608E-002
 1.3600724E+000, 6.6290266E+000, 4.0375795E-002
 1.3702665E+000, 6.6047567E+000, 4.0702798E-002
 1.3804606E+000, 6.6180575E+000, 4.2150365E-002
 1.3900551E+000, 6.6170542E+000, 4.1343479E-002
 1.4002491E+000, 6.6045337E+000, 3.9363536E-002
 1.4104432E+000, 6.5504768E+000, 3.0013925E-002
 1.4202332E+000, 6.4254850E+000, 1.6792658E-002
 1.4300275E+000, 6.3103209E+000, 6.1661266E-003
 1.4400668E+000, 6.1943624E+000,-6.4517569E-003
 1.4500743E+000, 6.1157995E+000,-9.0007385E-003
 1.4603597E+000, 6.0984257E+000,-1.0945680E-002
 1.4701448E+000, 6.0928424E+000,-1.0115500E-002
 1.4805415E+000, 6.1101656E+000,-9.4360744E-003
 1.4903266E+000, 6.0635216E+000,-1.7778305E-002
 1.5004651E+000, 5.9540124E+000,-2.9607239E-002
 1.5103607E+000, 5.8805544E+000,-3.3212702E-002
 1.5204741E+000, 5.8417005E+000,-3.8494981E-002
 1.5305170E+000, 5.7823789E+000,-4.3435202E-002
 1.5402982E+000, 5.7751122E+000,-4.0679107E-002
 1.5504247E+000, 5.8264861E+000,-3.3834784E-002
 1.5605512E+000, 5.9241196E+000,-2.2201709E-002
 1.5702134E+000, 5.9895184E+000,-2.2720262E-002
 1.5802127E+000, 5.9432517E+000,-2.6712992E-002
 1.5902120E+000, 5.9136062E+000,-2.9366497E-002
 1.6002112E+000, 5.8999410E+000,-3.0279335E-002
 1.6102105E+000, 5.9024324E+000,-2.8385308E-002
 1.6205987E+000, 5.9581767E+000,-1.9773342E-002
 1.6303757E+000, 6.0627105E+000,-9.2910923E-003
 1.6402608E+000, 6.1172071E+000,-6.5924943E-003
 1.6503970E+000, 6.1713791E+000, 1.1641014E-003
 1.6605332E+000, 6.2451146E+000, 7.9847857E-003
 1.6700732E+000, 6.3320171E+000, 1.7167344E-002
 1.6802094E+000, 6.3988447E+000, 2.1001526E-002
 1.6902051E+000, 6.3862768E+000, 1.6469679E-002
 1.7002509E+000, 6.3489315E+000, 1.5061703E-002
 1.7103756E+000, 6.3779345E+000, 1.9535856E-002
 1.7202456E+000, 6.4005749E+000, 1.9880896E-002
 1.7302662E+000, 6.4138155E+000, 2.3692117E-002
 1.7405346E+000, 6.4602845E+000, 2.5969239E-002
 1.7503907E+000, 6.4424731E+000, 2.3777963E-002
 1.7600185E+000, 6.4106945E+000, 1.8835147E-002
 1.7703771E+000, 6.3549063E+000, 1.4153895E-002
 1.7802737E+000, 6.3458585E+000, 1.5692349E-002
 1.7901419E+000, 6.3691567E+000, 1.7556254E-002
 1.8000357E+000, 6.3209653E+000, 6.6073976E-003
 1.8103961E+000, 6.1663418E+000,-1.2126690E-002
 1.8200531E+000, 6.0231615E+000,-2.2767661E-002
 1.8302159E+000, 5.9270318E+000,-3.0712029E-002
 1.8405604E+000, 5.8708728E+000,-3.3481750E-002
 1.8503535E+000, 5.8610869E+000,-3.3566679E-002
 1.8601466E+000, 5.8672214E+000,-3.3426958E-002
 1.8705518E+000, 5.8638484E+000,-3.3029026E-002
 1.8803254E+000, 5.8692673E+000,-3.2793767E-002
 1.8905932E+000, 5.8865452E+000,-3.0159398E-002
 1.9000758E+000, 5.9062489E+000,-2.7662069E-002
 1.9101187E+000, 5.9626266E+000,-2.0200585E-002
 1.9201653E+000, 6.0360706E+000,-1.3354951E-002
 1.9302118E+000, 6.0976470E+000,-7.4396574E-003
 1.9400221E+000, 6.1262010E+000,-6.7681180E-003
 1.9501902E+000, 6.1487077E+000,-4.7648729E-003
 1.9603583E+000, 6.1609262E+000,-3.4651322E-003
 1.9703833E+000, 6.1764175E+000,-1.9961863E-004
 1.9804405E+000, 6.2215002E+000, 3.0301765E-003
 1.9901066E+000, 6.2466254E+000, 7.9249166E-003
 2.0005550E+000, 6.3361360E+000, 1.8441381E-002
 2.0104681E+000, 6.4108369E+000, 2.2968857E-002
 2.0204378E+000, 6.4346159E+000, 2.3211662E-002
 2.0301543E+000, 6.4141989E+000, 2.0157851E-002
 2.0401929E+000, 6.4135733E+000, 2.1960901E-002
 2.0502314E+000, 6.4437757E+000, 2.7601133E-002
 2.0602700E+000, 6.5054910E+000, 3.1914073E-002
 2.0703085E+000, 6.5345981E+000, 3.4690791E-002
 2.0805784E+000, 6.5544864E+000, 3.4913115E-002
 2.0904122E+000, 6.5337395E+000, 3.1799506E-002
 2.1002461E+000, 6.4827006E+000, 2.4068958E-002
 2.1100800E+000, 6.3924741E+000, 1.5333093E-002
 2.1204924E+000, 6.3128298E+000, 8.3854637E-003
 2.1303263E+000, 6.2825007E+000, 7.9353537E-003
 2.1401602E+000, 6.2714248E+000, 7.1971410E-003
 2.1505725E+000, 6.2903511E+000, 9.4858370E-003
 2.1604064E+000, 6.2788384E+000, 5.6919339E-003
 2.1702414E+000, 6.2221924E+000,-1.8251220E-003
 2.1800123E+000, 6.1355182E+000,-9.5235061E-003
 2.1900505E+000, 6.0868630E+000,-1.2276860E-002
 2.2000065E+000, 6.0638486E+000,-1.5513316E-002
 2.2101207E+000, 6.0012021E+000,-2.4198087E-002
 2.2204081E+000, 5.9173962E+000,-3.1988351E-002
 2.2305966E+000, 5.8514643E+000,-3.6228655E-002
 2.2403733E+000, 5.8071986E+000,-4.3008699E-002
 2.2500185E+000, 5.7382728E+000,-4.8418701E-002
 2.2601460E+000, 5.6997769E+000,-5.0921305E-002
 2.2702230E+000, 5.6687652E+000,-5.6905415E-002
 2.2801327E+000, 5.6010015E+000,-5.9508414E-002
 2.2900425E+000, 5.6316857E+000,-5.4493460E-002
 2.3004713E+000, 5.6705934E+000,-5.1019950E-002
 2.3103338E+000, 5.7299023E+000,-4.3324699E-002
 2.3205597E+000, 5.8386537E+000,-3.0122752E-002
 2.3302666E+000, 5.9513433E+000,-1.9960046E-002
 2.3405444E+000, 6.0770104E+000,-5.0225259E-003
 2.3501628E+000, 6.2127354E+000, 6.9373137E-003
 2.3604934E+000, 6.3474393E+000, 2.0992433E-002
 2.3702163E+000, 6.4782949E+000, 3.4732505E-002
 2.3804260E+000, 6.6014428E+000, 4.4569955E-002
 2.3904014E+000, 6.7110185E+000, 5.6736935E-002
 2.4003768E+000, 6.8143197E+000, 6.4836729E-002
 2.4103522E+000, 6.8517279E+000, 6.5830871E-002
 2.4203277E+000, 6.8619817E+000, 6.6427359E-002
 2.4303031E+000, 6.8801630E+000, 6.9379538E-002
 2.4402785E+000, 6.9267577E+000, 7.4798143E-002
 2.4501576E+000, 6.9393847E+000, 7.1833856E-002
 2.4604583E+000, 6.8997194E+000, 6.6775440E-002
 2.4705052E+000, 6.7998585E+000, 5.5371659E-002
 2.4805521E+000, 6.7164838E+000, 4.8644637E-002
 2.4900409E+000, 6.6501937E+000, 4.1434518E-002
 2.5004227E+000, 6.5828715E+000, 3.5591629E-002
 2.5102464E+000, 6.5367527E+000, 3.3036330E-002
 2.5200159E+000, 6.4809630E+000, 2.2106604E-002
 2.5301465E+000, 6.3684252E+000, 1.3277276E-002
 2.5402771E+000, 6.3263749E+000, 1.3114088E-002
 2.5502856E+000, 6.3090719E+000, 6.3320688E-003
 2.5600662E+000, 6.1807854E+000,-8.7298161E-003
 2.5700905E+000, 6.0485531E+000,-1.9842675E-002
 2.5805368E+000, 5.9540352E+000,-2.8815351E-002
 2.5904027E+000, 5.8910780E+000,-3.2699504E-002
 2.6005573E+000, 5.8422617E+000,-3.8908934E-002
 2.6103107E+000, 5.7704698E+000,-4.6579986E-002
 2.6204083E+000, 5.7184639E+000,-4.8670706E-002
 2.6305060E+000, 5.6930233E+000,-5.2129086E-002
 2.6406036E+000, 5.6725957E+000,-5.3727929E-002
 2.6501848E+000, 5.6437576E+000,-5.7315975E-002
 2.6600477E+000, 5.6474941E+000,-5.2685012E-002
 2.6705870E+000, 5.7165765E+000,-4.4013856E-002
 2.6805064E+000, 5.7867486E+000,-3.9010220E-002
 2.6904257E+000, 5.8307758E+000,-3.5312335E-002
 2.7003451E+000, 5.8886938E+000,-2.6742534E-002
 2.7101130E+000, 5.9867596E+000,-1.8612276E-002
 2.7202905E+000, 6.0354734E+000,-1.2593802E-002
 2.7304680E+000, 6.1173310E+000,-4.7108883E-003
 2.7400469E+000, 6.1821717E+000, 1.0156662E-003
 2.7502244E+000, 6.2378805E+000, 4.9151859E-003
 2.7601937E+000, 6.2550053E+000, 7.0047409E-003
 2.7702165E+000, 6.2926776E+000, 1.1736954E-002
 2.7802393E+000, 6.3429497E+000, 1.5565826E-002
 2.7900039E+000, 6.3589650E+000, 1.6287439E-002
 2.8000552E+000, 6.3637072E+000, 1.4883128E-002
 2.8100230E+000, 6.3244178E+000, 1.0866537E-002
 2.8200383E+000, 6.2979040E+000, 9.2652712E-003
 2.8304807E+000, 6.2911470E+000, 8.7470420E-003
 2.8404533E+000, 6.3002337E+000, 1.2131881E-002
 2.8502453E+000, 6.3243589E+000, 1.1814568E-002
 2.8602699E+000, 6.3044118E+000, 9.8492497E-003
 2.8702945E+000, 6.3030359E+000, 1.1332496E-002
 2.8804305E+000, 6.3276506E+000, 1.5476390E-002
 2.8902323E+000, 6.3753127E+000, 1.8911218E-002
 2.9001868E+000, 6.4185479E+000, 2.2938359E-002
 2.9102895E+000, 6.4289282E+000, 2.2507777E-002
 2.9203368E+000, 6.3883293E+000, 1.5043509E-002
 2.9303501E+000, 6.3104099E+000, 8.0662867E-003
 2.9405173E+000, 6.2565745E+000, 3.2555327E-003
 2.9500796E+000, 6.1802835E+000,-7.1343683E-003
 2.9602266E+000, 6.0764021E+000,-1.5883193E-002
 2.9704353E+000, 6.0104247E+000,-2.1342210E-002
 2.9801511E+000, 5.9752983E+000,-2.3403370E-002
 2.9902277E+000, 5.9685217E+000,-2.2907070E-002
 3.0004645E+000, 5.9651723E+000,-2.3552675E-002
 3.0103220E+000, 5.9687056E+000,-2.2252904E-002
 3.0201361E+000, 5.9958130E+000,-1.9193645E-002
 3.0302755E+000, 6.0517435E+000,-1.1120471E-002
 3.0404150E+000, 6.1080046E+000,-7.5612209E-003
 3.0501145E+000, 6.1534371E+000,-2.6840883E-003
 3.0601995E+000, 6.1878480E+000, 3.2668259E-004
 3.0701778E+000, 6.1943073E+000,-9.3440048E-004
 3.0801561E+000, 6.2183288E+000, 3.9021755E-003
 3.0901344E+000, 6.2479424E+000, 5.6241553E-003
 3.1004770E+000, 6.2756291E+000, 9.5477576E-003
 3.1104618E+000, 6.2979999E+000, 1.1391612E-002
 3.1206197E+000, 6.3587292E+000, 1.9385703E-002
 3.1301428E+000, 6.4039083E+000, 2.1364217E-002
 3.1402940E+000, 6.4355417E+000, 2.6268749E-002
 3.1505667E+000, 6.4834781E+000, 2.9744031E-002
 3.1602687E+000, 6.5023065E+000, 2.9758902E-002
 3.1705414E+000, 6.5109049E+000, 3.4634699E-002
 3.1804146E+000, 6.5804755E+000, 3.8221504E-002
 3.1904222E+000, 6.5601226E+000, 3.3919999E-002
 3.2005259E+000, 6.5199543E+000, 3.0533192E-002
 3.2100683E+000, 6.4715781E+000, 2.4463958E-002
 3.2201719E+000, 6.4283450E+000, 2.0596873E-002
 3.2302756E+000, 6.3722804E+000, 1.5535524E-002
 3.2400904E+000, 6.3488086E+000, 1.3068722E-002
 3.2500792E+000, 6.2846178E+000, 3.1856497E-003
 3.2602742E+000, 6.1715413E+000,-6.9518489E-003
 3.2703794E+000, 6.0847573E+000,-1.5578108E-002
 3.2805340E+000, 6.0137934E+000,-2.0361920E-002
 3.2902170E+000, 5.9704771E+000,-2.5496297E-002
 3.3004755E+000, 5.9199442E+000,-2.9692766E-002
 3.3101306E+000, 5.8939047E+000,-3.2273044E-002
 3.3203891E+000, 5.8631644E+000,-3.5526257E-002
 3.3301313E+000, 5.8280560E+000,-3.6661671E-002
 3.3403120E+000, 5.8594237E+000,-3.0812220E-002
 3.3501354E+000, 5.9417925E+000,-2.1991239E-002
 3.3606138E+000, 6.0208009E+000,-1.4918798E-002
 3.3702087E+000, 6.0616331E+000,-1.3687874E-002
 3.3805005E+000, 6.0700362E+000,-1.3946217E-002
 3.3903070E+000, 6.0431224E+000,-1.8382521E-002
 3.4002116E+000, 6.0026530E+000,-1.9907652E-002
 3.4101327E+000, 5.9834226E+000,-2.2946020E-002
 3.4202017E+000, 5.9785796E+000,-2.0389160E-002
 3.4305473E+000, 6.0509829E+000,-9.6597044E-003
 3.4402843E+000, 6.1446998E+000,-2.9896657E-003
 3.4500214E+000, 6.1778911E+000,-1.0070229E-003
 3.4601147E+000, 6.2262730E+000, 6.2654847E-003
 3.4703190E+000, 6.2730627E+000, 4.6563046E-003
 3.4801326E+000, 6.1894531E+000,-5.4280360E-003
 3.4904368E+000, 6.0851192E+000,-1.6613361E-002
 3.5001522E+000, 6.0201732E+000,-1.7618126E-002
 3.5102109E+000, 6.0189425E+000,-1.9405564E-002
 3.5204654E+000, 6.0087610E+000,-2.0011377E-002
 3.5302072E+000, 5.9783536E+000,-2.3629832E-002
 3.5402138E+000, 5.9594337E+000,-2.6268048E-002
 3.5502912E+000, 5.8821395E+000,-3.6200107E-002
 3.5600427E+000, 5.8236471E+000,-3.7742375E-002
 3.5702752E+000, 5.8094187E+000,-3.9652763E-002
 3.5802123E+000, 5.8235650E+000,-3.7866139E-002
 3.5901160E+000, 5.8462163E+000,-3.0631706E-002
 3.6000551E+000, 5.9573353E+000,-1.8333568E-002
 3.6102879E+000, 6.0721198E+000,-9.1978481E-003
 3.6201976E+000, 6.1465636E+000,-9.7530301E-004
 3.6304491E+000, 6.2436444E+000, 9.6502186E-003
 3.6403998E+000, 6.3626372E+000, 2.1310913E-002
 3.6505600E+000, 6.4550842E+000, 3.0317346E-002
 3.6602363E+000, 6.5680487E+000, 4.1379485E-002
 3.6700922E+000, 6.6357560E+000, 4.6245476E-002
 3.6802126E+000, 6.6584783E+000, 4.3779601E-002
 3.6903330E+000, 6.5928647E+000, 3.5278504E-002
 3.7003522E+000, 6.5561633E+000, 3.8796311E-002
 3.7103714E+000, 6.6352062E+000, 4.8049993E-002
 3.7204834E+000, 6.7219049E+000, 5.5306529E-002
 3.7300575E+000, 6.7497266E+000, 5.4014002E-002
 3.7400518E+000, 6.7364833E+000, 5.1550261E-002
 3.7503999E+000, 6.6998043E+000, 4.8907892E-002
 3.7604664E+000, 6.6501202E+000, 4.0898881E-002
 3.7700424E+000, 6.5467114E+000, 2.5812657E-002
 3.7802931E+000, 6.3970589E+000, 1.6555435E-002
 3.7903858E+000, 6.3165819E+000, 6.2853381E-003
 3.8001066E+000, 6.2231478E+000,-6.8201824E-005
 3.8100400E+000, 6.1685266E+000,-5.6867169E-003
 3.8205576E+000, 6.1222529E+000,-8.4580315E-003
 3.8302303E+000, 6.1221921E+000,-6.5427367E-003
 3.8401368E+000, 6.1134033E+000,-1.3109071E-002
 3.8504835E+000, 5.9837415E+000,-2.9094332E-002
 3.8603376E+000, 5.8455986E+000,-4.0303541E-002
 3.8701916E+000, 5.7580612E+000,-4.7193764E-002
 3.8800456E+000, 5.6931840E+000,-5.3790787E-002
 3.8902830E+000, 5.6402748E+000,-5.6107057E-002
 3.9002470E+000, 5.6494559E+000,-5.5314865E-002
 3.9102110E+000, 5.6489049E+000,-5.3389648E-002
 3.9201750E+000, 5.7067423E+000,-4.5512625E-002
 3.9300341E+000, 5.7851621E+000,-3.6960367E-002
 3.9402446E+000, 5.8995706E+000,-2.3597101E-002
 3.9503974E+000, 6.0579414E+000,-7.0422291E-003
 3.9605502E+000, 6.2079752E+000, 8.5878455E-003
 3.9701038E+000, 6.3540998E+000, 2.0164660E-002
 3.9801873E+000, 6.4499544E+000, 2.7463403E-002
 3.9900529E+000, 6.4879142E+000, 3.0153853E-002
 4.0002667E+000, 6.5192017E+000, 3.2978513E-002
 4.0103741E+000, 6.5482303E+000, 3.5997080E-002
 4.0204814E+000, 6.5754450E+000, 4.0696960E-002
 4.0304292E+000, 6.6505047E+000, 4.9006529E-002
 4.0403770E+000, 6.7354182E+000, 5.6956123E-002
 4.0501999E+000, 6.7464595E+000, 4.9600796E-002
 4.0604042E+000, 6.6222297E+000, 3.4265986E-002
 4.0705390E+000, 6.4879076E+000, 2.7055141E-002
 4.0800800E+000, 6.4559489E+000, 2.2869420E-002
 4.0903373E+000, 6.3644408E+000, 9.2238104E-003
 4.1001244E+000, 6.2471220E+000, 1.3060535E-003
 4.1101143E+000, 6.1755806E+000,-5.0996111E-003
 4.1202101E+000, 6.1413967E+000,-7.6692501E-003
 4.1301334E+000, 6.0630889E+000,-2.0047214E-002
 4.1404036E+000, 5.9276711E+000,-3.3767157E-002
 4.1504543E+000, 5.8239040E+000,-3.9768364E-002
