s,m/s,
Time,Ub,FORCE X
 0.0000000E+000,-3.6862874E-019,-6.2000000E-001
 2.5245250E-002, 1.8213827E-002,-6.1817862E-001
 5.0490499E-002, 6.0487384E-002,-6.1395126E-001
 6.2247590E-002, 9.6884592E-002,-6.1031154E-001
 7.1944185E-002, 1.4058560E-001,-6.0594144E-001
 7.9267920E-002, 1.8382537E-001,-6.0161746E-001
 8.5190102E-002, 2.2698423E-001,-5.9730158E-001
 9.0116401E-002, 2.6963279E-001,-5.9303672E-001
 9.4331345E-002, 3.1183877E-001,-5.8881612E-001
 9.8011334E-002, 3.5363075E-001,-5.8463692E-001
 1.0127799E-001, 3.9507630E-001,-5.8049237E-001
 1.1202033E-001, 4.9513732E-001,-5.6394131E-001
 1.2167508E-001, 6.7332690E-001,-5.4450274E-001
 1.3069037E-001, 8.8400870E-001,-5.2171153E-001
 1.4005436E-001, 1.1419431E+000,-4.9258032E-001
 1.5007056E-001, 1.4757681E+000,-4.5448258E-001
 1.6011929E-001, 1.8958367E+000,-4.0827724E-001
 1.7041877E-001, 2.4055844E+000,-3.5227006E-001
 1.8028392E-001, 2.9927318E+000,-2.9097769E-001
 1.9034533E-001, 3.6418712E+000,-2.2249994E-001
 2.0007335E-001, 4.3309720E+000,-1.5355823E-001
 2.1024338E-001, 5.0299466E+000,-8.3210423E-002
 2.2022481E-001, 5.6964282E+000,-2.0529205E-002
 2.3009447E-001, 6.2640112E+000, 2.9811143E-002
 2.4006395E-001, 6.6910738E+000, 6.6129229E-002
 2.5003343E-001, 7.0378261E+000, 9.9349558E-002
 2.6000290E-001, 7.2885994E+000, 1.1541738E-001
 2.7016410E-001, 7.3890434E+000, 1.2194530E-001
 2.8000668E-001, 7.5184733E+000, 1.4002053E-001
 2.9011754E-001, 7.5878277E+000, 1.3887860E-001
 3.0013879E-001, 7.6545490E+000, 1.5172808E-001
 3.1015850E-001, 7.7651519E+000, 1.5474179E-001
 3.2005568E-001, 7.5826413E+000, 1.1934241E-001
 3.3002241E-001, 7.1763391E+000, 7.8051075E-002
 3.4020012E-001, 6.8000408E+000, 4.2326024E-002
 3.5015956E-001, 6.4174396E+000, 1.9447680E-003
 3.6007250E-001, 6.0285091E+000,-3.5827869E-002
 3.7024788E-001, 5.7059539E+000,-5.7214457E-002
 3.8010629E-001, 5.5609804E+000,-7.0669800E-002
 3.9001120E-001, 5.4013806E+000,-8.8345644E-002
 4.0009734E-001, 5.2448018E+000,-1.0097179E-001
 4.1008039E-001, 5.1873541E+000,-1.0116058E-001
 4.2006577E-001, 5.1877449E+000,-9.9278754E-002
 4.3007365E-001, 5.2603341E+000,-8.9309270E-002
 4.4010508E-001, 5.3562108E+000,-7.9242567E-002
 4.5012072E-001, 5.4647685E+000,-6.8396349E-002
 4.6008082E-001, 5.5775000E+000,-5.4993735E-002
 4.7009405E-001, 5.7551152E+000,-3.1993584E-002
 4.8013005E-001, 6.0204131E+000,-6.9026626E-003
 4.9009816E-001, 6.2330682E+000, 1.1823068E-002
 5.0011081E-001, 6.3894746E+000, 2.5861527E-002
 5.1020198E-001, 6.5630638E+000, 4.5698138E-002
 5.2013539E-001, 6.7065842E+000, 5.3035455E-002
 5.3002471E-001, 6.7123454E+000, 4.8426376E-002
 5.4015733E-001, 6.7021124E+000, 5.5527874E-002
 5.5014914E-001, 6.7813019E+000, 5.7203942E-002
 5.6004442E-001, 6.7540749E+000, 5.1679195E-002
 5.7011185E-001, 6.6344556E+000, 3.6962052E-002
 5.8018534E-001, 6.5598229E+000, 3.2923172E-002
 5.9006098E-001, 6.4318620E+000, 1.2889323E-002
 6.0001051E-001, 6.2365118E+000,-2.8785500E-003
 6.1003809E-001, 6.0724268E+000,-2.5027901E-002
 6.2008910E-001, 5.8545473E+000,-4.5273757E-002
 6.3004887E-001, 5.6640245E+000,-6.0447421E-002
 6.4017865E-001, 5.5533641E+000,-6.5804678E-002
 6.5000842E-001, 5.5584877E+000,-6.1473771E-002
 6.6014538E-001, 5.6184219E+000,-5.4861740E-002
 6.7005706E-001, 5.7063762E+000,-4.2874779E-002
 6.8019402E-001, 5.8542922E+000,-2.6341689E-002
 6.9026790E-001, 6.0749698E+000, 4.1506753E-003
 7.0008134E-001, 6.3950654E+000, 3.0333664E-002
 7.1008245E-001, 6.5921406E+000, 4.6760353E-002
 7.2002397E-001, 6.7314733E+000, 6.0732646E-002
 7.3016927E-001, 6.8785099E+000, 7.3097252E-002
 7.4015786E-001, 6.9267918E+000, 6.8685847E-002
 7.5007263E-001, 6.8022857E+000, 5.1755244E-002
 7.6017101E-001, 6.6132128E+000, 3.2425854E-002
 7.7003070E-001, 6.4588220E+000, 1.8917898E-002
 7.8003339E-001, 6.3040925E+000, 4.2109401E-003
 7.9006403E-001, 6.1371112E+000,-1.8617811E-002
 8.0005203E-001, 5.9524350E+000,-2.6072494E-002
 8.1010486E-001, 5.9358041E+000,-2.7655784E-002
 8.2021714E-001, 5.9251597E+000,-2.7707671E-002
 8.3001836E-001, 5.9120108E+000,-2.9484207E-002
 8.4020417E-001, 5.9033216E+000,-2.9378338E-002
 8.5018189E-001, 5.9137642E+000,-2.7540338E-002
 8.6009312E-001, 5.9610116E+000,-1.9872872E-002
 8.7015759E-001, 6.0551229E+000,-1.0910891E-002
 8.8019105E-001, 6.0972836E+000,-9.7209654E-003
 8.9004104E-001, 6.1363446E+000,-1.6736897E-003
 9.0004030E-001, 6.2481270E+000, 8.1917984E-003
 9.1001770E-001, 6.2633044E+000, 4.1185802E-003
 9.2014290E-001, 6.2068353E+000,-1.5542212E-003
 9.3002174E-001, 6.2439995E+000, 1.2043209E-002
 9.4007156E-001, 6.3803050E+000, 2.3390499E-002
 9.5007794E-001, 6.4483710E+000, 2.3898609E-002
 9.6015630E-001, 6.4518244E+000, 2.5637425E-002
 9.7005576E-001, 6.4348825E+000, 2.1031568E-002
 9.8013726E-001, 6.3523545E+000, 1.0015610E-002
 9.9008528E-001, 6.2756490E+000, 7.2337212E-003
 1.0000254E+000, 6.2333842E+000,-4.5282623E-003
 1.0100402E+000, 6.0237187E+000,-3.0136214E-002
 1.0200074E+000, 5.8238761E+000,-4.2146165E-002
 1.0301039E+000, 5.7509319E+000,-4.7928929E-002
 1.0400332E+000, 5.6884356E+000,-5.3656347E-002
 1.0500263E+000, 5.6467099E+000,-5.5795236E-002
 1.0600592E+000, 5.6692560E+000,-4.8946774E-002
 1.0700850E+000, 5.7593182E+000,-4.0121326E-002
 1.0801020E+000, 5.8751295E+000,-2.3777909E-002
 1.0901126E+000, 6.0596587E+000,-3.7027215E-003
 1.1000029E+000, 6.2850173E+000, 1.8807531E-002
 1.1100453E+000, 6.5019028E+000, 4.2137227E-002
 1.1200514E+000, 6.6750727E+000, 4.9939126E-002
 1.1300589E+000, 6.6713198E+000, 4.3686995E-002
 1.1401366E+000, 6.6156177E+000, 3.7153208E-002
 1.1500168E+000, 6.5182964E+000, 2.6763087E-002
 1.1601207E+000, 6.3805431E+000, 6.0795859E-003
 1.1700236E+000, 6.1844717E+000,-4.8697922E-003
 1.1801847E+000, 6.1209860E+000,-1.0369569E-002
 1.1900829E+000, 6.1052759E+000,-7.2479044E-003
 1.2000959E+000, 6.1832293E+000, 9.4315576E-003
 1.2100801E+000, 6.3941672E+000, 1.9013730E-002
 1.2201773E+000, 6.2992867E+000, 4.5852462E-003
 1.2300924E+000, 6.2362288E+000, 3.3490518E-003
 1.2401504E+000, 6.2659454E+000, 8.6043830E-003
 1.2501533E+000, 6.2331286E+000,-5.9688613E-003
 1.2602118E+000, 6.0421549E+000,-2.0972243E-002
 1.2700869E+000, 5.9818743E+000,-2.1513992E-002
 1.2801793E+000, 6.0086362E+000,-1.6821329E-002
 1.2901792E+000, 6.0520217E+000,-1.2911726E-002
 1.3000842E+000, 6.1430121E+000, 4.2807023E-003
 1.3101231E+000, 6.3721884E+000, 2.5024212E-002
 1.3200493E+000, 6.4854684E+000, 3.1655586E-002
 1.3301273E+000, 6.5412556E+000, 3.7344361E-002
 1.3401788E+000, 6.5866809E+000, 3.5536866E-002
 1.3501834E+000, 6.4884957E+000, 2.3714645E-002
 1.3601180E+000, 6.4228047E+000, 2.2196737E-002
 1.3702175E+000, 6.4351693E+000, 2.6206489E-002
 1.3800887E+000, 6.4531221E+000, 1.9620329E-002
 1.3901013E+000, 6.3097594E+000, 3.9788885E-003
 1.4000824E+000, 6.2182248E+000,-1.5596581E-003
 1.4100204E+000, 6.1347132E+000,-1.2429112E-002
 1.4201942E+000, 6.0048206E+000,-2.4390246E-002
 1.4301027E+000, 5.9621036E+000,-2.1378703E-002
 1.4401287E+000, 6.0043213E+000,-2.0979308E-002
 1.4500239E+000, 5.9359518E+000,-3.0158130E-002
 1.4600178E+000, 5.9083117E+000,-2.8147807E-002
 1.4700559E+000, 5.8873637E+000,-3.5613773E-002
 1.4801472E+000, 5.7954289E+000,-4.4590667E-002
 1.4901263E+000, 5.7495680E+000,-4.2857795E-002
 1.5001784E+000, 5.8263513E+000,-3.1474541E-002
 1.5101421E+000, 5.9280735E+000,-2.2944656E-002
 1.5201391E+000, 6.0171285E+000,-1.3220713E-002
 1.5300362E+000, 6.1480037E+000, 3.8570705E-003
 1.5400823E+000, 6.3695322E+000, 3.0245268E-002
 1.5500092E+000, 6.6011890E+000, 4.6023819E-002
 1.5600199E+000, 6.6453846E+000, 4.2486674E-002
 1.5700997E+000, 6.5831275E+000, 3.2237768E-002
 1.5800639E+000, 6.4503429E+000, 2.0767371E-002
 1.5900425E+000, 6.3885379E+000, 1.5845885E-002
 1.6001764E+000, 6.2874330E+000, 1.7250894E-003
 1.6100081E+000, 6.1824688E+000,-2.9912930E-003
 1.6200201E+000, 6.1137648E+000,-1.6530464E-002
 1.6300162E+000, 5.9671505E+000,-2.6366505E-002
 1.6401689E+000, 5.9551065E+000,-2.2348594E-002
 1.6501783E+000, 6.0261850E+000,-9.8585447E-003
 1.6601996E+000, 6.1971974E+000, 8.0967083E-003
 1.6700777E+000, 6.3396753E+000, 1.8945921E-002
 1.6800234E+000, 6.4162910E+000, 2.3348653E-002
 1.6900281E+000, 6.4526256E+000, 2.8213508E-002
 1.7001310E+000, 6.4892481E+000, 2.5078809E-002
 1.7101000E+000, 6.3803251E+000, 1.1894736E-002
 1.7201591E+000, 6.2654585E+000, 3.8674152E-003
 1.7301339E+000, 6.2444902E+000, 4.2952043E-003
 1.7401087E+000, 6.2444537E+000, 6.9609477E-003
 1.7500006E+000, 6.3053867E+000, 1.0743488E-002
 1.7601108E+000, 6.2659418E+000,-1.8571520E-005
 1.7701444E+000, 6.1672487E+000,-3.7944043E-003
 1.7801463E+000, 6.1488825E+000,-7.3421617E-003
 1.7901089E+000, 6.1004710E+000,-1.4131150E-002
 1.8001240E+000, 5.9898667E+000,-2.5937774E-002
 1.8100174E+000, 5.9231391E+000,-2.8307429E-002
 1.8200645E+000, 5.8700341E+000,-3.6665012E-002
 1.8301685E+000, 5.8096313E+000,-4.1155373E-002
 1.8401777E+000, 5.7799484E+000,-4.0099439E-002
 1.8501869E+000, 5.8484338E+000,-2.9345799E-002
 1.8600918E+000, 5.9838146E+000,-1.2270041E-002
 1.8701844E+000, 6.1910929E+000, 1.0156395E-002
 1.8800476E+000, 6.4118538E+000, 3.1547121E-002
 1.8900572E+000, 6.5786749E+000, 4.1110121E-002
 1.9000139E+000, 6.6510027E+000, 4.8421471E-002
 1.9100523E+000, 6.6742976E+000, 4.5310700E-002
 1.9201358E+000, 6.6246373E+000, 3.8384288E-002
 1.9300077E+000, 6.5164874E+000, 2.5027881E-002
 1.9400057E+000, 6.3937393E+000, 1.7994182E-002
 1.9501811E+000, 6.3719518E+000, 1.6941620E-002
 1.9600521E+000, 6.3401665E+000, 9.0642217E-003
 1.9702270E+000, 6.2685474E+000, 7.4173348E-003
 1.9801895E+000, 6.3142699E+000, 1.4133639E-002
 1.9901354E+000, 6.2997838E+000, 3.9794413E-003
 2.0000056E+000, 6.2209734E+000, 2.4169465E-003
 2.0101797E+000, 6.2175156E+000,-6.0450489E-004
 2.0200612E+000, 6.1403587E+000,-1.0601126E-002
 2.0301365E+000, 6.0727833E+000,-1.1905607E-002
 2.0400512E+000, 6.1198866E+000,-3.7565412E-003
 2.0500942E+000, 6.1705749E+000,-4.1966844E-003
 2.0600775E+000, 6.1374247E+000,-8.1548587E-003
 2.0700270E+000, 6.1259160E+000,-4.1125788E-003
 2.0801084E+000, 6.1675984E+000,-7.2147779E-003
 2.0900483E+000, 6.0517264E+000,-1.9665046E-002
 2.1000952E+000, 5.9788306E+000,-2.6141717E-002
 2.1101233E+000, 5.8758115E+000,-3.9009696E-002
 2.1200110E+000, 5.7542334E+000,-4.8625407E-002
 2.1301339E+000, 5.6925346E+000,-5.0183874E-002
 2.1401612E+000, 5.7830970E+000,-3.0620110E-002
 2.1500761E+000, 5.9945714E+000,-1.2690198E-002
 2.1600595E+000, 6.1284979E+000,-2.0950638E-003
 2.1701323E+000, 6.2217797E+000, 8.8161153E-003
 2.1800626E+000, 6.3958594E+000, 2.8173600E-002
 2.1900149E+000, 6.5377425E+000, 3.6194536E-002
 2.2001328E+000, 6.5457418E+000, 3.3379425E-002
 2.2100703E+000, 6.5240842E+000, 3.3302852E-002
 2.2201327E+000, 6.5606542E+000, 3.8041195E-002
 2.2301873E+000, 6.5474189E+000, 2.9961742E-002
 2.2400025E+000, 6.4582347E+000, 2.2612287E-002
 2.2501118E+000, 6.3682462E+000, 9.6979223E-003
 2.2600759E+000, 6.2129352E+000,-4.6089706E-003
 2.2701851E+000, 6.1478350E+000,-5.9945695E-003
 2.2800496E+000, 6.0662560E+000,-2.0443949E-002
 2.2900024E+000, 5.9663489E+000,-2.4315503E-002
 2.3000961E+000, 5.9398851E+000,-2.8743810E-002
 2.3100553E+000, 5.8567347E+000,-3.9491862E-002
 2.3200146E+000, 5.7560906E+000,-4.9280285E-002
 2.3301952E+000, 5.6746672E+000,-5.2780671E-002
 2.3401360E+000, 5.6671699E+000,-5.5035417E-002
 2.3500768E+000, 5.6524795E+000,-5.2010653E-002
 2.3600183E+000, 5.7703106E+000,-3.2769312E-002
 2.3700291E+000, 5.9905179E+000,-8.9189644E-003
 2.3800351E+000, 6.1914706E+000, 6.4113579E-003
 2.3902039E+000, 6.3587996E+000, 2.7389359E-002
 2.4000362E+000, 6.5713079E+000, 4.2774700E-002
 2.4100120E+000, 6.6645964E+000, 4.9395718E-002
 2.4200255E+000, 6.7297558E+000, 5.6075943E-002
 2.4300698E+000, 6.8119752E+000, 6.4806924E-002
 2.4401342E+000, 6.8000718E+000, 5.3828193E-002
 2.4500420E+000, 6.6934633E+000, 4.7618131E-002
 2.4601687E+000, 6.6892547E+000, 5.0579099E-002
 2.4701006E+000, 6.6620283E+000, 3.9597351E-002
 2.4800326E+000, 6.5250405E+000, 2.5329545E-002
 2.4901008E+000, 6.4023709E+000, 1.4478275E-002
 2.5000262E+000, 6.2333935E+000,-8.9361759E-003
 2.5101670E+000, 5.9773314E+000,-3.3693356E-002
 2.5201806E+000, 5.8340116E+000,-3.7159546E-002
 2.5300466E+000, 5.8103961E+000,-4.3291542E-002
 2.5400533E+000, 5.6813688E+000,-6.1025865E-002
 2.5501050E+000, 5.5040183E+000,-7.5338914E-002
 2.5601049E+000, 5.4814180E+000,-6.6188158E-002
 2.5701930E+000, 5.5849161E+000,-5.7779261E-002
 2.5801552E+000, 5.6685307E+000,-4.8609708E-002
 2.5900950E+000, 5.7763375E+000,-3.4940002E-002
 2.6001584E+000, 5.8975779E+000,-2.6434932E-002
 2.6100271E+000, 5.9459908E+000,-2.3431817E-002
 2.6201870E+000, 6.0487532E+000,-5.9844932E-003
 2.6300073E+000, 6.2544700E+000, 1.6618040E-002
 2.6401149E+000, 6.4393482E+000, 2.9369006E-002
 2.6500693E+000, 6.5559136E+000, 4.1606989E-002
 2.6600287E+000, 6.6436002E+000, 4.1891759E-002
 2.6700829E+000, 6.5994779E+000, 3.9728475E-002
 2.6801543E+000, 6.6241005E+000, 4.5104827E-002
 2.6901686E+000, 6.6799533E+000, 4.8733916E-002
 2.7001827E+000, 6.6694699E+000, 4.6447019E-002
 2.7100075E+000, 6.6582313E+000, 4.2819739E-002
 2.7200673E+000, 6.5562070E+000, 2.9785015E-002
 2.7300801E+000, 6.4415880E+000, 1.9462486E-002
 2.7401743E+000, 6.3333722E+000, 9.4148119E-003
 2.7501670E+000, 6.2423612E+000,-1.9174946E-003
 2.7600861E+000, 6.1086711E+000,-1.6379877E-002
 2.7700428E+000, 5.9682393E+000,-2.8244496E-002
 2.7800729E+000, 5.8966088E+000,-3.0449322E-002
 2.7900086E+000, 5.9032701E+000,-3.1761588E-002
 2.8000550E+000, 5.8358837E+000,-3.9086601E-002
 2.8102365E+000, 5.8589897E+000,-2.6615265E-002
 2.8201100E+000, 6.0191305E+000,-1.0238919E-002
 2.8300346E+000, 6.1631310E+000, 1.7421079E-004
 2.8401457E+000, 6.2296597E+000, 6.1349115E-003
 2.8500084E+000, 6.3058685E+000, 1.6876435E-002
 2.8600395E+000, 6.3721846E+000, 1.5150321E-002
 2.8700264E+000, 6.3475536E+000, 1.5986798E-002
 2.8800817E+000, 6.3711696E+000, 1.5940092E-002
 2.8901058E+000, 6.3013187E+000, 4.1457109E-003
 2.9000443E+000, 6.1628104E+000,-9.7568843E-003
 2.9101945E+000, 6.0998728E+000,-7.7797330E-003
 2.9200265E+000, 6.1244219E+000,-7.2884790E-003
 2.9300978E+000, 6.1707263E+000, 6.1705809E-004
 2.9401475E+000, 6.2278133E+000, 2.6103891E-003
 2.9501243E+000, 6.2435701E+000, 5.9763300E-003
 2.9600997E+000, 6.2565491E+000, 4.6404784E-003
 2.9700554E+000, 6.2224720E+000,-2.3710803E-003
 2.9800939E+000, 6.1100241E+000,-1.3134127E-002
 2.9900641E+000, 6.0586830E+000,-1.5299604E-002
 3.0000343E+000, 6.0367721E+000,-1.6718890E-002
 3.0100609E+000, 6.0330476E+000,-1.6780994E-002
 3.0202128E+000, 6.0537330E+000,-9.1598464E-003
 3.0300664E+000, 6.1941097E+000, 7.2974531E-003
 3.0400324E+000, 6.3437228E+000, 2.0404759E-002
 3.0500029E+000, 6.4161848E+000, 2.1321981E-002
 3.0601886E+000, 6.4230641E+000, 2.4320971E-002
 3.0700969E+000, 6.4782842E+000, 2.9112787E-002
 3.0801243E+000, 6.4597438E+000, 1.9670601E-002
 3.0901517E+000, 6.3223331E+000, 6.6654179E-003
 3.1000816E+000, 6.2460437E+000, 8.8558511E-004
 3.1101325E+000, 6.1162629E+000,-1.7871538E-002
 3.1200181E+000, 5.9451688E+000,-3.0142559E-002
 3.1300090E+000, 5.8713780E+000,-3.3992939E-002
 3.1400597E+000, 5.8433756E+000,-3.8735495E-002
 3.1501104E+000, 5.7950224E+000,-4.1340236E-002
 3.1602013E+000, 5.8221526E+000,-3.1977170E-002
 3.1701321E+000, 5.9663981E+000,-1.6961488E-002
 3.1800535E+000, 6.0735770E+000,-8.4168741E-003
 3.1900016E+000, 6.1751469E+000, 6.0241166E-003
 3.2001716E+000, 6.3819143E+000, 2.8700797E-002
 3.2100552E+000, 6.6043877E+000, 4.7583450E-002
 3.2201395E+000, 6.6915085E+000, 4.7968073E-002
 3.2300002E+000, 6.6830516E+000, 4.9608471E-002
 3.2400584E+000, 6.7105479E+000, 5.2294409E-002
 3.2500564E+000, 6.7110652E+000, 4.9226860E-002
 3.2600164E+000, 6.6827241E+000, 4.4106700E-002
 3.2700231E+000, 6.5520537E+000, 2.7579389E-002
 3.2801835E+000, 6.4321107E+000, 1.7385183E-002
 3.2900382E+000, 6.3038760E+000, 5.0789206E-003
 3.3002204E+000, 6.2059093E+000,-1.4795021E-003
 3.3101599E+000, 6.1401785E+000,-1.1732023E-002
 3.3200944E+000, 6.0620939E+000,-1.6556117E-002
 3.3302388E+000, 6.0032001E+000,-2.1578203E-002
 3.3400991E+000, 5.9647819E+000,-2.5664032E-002
 3.3501059E+000, 5.9437464E+000,-2.5494753E-002
 3.3601263E+000, 5.8978373E+000,-3.6864556E-002
 3.3700118E+000, 5.7644035E+000,-4.7571008E-002
 3.3800398E+000, 5.7194152E+000,-4.5000730E-002
 3.3901130E+000, 5.8160090E+000,-3.3919849E-002
 3.4000473E+000, 5.8622570E+000,-3.3054073E-002
 3.4101655E+000, 5.8935428E+000,-2.8144824E-002
 3.4200998E+000, 5.9563711E+000,-2.0234847E-002
 3.4301628E+000, 6.0162389E+000,-1.7167307E-002
 3.4400787E+000, 6.0629372E+000,-9.0979247E-003
 3.4501969E+000, 6.1791858E+000, 5.0745499E-003
 3.4600116E+000, 6.3259268E+000, 2.1091208E-002
 3.4700539E+000, 6.4859680E+000, 3.4137542E-002
 3.4800512E+000, 6.6462227E+000, 5.7506944E-002
 3.4901243E+000, 6.8713198E+000, 7.0440784E-002
 3.5001260E+000, 6.8385242E+000, 5.6817963E-002
 3.5100233E+000, 6.7362010E+000, 5.1038344E-002
 3.5200210E+000, 6.7083164E+000, 5.2514103E-002
 3.5301148E+000, 6.6921107E+000, 4.0815490E-002
 3.5401330E+000, 6.4870124E+000, 2.0650949E-002
 3.5501510E+000, 6.3633035E+000, 1.1233318E-002
 3.5600268E+000, 6.2534453E+000,-1.1087297E-003
 3.5701268E+000, 6.0790404E+000,-2.0769797E-002
 3.5801074E+000, 5.9704850E+000,-2.4588357E-002
 3.5900028E+000, 5.8832195E+000,-4.1552753E-002
 3.6000805E+000, 5.6769382E+000,-5.9522074E-002
 3.6101582E+000, 5.5905202E+000,-6.1228964E-002
 3.6201125E+000, 5.5904190E+000,-5.9458952E-002
 3.6301257E+000, 5.6198183E+000,-5.6735212E-002
 3.6401646E+000, 5.7284171E+000,-3.4549917E-002
 3.6501328E+000, 5.9610213E+000,-1.6797849E-002
 3.6601922E+000, 6.0572125E+000,-1.3811178E-002
 3.6700187E+000, 6.0733602E+000,-9.5464839E-003
 3.6800494E+000, 6.1832544E+000, 7.7112142E-003
 3.6901736E+000, 6.3317455E+000, 1.5992842E-002
 3.7001214E+000, 6.3535899E+000, 1.4854702E-002
 3.7101003E+000, 6.3689176E+000, 1.9822963E-002
 3.7200269E+000, 6.3714303E+000, 1.0051202E-002
 3.7301389E+000, 6.1891977E+000,-1.0204962E-002
 3.7400960E+000, 6.0757674E+000,-1.6425512E-002
 3.7501146E+000, 6.0080795E+000,-1.8098572E-002
 3.7601394E+000, 6.0530051E+000,-1.2657927E-002
 3.7701767E+000, 6.1099767E+000,-4.5431254E-003
 3.7801805E+000, 6.2474771E+000, 1.6849978E-002
 3.7901599E+000, 6.5074242E+000, 3.9713644E-002
 3.8000709E+000, 6.6666534E+000, 5.2711704E-002
 3.8100821E+000, 6.7848983E+000, 6.4993068E-002
 3.8200574E+000, 6.9103049E+000, 7.3826210E-002
 3.8301034E+000, 6.8809348E+000, 5.9159451E-002
 3.8401307E+000, 6.6741825E+000, 3.6621966E-002
 3.8501581E+000, 6.4512166E+000, 1.6058057E-002
 3.8601013E+000, 6.2800956E+000,-7.0231991E-004
 3.8700417E+000, 6.0749737E+000,-2.5029975E-002
 3.8801140E+000, 5.8323338E+000,-4.6084047E-002
 3.8902372E+000, 5.6848532E+000,-5.2664337E-002
 3.9002788E+000, 5.7232949E+000,-4.1830606E-002
 3.9100182E+000, 5.8243128E+000,-3.5860870E-002
 3.9201141E+000, 5.9012834E+000,-1.9422564E-002
 3.9300205E+000, 6.1054426E+000,-1.5273883E-003
 3.9400815E+000, 6.2222522E+000, 2.2066860E-003
 3.9500700E+000, 6.2088645E+000, 1.2549892E-003
 3.9600906E+000, 6.2255569E+000, 2.9226408E-003
 3.9700645E+000, 6.2063852E+000,-9.6466791E-004
 3.9800150E+000, 6.1512527E+000,-9.3324826E-003
 3.9901391E+000, 6.0367990E+000,-2.3400795E-002
 4.0000963E+000, 5.9319083E+000,-2.3905126E-002
 4.0100018E+000, 6.0523664E+000,-8.4832482E-003
 4.0200308E+000, 6.1079052E+000,-1.3266734E-002
 4.0300285E+000, 6.0125795E+000,-2.0549454E-002
 4.0401058E+000, 6.0420188E+000,-1.3001970E-002
 4.0501144E+000, 6.0663526E+000,-1.3898062E-002
 4.0600548E+000, 6.0677050E+000,-1.2434338E-002
 4.0701827E+000, 6.0685228E+000,-1.4107729E-002
 4.0801143E+000, 6.0615079E+000,-1.5011710E-002
 4.0900761E+000, 6.0261013E+000,-1.6411625E-002
 4.1000597E+000, 6.0849558E+000,-6.2538364E-003
 4.1101720E+000, 6.1888656E+000, 4.9833732E-003
 4.1201059E+000, 6.3090442E+000, 1.4848184E-002
 4.1301825E+000, 6.3708095E+000, 2.0780313E-002
 4.1400060E+000, 6.4973239E+000, 3.8365001E-002
 4.1500452E+000, 6.6255621E+000, 4.6159403E-002
