s,m/s,
Time,"Ub","FORCE X"
 0.0000000E+000,-3.6862874E-019,-6.2000000E-001
 2.5245250E-002, 1.8213827E-002,-6.1817862E-001
 5.0490499E-002, 6.0487384E-002,-6.1395126E-001
 6.2247590E-002, 9.6884592E-002,-6.1031154E-001
 7.1944185E-002, 1.4058560E-001,-6.0594144E-001
 7.9267920E-002, 1.8382537E-001,-6.0161746E-001
 8.5190102E-002, 2.2698423E-001,-5.9730158E-001
 9.0116401E-002, 2.6963279E-001,-5.9303672E-001
 9.4331345E-002, 3.1183877E-001,-5.8881612E-001
 9.8011334E-002, 3.5363075E-001,-5.8463692E-001
 1.0127799E-001, 3.9507630E-001,-5.8049237E-001
 1.1202033E-001, 4.9513732E-001,-5.6394131E-001
 1.2167508E-001, 6.7332690E-001,-5.4450274E-001
 1.3069037E-001, 8.8400870E-001,-5.2171153E-001
 1.4005436E-001, 1.1419431E+000,-4.9258032E-001
 1.5007056E-001, 1.4757681E+000,-4.5448258E-001
 1.6011929E-001, 1.8958367E+000,-4.0827724E-001
 1.7041877E-001, 2.4055844E+000,-3.5227006E-001
 1.8028392E-001, 2.9927318E+000,-2.9097769E-001
 1.9034533E-001, 3.6418712E+000,-2.2249994E-001
 2.0007335E-001, 4.3309720E+000,-1.5355823E-001
 2.1024338E-001, 5.0299466E+000,-8.3210423E-002
 2.2022481E-001, 5.6964282E+000,-2.0529205E-002
 2.3009447E-001, 6.2640112E+000, 2.9811143E-002
 2.4006395E-001, 6.6910738E+000, 6.6129229E-002
 2.5003343E-001, 7.0378261E+000, 9.9349558E-002
 2.6000290E-001, 7.2885994E+000, 1.1541738E-001
 2.7016410E-001, 7.3890434E+000, 1.2194530E-001
 2.8000668E-001, 7.5184733E+000, 1.4002053E-001
 2.9011754E-001, 7.5878277E+000, 1.3887860E-001
 3.0013879E-001, 7.6545490E+000, 1.5172808E-001
 3.1015850E-001, 7.7651519E+000, 1.5474179E-001
 3.2005568E-001, 7.5826413E+000, 1.1934241E-001
 3.3002241E-001, 7.1763391E+000, 7.8051075E-002
 3.4020012E-001, 6.8000408E+000, 4.2326024E-002
 3.5015956E-001, 6.4174396E+000, 1.9447682E-003
 3.6007250E-001, 6.0285091E+000,-3.5827869E-002
 3.7024788E-001, 5.7059539E+000,-5.7214458E-002
 3.8010629E-001, 5.5609804E+000,-7.0669796E-002
 3.9001120E-001, 5.4013806E+000,-8.8345639E-002
 4.0009735E-001, 5.2448018E+000,-1.0097179E-001
 4.1008040E-001, 5.1873542E+000,-1.0116057E-001
 4.2006579E-001, 5.1877449E+000,-9.9278784E-002
 4.3007368E-001, 5.2603335E+000,-8.9309347E-002
 4.4010514E-001, 5.3562102E+000,-7.9242553E-002
 4.5012083E-001, 5.4647704E+000,-6.8395925E-002
 4.6008097E-001, 5.5775053E+000,-5.4993305E-002
 4.7009434E-001, 5.7551173E+000,-3.1993298E-002
 4.8013010E-001, 6.0204107E+000,-6.9031425E-003
 4.9009776E-001, 6.2330674E+000, 1.1824527E-002
 5.0011033E-001, 6.3895273E+000, 2.5871073E-002
 5.1020143E-001, 6.5631815E+000, 4.5706719E-002
 5.2012786E-001, 6.7065643E+000, 5.3035216E-002
 5.3000990E-001, 6.7126391E+000, 4.8507466E-002
 5.4015923E-001, 6.7035084E+000, 5.5762662E-002
 5.5000317E-001, 6.7837356E+000, 5.7081571E-002
 5.6012251E-001, 6.7475067E+000, 5.0873630E-002
 5.7002826E-001, 6.6290729E+000, 3.6992737E-002
 5.8006059E-001, 6.5656898E+000, 3.4143218E-002
 5.9008973E-001, 6.4470129E+000, 1.5204866E-002
 6.0004526E-001, 6.2619029E+000,-2.3981855E-003
 6.1008282E-001, 6.0746029E+000,-2.5418211E-002
 6.2013896E-001, 5.8449870E+000,-4.0484432E-002
 6.3000897E-001, 5.7485973E+000,-4.9307271E-002
 6.4009474E-001, 5.7014826E+000,-5.0223505E-002
 6.5015769E-001, 5.6804685E+000,-5.2710889E-002
 6.6002332E-001, 5.6779076E+000,-5.1827576E-002
 6.7000734E-001, 5.6900308E+000,-5.0391376E-002
 6.8009988E-001, 5.7390102E+000,-4.0148230E-002
 6.9009859E-001, 5.8714685E+000,-2.5939054E-002
 7.0015283E-001, 6.0288092E+000,-6.7245905E-003
 7.1019278E-001, 6.2467942E+000, 1.6544146E-002
 7.2011648E-001, 6.4839882E+000, 3.9354752E-002
 7.3020622E-001, 6.6715424E+000, 5.3043406E-002
 7.4004546E-001, 6.7905422E+000, 6.3524306E-002
 7.5012353E-001, 6.8535673E+000, 6.5146695E-002
 7.6011456E-001, 6.8368346E+000, 6.0858740E-002
 7.7016166E-001, 6.7314875E+000, 4.5023627E-002
 7.8009973E-001, 6.6364330E+000, 4.7322851E-002
 7.9014901E-001, 6.6432537E+000, 3.8246022E-002
 8.0010715E-001, 6.4993193E+000, 2.1921480E-002
 8.1010193E-001, 6.3354905E+000, 7.6126089E-003
 8.2014501E-001, 6.2401421E+000, 7.9051273E-004
 8.3019256E-001, 6.1164816E+000,-1.8324783E-002
 8.4021398E-001, 5.9221640E+000,-3.4525721E-002
 8.5016473E-001, 5.8371919E+000,-3.9771094E-002
 8.6014073E-001, 5.7620038E+000,-4.5982663E-002
 8.7017956E-001, 5.6993967E+000,-5.4403827E-002
 8.8021729E-001, 5.6355073E+000,-5.5302215E-002
 8.9012215E-001, 5.7167636E+000,-4.3289818E-002
 9.0010499E-001, 5.7682957E+000,-4.2988662E-002
 9.1004768E-001, 5.7658011E+000,-4.3027196E-002
 9.2010738E-001, 5.8368120E+000,-2.6684022E-002
 9.3010538E-001, 6.0110859E+000,-1.5553869E-002
 9.4009028E-001, 6.0168728E+000,-2.0225551E-002
 9.5012265E-001, 6.0236391E+000,-1.3389568E-002
 9.6003054E-001, 6.0956370E+000,-7.7170891E-003
 9.7015550E-001, 6.1638684E+000, 5.4167643E-004
 9.8010613E-001, 6.2401809E+000, 7.8991546E-003
 9.9009656E-001, 6.3483559E+000, 2.3564036E-002
 1.0000352E+000, 6.5332096E+000, 4.4166620E-002
 1.0101589E+000, 6.7741671E+000, 6.8211559E-002
 1.0201803E+000, 6.9886895E+000, 8.6380992E-002
 1.0300218E+000, 7.0777307E+000, 8.6292837E-002
 1.0400912E+000, 6.9747063E+000, 6.8623750E-002
 1.0500993E+000, 6.7907630E+000, 4.9134616E-002
 1.0601075E+000, 6.5827023E+000, 3.0537287E-002
 1.0701157E+000, 6.4388299E+000, 1.5104224E-002
 1.0802035E+000, 6.2153407E+000,-1.0011088E-002
 1.0901105E+000, 6.0283655E+000,-2.3618055E-002
 1.1001180E+000, 5.9651548E+000,-2.0774411E-002
 1.1100153E+000, 5.9503917E+000,-3.1422555E-002
 1.1200852E+000, 5.8146303E+000,-4.3063282E-002
 1.1302167E+000, 5.7653200E+000,-4.2716613E-002
 1.1401632E+000, 5.7900149E+000,-3.9148720E-002
 1.1501032E+000, 5.8269385E+000,-3.5396486E-002
 1.1600990E+000, 5.8848045E+000,-2.8594184E-002
 1.1700764E+000, 5.9456131E+000,-1.9560857E-002
 1.1800204E+000, 6.1033774E+000,-2.4554678E-003
 1.1900785E+000, 6.1672562E+000,-5.9165451E-003
 1.2000041E+000, 6.1201986E+000,-8.9683948E-003
 1.2100782E+000, 6.1478243E+000,-1.0359205E-003
 1.2200444E+000, 6.2024989E+000,-6.4708223E-004
 1.2301342E+000, 6.1757503E+000,-3.9594950E-003
 1.2401612E+000, 6.1910248E+000, 4.5614858E-003
 1.2501656E+000, 6.3263952E+000, 1.9452678E-002
 1.2600083E+000, 6.3912089E+000, 2.0166364E-002
 1.2700118E+000, 6.4589949E+000, 3.2321301E-002
 1.2802312E+000, 6.5308744E+000, 3.1261991E-002
 1.2901055E+000, 6.4902660E+000, 2.8535102E-002
 1.3001598E+000, 6.4337994E+000, 1.8312021E-002
 1.3100440E+000, 6.3249901E+000, 4.2918033E-003
 1.3201818E+000, 6.1395765E+000,-1.4558765E-002
 1.3301565E+000, 5.9994540E+000,-2.4111361E-002
 1.3400118E+000, 5.9361591E+000,-2.6687693E-002
 1.3500861E+000, 5.9477599E+000,-2.3965331E-002
 1.3602273E+000, 5.9849005E+000,-1.8351106E-002
 1.3702453E+000, 6.0653574E+000,-6.5654438E-003
 1.3801118E+000, 6.2357860E+000, 1.1192308E-002
 1.3901504E+000, 6.3296160E+000, 1.2242404E-002
 1.4000191E+000, 6.3060880E+000, 6.6116252E-003
 1.4100437E+000, 6.2097228E+000,-2.2376979E-003
 1.4201387E+000, 6.1622979E+000,-8.0796020E-003
 1.4300339E+000, 6.0669712E+000,-1.7358796E-002
 1.4400939E+000, 5.9909204E+000,-2.3390610E-002
 1.4501121E+000, 5.9520764E+000,-2.4995432E-002
 1.4600327E+000, 5.9448894E+000,-2.6838140E-002
 1.4701457E+000, 5.9438998E+000,-2.3712546E-002
 1.4801396E+000, 6.0281405E+000,-9.7175003E-003
 1.4900279E+000, 6.1822744E+000, 2.2167531E-003
 1.5001432E+000, 6.1772029E+000,-7.4253043E-003
 1.5101108E+000, 6.1091683E+000,-7.7361448E-003
 1.5201700E+000, 6.1845412E+000, 4.0707190E-003
 1.5301324E+000, 6.2905817E+000, 1.0948324E-002
 1.5401819E+000, 6.2915957E+000, 7.6461842E-003
 1.5500108E+000, 6.3114386E+000, 1.6291121E-002
 1.5601596E+000, 6.4454676E+000, 3.0755937E-002
 1.5700788E+000, 6.4682053E+000, 2.0748876E-002
 1.5800945E+000, 6.3627186E+000, 1.4376651E-002
 1.5901492E+000, 6.3571423E+000, 1.6407603E-002
 1.6001198E+000, 6.3410667E+000, 1.2952647E-002
 1.6100727E+000, 6.3200304E+000, 1.0452745E-002
 1.6202151E+000, 6.3006218E+000, 1.1851485E-002
 1.6300911E+000, 6.3809572E+000, 2.1447438E-002
 1.6400993E+000, 6.4041076E+000, 1.9900165E-002
 1.6500622E+000, 6.3682271E+000, 1.3157871E-002
 1.6600472E+000, 6.2885911E+000, 5.5827391E-003
 1.6701203E+000, 6.2413250E+000, 4.2170023E-003
 1.6800696E+000, 6.2108056E+000,-3.9857887E-003
 1.6900124E+000, 6.0962809E+000,-1.6185810E-002
 1.7000585E+000, 5.9637834E+000,-2.9375798E-002
 1.7101733E+000, 5.8533634E+000,-4.1078739E-002
 1.7201047E+000, 5.7297584E+000,-5.2741917E-002
 1.7301105E+000, 5.6474763E+000,-5.5022823E-002
 1.7400393E+000, 5.6747382E+000,-4.7880011E-002
 1.7500213E+000, 5.8148373E+000,-2.7282858E-002
 1.7600660E+000, 6.0192826E+000,-9.1364534E-003
 1.7701547E+000, 6.1993428E+000, 1.0142413E-002
 1.7800872E+000, 6.3798864E+000, 2.2770027E-002
 1.7901418E+000, 6.4588143E+000, 2.7703364E-002
 1.8000297E+000, 6.4726718E+000, 2.6563744E-002
 1.8101115E+000, 6.4708920E+000, 2.6418877E-002
 1.8201934E+000, 6.4478517E+000, 2.4540578E-002
 1.8300813E+000, 6.4400169E+000, 2.3195484E-002
 1.8400779E+000, 6.4236685E+000, 2.4249306E-002
 1.8502043E+000, 6.4870478E+000, 3.1391628E-002
 1.8600732E+000, 6.5098287E+000, 2.6678841E-002
 1.8700352E+000, 6.3936268E+000, 1.5148385E-002
 1.8801572E+000, 6.3503732E+000, 1.3045204E-002
 1.8900855E+000, 6.2888052E+000, 5.5253268E-003
 1.9000879E+000, 6.2063969E+000,-6.4812369E-003
 1.9100903E+000, 6.0556931E+000,-1.9370269E-002
 1.9201062E+000, 5.9645920E+000,-2.9262454E-002
 1.9301682E+000, 5.8261054E+000,-4.2390485E-002
 1.9400730E+000, 5.7520080E+000,-4.5809861E-002
 1.9500167E+000, 5.7652748E+000,-4.0712486E-002
 1.9600466E+000, 5.8387808E+000,-3.1267249E-002
 1.9701054E+000, 5.9638217E+000,-1.4679522E-002
 1.9801807E+000, 6.1873634E+000, 1.0813848E-002
 1.9900206E+000, 6.4133010E+000, 3.0391583E-002
 2.0002003E+000, 6.5723469E+000, 4.3787829E-002
 2.0100549E+000, 6.7197148E+000, 5.8496682E-002
 2.0202011E+000, 6.8118410E+000, 6.3171061E-002
 2.0301912E+000, 6.8299178E+000, 6.2535008E-002
 2.0400525E+000, 6.8046184E+000, 5.6802496E-002
 2.0501379E+000, 6.7155278E+000, 4.5257918E-002
 2.0602234E+000, 6.5854785E+000, 3.2639614E-002
 2.0700847E+000, 6.4561738E+000, 1.9304646E-002
 2.0800289E+000, 6.3376175E+000, 1.0999759E-002
 2.0900359E+000, 6.3362585E+000, 1.4499334E-002
 2.1000448E+000, 6.2859931E+000, 1.9932217E-003
 2.1102014E+000, 6.1615321E+000,-1.1134451E-002
 2.1201922E+000, 6.0157447E+000,-2.3481833E-002
 2.1302245E+000, 5.9062539E+000,-3.5599205E-002
 2.1400288E+000, 5.7935588E+000,-4.3937725E-002
 2.1500834E+000, 5.7337583E+000,-4.9908342E-002
 2.1601363E+000, 5.6610405E+000,-5.7997736E-002
 2.1702096E+000, 5.6070778E+000,-5.9681061E-002
 2.1801957E+000, 5.6389186E+000,-4.9361197E-002
 2.1901810E+000, 5.7793567E+000,-3.5157263E-002
 2.2000936E+000, 5.9101115E+000,-2.4782671E-002
 2.2102082E+000, 6.0003264E+000,-1.1684798E-002
 2.2201837E+000, 6.2061771E+000, 1.1348951E-002
 2.2301480E+000, 6.3747184E+000, 2.0252924E-002
 2.2401566E+000, 6.4067132E+000, 2.0807959E-002
 2.2500084E+000, 6.4296411E+000, 2.7333040E-002
 2.2600121E+000, 6.4864454E+000, 2.5221574E-002
 2.2700908E+000, 6.3735697E+000, 1.1702574E-002
 2.2800717E+000, 6.2918411E+000, 7.9507837E-003
 2.2900842E+000, 6.2655486E+000, 5.3190058E-003
 2.3000978E+000, 6.2340973E+000, 2.2944236E-003
 2.3101789E+000, 6.2502896E+000, 6.8555841E-003
 2.3202045E+000, 6.3237601E+000, 2.0779998E-002
 2.3301696E+000, 6.4887327E+000, 3.4055077E-002
 2.3401435E+000, 6.5527221E+000, 3.5636085E-002
 2.3501126E+000, 6.5791664E+000, 3.9299595E-002
 2.3600632E+000, 6.5717970E+000, 3.3787675E-002
 2.3700138E+000, 6.4615100E+000, 1.8375165E-002
 2.3800085E+000, 6.2824026E+000,-7.5327042E-004
 2.3901722E+000, 6.1402449E+000,-1.1063645E-002
 2.4001620E+000, 6.0419121E+000,-2.0128915E-002
 2.4101518E+000, 5.9582916E+000,-2.8768392E-002
 2.4201085E+000, 5.8860440E+000,-3.2675226E-002
 2.4301003E+000, 5.8519505E+000,-3.6256535E-002
 2.4400955E+000, 5.8045317E+000,-4.3690100E-002
 2.4501424E+000, 5.7221027E+000,-5.0702615E-002
 2.4600262E+000, 5.7090755E+000,-4.6367472E-002
 2.4700927E+000, 5.7530113E+000,-4.2615963E-002
 2.4801531E+000, 5.7889806E+000,-4.0712999E-002
 2.4900124E+000, 5.7966384E+000,-3.9282274E-002
 2.5000728E+000, 5.8373714E+000,-3.1616639E-002
 2.5101333E+000, 5.9312307E+000,-2.4478986E-002
 2.5201349E+000, 5.9934299E+000,-1.4907440E-002
 2.5300085E+000, 6.1473791E+000, 4.5523044E-003
 2.5401357E+000, 6.3792509E+000, 3.0882584E-002
 2.5500991E+000, 6.6158852E+000, 5.0658331E-002
 2.5601283E+000, 6.7697296E+000, 6.3265251E-002
 2.5701183E+000, 6.8382143E+000, 6.2669076E-002
 2.5800721E+000, 6.7887994E+000, 5.3757207E-002
 2.5900132E+000, 6.6424754E+000, 3.7525857E-002
 2.6000566E+000, 6.5460916E+000, 2.7629582E-002
 2.6100905E+000, 6.3590772E+000, 4.3062951E-003
 2.6201280E+000, 6.1815263E+000,-5.1938767E-003
 2.6300256E+000, 6.1581894E+000,-3.2165796E-003
 2.6401432E+000, 6.1595893E+000,-4.6854696E-003
 2.6501287E+000, 6.1494853E+000,-2.0774307E-003
 2.6600483E+000, 6.2469702E+000, 9.7338851E-003
 2.6700977E+000, 6.2657109E+000, 4.5928524E-004
 2.6800436E+000, 6.1211829E+000,-1.6289119E-002
 2.6900919E+000, 5.9704757E+000,-2.6310260E-002
 2.7001361E+000, 5.9528987E+000,-2.3703434E-002
 2.7100475E+000, 5.9300322E+000,-3.0164126E-002
 2.7200780E+000, 5.9094118E+000,-2.8347273E-002
 2.7300358E+000, 5.9437805E+000,-2.1016607E-002
 2.7400662E+000, 6.0704531E+000,-6.3262306E-003
 2.7501054E+000, 6.1350575E+000,-7.3717762E-003
 2.7601057E+000, 6.1572062E+000, 6.4282298E-004
 2.7701239E+000, 6.2663176E+000, 1.1604869E-002
 2.7800864E+000, 6.3531838E+000, 1.8332328E-002
 2.7901025E+000, 6.3375082E+000, 5.8613982E-003
 2.8001714E+000, 6.1877311E+000,-5.0219714E-003
 2.8100863E+000, 6.1083210E+000,-1.2686153E-002
 2.8201561E+000, 6.0818414E+000,-1.0354541E-002
 2.8300957E+000, 6.0816553E+000,-1.5656578E-002
 2.8400030E+000, 6.0123128E+000,-1.9366678E-002
 2.8502143E+000, 6.0827459E+000,-1.7650980E-003
 2.8601775E+000, 6.2516268E+000, 8.4022140E-003
 2.8701167E+000, 6.3067783E+000, 1.2999828E-002
 2.8802200E+000, 6.4008898E+000, 3.0268017E-002
 2.8901109E+000, 6.6140753E+000, 4.8818303E-002
 2.9001512E+000, 6.7346237E+000, 5.6464210E-002
 2.9100582E+000, 6.7397253E+000, 4.7719243E-002
 2.9201285E+000, 6.5879116E+000, 3.1131405E-002
 2.9301479E+000, 6.4629469E+000, 2.1600745E-002
 2.9401853E+000, 6.3626713E+000, 1.1724102E-002
 2.9500333E+000, 6.2366473E+000,-5.2007673E-003
 2.9600708E+000, 6.0755535E+000,-1.7132496E-002
 2.9700913E+000, 6.0095382E+000,-2.1389474E-002
 2.9801479E+000, 5.9249054E+000,-3.3310117E-002
 2.9900553E+000, 5.8528111E+000,-3.3783701E-002
 3.0000196E+000, 5.8458012E+000,-3.9894794E-002
 3.0101564E+000, 5.7326992E+000,-5.0112012E-002
 3.0200203E+000, 5.6968245E+000,-4.9796789E-002
 3.0300986E+000, 5.7260438E+000,-4.5198935E-002
 3.0401458E+000, 5.7485908E+000,-4.5047924E-002
 3.0500851E+000, 5.7597968E+000,-4.2127617E-002
 3.0600208E+000, 5.8510347E+000,-2.6974901E-002
 3.0700340E+000, 6.0002495E+000,-1.2321885E-002
 3.0801709E+000, 6.2365799E+000, 2.1049819E-002
 3.0901838E+000, 6.5267363E+000, 4.2311045E-002
 3.1001026E+000, 6.6774621E+000, 5.1261613E-002
 3.1100748E+000, 6.7138780E+000, 5.1401287E-002
 3.1200153E+000, 6.7322353E+000, 5.5241575E-002
 3.1300528E+000, 6.7710377E+000, 5.6155764E-002
 3.1400904E+000, 6.7197897E+000, 4.6876943E-002
 3.1501234E+000, 6.6486175E+000, 4.3862946E-002
 3.1601784E+000, 6.5951510E+000, 3.5154976E-002
 3.1700581E+000, 6.5024561E+000, 2.1056096E-002
 3.1801106E+000, 6.2848093E+000,-2.7578441E-004
 3.1901328E+000, 6.1434426E+000,-1.1072431E-002
 3.2001952E+000, 6.0269892E+000,-2.4153365E-002
 3.2100764E+000, 5.8841154E+000,-3.6997600E-002
 3.2200720E+000, 5.8567016E+000,-3.2897448E-002
 3.2300593E+000, 5.8469471E+000,-3.9898513E-002
 3.2401112E+000, 5.7501110E+000,-5.0135446E-002
 3.2502186E+000, 5.6608448E+000,-5.4718504E-002
 3.2600272E+000, 5.7115739E+000,-4.2979714E-002
 3.2701077E+000, 5.8153456E+000,-3.5081957E-002
 3.2800000E+000, 5.8667532E+000,-3.0701789E-002
 3.2902132E+000, 5.9762468E+000,-9.9188096E-003
 3.3000273E+000, 6.2430474E+000, 1.4322159E-002
 3.3101223E+000, 6.3578826E+000, 1.4348475E-002
 3.3201698E+000, 6.3764073E+000, 2.2414506E-002
 3.3300703E+000, 6.4738415E+000, 3.2054932E-002
 3.3400500E+000, 6.5371051E+000, 3.3787669E-002
 3.3500741E+000, 6.4985538E+000, 2.7395611E-002
 3.3601139E+000, 6.5187094E+000, 3.4723614E-002
 3.3701087E+000, 6.5611089E+000, 3.6087729E-002
 3.3800788E+000, 6.4967301E+000, 2.3911383E-002
 3.3900031E+000, 6.4071522E+000, 2.1198674E-002
 3.4001177E+000, 6.4616113E+000, 2.7433756E-002
 3.4100854E+000, 6.4316356E+000, 1.8332866E-002
 3.4202346E+000, 6.3126227E+000, 6.0517517E-003
 3.4301969E+000, 6.2656688E+000, 8.5362542E-003
 3.4401522E+000, 6.2900769E+000, 6.2117086E-003
 3.4500312E+000, 6.2108347E+000,-2.5481070E-003
 3.4601327E+000, 6.1374807E+000,-9.9586738E-003
 3.4700472E+000, 6.0975238E+000,-1.1506811E-002
 3.4800946E+000, 6.0665416E+000,-1.5249782E-002
 3.4900864E+000, 6.0235518E+000,-1.9548259E-002
 3.5000878E+000, 5.9980006E+000,-2.0231956E-002
 3.5101949E+000, 6.0248055E+000,-1.6361509E-002
 3.5201246E+000, 6.0267800E+000,-1.8068671E-002
 3.5301943E+000, 6.0309893E+000,-1.5191998E-002
 3.5401693E+000, 6.0870378E+000,-8.7330269E-003
 3.5501939E+000, 6.1083496E+000,-1.0148319E-002
 3.5600139E+000, 6.0906982E+000,-1.0653581E-002
 3.5701613E+000, 6.1222062E+000,-2.6266367E-003
 3.5800626E+000, 6.2413393E+000, 6.3026009E-003
 3.5901574E+000, 6.2163543E+000,-2.9948518E-003
 3.6000516E+000, 6.0941122E+000,-1.6431402E-002
 3.6101325E+000, 6.0384200E+000,-1.5014132E-002
 3.6200093E+000, 6.0298457E+000,-2.0952066E-002
 3.6301133E+000, 5.9266972E+000,-3.3059387E-002
 3.6401307E+000, 5.8788133E+000,-2.7885999E-002
 3.6500965E+000, 6.0219785E+000,-6.7660647E-003
 3.6601760E+000, 6.1971147E+000, 3.9386312E-003
 3.6701603E+000, 6.2693128E+000, 1.0309531E-002
 3.6800452E+000, 6.3803811E+000, 2.9006995E-002
 3.6900232E+000, 6.5844667E+000, 4.3749250E-002
 3.7001036E+000, 6.6675800E+000, 4.8322638E-002
 3.7101493E+000, 6.6584693E+000, 4.1554872E-002
 3.7200870E+000, 6.6093509E+000, 4.3069356E-002
 3.7300501E+000, 6.6327956E+000, 4.0611863E-002
 3.7400427E+000, 6.5605699E+000, 3.0646601E-002
 3.7500820E+000, 6.4360601E+000, 1.8790787E-002
 3.7602164E+000, 6.3609215E+000, 1.4123697E-002
 3.7701494E+000, 6.2679636E+000,-4.6147484E-003
 3.7801513E+000, 6.0081231E+000,-3.3263403E-002
 3.7901911E+000, 5.7863545E+000,-4.6282470E-002
 3.8000658E+000, 5.7301506E+000,-4.6111870E-002
 3.8101601E+000, 5.7378584E+000,-4.7191070E-002
 3.8201676E+000, 5.7486399E+000,-4.0023087E-002
 3.8300275E+000, 5.9057786E+000,-1.9676268E-002
 3.8400553E+000, 6.0941942E+000,-3.4307752E-003
 3.8501213E+000, 6.1952960E+000, 9.3493300E-004
 3.8601150E+000, 6.1766023E+000,-4.4025856E-003
 3.8702040E+000, 6.1919556E+000, 3.9670743E-003
 3.8800104E+000, 6.2588086E+000, 6.2058151E-003
 3.8901171E+000, 6.2521147E+000, 1.8890879E-003
 3.9001267E+000, 6.2072751E+000, 2.7817241E-003
 3.9100955E+000, 6.2673150E+000, 8.9401533E-003
 3.9200529E+000, 6.2887228E+000, 7.9411390E-003
 3.9301707E+000, 6.2648140E+000, 5.0586850E-003
 3.9401658E+000, 6.2658757E+000, 1.0045393E-002
 3.9500606E+000, 6.2739182E+000, 2.3102282E-003
 3.9600741E+000, 6.1735933E+000,-3.6596395E-003
 3.9700850E+000, 6.1841439E+000,-5.3261773E-004
 3.9801153E+000, 6.2014807E+000,-1.6186250E-004
 3.9901194E+000, 6.1350623E+000,-1.1986643E-002
 4.0000242E+000, 6.0706478E+000,-1.2490630E-002
 4.0102105E+000, 6.1243242E+000,-2.5655812E-003
 4.0201258E+000, 6.1903995E+000, 1.5358200E-003
 4.0301913E+000, 6.2592141E+000, 9.4196009E-003
 4.0400845E+000, 6.2897765E+000, 9.8065371E-003
 4.0500684E+000, 6.3370794E+000, 1.7113138E-002
 4.0600407E+000, 6.3713285E+000, 1.7041524E-002
 4.0700664E+000, 6.3469930E+000, 1.1367389E-002
 4.0801690E+000, 6.2925447E+000, 8.4697544E-003
 4.0901825E+000, 6.3018368E+000, 1.1558170E-002
 4.1000457E+000, 6.3085106E+000, 9.5052436E-003
 4.1101061E+000, 6.2760283E+000, 6.9933080E-003
 4.1202087E+000, 6.3030350E+000, 1.7193283E-002
 4.1302153E+000, 6.4546099E+000, 3.2808216E-002
 4.1401608E+000, 6.5445545E+000, 3.2945908E-002
 4.1500088E+000, 6.4968433E+000, 2.4370179E-002
