s,C,kg/m2/s,m
Time,"temp","MLR","thick"
 0.0000000E+000, 2.0000000E+001, 0.0000000E+000, 1.8500000E-002
 5.0100000E+000, 7.9984185E+001, 4.4465721E-014, 1.8500000E-002
 1.0010000E+001, 1.5464375E+002, 1.2622761E-010, 1.8500000E-002
 1.5010000E+001, 2.0511074E+002, 1.5536477E-008, 1.8500000E-002
 2.0000000E+001, 2.4474944E+002, 4.3961823E-007, 1.8499999E-002
 2.5000000E+001, 2.7757475E+002, 5.3199015E-006, 1.8499990E-002
 3.0000000E+001, 3.0550555E+002, 3.6975516E-005, 1.8499913E-002
 3.5000000E+001, 3.2949695E+002, 1.7305197E-004, 1.8499500E-002
 4.0000000E+001, 3.4989108E+002, 5.9269579E-004, 1.8497912E-002
 4.5010000E+001, 3.6648076E+002, 1.5383293E-003, 1.8493294E-002
 5.0010000E+001, 3.7888049E+002, 3.0752907E-003, 1.8482984E-002
 5.5010000E+001, 3.8730903E+002, 4.9140836E-003, 1.8464852E-002
 6.0010000E+001, 3.9273759E+002, 6.6727872E-003, 1.8438428E-002
 6.5010000E+001, 3.9625008E+002, 8.1674189E-003, 1.8404585E-002
 7.0010000E+001, 3.9862521E+002, 9.3899242E-003, 1.8364581E-002
 7.5000000E+001, 4.0032072E+002, 1.0390081E-002, 1.8319595E-002
 8.0000000E+001, 4.0159602E+002, 1.1221718E-002, 1.8270467E-002
 8.5000000E+001, 4.0259667E+002, 1.1925470E-002, 1.8217814E-002
 9.0000000E+001, 4.0340534E+002, 1.2528423E-002, 1.8162200E-002
 9.5000000E+001, 4.0407858E+002, 1.3052950E-002, 1.8104032E-002
 1.0000000E+002, 4.0465381E+002, 1.3516002E-002, 1.8043625E-002
 1.0500000E+002, 4.0515080E+002, 1.3926883E-002, 1.7981235E-002
 1.1000000E+002, 4.0558999E+002, 1.4296459E-002, 1.7917075E-002
 1.1500000E+002, 4.0598231E+002, 1.4631089E-002, 1.7851317E-002
 1.2000000E+002, 4.0633711E+002, 1.4936470E-002, 1.7784107E-002
 1.2500000E+002, 4.0666177E+002, 1.5217485E-002, 1.7715565E-002
 1.3000000E+002, 4.0696211E+002, 1.5478078E-002, 1.7645795E-002
 1.3500000E+002, 4.0724321E+002, 1.5722112E-002, 1.7574878E-002
 1.4000000E+002, 4.0750735E+002, 1.5951458E-002, 1.7502887E-002
 1.4500000E+002, 4.0775617E+002, 1.6167626E-002, 1.7429884E-002
 1.5000000E+002, 4.0799580E+002, 1.6375151E-002, 1.7355919E-002
 1.5500000E+002, 4.0822594E+002, 1.6574538E-002, 1.7281028E-002
 1.6001000E+002, 4.0844825E+002, 1.6767039E-002, 1.7205174E-002
 1.6501000E+002, 4.0866453E+002, 1.6954605E-002, 1.7128454E-002
 1.7001000E+002, 4.0887437E+002, 1.7137036E-002, 1.7050971E-002
 1.7501000E+002, 4.0908342E+002, 1.7318874E-002, 1.6972661E-002
 1.8001000E+002, 4.0928741E+002, 1.7497558E-002, 1.6893532E-002
 1.8501000E+002, 4.0949044E+002, 1.7676154E-002, 1.6813591E-002
 1.9001000E+002, 4.0969103E+002, 1.7854123E-002, 1.6732838E-002
 1.9501000E+002, 4.0988950E+002, 1.8031766E-002, 1.6651280E-002
 2.0001000E+002, 4.1008881E+002, 1.8211698E-002, 1.6568907E-002
 2.0501000E+002, 4.1028592E+002, 1.8391986E-002, 1.6485716E-002
 2.1001000E+002, 4.1048384E+002, 1.8574913E-002, 1.6401702E-002
 2.1501000E+002, 4.1068349E+002, 1.8761760E-002, 1.6316846E-002
 2.2001000E+002, 4.1088322E+002, 1.8951440E-002, 1.6231135E-002
 2.2501000E+002, 4.1108407E+002, 1.9145035E-002, 1.6144552E-002
 2.3001000E+002, 4.1128598E+002, 1.9342604E-002, 1.6057082E-002
 2.3501000E+002, 4.1148861E+002, 1.9544435E-002, 1.5968702E-002
 2.4001000E+002, 4.1169307E+002, 1.9751469E-002, 1.5879394E-002
 2.4501000E+002, 4.1189790E+002, 1.9962795E-002, 1.5789136E-002
 2.5001000E+002, 4.1210398E+002, 2.0179626E-002, 1.5697904E-002
 2.5501000E+002, 4.1231041E+002, 2.0401337E-002, 1.5605675E-002
 2.6001000E+002, 4.1251992E+002, 2.0630408E-002, 1.5512423E-002
 2.6501000E+002, 4.1273271E+002, 2.0867590E-002, 1.5418112E-002
 2.7001000E+002, 4.1294696E+002, 2.1111808E-002, 1.5322705E-002
 2.7501000E+002, 4.1316044E+002, 2.1361482E-002, 1.5226176E-002
 2.8001000E+002, 4.1337668E+002, 2.1619761E-002, 1.5128494E-002
 2.8501000E+002, 4.1359395E+002, 2.1886024E-002, 1.5029618E-002
 2.9001000E+002, 4.1381444E+002, 2.2162186E-002, 1.4929512E-002
 2.9501000E+002, 4.1403776E+002, 2.2448950E-002, 1.4828125E-002
 3.0001000E+002, 4.1426028E+002, 2.2743590E-002, 1.4725418E-002
 3.0501000E+002, 4.1448611E+002, 2.3050170E-002, 1.4621343E-002
 3.1001000E+002, 4.1471199E+002, 2.3366487E-002, 1.4515855E-002
 3.1501000E+002, 4.1494087E+002, 2.3696210E-002, 1.4408895E-002
 3.2001000E+002, 4.1516938E+002, 2.4036549E-002, 1.4300417E-002
 3.2501000E+002, 4.1540060E+002, 2.4391330E-002, 1.4190357E-002
 3.3001000E+002, 4.1563371E+002, 2.4760498E-002, 1.4078652E-002
 3.3501000E+002, 4.1586837E+002, 2.5144278E-002, 1.3965236E-002
 3.4001000E+002, 4.1610039E+002, 2.5539421E-002, 1.3850048E-002
 3.4501000E+002, 4.1633529E+002, 2.5950366E-002, 1.3733030E-002
 3.5001000E+002, 4.1657183E+002, 2.6376336E-002, 1.3614108E-002
 3.5501000E+002, 4.1680586E+002, 2.6811891E-002, 1.3493228E-002
 3.6001000E+002, 4.1703813E+002, 2.7255906E-002, 1.3370346E-002
 3.6501000E+002, 4.1727002E+002, 2.7706004E-002, 1.3245434E-002
 3.7001000E+002, 4.1750065E+002, 2.8157575E-002, 1.3118468E-002
 3.7501000E+002, 4.1773048E+002, 2.8605270E-002, 1.2989457E-002
 3.8001000E+002, 4.1795871E+002, 2.9042020E-002, 1.2858433E-002
 3.8501000E+002, 4.1818463E+002, 2.9460204E-002, 1.2725463E-002
 3.9001000E+002, 4.1840822E+002, 2.9852989E-002, 1.2590647E-002
 3.9501000E+002, 4.1862988E+002, 3.0214850E-002, 1.2454115E-002
 4.0001000E+002, 4.1885059E+002, 3.0542270E-002, 1.2316016E-002
 4.0501000E+002, 4.1907204E+002, 3.0834091E-002, 1.2176510E-002
 4.1001000E+002, 4.1929681E+002, 3.1091527E-002, 1.2035756E-002
 4.1501000E+002, 4.1952860E+002, 3.1317646E-002, 1.1893905E-002
 4.2001000E+002, 4.1977255E+002, 3.1516483E-002, 1.1751090E-002
 4.2501000E+002, 4.2003577E+002, 3.1691973E-002, 1.1607425E-002
 4.3001000E+002, 4.2032830E+002, 3.1846710E-002, 1.1463010E-002
 4.3501000E+002, 4.2066488E+002, 3.1980754E-002, 1.1317939E-002
 4.4001000E+002, 4.2103913E+002, 3.2083139E-002, 1.1172319E-002
 4.4501000E+002, 4.2139075E+002, 3.2147424E-002, 1.1026336E-002
 4.5001000E+002, 4.2189068E+002, 3.2174395E-002, 1.0880123E-002
 4.5501000E+002, 4.2265155E+002, 3.2095252E-002, 1.0733999E-002
 4.6001000E+002, 4.2385612E+002, 3.1799130E-002, 1.0588671E-002
 4.6501000E+002, 4.2572802E+002, 3.1006200E-002, 1.0445631E-002
 4.7001000E+002, 4.2908777E+002, 2.8992981E-002, 1.0308690E-002
 4.7501000E+002, 4.3825919E+002, 2.6383424E-002, 1.0182841E-002
 4.8001000E+002, 4.5660773E+002, 2.1609849E-002, 1.0072109E-002
 4.8501000E+002, 5.6183390E+002, 5.4771431E-003, 1.0004811E-002
 4.9001000E+002, 6.3063656E+002, 0.0000000E+000, 1.0000000E-002
 4.9501000E+002, 6.4132702E+002, 0.0000000E+000, 1.0000000E-002
 5.0001000E+002, 6.4760567E+002, 0.0000000E+000, 1.0000000E-002
 5.0501000E+002, 6.5142488E+002, 0.0000000E+000, 1.0000000E-002
 5.1001000E+002, 6.5366272E+002, 0.0000000E+000, 1.0000000E-002
 5.1501000E+002, 6.5493821E+002, 0.0000000E+000, 1.0000000E-002
 5.2001000E+002, 6.5565366E+002, 0.0000000E+000, 1.0000000E-002
 5.2501000E+002, 6.5605146E+002, 0.0000000E+000, 1.0000000E-002
 5.3001000E+002, 6.5627154E+002, 0.0000000E+000, 1.0000000E-002
 5.3501000E+002, 6.5639292E+002, 0.0000000E+000, 1.0000000E-002
 5.4001000E+002, 6.5645965E+002, 0.0000000E+000, 1.0000000E-002
 5.4501000E+002, 6.5649652E+002, 0.0000000E+000, 1.0000000E-002
 5.5001000E+002, 6.5651684E+002, 0.0000000E+000, 1.0000000E-002
 5.5501000E+002, 6.5652797E+002, 0.0000000E+000, 1.0000000E-002
 5.6001000E+002, 6.5653414E+002, 0.0000000E+000, 1.0000000E-002
 5.6501000E+002, 6.5653754E+002, 0.0000000E+000, 1.0000000E-002
 5.7001000E+002, 6.5653930E+002, 0.0000000E+000, 1.0000000E-002
 5.7501000E+002, 6.5654031E+002, 0.0000000E+000, 1.0000000E-002
 5.8001000E+002, 6.5654089E+002, 0.0000000E+000, 1.0000000E-002
 5.8501000E+002, 6.5654125E+002, 0.0000000E+000, 1.0000000E-002
 5.9001000E+002, 6.5654140E+002, 0.0000000E+000, 1.0000000E-002
 5.9501000E+002, 6.5654157E+002, 0.0000000E+000, 1.0000000E-002
 6.0001000E+002, 6.5654165E+002, 0.0000000E+000, 1.0000000E-002
 6.0501000E+002, 6.5654156E+002, 0.0000000E+000, 1.0000000E-002
 6.1001000E+002, 6.5654154E+002, 0.0000000E+000, 1.0000000E-002
 6.1501000E+002, 6.5654151E+002, 0.0000000E+000, 1.0000000E-002
 6.2001000E+002, 6.5654143E+002, 0.0000000E+000, 1.0000000E-002
 6.2501000E+002, 6.5654141E+002, 0.0000000E+000, 1.0000000E-002
 6.3001000E+002, 6.5654149E+002, 0.0000000E+000, 1.0000000E-002
 6.3501000E+002, 6.5654141E+002, 0.0000000E+000, 1.0000000E-002
 6.4001000E+002, 6.5654149E+002, 0.0000000E+000, 1.0000000E-002
 6.4501000E+002, 6.5654163E+002, 0.0000000E+000, 1.0000000E-002
 6.5001000E+002, 6.5654165E+002, 0.0000000E+000, 1.0000000E-002
 6.5501000E+002, 6.5654157E+002, 0.0000000E+000, 1.0000000E-002
 6.6001000E+002, 6.5654159E+002, 0.0000000E+000, 1.0000000E-002
 6.6501000E+002, 6.5654151E+002, 0.0000000E+000, 1.0000000E-002
 6.7001000E+002, 6.5654142E+002, 0.0000000E+000, 1.0000000E-002
 6.7501000E+002, 6.5654160E+002, 0.0000000E+000, 1.0000000E-002
 6.8001000E+002, 6.5654164E+002, 0.0000000E+000, 1.0000000E-002
 6.8501000E+002, 6.5654152E+002, 0.0000000E+000, 1.0000000E-002
 6.9001000E+002, 6.5654154E+002, 0.0000000E+000, 1.0000000E-002
 6.9501000E+002, 6.5654153E+002, 0.0000000E+000, 1.0000000E-002
 7.0001000E+002, 6.5654158E+002, 0.0000000E+000, 1.0000000E-002
 7.0501000E+002, 6.5654152E+002, 0.0000000E+000, 1.0000000E-002
 7.1001000E+002, 6.5654168E+002, 0.0000000E+000, 1.0000000E-002
 7.1501000E+002, 6.5654169E+002, 0.0000000E+000, 1.0000000E-002
 7.2001000E+002, 6.5654168E+002, 0.0000000E+000, 1.0000000E-002
 7.2501000E+002, 6.5654152E+002, 0.0000000E+000, 1.0000000E-002
 7.3001000E+002, 6.5654146E+002, 0.0000000E+000, 1.0000000E-002
 7.3501000E+002, 6.5654144E+002, 0.0000000E+000, 1.0000000E-002
 7.4001000E+002, 6.5654141E+002, 0.0000000E+000, 1.0000000E-002
 7.4501000E+002, 6.5654140E+002, 0.0000000E+000, 1.0000000E-002
 7.5001000E+002, 6.5654138E+002, 0.0000000E+000, 1.0000000E-002
 7.5501000E+002, 6.5654137E+002, 0.0000000E+000, 1.0000000E-002
 7.6001000E+002, 6.5654137E+002, 0.0000000E+000, 1.0000000E-002
 7.6501000E+002, 6.5654136E+002, 0.0000000E+000, 1.0000000E-002
 7.7001000E+002, 6.5654135E+002, 0.0000000E+000, 1.0000000E-002
 7.7501000E+002, 6.5654134E+002, 0.0000000E+000, 1.0000000E-002
 7.8001000E+002, 6.5654134E+002, 0.0000000E+000, 1.0000000E-002
 7.8501000E+002, 6.5654134E+002, 0.0000000E+000, 1.0000000E-002
 7.9001000E+002, 6.5654134E+002, 0.0000000E+000, 1.0000000E-002
 7.9501000E+002, 6.5654134E+002, 0.0000000E+000, 1.0000000E-002
 8.0000000E+002, 6.5654134E+002, 0.0000000E+000, 1.0000000E-002
