s,C,kg/m2/s,m
Time,"temp","MLR","thick"
 0.0000000E+000, 2.0000000E+001, 0.0000000E+000, 3.2234300E-002
 5.0100000E+000, 6.9967872E+001, 0.0000000E+000, 3.2234300E-002
 1.0010000E+001, 1.2929795E+002, 0.0000000E+000, 3.2234300E-002
 1.5010000E+001, 1.6897879E+002, 0.0000000E+000, 3.2234300E-002
 2.0000000E+001, 2.0047671E+002, 0.0000000E+000, 3.2234300E-002
 2.5000000E+001, 2.2700010E+002, 0.0000000E+000, 3.2234300E-002
 3.0000000E+001, 2.5005031E+002, 0.0000000E+000, 3.2234300E-002
 3.5000000E+001, 2.6466997E+002, 4.1643189E-010, 3.2234300E-002
 4.0000000E+001, 2.8383133E+002, 5.2145822E-009, 3.2234300E-002
 4.5010000E+001, 2.9770260E+002, 2.2334728E-008, 3.2234300E-002
 5.0010000E+001, 3.1477228E+002, 1.1880458E-007, 3.2234300E-002
 5.5010000E+001, 3.2724730E+002, 3.6667112E-007, 3.2234299E-002
 6.0010000E+001, 3.4052531E+002, 1.2394598E-006, 3.2234296E-002
 6.5010000E+001, 3.5273278E+002, 3.4525961E-006, 3.2234286E-002
 7.0010000E+001, 3.6291535E+002, 8.1987829E-006, 3.2234262E-002
 7.5000000E+001, 3.7396156E+002, 2.0020295E-005, 3.2234204E-002
 8.0000000E+001, 3.8316402E+002, 4.0792584E-005, 3.2234076E-002
 8.5000000E+001, 3.9202375E+002, 8.1084686E-005, 3.2233821E-002
 9.0000000E+001, 4.0083093E+002, 1.5600484E-004, 3.2233318E-002
 9.5000000E+001, 4.0819194E+002, 2.6655457E-004, 3.2232416E-002
 1.0000000E+002, 4.1539474E+002, 4.4827160E-004, 3.2230894E-002
 1.0500000E+002, 4.2203097E+002, 7.1255371E-004, 3.2228392E-002
 1.1000000E+002, 4.2750143E+002, 1.0406860E-003, 3.2224611E-002
 1.1500000E+002, 4.3259720E+002, 1.4761161E-003, 3.2219177E-002
 1.2000000E+002, 4.3690575E+002, 1.9684001E-003, 3.2211687E-002
 1.2500000E+002, 4.4037385E+002, 2.4801656E-003, 3.2202035E-002
 1.3000000E+002, 4.4348765E+002, 3.0450048E-003, 3.2190030E-002
 1.3500000E+002, 4.4600281E+002, 3.5769985E-003, 3.2175608E-002
 1.4000000E+002, 4.4811553E+002, 4.0937288E-003, 3.2158940E-002
 1.4500000E+002, 4.5002270E+002, 4.6125957E-003, 3.2139996E-002
 1.5000000E+002, 4.5159393E+002, 5.0741853E-003, 3.2118922E-002
 1.5500000E+002, 4.5302169E+002, 5.5334841E-003, 3.2095863E-002
 1.6001000E+002, 4.5429794E+002, 5.9648857E-003, 3.2070819E-002
 1.6501000E+002, 4.5541889E+002, 6.3676281E-003, 3.2043982E-002
 1.7001000E+002, 4.5646732E+002, 6.7656118E-003, 3.2015420E-002
 1.7501000E+002, 4.5739865E+002, 7.1338631E-003, 3.1985197E-002
 1.8001000E+002, 4.5826732E+002, 7.4977050E-003, 3.1953384E-002
 1.8501000E+002, 4.5746779E+002, 7.7253947E-003, 3.1920135E-002
 1.9001000E+002, 4.5617992E+002, 8.0134384E-003, 3.1886119E-002
 1.9501000E+002, 4.5726978E+002, 8.4434725E-003, 3.1850308E-002
 2.0001000E+002, 4.5821371E+002, 8.8114983E-003, 3.1812780E-002
 2.0501000E+002, 4.5906970E+002, 9.1468577E-003, 3.1773731E-002
 2.1001000E+002, 4.5985770E+002, 9.4610570E-003, 3.1733270E-002
 2.1501000E+002, 4.6058835E+002, 9.7599348E-003, 3.1691479E-002
 2.2001000E+002, 4.6126523E+002, 1.0045743E-002, 3.1648417E-002
 2.2501000E+002, 4.6188612E+002, 1.0317265E-002, 3.1604144E-002
 2.3001000E+002, 4.5943844E+002, 1.0373552E-002, 3.1559148E-002
 2.3501000E+002, 4.5988712E+002, 1.0739972E-002, 3.1513296E-002
 2.4001000E+002, 4.6070089E+002, 1.1057050E-002, 3.1465886E-002
 2.4501000E+002, 4.6143381E+002, 1.1337209E-002, 3.1417196E-002
 2.5001000E+002, 4.6212400E+002, 1.1613696E-002, 3.1367303E-002
 2.5501000E+002, 4.6277867E+002, 1.1895386E-002, 3.1316197E-002
 2.6001000E+002, 4.6338771E+002, 1.2177778E-002, 3.1263863E-002
 2.6501000E+002, 4.6092050E+002, 1.2247842E-002, 3.1210815E-002
 2.7001000E+002, 4.6165769E+002, 1.2690901E-002, 3.1156584E-002
 2.7501000E+002, 4.6245044E+002, 1.3047617E-002, 3.1100609E-002
 2.8001000E+002, 4.6317101E+002, 1.3368069E-002, 3.1043173E-002
 2.8501000E+002, 4.6382997E+002, 1.3667934E-002, 3.0984395E-002
 2.9001000E+002, 4.6443884E+002, 1.3959174E-002, 3.0924328E-002
 2.9501000E+002, 4.6203427E+002, 1.4026363E-002, 3.0863584E-002
 3.0001000E+002, 4.6287602E+002, 1.4478240E-002, 3.0801555E-002
 3.0501000E+002, 4.6362195E+002, 1.4816801E-002, 3.0737847E-002
 3.1001000E+002, 4.6429447E+002, 1.5114531E-002, 3.0672768E-002
 3.1501000E+002, 4.6490644E+002, 1.5391472E-002, 3.0606441E-002
 3.2001000E+002, 4.6346037E+002, 1.5478996E-002, 3.0539259E-002
 3.2501000E+002, 4.6340312E+002, 1.5850978E-002, 3.0471264E-002
 3.3001000E+002, 4.6414059E+002, 1.6184094E-002, 3.0401590E-002
 3.3501000E+002, 4.6479408E+002, 1.6458649E-002, 3.0330613E-002
 3.4001000E+002, 4.6539101E+002, 1.6710280E-002, 3.0258499E-002
 3.4501000E+002, 4.6363169E+002, 1.6760092E-002, 3.0185751E-002
 3.5001000E+002, 4.6403034E+002, 1.7144863E-002, 3.0112060E-002
 3.5501000E+002, 4.6471734E+002, 1.7421247E-002, 3.0036884E-002
 3.6001000E+002, 4.6533633E+002, 1.7648761E-002, 2.9960633E-002
 3.6501000E+002, 4.6501746E+002, 1.7749542E-002, 2.9883526E-002
 3.7001000E+002, 4.6395272E+002, 1.7938131E-002, 2.9806160E-002
 3.7501000E+002, 4.6468580E+002, 1.8228445E-002, 2.9727476E-002
 3.8001000E+002, 4.6532015E+002, 1.8424418E-002, 2.9647778E-002
 3.8501000E+002, 4.6584643E+002, 1.8579862E-002, 2.9567310E-002
 3.9001000E+002, 4.6392063E+002, 1.8548252E-002, 2.9486734E-002
 3.9501000E+002, 4.6470615E+002, 1.8856019E-002, 2.9405312E-002
 4.0001000E+002, 4.6534670E+002, 1.9013009E-002, 2.9322964E-002
 4.0501000E+002, 4.6592619E+002, 1.9128486E-002, 2.9240037E-002
 4.1001000E+002, 4.6430234E+002, 1.9047187E-002, 2.9157088E-002
 4.1501000E+002, 4.6475148E+002, 1.9294753E-002, 2.9073717E-002
 4.2001000E+002, 4.6540203E+002, 1.9422303E-002, 2.8989525E-002
 4.2501000E+002, 4.6598536E+002, 1.9502911E-002, 2.8904893E-002
 4.3001000E+002, 4.6453102E+002, 1.9394433E-002, 2.8820340E-002
 4.3501000E+002, 4.6483771E+002, 1.9604231E-002, 2.8735582E-002
 4.4001000E+002, 4.6548738E+002, 1.9705054E-002, 2.8650099E-002
 4.4501000E+002, 4.6607230E+002, 1.9760384E-002, 2.8564295E-002
 4.5001000E+002, 4.6464186E+002, 1.9636948E-002, 2.8478660E-002
 4.5501000E+002, 4.6495393E+002, 1.9824936E-002, 2.8392891E-002
 4.6001000E+002, 4.6561052E+002, 1.9911474E-002, 2.8306480E-002
 4.6501000E+002, 4.6619789E+002, 1.9949706E-002, 2.8219817E-002
 4.7001000E+002, 4.6468870E+002, 1.9816856E-002, 2.8133409E-002
 4.7501000E+002, 4.6512154E+002, 2.0001471E-002, 2.8046836E-002
 4.8001000E+002, 4.6578237E+002, 2.0073276E-002, 2.7959693E-002
 4.8501000E+002, 4.6638380E+002, 2.0103650E-002, 2.7872342E-002
 4.9001000E+002, 4.6472774E+002, 1.9962966E-002, 2.7785329E-002
 4.9501000E+002, 4.6536251E+002, 2.0155526E-002, 2.7698056E-002
 5.0001000E+002, 4.6603717E+002, 2.0214472E-002, 2.7610269E-002
 5.0501000E+002, 4.6656305E+002, 2.0217376E-002, 2.7522336E-002
 5.1001000E+002, 4.6488225E+002, 2.0093558E-002, 2.7434857E-002
 5.1501000E+002, 4.6569624E+002, 2.0274812E-002, 2.7347000E-002
 5.2001000E+002, 4.6640029E+002, 2.0315823E-002, 2.7258740E-002
 5.2501000E+002, 4.6664914E+002, 2.0268329E-002, 2.7170409E-002
 5.3001000E+002, 4.6538094E+002, 2.0230983E-002, 2.7082565E-002
 5.3501000E+002, 4.6622497E+002, 2.0367611E-002, 2.6994222E-002
 5.4001000E+002, 4.6697491E+002, 2.0372254E-002, 2.6905636E-002
 5.4501000E+002, 4.6696402E+002, 2.0280210E-002, 2.6817153E-002
 5.5001000E+002, 4.6618023E+002, 2.0317539E-002, 2.6729079E-002
 5.5501000E+002, 4.6711136E+002, 2.0380269E-002, 2.6640532E-002
 5.6001000E+002, 4.6799332E+002, 2.0347997E-002, 2.6551981E-002
 5.6501000E+002, 4.6784732E+002, 2.0226653E-002, 2.6463699E-002
 5.7001000E+002, 4.6768080E+002, 2.0278571E-002, 2.6375759E-002
 5.7501000E+002, 4.6888552E+002, 2.0253702E-002, 2.6287596E-002
 5.8001000E+002, 4.7012456E+002, 2.0164011E-002, 2.6199722E-002
 5.8501000E+002, 4.7030113E+002, 1.9990784E-002, 2.6112388E-002
 5.9001000E+002, 4.7117079E+002, 1.9925601E-002, 2.6025649E-002
 5.9501000E+002, 4.7325732E+002, 1.9757576E-002, 2.5939354E-002
 6.0001000E+002, 4.7571193E+002, 1.9523733E-002, 2.5853934E-002
 6.0501000E+002, 4.7817016E+002, 1.9082069E-002, 2.5769875E-002
 6.1001000E+002, 4.8219418E+002, 1.8669156E-002, 2.5687877E-002
 6.1501000E+002, 4.8832346E+002, 1.8076719E-002, 2.5607889E-002
 6.2001000E+002, 4.9793756E+002, 1.7036688E-002, 2.5531315E-002
 6.2501000E+002, 5.2268548E+002, 1.3709633E-002, 2.5462265E-002
 6.3001000E+002, 5.3989575E+002, 0.0000000E+000, 2.5434300E-002
 6.3501000E+002, 5.1998580E+002, 0.0000000E+000, 2.5434300E-002
 6.4001000E+002, 5.1571278E+002, 0.0000000E+000, 2.5434300E-002
 6.4501000E+002, 5.1439249E+002, 0.0000000E+000, 2.5434300E-002
 6.5001000E+002, 5.1418010E+002, 0.0000000E+000, 2.5434300E-002
 6.5501000E+002, 5.1448431E+002, 0.0000000E+000, 2.5434300E-002
 6.6001000E+002, 5.1504727E+002, 0.0000000E+000, 2.5434300E-002
 6.6501000E+002, 5.1573978E+002, 0.0000000E+000, 2.5434300E-002
 6.7001000E+002, 5.1649245E+002, 0.0000000E+000, 2.5434300E-002
 6.7501000E+002, 5.1726634E+002, 0.0000000E+000, 2.5434300E-002
 6.8001000E+002, 5.1803895E+002, 0.0000000E+000, 2.5434300E-002
 6.8501000E+002, 5.1879710E+002, 0.0000000E+000, 2.5434300E-002
 6.9001000E+002, 5.1953312E+002, 0.0000000E+000, 2.5434300E-002
 6.9501000E+002, 5.2024271E+002, 0.0000000E+000, 2.5434300E-002
 7.0001000E+002, 5.2092363E+002, 0.0000000E+000, 2.5434300E-002
 7.0501000E+002, 5.2157496E+002, 0.0000000E+000, 2.5434300E-002
 7.1001000E+002, 5.2219658E+002, 0.0000000E+000, 2.5434300E-002
 7.1501000E+002, 5.2278888E+002, 0.0000000E+000, 2.5434300E-002
 7.2001000E+002, 5.2335258E+002, 0.0000000E+000, 2.5434300E-002
 7.2501000E+002, 5.2388858E+002, 0.0000000E+000, 2.5434300E-002
 7.3001000E+002, 5.2439787E+002, 0.0000000E+000, 2.5434300E-002
 7.3501000E+002, 5.2488152E+002, 0.0000000E+000, 2.5434300E-002
 7.4001000E+002, 5.2534061E+002, 0.0000000E+000, 2.5434300E-002
 7.4501000E+002, 5.2577622E+002, 0.0000000E+000, 2.5434300E-002
 7.5000000E+002, 5.2618900E+002, 0.0000000E+000, 2.5434300E-002
