s,kW,C,kg/s,m,kW/m2
Time,"HRR","temp","MLR","thick","flux"
 0.000E+000, 0.000E+000, 2.000E+001, 0.000E+000, 1.900E-002,-4.759E-011
 2.012E+000, 0.000E+000, 3.597E+001, 0.000E+000, 1.900E-002, 3.502E+001
 4.003E+000, 0.000E+000, 5.859E+001, 0.000E+000, 1.900E-002, 3.507E+001
 6.003E+000, 0.000E+000, 7.522E+001, 0.000E+000, 1.900E-002, 3.511E+001
 8.013E+000, 0.000E+000, 8.907E+001, 0.000E+000, 1.900E-002, 3.514E+001
 1.001E+001, 0.000E+000, 1.011E+002, 0.000E+000, 1.900E-002, 3.516E+001
 1.201E+001, 0.000E+000, 1.118E+002, 0.000E+000, 1.900E-002, 3.519E+001
 1.400E+001, 0.000E+000, 1.216E+002, 0.000E+000, 1.900E-002, 3.522E+001
 1.600E+001, 0.000E+000, 1.306E+002, 0.000E+000, 1.900E-002, 3.524E+001
 1.801E+001, 0.000E+000, 1.389E+002, 0.000E+000, 1.900E-002, 3.526E+001
 2.001E+001, 0.000E+000, 1.467E+002, 0.000E+000, 1.900E-002, 3.529E+001
 2.200E+001, 0.000E+000, 1.541E+002, 0.000E+000, 1.900E-002, 3.531E+001
 2.401E+001, 1.142E-008, 1.611E+002, 0.000E+000, 1.900E-002, 3.532E+001
 2.601E+001, 9.146E-008, 1.677E+002, 0.000E+000, 1.900E-002, 3.534E+001
 2.801E+001, 2.880E-007, 1.740E+002, 0.000E+000, 1.900E-002, 3.536E+001
 3.000E+001, 6.869E-007, 1.801E+002, 0.000E+000, 1.900E-002, 3.538E+001
 3.201E+001, 1.473E-006, 1.859E+002, 0.000E+000, 1.900E-002, 3.540E+001
 3.400E+001, 2.949E-006, 1.915E+002, 0.000E+000, 1.900E-002, 3.542E+001
 3.601E+001, 5.625E-006, 1.969E+002, 0.000E+000, 1.900E-002, 3.544E+001
 3.801E+001, 1.032E-005, 2.021E+002, 0.000E+000, 1.900E-002, 3.545E+001
 4.000E+001, 1.834E-005, 2.072E+002, 0.000E+000, 1.900E-002, 3.547E+001
 4.200E+001, 3.164E-005, 2.122E+002, 0.000E+000, 1.900E-002, 3.549E+001
 4.401E+001, 5.330E-005, 2.170E+002, 0.000E+000, 1.900E-002, 3.550E+001
 4.601E+001, 8.778E-005, 2.217E+002, 0.000E+000, 1.900E-002, 3.552E+001
 4.800E+001, 1.415E-004, 2.263E+002, 0.000E+000, 1.900E-002, 3.553E+001
 5.001E+001, 2.242E-004, 2.308E+002, 0.000E+000, 1.900E-002, 3.555E+001
 5.201E+001, 3.495E-004, 2.352E+002, 0.000E+000, 1.900E-002, 3.556E+001
 5.401E+001, 5.356E-004, 2.396E+002, 0.000E+000, 1.900E-002, 3.557E+001
 5.601E+001, 8.100E-004, 2.438E+002, 0.000E+000, 1.900E-002, 3.559E+001
 5.800E+001, 1.207E-003, 2.480E+002, 0.000E+000, 1.900E-002, 3.560E+001
 6.001E+001, 1.780E-003, 2.521E+002, 0.000E+000, 1.900E-002, 3.562E+001
 6.200E+001, 2.593E-003, 2.561E+002, 0.000E+000, 1.900E-002, 3.563E+001
 6.401E+001, 3.734E-003, 2.601E+002, 0.000E+000, 1.900E-002, 3.563E+001
 6.600E+001, 5.328E-003, 2.640E+002, 0.000E+000, 1.900E-002, 3.565E+001
 6.800E+001, 7.525E-003, 2.679E+002, 0.000E+000, 1.900E-002, 3.567E+001
 7.000E+001, 1.054E-002, 2.717E+002, 0.000E+000, 1.900E-002, 3.566E+001
 7.200E+001, 1.461E-002, 2.754E+002, 0.000E+000, 1.900E-002, 3.566E+001
 7.401E+001, 2.014E-002, 2.791E+002, 0.000E+000, 1.900E-002, 3.571E+001
 7.600E+001, 2.748E-002, 2.828E+002, 0.000E+000, 1.900E-002, 3.571E+001
 7.801E+001, 3.718E-002, 2.864E+002, 0.000E+000, 1.900E-002, 3.571E+001
 8.001E+001, 5.002E-002, 2.900E+002, 0.000E+000, 1.900E-002, 3.571E+001
 8.200E+001, 6.696E-002, 2.934E+002, 0.000E+000, 1.900E-002, 3.566E+001
 8.401E+001, 8.880E-002, 2.969E+002, 0.000E+000, 1.900E-002, 3.576E+001
 8.601E+001, 1.173E-001, 3.005E+002, 0.000E+000, 1.900E-002, 3.578E+001
 8.801E+001, 1.538E-001, 3.037E+002, 0.000E+000, 1.900E-002, 3.570E+001
 9.001E+001, 2.005E-001, 3.071E+002, 0.000E+000, 1.900E-002, 3.573E+001
 9.200E+001, 2.601E-001, 3.104E+002, 0.000E+000, 1.900E-002, 3.580E+001
 9.401E+001, 3.355E-001, 3.138E+002, 0.000E+000, 1.900E-002, 3.585E+001
 9.601E+001, 4.311E-001, 3.171E+002, 0.000E+000, 1.900E-002, 3.586E+001
 9.801E+001, 5.507E-001, 3.203E+002, 0.000E+000, 1.900E-002, 3.591E+001
 1.000E+002, 7.010E-001, 3.235E+002, 0.000E+000, 1.900E-002, 3.597E+001
 1.020E+002, 8.886E-001, 3.270E+002, 0.000E+000, 1.900E-002, 3.618E+001
 1.040E+002, 1.121E+000, 3.304E+002, 0.000E+000, 1.900E-002, 3.626E+001
 1.060E+002, 1.412E+000, 3.339E+002, 0.000E+000, 1.900E-002, 3.645E+001
 1.080E+002, 1.768E+000, 3.372E+002, 0.000E+000, 1.900E-002, 3.656E+001
 1.100E+002, 2.209E+000, 3.405E+002, 0.000E+000, 1.900E-002, 3.669E+001
 1.120E+002, 2.760E+000, 3.440E+002, 0.000E+000, 1.900E-002, 3.696E+001
 1.140E+002, 3.435E+000, 3.477E+002, 0.000E+000, 1.900E-002, 3.730E+001
 1.160E+002, 4.276E+000, 3.513E+002, 0.000E+000, 1.900E-002, 3.758E+001
 1.180E+002, 5.309E+000, 3.553E+002, 0.000E+000, 1.900E-002, 3.822E+001
 1.200E+002, 6.609E+000, 3.595E+002, 0.000E+000, 1.900E-002, 3.905E+001
 1.220E+002, 8.218E+000, 3.638E+002, 0.000E+000, 1.900E-002, 3.964E+001
 1.240E+002, 1.023E+001, 3.684E+002, 0.000E+000, 1.899E-002, 4.078E+001
 1.260E+002, 1.277E+001, 3.734E+002, 0.000E+000, 1.899E-002, 4.223E+001
 1.280E+002, 1.608E+001, 3.796E+002, 0.000E+000, 1.899E-002, 4.511E+001
 1.300E+002, 2.049E+001, 3.871E+002, 0.000E+000, 1.899E-002, 4.870E+001
 1.320E+002, 2.666E+001, 3.964E+002, 0.000E+000, 1.898E-002, 5.495E+001
 1.340E+002, 3.674E+001, 4.098E+002, 0.000E+000, 1.897E-002, 6.426E+001
 1.360E+002, 5.551E+001, 4.278E+002, 0.000E+000, 1.895E-002, 8.023E+001
 1.380E+002, 8.415E+001, 4.385E+002, 0.000E+000, 1.891E-002, 8.044E+001
 1.400E+002, 1.233E+002, 4.400E+002, 0.000E+000, 1.886E-002, 7.497E+001
 1.420E+002, 1.718E+002, 4.397E+002, 0.000E+000, 1.881E-002, 7.305E+001
 1.440E+002, 2.295E+002, 4.397E+002, 0.000E+000, 1.875E-002, 7.253E+001
 1.460E+002, 2.992E+002, 4.391E+002, 0.000E+000, 1.869E-002, 7.119E+001
 1.480E+002, 3.863E+002, 4.388E+002, 0.000E+000, 1.864E-002, 7.033E+001
 1.500E+002, 4.707E+002, 4.382E+002, 0.000E+000, 1.858E-002, 6.906E+001
 1.520E+002, 5.528E+002, 4.376E+002, 0.000E+000, 1.852E-002, 6.783E+001
 1.540E+002, 6.363E+002, 4.376E+002, 0.000E+000, 1.846E-002, 6.765E+001
 1.560E+002, 7.055E+002, 4.376E+002, 0.000E+000, 1.840E-002, 6.787E+001
 1.580E+002, 7.645E+002, 4.377E+002, 0.000E+000, 1.834E-002, 6.696E+001
 1.600E+002, 8.197E+002, 4.380E+002, 0.000E+000, 1.827E-002, 6.742E+001
 1.620E+002, 8.625E+002, 4.389E+002, 0.000E+000, 1.821E-002, 6.814E+001
 1.640E+002, 9.214E+002, 4.391E+002, 0.000E+000, 1.814E-002, 6.833E+001
 1.660E+002, 9.857E+002, 4.403E+002, 0.000E+000, 1.807E-002, 6.930E+001
 1.680E+002, 9.915E+002, 4.401E+002, 0.000E+000, 1.800E-002, 6.803E+001
 1.700E+002, 1.031E+003, 4.404E+002, 0.000E+000, 1.792E-002, 6.817E+001
 1.720E+002, 1.068E+003, 4.411E+002, 0.000E+000, 1.785E-002, 6.894E+001
 1.740E+002, 1.073E+003, 4.407E+002, 0.000E+000, 1.777E-002, 6.719E+001
 1.760E+002, 1.098E+003, 4.411E+002, 0.000E+000, 1.769E-002, 6.790E+001
 1.780E+002, 1.131E+003, 4.419E+002, 0.000E+000, 1.761E-002, 6.829E+001
 1.800E+002, 1.188E+003, 4.427E+002, 0.000E+000, 1.752E-002, 6.996E+001
 1.820E+002, 1.181E+003, 4.426E+002, 0.000E+000, 1.743E-002, 6.724E+001
 1.840E+002, 1.206E+003, 4.428E+002, 0.000E+000, 1.734E-002, 6.834E+001
 1.860E+002, 1.237E+003, 4.430E+002, 0.000E+000, 1.725E-002, 6.764E+001
 1.880E+002, 1.262E+003, 4.433E+002, 0.000E+000, 1.716E-002, 6.777E+001
 1.900E+002, 1.282E+003, 4.437E+002, 0.000E+000, 1.707E-002, 6.807E+001
 1.920E+002, 1.332E+003, 4.442E+002, 0.000E+000, 1.697E-002, 6.841E+001
 1.940E+002, 1.372E+003, 4.447E+002, 0.000E+000, 1.687E-002, 6.853E+001
 1.960E+002, 1.358E+003, 4.450E+002, 0.000E+000, 1.677E-002, 6.832E+001
 1.980E+002, 1.432E+003, 4.461E+002, 0.000E+000, 1.667E-002, 7.036E+001
 2.000E+002, 1.421E+003, 4.463E+002, 0.000E+000, 1.656E-002, 6.888E+001
 2.020E+002, 1.443E+003, 4.465E+002, 0.000E+000, 1.645E-002, 6.906E+001
 2.040E+002, 1.476E+003, 4.469E+002, 0.000E+000, 1.635E-002, 6.932E+001
 2.060E+002, 1.486E+003, 4.478E+002, 0.000E+000, 1.624E-002, 7.013E+001
 2.080E+002, 1.508E+003, 4.479E+002, 0.000E+000, 1.613E-002, 6.921E+001
 2.100E+002, 1.522E+003, 4.487E+002, 0.000E+000, 1.602E-002, 7.004E+001
 2.120E+002, 1.500E+003, 4.490E+002, 0.000E+000, 1.591E-002, 6.865E+001
 2.140E+002, 1.511E+003, 4.499E+002, 0.000E+000, 1.580E-002, 6.955E+001
 2.160E+002, 1.540E+003, 4.512E+002, 0.000E+000, 1.568E-002, 6.967E+001
 2.180E+002, 1.457E+003, 4.518E+002, 0.000E+000, 1.557E-002, 6.883E+001
 2.200E+002, 1.372E+003, 4.540E+002, 0.000E+000, 1.546E-002, 7.032E+001
 2.220E+002, 1.057E+003, 4.554E+002, 0.000E+000, 1.536E-002, 6.811E+001
 2.240E+002, 8.868E+002, 4.591E+002, 0.000E+000, 1.526E-002, 6.695E+001
 2.260E+002, 7.451E+002, 4.673E+002, 0.000E+000, 1.517E-002, 6.913E+001
 2.280E+002, 6.063E+002, 4.806E+002, 0.000E+000, 1.508E-002, 7.125E+001
 2.300E+002, 4.707E+002, 5.397E+002, 0.000E+000, 1.502E-002, 7.126E+001
 2.320E+002, 4.105E+002, 6.981E+002, 0.000E+000, 1.500E-002, 7.382E+001
 2.340E+002, 3.439E+002, 7.057E+002, 0.000E+000, 1.500E-002, 7.248E+001
 2.360E+002, 2.172E+002, 6.794E+002, 0.000E+000, 1.500E-002, 6.383E+001
 2.380E+002, 1.116E+002, 5.705E+002, 0.000E+000, 1.500E-002, 4.141E+001
 2.400E+002, 7.737E+001, 5.439E+002, 0.000E+000, 1.500E-002, 3.867E+001
 2.420E+002, 4.618E+001, 5.278E+002, 0.000E+000, 1.500E-002, 3.711E+001
 2.440E+002, 4.728E+001, 5.190E+002, 0.000E+000, 1.500E-002, 3.686E+001
 2.460E+002, 4.737E+001, 5.203E+002, 0.000E+000, 1.500E-002, 3.713E+001
 2.480E+002, 4.662E+001, 5.220E+002, 0.000E+000, 1.500E-002, 3.732E+001
 2.500E+002, 4.376E+001, 5.133E+002, 0.000E+000, 1.500E-002, 3.669E+001
 2.520E+002, 4.031E+001, 5.164E+002, 0.000E+000, 1.500E-002, 3.701E+001
 2.540E+002, 3.391E+001, 5.163E+002, 0.000E+000, 1.500E-002, 3.696E+001
 2.560E+002, 2.810E+001, 5.127E+002, 0.000E+000, 1.500E-002, 3.665E+001
 2.580E+002, 2.025E+001, 5.117E+002, 0.000E+000, 1.500E-002, 3.650E+001
 2.600E+002, 1.213E+001, 5.120E+002, 0.000E+000, 1.500E-002, 3.647E+001
 2.620E+002, 4.541E+000, 5.145E+002, 0.000E+000, 1.500E-002, 3.655E+001
 2.640E+002, 1.172E+000, 5.132E+002, 0.000E+000, 1.500E-002, 3.641E+001
 2.660E+002, 3.889E-005, 5.177E+002, 0.000E+000, 1.500E-002, 3.673E+001
 2.680E+002, 0.000E+000, 5.147E+002, 0.000E+000, 1.500E-002, 3.648E+001
 2.700E+002, 0.000E+000, 5.132E+002, 0.000E+000, 1.500E-002, 3.644E+001
 2.720E+002, 0.000E+000, 5.150E+002, 0.000E+000, 1.500E-002, 3.655E+001
 2.740E+002, 0.000E+000, 5.167E+002, 0.000E+000, 1.500E-002, 3.667E+001
 2.760E+002, 0.000E+000, 5.164E+002, 0.000E+000, 1.500E-002, 3.663E+001
 2.780E+002, 0.000E+000, 5.173E+002, 0.000E+000, 1.500E-002, 3.670E+001
 2.800E+002, 0.000E+000, 5.157E+002, 0.000E+000, 1.500E-002, 3.657E+001
 2.820E+002, 0.000E+000, 5.159E+002, 0.000E+000, 1.500E-002, 3.661E+001
 2.840E+002, 0.000E+000, 5.155E+002, 0.000E+000, 1.500E-002, 3.658E+001
 2.860E+002, 0.000E+000, 5.157E+002, 0.000E+000, 1.500E-002, 3.659E+001
 2.880E+002, 0.000E+000, 5.162E+002, 0.000E+000, 1.500E-002, 3.663E+001
 2.900E+002, 0.000E+000, 5.160E+002, 0.000E+000, 1.500E-002, 3.660E+001
 2.920E+002, 0.000E+000, 5.163E+002, 0.000E+000, 1.500E-002, 3.664E+001
 2.940E+002, 0.000E+000, 5.151E+002, 0.000E+000, 1.500E-002, 3.655E+001
 2.960E+002, 0.000E+000, 5.150E+002, 0.000E+000, 1.500E-002, 3.655E+001
 2.980E+002, 0.000E+000, 5.169E+002, 0.000E+000, 1.500E-002, 3.667E+001
 3.000E+002, 0.000E+000, 5.167E+002, 0.000E+000, 1.500E-002, 3.665E+001
