s,C,kg/m2/s,m
Time,"temp","MLR","thick"
 0.0000000E+000, 2.0000000E+001, 0.0000000E+000, 3.2234300E-002
 5.0100000E+000, 6.9967872E+001, 0.0000000E+000, 3.2234300E-002
 1.0010000E+001, 1.2929795E+002, 0.0000000E+000, 3.2234300E-002
 1.5010000E+001, 1.6897879E+002, 0.0000000E+000, 3.2234300E-002
 2.0000000E+001, 2.0047671E+002, 2.5679930E-028, 3.2234300E-002
 2.5000000E+001, 2.2700009E+002, 5.0069092E-020, 3.2234300E-002
 3.0000000E+001, 2.5003746E+002, 2.1984862E-013, 3.2234300E-002
 3.5000000E+001, 2.6593656E+002, 3.2461825E-010, 3.2234300E-002
 4.0000000E+001, 2.8333819E+002, 5.1458974E-009, 3.2234300E-002
 4.5010000E+001, 2.9818984E+002, 2.2307748E-008, 3.2234300E-002
 5.0010000E+001, 3.1442022E+002, 1.1559728E-007, 3.2234300E-002
 5.5010000E+001, 3.2782104E+002, 3.8219875E-007, 3.2234299E-002
 6.0010000E+001, 3.4022793E+002, 1.2082767E-006, 3.2234296E-002
 6.5010000E+001, 3.5295964E+002, 3.5511515E-006, 3.2234286E-002
 7.0010000E+001, 3.6295431E+002, 8.1800795E-006, 3.2234262E-002
 7.5000000E+001, 3.7378936E+002, 1.9773844E-005, 3.2234205E-002
 8.0000000E+001, 3.8343894E+002, 4.1697622E-005, 3.2234075E-002
 8.5000000E+001, 3.9195811E+002, 8.0621817E-005, 3.2233819E-002
 9.0000000E+001, 4.0075166E+002, 1.5564682E-004, 3.2233320E-002
 9.5000000E+001, 4.0833291E+002, 2.6971250E-004, 3.2232408E-002
 1.0000000E+002, 4.1526670E+002, 4.4595092E-004, 3.2230884E-002
 1.0500000E+002, 4.2190742E+002, 7.1315880E-004, 3.2228393E-002
 1.1000000E+002, 4.2738985E+002, 1.0447162E-003, 3.2224591E-002
 1.1500000E+002, 4.3222174E+002, 1.4651444E-003, 3.2219173E-002
 1.2000000E+002, 4.3646930E+002, 1.9650724E-003, 3.2211727E-002
 1.2500000E+002, 4.3978038E+002, 2.4705795E-003, 3.2202083E-002
 1.3000000E+002, 4.4260259E+002, 3.0111015E-003, 3.2190181E-002
 1.3500000E+002, 4.4498959E+002, 3.5574231E-003, 3.2175884E-002
 1.4000000E+002, 4.4684870E+002, 4.0560169E-003, 3.2159322E-002
 1.4500000E+002, 4.4847441E+002, 4.5578977E-003, 3.2140597E-002
 1.5000000E+002, 4.4986880E+002, 5.0365425E-003, 3.2119718E-002
 1.5500000E+002, 4.5101139E+002, 5.4728389E-003, 3.2096865E-002
 1.6001000E+002, 4.5205528E+002, 5.9100375E-003, 3.2072091E-002
 1.6501000E+002, 4.5296294E+002, 6.3182580E-003, 3.2045465E-002
 1.7001000E+002, 4.5375971E+002, 6.7070394E-003, 3.2017148E-002
 1.7501000E+002, 4.5449758E+002, 7.0894220E-003, 3.1987145E-002
 1.8001000E+002, 4.5515331E+002, 7.4504846E-003, 3.1955532E-002
 1.8501000E+002, 4.5576003E+002, 7.8048302E-003, 3.1922363E-002
 1.9001000E+002, 4.5631591E+002, 8.1454476E-003, 3.1887682E-002
 1.9501000E+002, 4.5683004E+002, 8.4771780E-003, 3.1851542E-002
 2.0001000E+002, 4.5730943E+002, 8.7996804E-003, 3.1813978E-002
 2.0501000E+002, 4.5775397E+002, 9.1125741E-003, 3.1775034E-002
 2.1001000E+002, 4.5817279E+002, 9.4181300E-003, 3.1734746E-002
 2.1501000E+002, 4.5856034E+002, 9.7128870E-003, 3.1693152E-002
 2.2001000E+002, 4.5892728E+002, 1.0000295E-002, 3.1650293E-002
 2.2501000E+002, 4.5927182E+002, 1.0278579E-002, 3.1606203E-002
 2.3001000E+002, 4.5959061E+002, 1.0544610E-002, 3.1560930E-002
 2.3501000E+002, 4.5989443E+002, 1.0802914E-002, 3.1514519E-002
 2.4001000E+002, 4.6018083E+002, 1.1053429E-002, 3.1467002E-002
 2.4501000E+002, 4.6045441E+002, 1.1303523E-002, 3.1418401E-002
 2.5001000E+002, 4.6072969E+002, 1.1564435E-002, 3.1368692E-002
 2.5501000E+002, 4.6100978E+002, 1.1839706E-002, 3.1317817E-002
 2.6001000E+002, 4.6128896E+002, 1.2124805E-002, 3.1265721E-002
 2.6501000E+002, 4.6156083E+002, 1.2414385E-002, 3.1212376E-002
 2.7001000E+002, 4.6183171E+002, 1.2709846E-002, 3.1157758E-002
 2.7501000E+002, 4.6209593E+002, 1.3007164E-002, 3.1101850E-002
 2.8001000E+002, 4.6234879E+002, 1.3302427E-002, 3.1044652E-002
 2.8501000E+002, 4.6259000E+002, 1.3593774E-002, 3.0986181E-002
 2.9001000E+002, 4.6282679E+002, 1.3885433E-002, 3.0926441E-002
 2.9501000E+002, 4.6305392E+002, 1.4173214E-002, 3.0865442E-002
 3.0001000E+002, 4.6327336E+002, 1.4458338E-002, 3.0803197E-002
 3.0501000E+002, 4.6347861E+002, 1.4735947E-002, 3.0739727E-002
 3.1001000E+002, 4.6368053E+002, 1.5011672E-002, 3.0675057E-002
 3.1501000E+002, 4.6387652E+002, 1.5284459E-002, 3.0609193E-002
 3.2001000E+002, 4.6406421E+002, 1.5551356E-002, 3.0542156E-002
 3.2501000E+002, 4.6424769E+002, 1.5814944E-002, 3.0473966E-002
 3.3001000E+002, 4.6442021E+002, 1.6070883E-002, 3.0404644E-002
 3.3501000E+002, 4.6458729E+002, 1.6319566E-002, 3.0334227E-002
 3.4001000E+002, 4.6475236E+002, 1.6564819E-002, 3.0262737E-002
 3.4501000E+002, 4.6491214E+002, 1.6802634E-002, 3.0190195E-002
 3.5001000E+002, 4.6506620E+002, 1.7031804E-002, 3.0116637E-002
 3.5501000E+002, 4.6521658E+002, 1.7252774E-002, 3.0042102E-002
 3.6001000E+002, 4.6536051E+002, 1.7463630E-002, 2.9966625E-002
 3.6501000E+002, 4.6549848E+002, 1.7662276E-002, 2.9890260E-002
 3.7001000E+002, 4.6563446E+002, 1.7850818E-002, 2.9813054E-002
 3.7501000E+002, 4.6576829E+002, 1.8029676E-002, 2.9735048E-002
 3.8001000E+002, 4.6589863E+002, 1.8196106E-002, 2.9656291E-002
 3.8501000E+002, 4.6602518E+002, 1.8350163E-002, 2.9576838E-002
 3.9001000E+002, 4.6614994E+002, 1.8492733E-002, 2.9496739E-002
 3.9501000E+002, 4.6627289E+002, 1.8624479E-002, 2.9416045E-002
 4.0001000E+002, 4.6638907E+002, 1.8741800E-002, 2.9334807E-002
 4.0501000E+002, 4.6650367E+002, 1.8847331E-002, 2.9253089E-002
 4.1001000E+002, 4.6662066E+002, 1.8945935E-002, 2.9170927E-002
 4.1501000E+002, 4.6673633E+002, 1.9035070E-002, 2.9088355E-002
 4.2001000E+002, 4.6684966E+002, 1.9114325E-002, 2.9005418E-002
 4.2501000E+002, 4.6696225E+002, 1.9185702E-002, 2.8922154E-002
 4.3001000E+002, 4.6707482E+002, 1.9250194E-002, 2.8838595E-002
 4.3501000E+002, 4.6718840E+002, 1.9309945E-002, 2.8754767E-002
 4.4001000E+002, 4.6729910E+002, 1.9361207E-002, 2.8670695E-002
 4.4501000E+002, 4.6740703E+002, 1.9406553E-002, 2.8586416E-002
 4.5001000E+002, 4.6752009E+002, 1.9450103E-002, 2.8501944E-002
 4.5501000E+002, 4.6763437E+002, 1.9490537E-002, 2.8417289E-002
 4.6001000E+002, 4.6774802E+002, 1.9526504E-002, 2.8332469E-002
 4.6501000E+002, 4.6786396E+002, 1.9560186E-002, 2.8247496E-002
 4.7001000E+002, 4.6798277E+002, 1.9592908E-002, 2.8162381E-002
 4.7501000E+002, 4.6810179E+002, 1.9621845E-002, 2.8077129E-002
 4.8001000E+002, 4.6822229E+002, 1.9648280E-002, 2.7991759E-002
 4.8501000E+002, 4.6834524E+002, 1.9673310E-002, 2.7906275E-002
 4.9001000E+002, 4.6846964E+002, 1.9695492E-002, 2.7820691E-002
 4.9501000E+002, 4.6859832E+002, 1.9716391E-002, 2.7735012E-002
 5.0001000E+002, 4.6873131E+002, 1.9735864E-002, 2.7649246E-002
 5.0501000E+002, 4.6887030E+002, 1.9755398E-002, 2.7563395E-002
 5.1001000E+002, 4.6901167E+002, 1.9771057E-002, 2.7477467E-002
 5.1501000E+002, 4.6915940E+002, 1.9785494E-002, 2.7391474E-002
 5.2001000E+002, 4.6931344E+002, 1.9797928E-002, 2.7305422E-002
 5.2501000E+002, 4.6947331E+002, 1.9807190E-002, 2.7219323E-002
 5.3001000E+002, 4.6964268E+002, 1.9813841E-002, 2.7133189E-002
 5.3501000E+002, 4.6982567E+002, 1.9820250E-002, 2.7047028E-002
 5.4001000E+002, 4.7001984E+002, 1.9822553E-002, 2.6960846E-002
 5.4501000E+002, 4.7022910E+002, 1.9821263E-002, 2.6874663E-002
 5.5001000E+002, 4.7045583E+002, 1.9815533E-002, 2.6788494E-002
 5.5501000E+002, 4.7070662E+002, 1.9805645E-002, 2.6702359E-002
 5.6001000E+002, 4.7098653E+002, 1.9790656E-002, 2.6616279E-002
 5.6501000E+002, 4.7128267E+002, 1.9766662E-002, 2.6530278E-002
 5.7001000E+002, 4.7153215E+002, 1.9734043E-002, 2.6444409E-002
 5.7501000E+002, 4.7183461E+002, 1.9702530E-002, 2.6358675E-002
 5.8001000E+002, 4.7221201E+002, 1.9657748E-002, 2.6273102E-002
 5.8501000E+002, 4.7267177E+002, 1.9592032E-002, 2.6187770E-002
 5.9001000E+002, 4.7325163E+002, 1.9506203E-002, 2.6102766E-002
 5.9501000E+002, 4.7400797E+002, 1.9384579E-002, 2.6018206E-002
 6.0001000E+002, 4.7494936E+002, 1.9213498E-002, 2.5934280E-002
 6.0501000E+002, 4.7599043E+002, 1.8946345E-002, 2.5851274E-002
 6.1001000E+002, 4.7756096E+002, 1.8488365E-002, 2.5769801E-002
 6.1501000E+002, 4.8145476E+002, 1.8070559E-002, 2.5690371E-002
 6.2001000E+002, 4.8718308E+002, 1.7461344E-002, 2.5613026E-002
 6.2501000E+002, 4.9581746E+002, 1.6448603E-002, 2.5539102E-002
 6.3001000E+002, 5.1408398E+002, 1.4065397E-002, 2.5471732E-002
 6.3501000E+002, 5.3446523E+002, 1.9430813E-003, 2.5435166E-002
 6.4001000E+002, 5.1785057E+002, 0.0000000E+000, 2.5434300E-002
 6.4501000E+002, 5.1394797E+002, 0.0000000E+000, 2.5434300E-002
 6.5001000E+002, 5.1287697E+002, 0.0000000E+000, 2.5434300E-002
 6.5501000E+002, 5.1283152E+002, 0.0000000E+000, 2.5434300E-002
 6.6001000E+002, 5.1325465E+002, 0.0000000E+000, 2.5434300E-002
 6.6501000E+002, 5.1390820E+002, 0.0000000E+000, 2.5434300E-002
 6.7001000E+002, 5.1467392E+002, 0.0000000E+000, 2.5434300E-002
 6.7501000E+002, 5.1548863E+002, 0.0000000E+000, 2.5434300E-002
 6.8001000E+002, 5.1631708E+002, 0.0000000E+000, 2.5434300E-002
 6.8501000E+002, 5.1713899E+002, 0.0000000E+000, 2.5434300E-002
 6.9001000E+002, 5.1794260E+002, 0.0000000E+000, 2.5434300E-002
 6.9501000E+002, 5.1872111E+002, 0.0000000E+000, 2.5434300E-002
 7.0001000E+002, 5.1947078E+002, 0.0000000E+000, 2.5434300E-002
 7.0501000E+002, 5.2018973E+002, 0.0000000E+000, 2.5434300E-002
 7.1001000E+002, 5.2087725E+002, 0.0000000E+000, 2.5434300E-002
 7.1501000E+002, 5.2153339E+002, 0.0000000E+000, 2.5434300E-002
 7.2001000E+002, 5.2215867E+002, 0.0000000E+000, 2.5434300E-002
 7.2501000E+002, 5.2275386E+002, 0.0000000E+000, 2.5434300E-002
 7.3001000E+002, 5.2331995E+002, 0.0000000E+000, 2.5434300E-002
 7.3501000E+002, 5.2385799E+002, 0.0000000E+000, 2.5434300E-002
 7.4001000E+002, 5.2436908E+002, 0.0000000E+000, 2.5434300E-002
 7.4501000E+002, 5.2485436E+002, 0.0000000E+000, 2.5434300E-002
 7.5000000E+002, 5.2531450E+002, 0.0000000E+000, 2.5434300E-002
