s,kW,C,kg/s,m,kW/m2
Time,"HRR","temp","MLR","thick","flux"
 0.000E+000, 0.000E+000, 2.000E+001, 0.000E+000, 1.900E-002,-4.813E-011
 2.010E+000, 0.000E+000, 4.323E+001, 0.000E+000, 1.900E-002, 5.003E+001
 4.019E+000, 0.000E+000, 7.533E+001, 0.000E+000, 1.900E-002, 5.011E+001
 6.000E+000, 0.000E+000, 9.830E+001, 0.000E+000, 1.900E-002, 5.017E+001
 8.006E+000, 0.000E+000, 1.171E+002, 0.000E+000, 1.900E-002, 5.022E+001
 1.000E+001, 0.000E+000, 1.335E+002, 0.000E+000, 1.900E-002, 5.027E+001
 1.201E+001, 0.000E+000, 1.480E+002, 0.000E+000, 1.900E-002, 5.031E+001
 1.401E+001, 1.125E-008, 1.612E+002, 0.000E+000, 1.900E-002, 5.035E+001
 1.600E+001, 2.263E-007, 1.733E+002, 0.000E+000, 1.900E-002, 5.038E+001
 1.800E+001, 1.105E-006, 1.844E+002, 0.000E+000, 1.900E-002, 5.042E+001
 2.000E+001, 3.983E-006, 1.949E+002, 0.000E+000, 1.900E-002, 5.045E+001
 2.201E+001, 1.237E-005, 2.048E+002, 0.000E+000, 1.900E-002, 5.048E+001
 2.401E+001, 3.441E-005, 2.142E+002, 0.000E+000, 1.900E-002, 5.050E+001
 2.601E+001, 8.760E-005, 2.230E+002, 0.000E+000, 1.900E-002, 5.053E+001
 2.801E+001, 2.078E-004, 2.316E+002, 0.000E+000, 1.900E-002, 5.056E+001
 3.001E+001, 4.653E-004, 2.397E+002, 0.000E+000, 1.900E-002, 5.058E+001
 3.201E+001, 9.887E-004, 2.477E+002, 0.000E+000, 1.900E-002, 5.061E+001
 3.400E+001, 2.005E-003, 2.553E+002, 0.000E+000, 1.900E-002, 5.063E+001
 3.600E+001, 3.913E-003, 2.627E+002, 0.000E+000, 1.900E-002, 5.065E+001
 3.801E+001, 7.384E-003, 2.699E+002, 0.000E+000, 1.900E-002, 5.068E+001
 4.001E+001, 1.351E-002, 2.770E+002, 0.000E+000, 1.900E-002, 5.070E+001
 4.200E+001, 2.399E-002, 2.839E+002, 0.000E+000, 1.900E-002, 5.072E+001
 4.400E+001, 4.154E-002, 2.906E+002, 0.000E+000, 1.900E-002, 5.074E+001
 4.601E+001, 7.042E-002, 2.972E+002, 0.000E+000, 1.900E-002, 5.076E+001
 4.800E+001, 1.167E-001, 3.037E+002, 0.000E+000, 1.900E-002, 5.079E+001
 5.000E+001, 1.898E-001, 3.101E+002, 0.000E+000, 1.900E-002, 5.083E+001
 5.201E+001, 3.036E-001, 3.164E+002, 0.000E+000, 1.900E-002, 5.089E+001
 5.401E+001, 4.779E-001, 3.227E+002, 0.000E+000, 1.900E-002, 5.100E+001
 5.600E+001, 7.412E-001, 3.289E+002, 0.000E+000, 1.900E-002, 5.112E+001
 5.800E+001, 1.134E+000, 3.351E+002, 0.000E+000, 1.900E-002, 5.131E+001
 6.000E+001, 1.719E+000, 3.414E+002, 0.000E+000, 1.900E-002, 5.159E+001
 6.200E+001, 2.581E+000, 3.478E+002, 0.000E+000, 1.900E-002, 5.208E+001
 6.400E+001, 3.852E+000, 3.544E+002, 0.000E+000, 1.900E-002, 5.283E+001
 6.601E+001, 5.722E+000, 3.614E+002, 0.000E+000, 1.900E-002, 5.390E+001
 6.800E+001, 8.486E+000, 3.689E+002, 0.000E+000, 1.900E-002, 5.558E+001
 7.000E+001, 1.262E+001, 3.775E+002, 0.000E+000, 1.900E-002, 5.830E+001
 7.200E+001, 1.899E+001, 3.883E+002, 0.000E+000, 1.900E-002, 6.355E+001
 7.400E+001, 2.975E+001, 4.039E+002, 0.000E+000, 1.900E-002, 7.491E+001
 7.600E+001, 5.347E+001, 4.304E+002, 0.000E+000, 1.900E-002, 9.537E+001
 7.800E+001, 1.055E+002, 4.507E+002, 0.000E+000, 1.900E-002, 9.685E+001
 8.000E+001, 1.982E+002, 4.612E+002, 0.000E+000, 1.900E-002, 9.369E+001
 8.200E+001, 3.491E+002, 4.735E+002, 0.000E+000, 1.900E-002, 9.259E+001
 8.400E+001, 5.272E+002, 4.939E+002, 0.000E+000, 1.900E-002, 9.086E+001
 8.600E+001, 7.307E+002, 5.400E+002, 0.000E+000, 1.900E-002, 9.177E+001
 8.800E+001, 8.535E+002, 5.643E+002, 0.000E+000, 1.900E-002, 9.129E+001
 9.000E+001, 9.117E+002, 5.744E+002, 0.000E+000, 1.900E-002, 9.170E+001
 9.200E+001, 9.992E+002, 5.854E+002, 0.000E+000, 1.900E-002, 9.089E+001
 9.400E+001, 1.001E+003, 6.011E+002, 0.000E+000, 1.900E-002, 9.043E+001
 9.600E+001, 1.027E+003, 6.229E+002, 0.000E+000, 1.900E-002, 9.036E+001
 9.800E+001, 7.766E+002, 6.401E+002, 0.000E+000, 1.901E-002, 9.132E+001
 1.000E+002, 6.885E+002, 6.485E+002, 0.000E+000, 1.901E-002, 9.311E+001
 1.020E+002, 7.296E+002, 6.515E+002, 0.000E+000, 1.901E-002, 9.135E+001
 1.040E+002, 8.066E+002, 6.561E+002, 0.000E+000, 1.901E-002, 9.163E+001
 1.060E+002, 8.244E+002, 6.595E+002, 0.000E+000, 1.901E-002, 9.018E+001
 1.080E+002, 7.480E+002, 6.709E+002, 0.000E+000, 1.901E-002, 9.225E+001
 1.100E+002, 6.203E+002, 6.832E+002, 0.000E+000, 1.901E-002, 9.324E+001
 1.120E+002, 6.091E+002, 6.872E+002, 0.000E+000, 1.901E-002, 9.136E+001
 1.140E+002, 6.735E+002, 6.912E+002, 0.000E+000, 1.901E-002, 9.179E+001
 1.160E+002, 7.251E+002, 6.951E+002, 0.000E+000, 1.901E-002, 9.141E+001
 1.180E+002, 7.609E+002, 6.947E+002, 0.000E+000, 1.901E-002, 9.083E+001
 1.200E+002, 7.713E+002, 7.008E+002, 0.000E+000, 1.901E-002, 9.124E+001
 1.220E+002, 7.182E+002, 7.052E+002, 0.000E+000, 1.901E-002, 9.233E+001
 1.240E+002, 6.814E+002, 7.137E+002, 0.000E+000, 1.901E-002, 9.360E+001
 1.260E+002, 6.737E+002, 7.151E+002, 0.000E+000, 1.901E-002, 9.149E+001
 1.280E+002, 7.107E+002, 7.293E+002, 0.000E+000, 1.901E-002, 9.580E+001
 1.300E+002, 7.557E+002, 7.296E+002, 0.000E+000, 1.901E-002, 9.571E+001
 1.320E+002, 7.525E+002, 7.296E+002, 0.000E+000, 1.901E-002, 9.246E+001
 1.340E+002, 7.504E+002, 7.299E+002, 0.000E+000, 1.901E-002, 9.318E+001
 1.360E+002, 7.224E+002, 7.316E+002, 0.000E+000, 1.901E-002, 9.363E+001
 1.380E+002, 7.091E+002, 7.326E+002, 0.000E+000, 1.901E-002, 9.250E+001
 1.400E+002, 6.847E+002, 7.357E+002, 0.000E+000, 1.901E-002, 9.216E+001
 1.420E+002, 6.889E+002, 7.373E+002, 0.000E+000, 1.902E-002, 9.236E+001
 1.440E+002, 6.984E+002, 7.409E+002, 0.000E+000, 1.902E-002, 9.295E+001
 1.460E+002, 6.874E+002, 7.440E+002, 0.000E+000, 1.902E-002, 9.365E+001
 1.480E+002, 6.722E+002, 7.439E+002, 0.000E+000, 1.902E-002, 9.241E+001
 1.500E+002, 6.570E+002, 7.429E+002, 0.000E+000, 1.902E-002, 9.172E+001
 1.520E+002, 6.372E+002, 7.536E+002, 0.000E+000, 1.902E-002, 9.630E+001
 1.540E+002, 6.246E+002, 7.542E+002, 0.000E+000, 1.902E-002, 9.483E+001
 1.560E+002, 6.230E+002, 7.536E+002, 0.000E+000, 1.902E-002, 9.319E+001
 1.580E+002, 6.051E+002, 7.519E+002, 0.000E+000, 1.902E-002, 9.188E+001
 1.600E+002, 6.009E+002, 7.519E+002, 0.000E+000, 1.902E-002, 9.253E+001
 1.620E+002, 5.766E+002, 7.553E+002, 0.000E+000, 1.902E-002, 9.326E+001
 1.640E+002, 5.640E+002, 7.604E+002, 0.000E+000, 1.902E-002, 9.480E+001
 1.660E+002, 5.588E+002, 7.581E+002, 0.000E+000, 1.902E-002, 9.328E+001
 1.680E+002, 5.405E+002, 7.625E+002, 0.000E+000, 1.902E-002, 9.409E+001
 1.700E+002, 5.428E+002, 7.603E+002, 0.000E+000, 1.902E-002, 9.294E+001
 1.720E+002, 5.249E+002, 7.617E+002, 0.000E+000, 1.902E-002, 9.330E+001
 1.740E+002, 5.132E+002, 7.631E+002, 0.000E+000, 1.902E-002, 9.369E+001
 1.760E+002, 4.959E+002, 7.648E+002, 0.000E+000, 1.902E-002, 9.362E+001
 1.780E+002, 4.781E+002, 7.650E+002, 0.000E+000, 1.902E-002, 9.327E+001
 1.800E+002, 4.717E+002, 7.650E+002, 0.000E+000, 1.902E-002, 9.333E+001
 1.820E+002, 4.588E+002, 7.766E+002, 0.000E+000, 1.902E-002, 9.792E+001
 1.840E+002, 4.528E+002, 7.779E+002, 0.000E+000, 1.902E-002, 9.626E+001
 1.860E+002, 4.383E+002, 7.748E+002, 0.000E+000, 1.903E-002, 9.479E+001
 1.880E+002, 4.268E+002, 7.741E+002, 0.000E+000, 1.903E-002, 9.466E+001
 1.900E+002, 4.134E+002, 7.739E+002, 0.000E+000, 1.903E-002, 9.419E+001
 1.920E+002, 3.953E+002, 7.786E+002, 0.000E+000, 1.903E-002, 9.597E+001
 1.940E+002, 3.759E+002, 7.760E+002, 0.000E+000, 1.903E-002, 9.403E+001
 1.960E+002, 3.496E+002, 7.733E+002, 0.000E+000, 1.903E-002, 9.307E+001
 1.980E+002, 3.291E+002, 7.747E+002, 0.000E+000, 1.903E-002, 9.349E+001
 2.000E+002, 2.948E+002, 7.763E+002, 0.000E+000, 1.903E-002, 9.408E+001
 2.020E+002, 2.521E+002, 7.815E+002, 0.000E+000, 1.903E-002, 9.554E+001
 2.040E+002, 2.216E+002, 7.853E+002, 0.000E+000, 1.903E-002, 9.608E+001
 2.060E+002, 1.959E+002, 7.901E+002, 0.000E+000, 1.903E-002, 9.677E+001
 2.080E+002, 1.660E+002, 7.882E+002, 0.000E+000, 1.903E-002, 9.348E+001
 2.100E+002, 1.378E+002, 7.731E+002, 0.000E+000, 1.903E-002, 8.832E+001
 2.120E+002, 1.180E+002, 7.426E+002, 0.000E+000, 1.903E-002, 7.476E+001
 2.140E+002, 1.081E+002, 7.168E+002, 0.000E+000, 1.904E-002, 7.066E+001
 2.160E+002, 1.013E+002, 7.146E+002, 0.000E+000, 1.904E-002, 7.064E+001
 2.180E+002, 9.540E+001, 7.032E+002, 0.000E+000, 1.904E-002, 6.729E+001
 2.200E+002, 9.085E+001, 7.019E+002, 0.000E+000, 1.904E-002, 6.806E+001
 2.220E+002, 8.759E+001, 7.025E+002, 0.000E+000, 1.904E-002, 6.838E+001
 2.240E+002, 8.463E+001, 6.999E+002, 0.000E+000, 1.904E-002, 6.769E+001
 2.260E+002, 8.205E+001, 6.977E+002, 0.000E+000, 1.904E-002, 6.709E+001
 2.280E+002, 7.965E+001, 6.971E+002, 0.000E+000, 1.904E-002, 6.677E+001
 2.300E+002, 7.726E+001, 6.962E+002, 0.000E+000, 1.904E-002, 6.677E+001
 2.320E+002, 7.500E+001, 6.947E+002, 0.000E+000, 1.904E-002, 6.559E+001
 2.340E+002, 7.255E+001, 6.922E+002, 0.000E+000, 1.904E-002, 6.528E+001
 2.360E+002, 7.011E+001, 6.892E+002, 0.000E+000, 1.904E-002, 6.346E+001
 2.380E+002, 6.775E+001, 6.868E+002, 0.000E+000, 1.904E-002, 6.402E+001
 2.400E+002, 6.519E+001, 6.864E+002, 0.000E+000, 1.904E-002, 6.317E+001
 2.420E+002, 6.260E+001, 6.856E+002, 0.000E+000, 1.904E-002, 6.379E+001
 2.440E+002, 6.006E+001, 6.858E+002, 0.000E+000, 1.904E-002, 6.367E+001
 2.460E+002, 5.745E+001, 6.837E+002, 0.000E+000, 1.904E-002, 6.251E+001
 2.480E+002, 5.472E+001, 6.798E+002, 0.000E+000, 1.904E-002, 6.150E+001
 2.500E+002, 5.202E+001, 6.796E+002, 0.000E+000, 1.904E-002, 6.178E+001
 2.520E+002, 4.919E+001, 6.782E+002, 0.000E+000, 1.904E-002, 6.151E+001
 2.540E+002, 4.623E+001, 6.763E+002, 0.000E+000, 1.904E-002, 6.049E+001
 2.560E+002, 4.308E+001, 6.745E+002, 0.000E+000, 1.904E-002, 6.072E+001
 2.580E+002, 3.971E+001, 6.738E+002, 0.000E+000, 1.904E-002, 6.022E+001
 2.600E+002, 3.610E+001, 6.706E+002, 0.000E+000, 1.904E-002, 5.920E+001
 2.620E+002, 3.232E+001, 6.698E+002, 0.000E+000, 1.904E-002, 5.929E+001
 2.640E+002, 2.839E+001, 6.675E+002, 0.000E+000, 1.904E-002, 5.846E+001
 2.660E+002, 2.436E+001, 6.638E+002, 0.000E+000, 1.904E-002, 5.697E+001
 2.680E+002, 2.036E+001, 6.600E+002, 0.000E+000, 1.904E-002, 5.603E+001
 2.700E+002, 1.652E+001, 6.552E+002, 0.000E+000, 1.904E-002, 5.457E+001
 2.720E+002, 1.302E+001, 6.503E+002, 0.000E+000, 1.904E-002, 5.348E+001
 2.740E+002, 1.006E+001, 6.465E+002, 0.000E+000, 1.904E-002, 5.274E+001
 2.760E+002, 7.744E+000, 6.427E+002, 0.000E+000, 1.904E-002, 5.216E+001
 2.780E+002, 6.082E+000, 6.412E+002, 0.000E+000, 1.904E-002, 5.207E+001
 2.800E+002, 4.965E+000, 6.391E+002, 0.000E+000, 1.904E-002, 5.189E+001
 2.820E+002, 4.216E+000, 6.387E+002, 0.000E+000, 1.904E-002, 5.192E+001
 2.840E+002, 3.672E+000, 6.377E+002, 0.000E+000, 1.904E-002, 5.184E+001
 2.860E+002, 3.226E+000, 6.367E+002, 0.000E+000, 1.904E-002, 5.180E+001
 2.880E+002, 2.810E+000, 6.350E+002, 0.000E+000, 1.904E-002, 5.168E+001
 2.900E+002, 2.397E+000, 6.361E+002, 0.000E+000, 1.904E-002, 5.185E+001
 2.920E+002, 1.985E+000, 6.363E+002, 0.000E+000, 1.904E-002, 5.195E+001
 2.940E+002, 1.578E+000, 6.358E+002, 0.000E+000, 1.904E-002, 5.184E+001
 2.960E+002, 1.190E+000, 6.354E+002, 0.000E+000, 1.904E-002, 5.187E+001
 2.980E+002, 8.361E-001, 6.356E+002, 0.000E+000, 1.904E-002, 5.195E+001
 3.000E+002, 5.390E-001, 6.353E+002, 0.000E+000, 1.904E-002, 5.193E+001
