s,kW,C,kg/s,m,kW/m2
Time,"HRR","temp","MLR","thick","flux"
 0.000E+000, 0.000E+000, 2.000E+001, 0.000E+000, 1.900E-002,-4.813E-011
 2.012E+000, 0.000E+000, 4.325E+001, 0.000E+000, 1.900E-002, 5.003E+001
 4.003E+000, 0.000E+000, 7.524E+001, 0.000E+000, 1.900E-002, 5.011E+001
 6.009E+000, 0.000E+000, 9.829E+001, 0.000E+000, 1.900E-002, 5.016E+001
 8.002E+000, 0.000E+000, 1.172E+002, 0.000E+000, 1.900E-002, 5.020E+001
 1.001E+001, 0.000E+000, 1.336E+002, 0.000E+000, 1.900E-002, 5.025E+001
 1.202E+001, 0.000E+000, 1.482E+002, 0.000E+000, 1.900E-002, 5.029E+001
 1.400E+001, 1.487E-008, 1.613E+002, 0.000E+000, 1.900E-002, 5.033E+001
 1.601E+001, 2.474E-007, 1.734E+002, 0.000E+000, 1.900E-002, 5.037E+001
 1.801E+001, 1.164E-006, 1.846E+002, 0.000E+000, 1.900E-002, 5.040E+001
 2.001E+001, 4.178E-006, 1.950E+002, 0.000E+000, 1.900E-002, 5.043E+001
 2.201E+001, 1.297E-005, 2.049E+002, 0.000E+000, 1.900E-002, 5.046E+001
 2.401E+001, 3.609E-005, 2.142E+002, 0.000E+000, 1.900E-002, 5.049E+001
 2.600E+001, 9.186E-005, 2.231E+002, 0.000E+000, 1.900E-002, 5.052E+001
 2.801E+001, 2.186E-004, 2.316E+002, 0.000E+000, 1.900E-002, 5.055E+001
 3.001E+001, 4.907E-004, 2.398E+002, 0.000E+000, 1.900E-002, 5.058E+001
 3.200E+001, 1.042E-003, 2.477E+002, 0.000E+000, 1.900E-002, 5.061E+001
 3.400E+001, 2.114E-003, 2.553E+002, 0.000E+000, 1.900E-002, 5.064E+001
 3.600E+001, 4.131E-003, 2.627E+002, 0.000E+000, 1.900E-002, 5.067E+001
 3.801E+001, 7.801E-003, 2.699E+002, 0.000E+000, 1.900E-002, 5.069E+001
 4.000E+001, 1.427E-002, 2.769E+002, 0.000E+000, 1.900E-002, 5.071E+001
 4.201E+001, 2.538E-002, 2.838E+002, 0.000E+000, 1.900E-002, 5.074E+001
 4.400E+001, 4.396E-002, 2.905E+002, 0.000E+000, 1.900E-002, 5.076E+001
 4.601E+001, 7.441E-002, 2.971E+002, 0.000E+000, 1.900E-002, 5.080E+001
 4.800E+001, 1.233E-001, 3.035E+002, 0.000E+000, 1.900E-002, 5.083E+001
 5.000E+001, 2.005E-001, 3.099E+002, 0.000E+000, 1.900E-002, 5.086E+001
 5.200E+001, 3.201E-001, 3.161E+002, 0.000E+000, 1.900E-002, 5.094E+001
 5.401E+001, 5.038E-001, 3.223E+002, 0.000E+000, 1.900E-002, 5.104E+001
 5.600E+001, 7.810E-001, 3.284E+002, 0.000E+000, 1.900E-002, 5.117E+001
 5.800E+001, 1.195E+000, 3.346E+002, 0.000E+000, 1.900E-002, 5.141E+001
 6.000E+001, 1.809E+000, 3.408E+002, 0.000E+000, 1.900E-002, 5.166E+001
 6.200E+001, 2.714E+000, 3.471E+002, 0.000E+000, 1.900E-002, 5.204E+001
 6.400E+001, 4.041E+000, 3.537E+002, 0.000E+000, 1.900E-002, 5.278E+001
 6.601E+001, 5.987E+000, 3.607E+002, 0.000E+000, 1.900E-002, 5.370E+001
 6.800E+001, 8.850E+000, 3.681E+002, 0.000E+000, 1.900E-002, 5.515E+001
 7.000E+001, 1.313E+001, 3.764E+002, 0.000E+000, 1.900E-002, 5.750E+001
 7.200E+001, 1.975E+001, 3.868E+002, 0.000E+000, 1.900E-002, 6.273E+001
 7.400E+001, 3.080E+001, 4.023E+002, 0.000E+000, 1.900E-002, 7.467E+001
 7.600E+001, 5.411E+001, 4.275E+002, 0.000E+000, 1.900E-002, 9.240E+001
 7.800E+001, 1.046E+002, 4.447E+002, 0.000E+000, 1.900E-002, 9.113E+001
 8.000E+001, 1.926E+002, 4.523E+002, 0.000E+000, 1.900E-002, 8.683E+001
 8.200E+001, 3.244E+002, 4.581E+002, 0.000E+000, 1.900E-002, 8.477E+001
 8.400E+001, 4.864E+002, 4.650E+002, 0.000E+000, 1.900E-002, 8.301E+001
 8.600E+001, 6.707E+002, 4.765E+002, 0.000E+000, 1.900E-002, 8.340E+001
 8.800E+001, 8.153E+002, 4.968E+002, 0.000E+000, 1.900E-002, 8.365E+001
 9.000E+001, 8.724E+002, 5.362E+002, 0.000E+000, 1.900E-002, 8.475E+001
 9.200E+001, 8.450E+002, 5.539E+002, 0.000E+000, 1.900E-002, 8.420E+001
 9.400E+001, 8.400E+002, 5.628E+002, 0.000E+000, 1.900E-002, 8.499E+001
 9.600E+001, 8.768E+002, 5.692E+002, 0.000E+000, 1.900E-002, 8.386E+001
 9.800E+001, 8.109E+002, 5.818E+002, 0.000E+000, 1.900E-002, 8.454E+001
 1.000E+002, 7.450E+002, 5.929E+002, 0.000E+000, 1.900E-002, 8.362E+001
 1.020E+002, 6.374E+002, 6.191E+002, 0.000E+000, 1.900E-002, 8.692E+001
 1.040E+002, 6.252E+002, 6.257E+002, 0.000E+000, 1.901E-002, 8.392E+001
 1.060E+002, 6.847E+002, 6.307E+002, 0.000E+000, 1.901E-002, 8.356E+001
 1.080E+002, 7.162E+002, 6.352E+002, 0.000E+000, 1.901E-002, 8.434E+001
 1.100E+002, 6.938E+002, 6.378E+002, 0.000E+000, 1.901E-002, 8.362E+001
 1.120E+002, 6.627E+002, 6.432E+002, 0.000E+000, 1.901E-002, 8.430E+001
 1.140E+002, 6.278E+002, 6.507E+002, 0.000E+000, 1.901E-002, 8.522E+001
 1.160E+002, 6.042E+002, 6.596E+002, 0.000E+000, 1.901E-002, 8.593E+001
 1.180E+002, 6.405E+002, 6.702E+002, 0.000E+000, 1.901E-002, 8.689E+001
 1.200E+002, 6.831E+002, 6.765E+002, 0.000E+000, 1.901E-002, 8.629E+001
 1.220E+002, 7.062E+002, 6.756E+002, 0.000E+000, 1.901E-002, 8.432E+001
 1.240E+002, 7.110E+002, 6.773E+002, 0.000E+000, 1.901E-002, 8.414E+001
 1.260E+002, 6.865E+002, 6.781E+002, 0.000E+000, 1.901E-002, 8.386E+001
 1.280E+002, 6.529E+002, 6.807E+002, 0.000E+000, 1.901E-002, 8.393E+001
 1.300E+002, 6.430E+002, 6.870E+002, 0.000E+000, 1.901E-002, 8.549E+001
 1.320E+002, 6.542E+002, 6.926E+002, 0.000E+000, 1.901E-002, 8.584E+001
 1.340E+002, 6.767E+002, 6.942E+002, 0.000E+000, 1.901E-002, 8.467E+001
 1.360E+002, 6.937E+002, 6.960E+002, 0.000E+000, 1.901E-002, 8.420E+001
 1.380E+002, 6.934E+002, 7.011E+002, 0.000E+000, 1.901E-002, 8.510E+001
 1.400E+002, 6.779E+002, 7.034E+002, 0.000E+000, 1.901E-002, 8.484E+001
 1.420E+002, 6.602E+002, 7.059E+002, 0.000E+000, 1.901E-002, 8.529E+001
 1.440E+002, 6.187E+002, 7.081E+002, 0.000E+000, 1.901E-002, 8.529E+001
 1.460E+002, 6.199E+002, 7.096E+002, 0.000E+000, 1.901E-002, 8.591E+001
 1.480E+002, 6.158E+002, 7.228E+002, 0.000E+000, 1.901E-002, 8.964E+001
 1.500E+002, 6.253E+002, 7.185E+002, 0.000E+000, 1.901E-002, 8.604E+001
 1.520E+002, 6.234E+002, 7.168E+002, 0.000E+000, 1.901E-002, 8.507E+001
 1.540E+002, 6.095E+002, 7.192E+002, 0.000E+000, 1.902E-002, 8.522E+001
 1.560E+002, 5.996E+002, 7.204E+002, 0.000E+000, 1.902E-002, 8.552E+001
 1.580E+002, 5.737E+002, 7.209E+002, 0.000E+000, 1.902E-002, 8.432E+001
 1.600E+002, 5.545E+002, 7.213E+002, 0.000E+000, 1.902E-002, 8.453E+001
 1.620E+002, 5.476E+002, 7.253E+002, 0.000E+000, 1.902E-002, 8.653E+001
 1.640E+002, 5.305E+002, 7.280E+002, 0.000E+000, 1.902E-002, 8.580E+001
 1.660E+002, 5.367E+002, 7.287E+002, 0.000E+000, 1.902E-002, 8.588E+001
 1.680E+002, 5.257E+002, 7.306E+002, 0.000E+000, 1.902E-002, 8.602E+001
 1.700E+002, 5.190E+002, 7.314E+002, 0.000E+000, 1.902E-002, 8.570E+001
 1.720E+002, 5.093E+002, 7.333E+002, 0.000E+000, 1.902E-002, 8.616E+001
 1.740E+002, 4.920E+002, 7.351E+002, 0.000E+000, 1.902E-002, 8.588E+001
 1.760E+002, 4.821E+002, 7.440E+002, 0.000E+000, 1.902E-002, 8.980E+001
 1.780E+002, 4.661E+002, 7.429E+002, 0.000E+000, 1.902E-002, 8.762E+001
 1.800E+002, 4.603E+002, 7.440E+002, 0.000E+000, 1.902E-002, 8.766E+001
 1.820E+002, 4.487E+002, 7.409E+002, 0.000E+000, 1.902E-002, 8.612E+001
 1.840E+002, 4.439E+002, 7.411E+002, 0.000E+000, 1.902E-002, 8.646E+001
 1.860E+002, 4.309E+002, 7.423E+002, 0.000E+000, 1.902E-002, 8.608E+001
 1.880E+002, 4.259E+002, 7.458E+002, 0.000E+000, 1.902E-002, 8.820E+001
 1.900E+002, 4.089E+002, 7.494E+002, 0.000E+000, 1.902E-002, 8.761E+001
 1.920E+002, 4.033E+002, 7.472E+002, 0.000E+000, 1.902E-002, 8.663E+001
 1.940E+002, 3.966E+002, 7.455E+002, 0.000E+000, 1.902E-002, 8.601E+001
 1.960E+002, 3.860E+002, 7.478E+002, 0.000E+000, 1.902E-002, 8.673E+001
 1.980E+002, 3.776E+002, 7.544E+002, 0.000E+000, 1.902E-002, 8.879E+001
 2.000E+002, 3.695E+002, 7.507E+002, 0.000E+000, 1.902E-002, 8.676E+001
 2.020E+002, 3.556E+002, 7.493E+002, 0.000E+000, 1.902E-002, 8.620E+001
 2.040E+002, 3.407E+002, 7.496E+002, 0.000E+000, 1.902E-002, 8.607E+001
 2.060E+002, 3.300E+002, 7.514E+002, 0.000E+000, 1.902E-002, 8.684E+001
 2.080E+002, 3.194E+002, 7.515E+002, 0.000E+000, 1.903E-002, 8.611E+001
 2.100E+002, 3.102E+002, 7.551E+002, 0.000E+000, 1.903E-002, 8.755E+001
 2.120E+002, 2.960E+002, 7.534E+002, 0.000E+000, 1.903E-002, 8.613E+001
 2.140E+002, 2.830E+002, 7.610E+002, 0.000E+000, 1.903E-002, 8.951E+001
 2.160E+002, 2.625E+002, 7.644E+002, 0.000E+000, 1.903E-002, 8.967E+001
 2.180E+002, 2.410E+002, 7.693E+002, 0.000E+000, 1.903E-002, 9.056E+001
 2.200E+002, 2.176E+002, 7.763E+002, 0.000E+000, 1.903E-002, 9.514E+001
 2.220E+002, 1.873E+002, 7.824E+002, 0.000E+000, 1.903E-002, 9.419E+001
 2.240E+002, 1.556E+002, 7.861E+002, 0.000E+000, 1.903E-002, 9.609E+001
 2.260E+002, 1.325E+002, 7.817E+002, 0.000E+000, 1.903E-002, 9.359E+001
 2.280E+002, 1.195E+002, 7.801E+002, 0.000E+000, 1.903E-002, 9.287E+001
 2.300E+002, 1.081E+002, 7.815E+002, 0.000E+000, 1.903E-002, 9.441E+001
 2.320E+002, 9.701E+001, 7.768E+002, 0.000E+000, 1.903E-002, 9.074E+001
 2.340E+002, 8.681E+001, 7.651E+002, 0.000E+000, 1.903E-002, 8.716E+001
 2.360E+002, 7.925E+001, 7.467E+002, 0.000E+000, 1.903E-002, 7.871E+001
 2.380E+002, 7.387E+001, 7.099E+002, 0.000E+000, 1.903E-002, 6.619E+001
 2.400E+002, 6.973E+001, 6.977E+002, 0.000E+000, 1.904E-002, 6.606E+001
 2.420E+002, 6.692E+001, 6.913E+002, 0.000E+000, 1.904E-002, 6.481E+001
 2.440E+002, 6.451E+001, 6.844E+002, 0.000E+000, 1.904E-002, 6.292E+001
 2.460E+002, 6.224E+001, 6.815E+002, 0.000E+000, 1.904E-002, 6.289E+001
 2.480E+002, 5.977E+001, 6.781E+002, 0.000E+000, 1.904E-002, 6.174E+001
 2.500E+002, 5.748E+001, 6.801E+002, 0.000E+000, 1.904E-002, 6.326E+001
 2.520E+002, 5.525E+001, 6.766E+002, 0.000E+000, 1.904E-002, 6.119E+001
 2.540E+002, 5.302E+001, 6.693E+002, 0.000E+000, 1.904E-002, 5.931E+001
 2.560E+002, 5.078E+001, 6.727E+002, 0.000E+000, 1.904E-002, 6.108E+001
 2.580E+002, 4.855E+001, 6.708E+002, 0.000E+000, 1.904E-002, 5.995E+001
 2.600E+002, 4.643E+001, 6.637E+002, 0.000E+000, 1.904E-002, 5.776E+001
 2.620E+002, 4.410E+001, 6.638E+002, 0.000E+000, 1.904E-002, 5.892E+001
 2.640E+002, 4.188E+001, 6.636E+002, 0.000E+000, 1.904E-002, 5.825E+001
 2.660E+002, 3.945E+001, 6.586E+002, 0.000E+000, 1.904E-002, 5.711E+001
 2.680E+002, 3.686E+001, 6.570E+002, 0.000E+000, 1.904E-002, 5.705E+001
 2.700E+002, 3.421E+001, 6.566E+002, 0.000E+000, 1.904E-002, 5.671E+001
 2.720E+002, 3.131E+001, 6.557E+002, 0.000E+000, 1.904E-002, 5.674E+001
 2.740E+002, 2.832E+001, 6.513E+002, 0.000E+000, 1.904E-002, 5.540E+001
 2.760E+002, 2.526E+001, 6.477E+002, 0.000E+000, 1.904E-002, 5.489E+001
 2.780E+002, 2.212E+001, 6.435E+002, 0.000E+000, 1.904E-002, 5.398E+001
 2.800E+002, 1.899E+001, 6.427E+002, 0.000E+000, 1.904E-002, 5.402E+001
 2.820E+002, 1.593E+001, 6.393E+002, 0.000E+000, 1.904E-002, 5.317E+001
 2.840E+002, 1.301E+001, 6.379E+002, 0.000E+000, 1.904E-002, 5.302E+001
 2.860E+002, 1.039E+001, 6.363E+002, 0.000E+000, 1.904E-002, 5.269E+001
 2.880E+002, 8.193E+000, 6.342E+002, 0.000E+000, 1.904E-002, 5.244E+001
 2.900E+002, 6.498E+000, 6.319E+002, 0.000E+000, 1.904E-002, 5.216E+001
 2.920E+002, 5.288E+000, 6.305E+002, 0.000E+000, 1.904E-002, 5.202E+001
 2.940E+002, 4.477E+000, 6.255E+002, 0.000E+000, 1.904E-002, 5.138E+001
 2.960E+002, 3.933E+000, 6.244E+002, 0.000E+000, 1.904E-002, 5.153E+001
 2.980E+002, 3.551E+000, 6.263E+002, 0.000E+000, 1.904E-002, 5.175E+001
 3.000E+002, 3.235E+000, 6.241E+002, 0.000E+000, 1.904E-002, 5.154E+001
