s,C,kg/m2/s,m
Time,temp,MLR,thick
 0.0000000E+000, 2.0000000E+001, 0.0000000E+000, 3.2234300E-002
 5.0100000E+000, 6.9967872E+001, 0.0000000E+000, 3.2234300E-002
 1.0010000E+001, 1.2929795E+002, 0.0000000E+000, 3.2234300E-002
 1.5010000E+001, 1.6897879E+002, 0.0000000E+000, 3.2234300E-002
 2.0000000E+001, 2.0047671E+002, 0.0000000E+000, 3.2234300E-002
 2.5000000E+001, 2.2700009E+002, 0.0000000E+000, 3.2234300E-002
 3.0000000E+001, 2.5003746E+002, 2.1984858E-013, 3.2234300E-002
 3.5000000E+001, 2.6593656E+002, 3.2461825E-010, 3.2234300E-002
 4.0000000E+001, 2.8333819E+002, 5.1458977E-009, 3.2234300E-002
 4.5010000E+001, 2.9818984E+002, 2.2307753E-008, 3.2234300E-002
 5.0010000E+001, 3.1442023E+002, 1.1559743E-007, 3.2234300E-002
 5.5010000E+001, 3.2782109E+002, 3.8219965E-007, 3.2234299E-002
 6.0010000E+001, 3.4022815E+002, 1.2082913E-006, 3.2234296E-002
 6.5010000E+001, 3.5296022E+002, 3.5512303E-006, 3.2234286E-002
 7.0010000E+001, 3.6295587E+002, 8.1806180E-006, 3.2234262E-002
 7.5000000E+001, 3.7379335E+002, 1.9777012E-005, 3.2234204E-002
 8.0000000E+001, 3.8344677E+002, 4.1707490E-005, 3.2234075E-002
 8.5000000E+001, 3.9197588E+002, 8.0670726E-005, 3.2233818E-002
 9.0000000E+001, 4.0078605E+002, 1.5581031E-004, 3.2233319E-002
 9.5000000E+001, 4.0839152E+002, 2.7011498E-004, 3.2232407E-002
 1.0000000E+002, 4.1537455E+002, 4.4725301E-004, 3.2230879E-002
 1.0500000E+002, 4.2207902E+002, 7.1598696E-004, 3.2228379E-002
 1.1000000E+002, 4.2764463E+002, 1.0499925E-003, 3.2224561E-002
 1.1500000E+002, 4.3260902E+002, 1.4764750E-003, 3.2219107E-002
 1.2000000E+002, 4.3699089E+002, 1.9813119E-003, 3.2211599E-002
 1.2500000E+002, 4.4046131E+002, 2.4932064E-003, 3.2201875E-002
 1.3000000E+002, 4.4349424E+002, 3.0459931E-003, 3.2189846E-002
 1.3500000E+002, 4.4591618E+002, 3.5778500E-003, 3.2175394E-002
 1.4000000E+002, 4.4675398E+002, 3.9964019E-003, 3.2159001E-002
 1.4500000E+002, 4.4894177E+002, 4.5735191E-003, 3.2140334E-002
 1.5000000E+002, 4.5068067E+002, 5.0760773E-003, 3.2119326E-002
 1.5500000E+002, 4.5185808E+002, 5.4870058E-003, 3.2096282E-002
 1.6001000E+002, 4.5213154E+002, 5.8560851E-003, 3.2071723E-002
 1.6501000E+002, 4.5359013E+002, 6.3459638E-003, 3.2045108E-002
 1.7001000E+002, 4.5477316E+002, 6.7613597E-003, 3.2016605E-002
 1.7501000E+002, 4.5468964E+002, 7.0064565E-003, 3.1986636E-002
 1.8001000E+002, 4.5566458E+002, 7.4638616E-003, 3.1955222E-002
 1.8501000E+002, 4.5671244E+002, 7.8579245E-003, 3.1921890E-002
 1.9001000E+002, 4.5649065E+002, 8.0289204E-003, 3.1887191E-002
 1.9501000E+002, 4.5682746E+002, 8.4108286E-003, 3.1851646E-002
 2.0001000E+002, 4.5783804E+002, 8.8078130E-003, 3.1814175E-002
 2.0501000E+002, 4.5776473E+002, 8.9946544E-003, 3.1775348E-002
 2.1001000E+002, 4.5801468E+002, 9.3580315E-003, 3.1735618E-002
 2.1501000E+002, 4.5897661E+002, 9.7429320E-003, 3.1694040E-002
 2.2001000E+002, 4.5956902E+002, 1.0005511E-002, 3.1651005E-002
 2.2501000E+002, 4.5909829E+002, 1.0182186E-002, 3.1607299E-002
 2.3001000E+002, 4.6005162E+002, 1.0576190E-002, 3.1562083E-002
 2.3501000E+002, 4.5953720E+002, 1.0647694E-002, 3.1515859E-002
 2.4001000E+002, 4.6006480E+002, 1.1017466E-002, 3.1468860E-002
 2.4501000E+002, 4.6085979E+002, 1.1325337E-002, 3.1420263E-002
 2.5001000E+002, 4.6025179E+002, 1.1419399E-002, 3.1370859E-002
 2.5501000E+002, 4.6103846E+002, 1.1847883E-002, 3.1320259E-002
 2.6001000E+002, 4.6180805E+002, 1.2168654E-002, 3.1268030E-002
 2.6501000E+002, 4.6107827E+002, 1.2281278E-002, 3.1214966E-002
 2.7001000E+002, 4.6193393E+002, 1.2735852E-002, 3.1160510E-002
 2.7501000E+002, 4.6267621E+002, 1.3060467E-002, 3.1104410E-002
 2.8001000E+002, 4.6151792E+002, 1.3126372E-002, 3.1047583E-002
 2.8501000E+002, 4.6237092E+002, 1.3596656E-002, 3.0989407E-002
 2.9001000E+002, 4.6303464E+002, 1.3907378E-002, 3.0929560E-002
 2.9501000E+002, 4.6226204E+002, 1.4051954E-002, 3.0868939E-002
 3.0001000E+002, 4.6217038E+002, 1.4321823E-002, 3.0807161E-002
 3.0501000E+002, 4.6289685E+002, 1.4753418E-002, 3.0743938E-002
 3.1001000E+002, 4.6289603E+002, 1.4947417E-002, 3.0679249E-002
 3.1501000E+002, 4.6315634E+002, 1.5313039E-002, 3.0613593E-002
 3.2001000E+002, 4.6387762E+002, 1.5630117E-002, 3.0546290E-002
 3.2501000E+002, 4.6301981E+002, 1.5706007E-002, 3.0478158E-002
 3.3001000E+002, 4.6350013E+002, 1.6110142E-002, 3.0409019E-002
 3.3501000E+002, 4.6405275E+002, 1.6371775E-002, 3.0338314E-002
 3.4001000E+002, 4.6341846E+002, 1.6532736E-002, 3.0266953E-002
 3.4501000E+002, 4.6421164E+002, 1.6903586E-002, 3.0194161E-002
 3.5001000E+002, 4.6397590E+002, 1.7013396E-002, 3.0120274E-002
 3.5501000E+002, 4.6377031E+002, 1.7293458E-002, 3.0045866E-002
 3.6001000E+002, 4.6370089E+002, 1.7496560E-002, 2.9970287E-002
 3.6501000E+002, 4.6445707E+002, 1.7801854E-002, 2.9893459E-002
 3.7001000E+002, 4.6423321E+002, 1.7872610E-002, 2.9815757E-002
 3.7501000E+002, 4.6401005E+002, 1.8112730E-002, 2.9737710E-002
 3.8001000E+002, 4.6469730E+002, 1.8345505E-002, 2.9658405E-002
 3.8501000E+002, 4.6414658E+002, 1.8386691E-002, 2.9578591E-002
 3.9001000E+002, 4.6471760E+002, 1.8659327E-002, 2.9498014E-002
 3.9501000E+002, 4.6396299E+002, 1.8649754E-002, 2.9416958E-002
 4.0001000E+002, 4.6458522E+002, 1.8910716E-002, 2.9335247E-002
 4.0501000E+002, 4.6471733E+002, 1.8958697E-002, 2.9252795E-002
 4.1001000E+002, 4.6460355E+002, 1.9106414E-002, 2.9170191E-002
 4.1501000E+002, 4.6525764E+002, 1.9243505E-002, 2.9086775E-002
 4.2001000E+002, 4.6434865E+002, 1.9167101E-002, 2.9003307E-002
 4.2501000E+002, 4.6483967E+002, 1.9369610E-002, 2.8919510E-002
 4.3001000E+002, 4.6480299E+002, 1.9355699E-002, 2.8835166E-002
 4.3501000E+002, 4.6433872E+002, 1.9446615E-002, 2.8751007E-002
 4.4001000E+002, 4.6464180E+002, 1.9514530E-002, 2.8666176E-002
 4.4501000E+002, 4.6451489E+002, 1.9588452E-002, 2.8581235E-002
 4.5001000E+002, 4.6494748E+002, 1.9699941E-002, 2.8495843E-002
 4.5501000E+002, 4.6556892E+002, 1.9749200E-002, 2.8410062E-002
 4.6001000E+002, 4.6451522E+002, 1.9629176E-002, 2.8324544E-002
 4.6501000E+002, 4.6515422E+002, 1.9796371E-002, 2.8238766E-002
 4.7001000E+002, 4.6487857E+002, 1.9727579E-002, 2.8152717E-002
 4.7501000E+002, 4.6466132E+002, 1.9831978E-002, 2.8066873E-002
 4.8001000E+002, 4.6534073E+002, 1.9919217E-002, 2.7980418E-002
 4.8501000E+002, 4.6488981E+002, 1.9877815E-002, 2.7893984E-002
 4.9001000E+002, 4.6558934E+002, 1.9989999E-002, 2.7807226E-002
 4.9501000E+002, 4.6519408E+002, 1.9890019E-002, 2.7720445E-002
 5.0001000E+002, 4.6504822E+002, 1.9969718E-002, 2.7633874E-002
 5.0501000E+002, 4.6527707E+002, 2.0037798E-002, 2.7546938E-002
 5.1001000E+002, 4.6558480E+002, 2.0019448E-002, 2.7459718E-002
 5.1501000E+002, 4.6500623E+002, 2.0019039E-002, 2.7372850E-002
 5.2001000E+002, 4.6575582E+002, 2.0110574E-002, 2.7285547E-002
 5.2501000E+002, 4.6570962E+002, 2.0076331E-002, 2.7198200E-002
 5.3001000E+002, 4.6629289E+002, 2.0129544E-002, 2.7110768E-002
 5.3501000E+002, 4.6608781E+002, 2.0026306E-002, 2.7023393E-002
 5.4001000E+002, 4.6586102E+002, 2.0081381E-002, 2.6936302E-002
 5.4501000E+002, 4.6644553E+002, 2.0132200E-002, 2.6848864E-002
 5.5001000E+002, 4.6654895E+002, 2.0041518E-002, 2.6761431E-002
 5.5501000E+002, 4.6632060E+002, 2.0075183E-002, 2.6674355E-002
 5.6001000E+002, 4.6715042E+002, 2.0077617E-002, 2.6586999E-002
 5.6501000E+002, 4.6755703E+002, 2.0035150E-002, 2.6499825E-002
 5.7001000E+002, 4.6843898E+002, 1.9972028E-002, 2.6412813E-002
 5.7501000E+002, 4.6780686E+002, 1.9860307E-002, 2.6326322E-002
 5.8001000E+002, 4.6904055E+002, 1.9848346E-002, 2.6239905E-002
 5.8501000E+002, 4.7001452E+002, 1.9733438E-002, 2.6153858E-002
 5.9001000E+002, 4.7104777E+002, 1.9558827E-002, 2.6068367E-002
 5.9501000E+002, 4.7167053E+002, 1.9389439E-002, 2.5983764E-002
 6.0001000E+002, 4.7379210E+002, 1.9184348E-002, 2.5899862E-002
 6.0501000E+002, 4.7634945E+002, 1.8890694E-002, 2.5817062E-002
 6.1001000E+002, 4.7948642E+002, 1.8456807E-002, 2.5735752E-002
 6.1501000E+002, 4.8367179E+002, 1.7833045E-002, 2.5656924E-002
 6.2001000E+002, 4.9038651E+002, 1.7110030E-002, 2.5580806E-002
 6.2501000E+002, 5.0148520E+002, 1.5762727E-002, 2.5508996E-002
 6.3001000E+002, 5.4298756E+002, 9.2503857E-003, 2.5058126E-002
 6.3501000E+002, 6.2862399E+002, 0.0000000E+000, 2.3778751E-002
 6.4001000E+002, 6.4131148E+002, 0.0000000E+000, 2.3778751E-002
 6.4501000E+002, 6.4605689E+002, 0.0000000E+000, 2.3778751E-002
 6.5001000E+002, 6.4899609E+002, 0.0000000E+000, 2.3778751E-002
 6.5501000E+002, 6.5120020E+002, 0.0000000E+000, 2.3778751E-002
 6.6001000E+002, 6.5302375E+002, 0.0000000E+000, 2.3778751E-002
 6.6501000E+002, 6.5460627E+002, 0.0000000E+000, 2.3778751E-002
 6.7001000E+002, 6.5601170E+002, 0.0000000E+000, 2.3778751E-002
 6.7501000E+002, 6.5727210E+002, 0.0000000E+000, 2.3778751E-002
 6.8001000E+002, 6.5840492E+002, 0.0000000E+000, 2.3778751E-002
 6.8501000E+002, 6.5942092E+002, 0.0000000E+000, 2.3778751E-002
 6.9001000E+002, 6.6032832E+002, 0.0000000E+000, 2.3778751E-002
 6.9501000E+002, 6.6113457E+002, 0.0000000E+000, 2.3778751E-002
 7.0001000E+002, 6.6184739E+002, 0.0000000E+000, 2.3778751E-002
 7.0501000E+002, 6.6247476E+002, 0.0000000E+000, 2.3778751E-002
 7.1001000E+002, 6.6302476E+002, 0.0000000E+000, 2.3778751E-002
 7.1501000E+002, 6.6350496E+002, 0.0000000E+000, 2.3778751E-002
 7.2001000E+002, 6.6392279E+002, 0.0000000E+000, 2.3778751E-002
 7.2501000E+002, 6.6428551E+002, 0.0000000E+000, 2.3778751E-002
 7.3001000E+002, 6.6459960E+002, 0.0000000E+000, 2.3778751E-002
 7.3501000E+002, 6.6487106E+002, 0.0000000E+000, 2.3778751E-002
 7.4001000E+002, 6.6510523E+002, 0.0000000E+000, 2.3778751E-002
 7.4501000E+002, 6.6530696E+002, 0.0000000E+000, 2.3778751E-002
 7.5000000E+002, 6.6548037E+002, 0.0000000E+000, 2.3778751E-002
