s,C,kg/m2/s,m
Time,"temp","MLR","thick"
 0.0000000E+000, 2.0000000E+001, 0.0000000E+000, 1.8500000E-002
 5.0100000E+000, 7.9984185E+001, 4.4465721E-014, 1.8500000E-002
 1.0010000E+001, 1.5464375E+002, 1.2622761E-010, 1.8500000E-002
 1.5010000E+001, 2.0511074E+002, 1.5536473E-008, 1.8500000E-002
 2.0000000E+001, 2.4474943E+002, 4.3961795E-007, 1.8499999E-002
 2.5000000E+001, 2.7757474E+002, 5.3198975E-006, 1.8499990E-002
 3.0000000E+001, 3.0550553E+002, 3.6975486E-005, 1.8499913E-002
 3.5000000E+001, 3.2949692E+002, 1.7305165E-004, 1.8499500E-002
 4.0000000E+001, 3.4989096E+002, 5.9269117E-004, 1.8497912E-002
 4.5010000E+001, 3.6648035E+002, 1.5382942E-003, 1.8493295E-002
 5.0010000E+001, 3.7887965E+002, 3.0751558E-003, 1.8482985E-002
 5.5010000E+001, 3.8730793E+002, 4.9138096E-003, 1.8464853E-002
 6.0010000E+001, 3.9273649E+002, 6.6724191E-003, 1.8438431E-002
 6.5010000E+001, 3.9624882E+002, 8.1669184E-003, 1.8404590E-002
 7.0010000E+001, 3.9862394E+002, 9.3893423E-003, 1.8364589E-002
 7.5000000E+001, 4.0031935E+002, 1.0389413E-002, 1.8319605E-002
 8.0000000E+001, 4.0159322E+002, 1.1220274E-002, 1.8270481E-002
 8.5000000E+001, 4.0259268E+002, 1.1923286E-002, 1.8217837E-002
 9.0000000E+001, 4.0340267E+002, 1.2526833E-002, 1.8162232E-002
 9.5000000E+001, 4.0407698E+002, 1.3051982E-002, 1.8104070E-002
 1.0000000E+002, 4.0465061E+002, 1.3514104E-002, 1.8043669E-002
 1.0500000E+002, 4.0514892E+002, 1.3925671E-002, 1.7981287E-002
 1.1000000E+002, 4.0558813E+002, 1.4295304E-002, 1.7917132E-002
 1.1500000E+002, 4.0598034E+002, 1.4629852E-002, 1.7851379E-002
 1.2000000E+002, 4.0633516E+002, 1.4935239E-002, 1.7784174E-002
 1.2500000E+002, 4.0666015E+002, 1.5216427E-002, 1.7715638E-002
 1.3000000E+002, 4.0696029E+002, 1.5476937E-002, 1.7645872E-002
 1.3500000E+002, 4.0724067E+002, 1.5720439E-002, 1.7574962E-002
 1.4000000E+002, 4.0750493E+002, 1.5949857E-002, 1.7502978E-002
 1.4500000E+002, 4.0775499E+002, 1.6166864E-002, 1.7429980E-002
 1.5000000E+002, 4.0799357E+002, 1.6373724E-002, 1.7356020E-002
 1.5500000E+002, 4.0822355E+002, 1.6572878E-002, 1.7281138E-002
 1.6001000E+002, 4.0844586E+002, 1.6765466E-002, 1.7205290E-002
 1.6501000E+002, 4.0866200E+002, 1.6952849E-002, 1.7128578E-002
 1.7001000E+002, 4.0887300E+002, 1.7136140E-002, 1.7051101E-002
 1.7501000E+002, 4.0908027E+002, 1.7316758E-002, 1.6972798E-002
 1.8001000E+002, 4.0928451E+002, 1.7495529E-002, 1.6893678E-002
 1.8501000E+002, 4.0948713E+002, 1.7673852E-002, 1.6813746E-002
 1.9001000E+002, 4.0968795E+002, 1.7851921E-002, 1.6733005E-002
 1.9501000E+002, 4.0988683E+002, 1.8029917E-002, 1.6651455E-002
 2.0001000E+002, 4.1008516E+002, 1.8209115E-002, 1.6569093E-002
 2.0501000E+002, 4.1028339E+002, 1.8390153E-002, 1.6485913E-002
 2.1001000E+002, 4.1048240E+002, 1.8574002E-002, 1.6401904E-002
 2.1501000E+002, 4.1068178E+002, 1.8760694E-002, 1.6317052E-002
 2.2001000E+002, 4.1088079E+002, 1.8949800E-002, 1.6231347E-002
 2.2501000E+002, 4.1108098E+002, 1.9142802E-002, 1.6144773E-002
 2.3001000E+002, 4.1128214E+002, 1.9339840E-002, 1.6057314E-002
 2.3501000E+002, 4.1148465E+002, 1.9541482E-002, 1.5968948E-002
 2.4001000E+002, 4.1168813E+002, 1.9747692E-002, 1.5879655E-002
 2.4501000E+002, 4.1189307E+002, 1.9959150E-002, 1.5789413E-002
 2.5001000E+002, 4.1209948E+002, 2.0176130E-002, 1.5698198E-002
 2.5501000E+002, 4.1230798E+002, 2.0399525E-002, 1.5605982E-002
 2.6001000E+002, 4.1251777E+002, 2.0628943E-002, 1.5512737E-002
 2.6501000E+002, 4.1272899E+002, 2.0864854E-002, 1.5418434E-002
 2.7001000E+002, 4.1294216E+002, 2.1108073E-002, 1.5323043E-002
 2.7501000E+002, 4.1315694E+002, 2.1358739E-002, 1.5226529E-002
 2.8001000E+002, 4.1337346E+002, 2.1617277E-002, 1.5128859E-002
 2.8501000E+002, 4.1359196E+002, 2.1884505E-002, 1.5029993E-002
 2.9001000E+002, 4.1381084E+002, 2.2159455E-002, 1.4929895E-002
 2.9501000E+002, 4.1403240E+002, 2.2444562E-002, 1.4828525E-002
 3.0001000E+002, 4.1425582E+002, 2.2739870E-002, 1.4725835E-002
 3.0501000E+002, 4.1448094E+002, 2.3045751E-002, 1.4621780E-002
 3.1001000E+002, 4.1470769E+002, 2.3362919E-002, 1.4516308E-002
 3.1501000E+002, 4.1493576E+002, 2.3691691E-002, 1.4409369E-002
 3.2001000E+002, 4.1516545E+002, 2.4033132E-002, 1.4300907E-002
 3.2501000E+002, 4.1539569E+002, 2.4387033E-002, 1.4190865E-002
 3.3001000E+002, 4.1562743E+002, 2.4754835E-002, 1.4079182E-002
 3.3501000E+002, 4.1586083E+002, 2.5137352E-002, 1.3965795E-002
 3.4001000E+002, 4.1609499E+002, 2.5534159E-002, 1.3850636E-002
 3.4501000E+002, 4.1633003E+002, 2.5945389E-002, 1.3733640E-002
 3.5001000E+002, 4.1656448E+002, 2.6369262E-002, 1.3614746E-002
 3.5501000E+002, 4.1679942E+002, 2.6805478E-002, 1.3493897E-002
 3.6001000E+002, 4.1703389E+002, 2.7251312E-002, 1.3371042E-002
 3.6501000E+002, 4.1726862E+002, 2.7704177E-002, 1.3246142E-002
 3.7001000E+002, 4.1750048E+002, 2.8156898E-002, 1.3119183E-002
 3.7501000E+002, 4.1773112E+002, 2.8605434E-002, 1.2990172E-002
 3.8001000E+002, 4.1795882E+002, 2.9041632E-002, 1.2859148E-002
 3.8501000E+002, 4.1818479E+002, 2.9459862E-002, 1.2726180E-002
 3.9001000E+002, 4.1840909E+002, 2.9853322E-002, 1.2591365E-002
 3.9501000E+002, 4.1863099E+002, 3.0215606E-002, 1.2454830E-002
 4.0001000E+002, 4.1885179E+002, 3.0543220E-002, 1.2316727E-002
 4.0501000E+002, 4.1907297E+002, 3.0834953E-002, 1.2177217E-002
 4.1001000E+002, 4.1929715E+002, 3.1091954E-002, 1.2036460E-002
 4.1501000E+002, 4.1952886E+002, 3.1318149E-002, 1.1894606E-002
 4.2001000E+002, 4.1977333E+002, 3.1517684E-002, 1.1751787E-002
 4.2501000E+002, 4.2003593E+002, 3.1692813E-002, 1.1608118E-002
 4.3001000E+002, 4.2032813E+002, 3.1847487E-002, 1.1463700E-002
 4.3501000E+002, 4.2066448E+002, 3.1981604E-002, 1.1318625E-002
 4.4001000E+002, 4.2103930E+002, 3.2084677E-002, 1.1172999E-002
 4.4501000E+002, 4.2138995E+002, 3.2148416E-002, 1.1027011E-002
 4.5001000E+002, 4.2188930E+002, 3.2175927E-002, 1.0880791E-002
 4.5501000E+002, 4.2264858E+002, 3.2097399E-002, 1.0734660E-002
 4.6001000E+002, 4.2385081E+002, 3.1802858E-002, 1.0589319E-002
 4.6501000E+002, 4.2572085E+002, 3.1013095E-002, 1.0446256E-002
 4.7001000E+002, 4.2906519E+002, 2.9005700E-002, 1.0309269E-002
 4.7501000E+002, 4.3820482E+002, 2.6396984E-002, 1.0183364E-002
 4.8001000E+002, 4.5648471E+002, 2.1642722E-002, 1.0072534E-002
 4.8501000E+002, 5.6119125E+002, 5.5496523E-003, 1.0004922E-002
 4.9001000E+002, 6.3057003E+002, 0.0000000E+000, 1.0000000E-002
 4.9501000E+002, 6.4129199E+002, 0.0000000E+000, 1.0000000E-002
 5.0001000E+002, 6.4758418E+002, 0.0000000E+000, 1.0000000E-002
 5.0501000E+002, 6.5141203E+002, 0.0000000E+000, 1.0000000E-002
 5.1001000E+002, 6.5365535E+002, 0.0000000E+000, 1.0000000E-002
 5.1501000E+002, 6.5493396E+002, 0.0000000E+000, 1.0000000E-002
 5.2001000E+002, 6.5565119E+002, 0.0000000E+000, 1.0000000E-002
 5.2501000E+002, 6.5604996E+002, 0.0000000E+000, 1.0000000E-002
 5.3001000E+002, 6.5627056E+002, 0.0000000E+000, 1.0000000E-002
 5.3501000E+002, 6.5639226E+002, 0.0000000E+000, 1.0000000E-002
 5.4001000E+002, 6.5645932E+002, 0.0000000E+000, 1.0000000E-002
 5.4501000E+002, 6.5649623E+002, 0.0000000E+000, 1.0000000E-002
 5.5001000E+002, 6.5651653E+002, 0.0000000E+000, 1.0000000E-002
 5.5501000E+002, 6.5652770E+002, 0.0000000E+000, 1.0000000E-002
 5.6001000E+002, 6.5653384E+002, 0.0000000E+000, 1.0000000E-002
 5.6501000E+002, 6.5653722E+002, 0.0000000E+000, 1.0000000E-002
 5.7001000E+002, 6.5653908E+002, 0.0000000E+000, 1.0000000E-002
 5.7501000E+002, 6.5654010E+002, 0.0000000E+000, 1.0000000E-002
 5.8001000E+002, 6.5654066E+002, 0.0000000E+000, 1.0000000E-002
 5.8501000E+002, 6.5654097E+002, 0.0000000E+000, 1.0000000E-002
 5.9001000E+002, 6.5654114E+002, 0.0000000E+000, 1.0000000E-002
 5.9501000E+002, 6.5654123E+002, 0.0000000E+000, 1.0000000E-002
 6.0001000E+002, 6.5654128E+002, 0.0000000E+000, 1.0000000E-002
 6.0501000E+002, 6.5654131E+002, 0.0000000E+000, 1.0000000E-002
 6.1001000E+002, 6.5654133E+002, 0.0000000E+000, 1.0000000E-002
 6.1501000E+002, 6.5654134E+002, 0.0000000E+000, 1.0000000E-002
 6.2001000E+002, 6.5654134E+002, 0.0000000E+000, 1.0000000E-002
 6.2501000E+002, 6.5654134E+002, 0.0000000E+000, 1.0000000E-002
 6.3001000E+002, 6.5654134E+002, 0.0000000E+000, 1.0000000E-002
 6.3501000E+002, 6.5654135E+002, 0.0000000E+000, 1.0000000E-002
 6.4001000E+002, 6.5654135E+002, 0.0000000E+000, 1.0000000E-002
 6.4501000E+002, 6.5654135E+002, 0.0000000E+000, 1.0000000E-002
 6.5001000E+002, 6.5654135E+002, 0.0000000E+000, 1.0000000E-002
 6.5501000E+002, 6.5654135E+002, 0.0000000E+000, 1.0000000E-002
 6.6001000E+002, 6.5654135E+002, 0.0000000E+000, 1.0000000E-002
 6.6501000E+002, 6.5654135E+002, 0.0000000E+000, 1.0000000E-002
 6.7001000E+002, 6.5654135E+002, 0.0000000E+000, 1.0000000E-002
 6.7501000E+002, 6.5654135E+002, 0.0000000E+000, 1.0000000E-002
 6.8001000E+002, 6.5654135E+002, 0.0000000E+000, 1.0000000E-002
 6.8501000E+002, 6.5654135E+002, 0.0000000E+000, 1.0000000E-002
 6.9001000E+002, 6.5654135E+002, 0.0000000E+000, 1.0000000E-002
 6.9501000E+002, 6.5654135E+002, 0.0000000E+000, 1.0000000E-002
 7.0001000E+002, 6.5654135E+002, 0.0000000E+000, 1.0000000E-002
 7.0501000E+002, 6.5654135E+002, 0.0000000E+000, 1.0000000E-002
 7.1001000E+002, 6.5654135E+002, 0.0000000E+000, 1.0000000E-002
 7.1501000E+002, 6.5654135E+002, 0.0000000E+000, 1.0000000E-002
 7.2001000E+002, 6.5654135E+002, 0.0000000E+000, 1.0000000E-002
 7.2501000E+002, 6.5654135E+002, 0.0000000E+000, 1.0000000E-002
 7.3001000E+002, 6.5654135E+002, 0.0000000E+000, 1.0000000E-002
 7.3501000E+002, 6.5654135E+002, 0.0000000E+000, 1.0000000E-002
 7.4001000E+002, 6.5654135E+002, 0.0000000E+000, 1.0000000E-002
 7.4501000E+002, 6.5654135E+002, 0.0000000E+000, 1.0000000E-002
 7.5001000E+002, 6.5654135E+002, 0.0000000E+000, 1.0000000E-002
 7.5501000E+002, 6.5654135E+002, 0.0000000E+000, 1.0000000E-002
 7.6001000E+002, 6.5654135E+002, 0.0000000E+000, 1.0000000E-002
 7.6501000E+002, 6.5654135E+002, 0.0000000E+000, 1.0000000E-002
 7.7001000E+002, 6.5654135E+002, 0.0000000E+000, 1.0000000E-002
 7.7501000E+002, 6.5654135E+002, 0.0000000E+000, 1.0000000E-002
 7.8001000E+002, 6.5654135E+002, 0.0000000E+000, 1.0000000E-002
 7.8501000E+002, 6.5654135E+002, 0.0000000E+000, 1.0000000E-002
 7.9001000E+002, 6.5654135E+002, 0.0000000E+000, 1.0000000E-002
 7.9501000E+002, 6.5654135E+002, 0.0000000E+000, 1.0000000E-002
 8.0000000E+002, 6.5654135E+002, 0.0000000E+000, 1.0000000E-002
