s,C,kg/m2/s,m
Time,"temp","MLR","thick"
 0.0000000E+000, 2.0000000E+001, 0.0000000E+000, 3.2234300E-002
 5.0100000E+000, 6.9967872E+001, 0.0000000E+000, 3.2234300E-002
 1.0010000E+001, 1.2929795E+002, 0.0000000E+000, 3.2234300E-002
 1.5010000E+001, 1.6897879E+002, 0.0000000E+000, 3.2234300E-002
 2.0000000E+001, 2.0047671E+002, 0.0000000E+000, 3.2234300E-002
 2.5000000E+001, 2.2700009E+002, 0.0000000E+000, 3.2234300E-002
 3.0000000E+001, 2.5005030E+002, 0.0000000E+000, 3.2234300E-002
 3.5000000E+001, 2.6466995E+002, 4.1552259E-010, 3.2234300E-002
 4.0000000E+001, 2.8383131E+002, 5.2140163E-009, 3.2234300E-002
 4.5010000E+001, 2.9770258E+002, 2.2334095E-008, 3.2234300E-002
 5.0010000E+001, 3.1477224E+002, 1.1880383E-007, 3.2234300E-002
 5.5010000E+001, 3.2724722E+002, 3.6666855E-007, 3.2234299E-002
 6.0010000E+001, 3.4052508E+002, 1.2394443E-006, 3.2234296E-002
 6.5010000E+001, 3.5273217E+002, 3.4525041E-006, 3.2234286E-002
 7.0010000E+001, 3.6291369E+002, 8.1981816E-006, 3.2234262E-002
 7.5000000E+001, 3.7395758E+002, 2.0017124E-005, 3.2234204E-002
 8.0000000E+001, 3.8315536E+002, 4.0779885E-005, 3.2234076E-002
 8.5000000E+001, 3.9200575E+002, 8.1034282E-005, 3.2233821E-002
 9.0000000E+001, 4.0079829E+002, 1.5586615E-004, 3.2233319E-002
 9.5000000E+001, 4.0813299E+002, 2.6613827E-004, 3.2232418E-002
 1.0000000E+002, 4.1528688E+002, 4.4696159E-004, 3.2230899E-002
 1.0500000E+002, 4.2186604E+002, 7.1007444E-004, 3.2228405E-002
 1.1000000E+002, 4.2724263E+002, 1.0350576E-003, 3.2224641E-002
 1.1500000E+002, 4.3220995E+002, 1.4647660E-003, 3.2219243E-002
 1.2000000E+002, 4.3639710E+002, 1.9537573E-003, 3.2211810E-002
 1.2500000E+002, 4.3968392E+002, 2.4556478E-003, 3.2202240E-002
 1.3000000E+002, 4.4259761E+002, 3.0105829E-003, 3.2190367E-002
 1.3500000E+002, 4.4494356E+002, 3.5435377E-003, 3.2176092E-002
 1.4000000E+002, 4.4681281E+002, 4.0461266E-003, 3.2159597E-002
 1.4500000E+002, 4.4849624E+002, 4.5628810E-003, 3.2140875E-002
 1.5000000E+002, 4.4986173E+002, 5.0292673E-003, 3.2119997E-002
 1.5500000E+002, 4.5102787E+002, 5.4762602E-003, 3.2097163E-002
 1.6001000E+002, 4.5209690E+002, 5.9206282E-003, 3.2072347E-002
 1.6501000E+002, 4.5299105E+002, 6.3231473E-003, 3.2045694E-002
 1.7001000E+002, 4.5381481E+002, 6.7248546E-003, 3.2017328E-002
 1.7501000E+002, 4.5455193E+002, 7.1048216E-003, 3.1987249E-002
 1.8001000E+002, 4.5521558E+002, 7.4716743E-003, 3.1955561E-002
 1.8501000E+002, 4.5583078E+002, 7.8287786E-003, 3.1922289E-002
 1.9001000E+002, 4.5639066E+002, 8.1726254E-003, 3.1887501E-002
 1.9501000E+002, 4.5691227E+002, 8.5077352E-003, 3.1851232E-002
 2.0001000E+002, 4.5739496E+002, 8.8328365E-003, 3.1813532E-002
 2.0501000E+002, 4.5784615E+002, 9.1492261E-003, 3.1774435E-002
 2.1001000E+002, 4.5826837E+002, 9.4572491E-003, 3.1733982E-002
 2.1501000E+002, 4.5866428E+002, 9.7567435E-003, 3.1692208E-002
 2.2001000E+002, 4.5903432E+002, 1.0046629E-002, 3.1649153E-002
 2.2501000E+002, 4.5938269E+002, 1.0327708E-002, 3.1604856E-002
 2.3001000E+002, 4.5970910E+002, 1.0598525E-002, 3.1559359E-002
 2.3501000E+002, 4.6001393E+002, 1.0857991E-002, 3.1512710E-002
 2.4001000E+002, 4.6030331E+002, 1.1111192E-002, 3.1464949E-002
 2.4501000E+002, 4.6058482E+002, 1.1367692E-002, 3.1416084E-002
 2.5001000E+002, 4.6086770E+002, 1.1636093E-002, 3.1366079E-002
 2.5501000E+002, 4.6115303E+002, 1.1917218E-002, 3.1314879E-002
 2.6001000E+002, 4.6143799E+002, 1.2208047E-002, 3.1262435E-002
 2.6501000E+002, 4.6171871E+002, 1.2504635E-002, 3.1208712E-002
 2.7001000E+002, 4.6199276E+002, 1.2803923E-002, 3.1153692E-002
 2.7501000E+002, 4.6225920E+002, 1.3103970E-002, 3.1097369E-002
 2.8001000E+002, 4.6251595E+002, 1.3402525E-002, 3.1039744E-002
 2.8501000E+002, 4.6276335E+002, 1.3698763E-002, 3.0980827E-002
 2.9001000E+002, 4.6300242E+002, 1.3992765E-002, 3.0920625E-002
 2.9501000E+002, 4.6323183E+002, 1.4282989E-002, 3.0859153E-002
 3.0001000E+002, 4.6345217E+002, 1.4569216E-002, 3.0796429E-002
 3.0501000E+002, 4.6366465E+002, 1.4851755E-002, 3.0732467E-002
 3.1001000E+002, 4.6386898E+002, 1.5129849E-002, 3.0667287E-002
 3.1501000E+002, 4.6406609E+002, 1.5403668E-002, 3.0600907E-002
 3.2001000E+002, 4.6425629E+002, 1.5672687E-002, 3.0533347E-002
 3.2501000E+002, 4.6444045E+002, 1.5937066E-002, 3.0464627E-002
 3.3001000E+002, 4.6461791E+002, 1.6195541E-002, 3.0394770E-002
 3.3501000E+002, 4.6478926E+002, 1.6447709E-002, 3.0323803E-002
 3.4001000E+002, 4.6495552E+002, 1.6693472E-002, 3.0251754E-002
 3.4501000E+002, 4.6511683E+002, 1.6932024E-002, 3.0178651E-002
 3.5001000E+002, 4.6527299E+002, 1.7162373E-002, 3.0104528E-002
 3.5501000E+002, 4.6542413E+002, 1.7383469E-002, 3.0029425E-002
 3.6001000E+002, 4.6557149E+002, 1.7595349E-002, 2.9953379E-002
 3.6501000E+002, 4.6571425E+002, 1.7796534E-002, 2.9876435E-002
 3.7001000E+002, 4.6585323E+002, 1.7986733E-002, 2.9798641E-002
 3.7501000E+002, 4.6598871E+002, 1.8165509E-002, 2.9720044E-002
 3.8001000E+002, 4.6611970E+002, 1.8331545E-002, 2.9640697E-002
 3.8501000E+002, 4.6624863E+002, 1.8486280E-002, 2.9560653E-002
 3.9001000E+002, 4.6637382E+002, 1.8628300E-002, 2.9479965E-002
 3.9501000E+002, 4.6649749E+002, 1.8759271E-002, 2.9398683E-002
 4.0001000E+002, 4.6661810E+002, 1.8878197E-002, 2.9316858E-002
 4.0501000E+002, 4.6673680E+002, 1.8986259E-002, 2.9234539E-002
 4.1001000E+002, 4.6685544E+002, 1.9085237E-002, 2.9151771E-002
 4.1501000E+002, 4.6697173E+002, 1.9174174E-002, 2.9068595E-002
 4.2001000E+002, 4.6708618E+002, 1.9253901E-002, 2.8985052E-002
 4.2501000E+002, 4.6720074E+002, 1.9326411E-002, 2.8901179E-002
 4.3001000E+002, 4.6731456E+002, 1.9391802E-002, 2.8817007E-002
 4.3501000E+002, 4.6742763E+002, 1.9450795E-002, 2.8732563E-002
 4.4001000E+002, 4.6754158E+002, 1.9504893E-002, 2.8647875E-002
 4.4501000E+002, 4.6765725E+002, 1.9555459E-002, 2.8562960E-002
 4.5001000E+002, 4.6777133E+002, 1.9600520E-002, 2.8477836E-002
 4.5501000E+002, 4.6788696E+002, 1.9642386E-002, 2.8392525E-002
 4.6001000E+002, 4.6800351E+002, 1.9681211E-002, 2.8307037E-002
 4.6501000E+002, 4.6812190E+002, 1.9717721E-002, 2.8221386E-002
 4.7001000E+002, 4.6824186E+002, 1.9751887E-002, 2.8135582E-002
 4.7501000E+002, 4.6836414E+002, 1.9784299E-002, 2.8049633E-002
 4.8001000E+002, 4.6848957E+002, 1.9815535E-002, 2.7963545E-002
 4.8501000E+002, 4.6861497E+002, 1.9843216E-002, 2.7877329E-002
 4.9001000E+002, 4.6874434E+002, 1.9869719E-002, 2.7790997E-002
 4.9501000E+002, 4.6887890E+002, 1.9896178E-002, 2.7704549E-002
 5.0001000E+002, 4.6901590E+002, 1.9920028E-002, 2.7617991E-002
 5.0501000E+002, 4.6915818E+002, 1.9942786E-002, 2.7531332E-002
 5.1001000E+002, 4.6930559E+002, 1.9964035E-002, 2.7444577E-002
 5.1501000E+002, 4.6945938E+002, 1.9983701E-002, 2.7357734E-002
 5.2001000E+002, 4.6961983E+002, 2.0001290E-002, 2.7270809E-002
 5.2501000E+002, 4.6978991E+002, 2.0017813E-002, 2.7183811E-002
 5.3001000E+002, 4.6996957E+002, 2.0032093E-002, 2.7096745E-002
 5.3501000E+002, 4.7016160E+002, 2.0044251E-002, 2.7009622E-002
 5.4001000E+002, 4.7036852E+002, 2.0054089E-002, 2.6922450E-002
 5.4501000E+002, 4.7059356E+002, 2.0061485E-002, 2.6835241E-002
 5.5001000E+002, 4.7083903E+002, 2.0064421E-002, 2.6748009E-002
 5.5501000E+002, 4.7111233E+002, 2.0064002E-002, 2.6660772E-002
 5.6001000E+002, 4.7141893E+002, 2.0058370E-002, 2.6573548E-002
 5.6501000E+002, 4.7170498E+002, 2.0041448E-002, 2.6486370E-002
 5.7001000E+002, 4.7198836E+002, 2.0027237E-002, 2.6399265E-002
 5.7501000E+002, 4.7234390E+002, 2.0005504E-002, 2.6312233E-002
 5.8001000E+002, 4.7278675E+002, 1.9970215E-002, 2.6225324E-002
 5.8501000E+002, 4.7333485E+002, 1.9915417E-002, 2.6138610E-002
 5.9001000E+002, 4.7404898E+002, 1.9834612E-002, 2.6052187E-002
 5.9501000E+002, 4.7493537E+002, 1.9710900E-002, 2.5966199E-002
 6.0001000E+002, 4.7603883E+002, 1.9517944E-002, 2.5880879E-002
 6.0501000E+002, 4.7735689E+002, 1.9157989E-002, 2.5796678E-002
 6.1001000E+002, 4.8052368E+002, 1.8735546E-002, 2.5714407E-002
 6.1501000E+002, 4.8601198E+002, 1.8254757E-002, 2.5633881E-002
 6.2001000E+002, 4.9407327E+002, 1.7412660E-002, 2.5556170E-002
 6.2501000E+002, 5.0976860E+002, 1.5533668E-002, 2.5483826E-002
 6.3001000E+002, 5.4160321E+002, 3.6746317E-003, 2.5437039E-002
 6.3501000E+002, 5.2154553E+002, 6.0111727E-018, 2.5434300E-002
 6.4001000E+002, 5.1549877E+002, 3.2554111E-019, 2.5434300E-002
 6.4501000E+002, 5.1369790E+002, 4.1167451E-020, 2.5434300E-002
 6.5001000E+002, 5.1330657E+002, 4.6612609E-021, 2.5434300E-002
 6.5501000E+002, 5.1354255E+002, 0.0000000E+000, 2.5434300E-002
 6.6001000E+002, 5.1408821E+002, 0.0000000E+000, 2.5434300E-002
 6.6501000E+002, 5.1478924E+002, 0.0000000E+000, 2.5434300E-002
 6.7001000E+002, 5.1556412E+002, 0.0000000E+000, 2.5434300E-002
 6.7501000E+002, 5.1636757E+002, 0.0000000E+000, 2.5434300E-002
 6.8001000E+002, 5.1717359E+002, 0.0000000E+000, 2.5434300E-002
 6.8501000E+002, 5.1796701E+002, 0.0000000E+000, 2.5434300E-002
 6.9001000E+002, 5.1873892E+002, 0.0000000E+000, 2.5434300E-002
 6.9501000E+002, 5.1948427E+002, 0.0000000E+000, 2.5434300E-002
 7.0001000E+002, 5.2020036E+002, 0.0000000E+000, 2.5434300E-002
 7.0501000E+002, 5.2088597E+002, 0.0000000E+000, 2.5434300E-002
 7.1001000E+002, 5.2154080E+002, 0.0000000E+000, 2.5434300E-002
 7.1501000E+002, 5.2216515E+002, 0.0000000E+000, 2.5434300E-002
 7.2001000E+002, 5.2275966E+002, 0.0000000E+000, 2.5434300E-002
 7.2501000E+002, 5.2332523E+002, 0.0000000E+000, 2.5434300E-002
 7.3001000E+002, 5.2386286E+002, 0.0000000E+000, 2.5434300E-002
 7.3501000E+002, 5.2437363E+002, 0.0000000E+000, 2.5434300E-002
 7.4001000E+002, 5.2485862E+002, 0.0000000E+000, 2.5434300E-002
 7.4501000E+002, 5.2531894E+002, 0.0000000E+000, 2.5434300E-002
 7.5000000E+002, 5.2575528E+002, 0.0000000E+000, 2.5434300E-002
