s,kW,C,kg/m2/s,m,kW/m2
Time,"HRR","temp","MLR","thick","flux"
 0.000E+000, 0.000E+000, 2.000E+001, 0.000E+000, 2.390E-002,-4.653E-011
 2.012E+000, 0.000E+000, 6.010E+001, 2.329E-026, 2.390E-002, 7.505E+001
 4.005E+000, 0.000E+000, 1.193E+002, 4.981E-021, 2.390E-002, 7.534E+001
 6.005E+000, 0.000E+000, 1.638E+002, 1.381E-017, 2.390E-002, 7.554E+001
 8.001E+000, 0.000E+000, 2.005E+002, 4.126E-015, 2.390E-002, 7.564E+001
 1.000E+001, 0.000E+000, 2.322E+002, 3.285E-013, 2.390E-002, 7.576E+001
 1.200E+001, 1.271E-007, 2.600E+002, 1.084E-011, 2.390E-002, 7.588E+001
 1.400E+001, 2.750E-006, 2.850E+002, 1.908E-010, 2.390E-002, 7.601E+001
 1.601E+001, 3.051E-005, 3.075E+002, 2.108E-009, 2.390E-002, 7.611E+001
 1.801E+001, 2.322E-004, 3.280E+002, 1.632E-008, 2.390E-002, 7.624E+001
 2.001E+001, 1.326E-003, 3.468E+002, 9.548E-008, 2.390E-002, 7.638E+001
 2.201E+001, 6.033E-003, 3.641E+002, 4.436E-007, 2.390E-002, 7.653E+001
 2.400E+001, 2.282E-002, 3.801E+002, 1.725E-006, 2.390E-002, 7.662E+001
 2.601E+001, 7.430E-002, 3.951E+002, 5.800E-006, 2.390E-002, 7.694E+001
 2.800E+001, 2.131E-001, 4.088E+002, 1.692E-005, 2.390E-002, 7.699E+001
 3.000E+001, 5.502E-001, 4.219E+002, 4.501E-005, 2.390E-002, 7.742E+001
 3.201E+001, 1.308E+000, 4.345E+002, 1.121E-004, 2.390E-002, 7.814E+001
 3.401E+001, 2.929E+000, 4.474E+002, 2.712E-004, 2.390E-002, 7.995E+001
 3.600E+001, 6.342E+000, 4.620E+002, 7.044E-004, 2.390E-002, 8.367E+001
 3.800E+001, 1.413E+001, 4.814E+002, 2.292E-003, 2.390E-002, 9.349E+001
 4.000E+001, 3.722E+001, 5.124E+002, 1.171E-002, 2.390E-002, 1.117E+002
 4.200E+001, 9.303E+001, 5.229E+002, 1.966E-002, 2.390E-002, 1.049E+002
 4.400E+001, 1.902E+002, 5.250E+002, 2.039E-002, 2.390E-002, 1.007E+002
 4.600E+001, 3.200E+002, 5.280E+002, 2.072E-002, 2.390E-002, 1.005E+002
 4.800E+001, 4.384E+002, 5.328E+002, 2.188E-002, 2.390E-002, 1.028E+002
 5.000E+001, 5.136E+002, 5.397E+002, 2.350E-002, 2.390E-002, 1.068E+002
 5.200E+001, 5.316E+002, 5.450E+002, 2.220E-002, 2.390E-002, 1.050E+002
 5.400E+001, 5.200E+002, 5.508E+002, 1.984E-002, 2.390E-002, 1.037E+002
 5.600E+001, 4.832E+002, 5.589E+002, 1.825E-002, 2.390E-002, 1.024E+002
 5.800E+001, 4.512E+002, 5.671E+002, 1.712E-002, 2.390E-002, 1.034E+002
 6.000E+001, 4.328E+002, 5.735E+002, 1.806E-002, 2.390E-002, 1.033E+002
 6.200E+001, 4.410E+002, 5.781E+002, 1.923E-002, 2.390E-002, 1.052E+002
 6.400E+001, 4.290E+002, 5.790E+002, 1.905E-002, 2.390E-002, 1.030E+002
 6.600E+001, 4.183E+002, 5.820E+002, 1.876E-002, 2.390E-002, 1.033E+002
 6.800E+001, 4.051E+002, 5.857E+002, 1.828E-002, 2.390E-002, 1.030E+002
 7.000E+001, 3.905E+002, 5.898E+002, 1.734E-002, 2.390E-002, 1.024E+002
 7.200E+001, 3.773E+002, 5.954E+002, 1.640E-002, 2.390E-002, 1.028E+002
 7.400E+001, 3.795E+002, 6.033E+002, 1.640E-002, 2.390E-002, 1.042E+002
 7.600E+001, 3.867E+002, 6.080E+002, 1.669E-002, 2.390E-002, 1.043E+002
 7.800E+001, 3.877E+002, 6.142E+002, 1.801E-002, 2.390E-002, 1.068E+002
 8.000E+001, 3.937E+002, 6.163E+002, 1.862E-002, 2.390E-002, 1.064E+002
 8.200E+001, 3.778E+002, 6.220E+002, 1.943E-002, 2.390E-002, 1.087E+002
 8.400E+001, 3.695E+002, 6.202E+002, 1.800E-002, 2.390E-002, 1.053E+002
 8.600E+001, 3.489E+002, 6.266E+002, 1.790E-002, 2.390E-002, 1.071E+002
 8.800E+001, 3.470E+002, 6.256E+002, 1.618E-002, 2.390E-002, 1.034E+002
 9.000E+001, 3.495E+002, 6.325E+002, 1.582E-002, 2.390E-002, 1.061E+002
 9.200E+001, 3.579E+002, 6.354E+002, 1.571E-002, 2.390E-002, 1.039E+002
 9.400E+001, 3.572E+002, 6.384E+002, 1.589E-002, 2.390E-002, 1.044E+002
 9.600E+001, 3.671E+002, 6.406E+002, 1.626E-002, 2.390E-002, 1.048E+002
 9.800E+001, 3.578E+002, 6.428E+002, 1.660E-002, 2.390E-002, 1.044E+002
 1.000E+002, 3.508E+002, 6.443E+002, 1.635E-002, 2.390E-002, 1.051E+002
 1.020E+002, 3.356E+002, 6.479E+002, 1.659E-002, 2.390E-002, 1.049E+002
 1.040E+002, 3.249E+002, 6.493E+002, 1.592E-002, 2.390E-002, 1.046E+002
 1.060E+002, 3.233E+002, 6.519E+002, 1.533E-002, 2.390E-002, 1.051E+002
 1.080E+002, 3.234E+002, 6.600E+002, 1.565E-002, 2.390E-002, 1.075E+002
 1.100E+002, 3.276E+002, 6.595E+002, 1.495E-002, 2.390E-002, 1.056E+002
 1.120E+002, 3.280E+002, 6.641E+002, 1.510E-002, 2.390E-002, 1.065E+002
 1.140E+002, 3.324E+002, 6.637E+002, 1.528E-002, 2.390E-002, 1.045E+002
 1.160E+002, 3.300E+002, 6.629E+002, 1.503E-002, 2.390E-002, 1.033E+002
 1.180E+002, 3.181E+002, 6.653E+002, 1.506E-002, 2.390E-002, 1.043E+002
 1.200E+002, 3.146E+002, 6.663E+002, 1.497E-002, 2.390E-002, 1.035E+002
 1.220E+002, 3.082E+002, 6.669E+002, 1.462E-002, 2.390E-002, 1.032E+002
 1.240E+002, 3.035E+002, 6.702E+002, 1.446E-002, 2.390E-002, 1.044E+002
 1.260E+002, 2.994E+002, 6.729E+002, 1.424E-002, 2.390E-002, 1.051E+002
 1.280E+002, 3.028E+002, 6.760E+002, 1.412E-002, 2.390E-002, 1.049E+002
 1.300E+002, 3.018E+002, 6.779E+002, 1.387E-002, 2.390E-002, 1.051E+002
 1.320E+002, 2.994E+002, 6.815E+002, 1.400E-002, 2.390E-002, 1.057E+002
 1.340E+002, 2.989E+002, 6.839E+002, 1.420E-002, 2.390E-002, 1.060E+002
 1.360E+002, 2.981E+002, 6.834E+002, 1.429E-002, 2.390E-002, 1.040E+002
 1.380E+002, 2.997E+002, 6.853E+002, 1.428E-002, 2.390E-002, 1.055E+002
 1.400E+002, 2.931E+002, 6.892E+002, 1.451E-002, 2.390E-002, 1.067E+002
 1.420E+002, 2.896E+002, 6.882E+002, 1.437E-002, 2.390E-002, 1.046E+002
 1.440E+002, 2.904E+002, 6.903E+002, 1.406E-002, 2.390E-002, 1.062E+002
 1.460E+002, 2.896E+002, 6.932E+002, 1.405E-002, 2.390E-002, 1.064E+002
 1.480E+002, 2.897E+002, 6.938E+002, 1.386E-002, 2.390E-002, 1.053E+002
 1.500E+002, 2.891E+002, 6.952E+002, 1.352E-002, 2.390E-002, 1.055E+002
 1.520E+002, 2.878E+002, 6.966E+002, 1.336E-002, 2.390E-002, 1.055E+002
 1.540E+002, 2.852E+002, 6.979E+002, 1.335E-002, 2.390E-002, 1.050E+002
 1.560E+002, 2.846E+002, 6.987E+002, 1.337E-002, 2.390E-002, 1.049E+002
 1.580E+002, 2.811E+002, 7.062E+002, 1.366E-002, 2.390E-002, 1.102E+002
 1.600E+002, 2.787E+002, 7.064E+002, 1.426E-002, 2.390E-002, 1.059E+002
 1.620E+002, 2.782E+002, 7.064E+002, 1.392E-002, 2.390E-002, 1.083E+002
 1.640E+002, 2.794E+002, 7.118E+002, 1.415E-002, 2.390E-002, 1.097E+002
 1.660E+002, 2.766E+002, 7.193E+002, 1.446E-002, 2.390E-002, 1.132E+002
 1.680E+002, 2.778E+002, 7.130E+002, 1.444E-002, 2.390E-002, 1.068E+002
 1.700E+002, 2.775E+002, 7.121E+002, 1.364E-002, 2.390E-002, 1.073E+002
 1.720E+002, 2.765E+002, 7.158E+002, 1.338E-002, 2.390E-002, 1.093E+002
 1.740E+002, 2.788E+002, 7.169E+002, 1.354E-002, 2.390E-002, 1.074E+002
 1.760E+002, 2.758E+002, 7.205E+002, 1.345E-002, 2.390E-002, 1.102E+002
 1.780E+002, 2.735E+002, 7.229E+002, 1.376E-002, 2.390E-002, 1.102E+002
 1.800E+002, 2.738E+002, 7.228E+002, 1.385E-002, 2.390E-002, 1.097E+002
 1.820E+002, 2.681E+002, 7.275E+002, 1.409E-002, 2.390E-002, 1.105E+002
 1.840E+002, 2.690E+002, 7.230E+002, 1.396E-002, 2.390E-002, 1.076E+002
 1.860E+002, 2.688E+002, 7.199E+002, 1.356E-002, 2.390E-002, 1.054E+002
 1.880E+002, 2.683E+002, 7.201E+002, 1.320E-002, 2.390E-002, 1.057E+002
 1.900E+002, 2.680E+002, 7.200E+002, 1.290E-002, 2.390E-002, 1.054E+002
 1.920E+002, 2.700E+002, 7.201E+002, 1.274E-002, 2.390E-002, 1.047E+002
 1.940E+002, 2.717E+002, 7.211E+002, 1.260E-002, 2.390E-002, 1.052E+002
 1.960E+002, 2.676E+002, 7.214E+002, 1.250E-002, 2.390E-002, 1.046E+002
 1.980E+002, 2.679E+002, 7.241E+002, 1.247E-002, 2.390E-002, 1.063E+002
 2.000E+002, 2.698E+002, 7.259E+002, 1.265E-002, 2.390E-002, 1.056E+002
 2.020E+002, 2.678E+002, 7.246E+002, 1.270E-002, 2.390E-002, 1.043E+002
 2.040E+002, 2.689E+002, 7.276E+002, 1.268E-002, 2.390E-002, 1.068E+002
 2.060E+002, 2.672E+002, 7.300E+002, 1.290E-002, 2.390E-002, 1.065E+002
 2.080E+002, 2.686E+002, 7.293E+002, 1.298E-002, 2.390E-002, 1.053E+002
 2.100E+002, 2.697E+002, 7.289E+002, 1.290E-002, 2.390E-002, 1.049E+002
 2.120E+002, 2.676E+002, 7.292E+002, 1.278E-002, 2.390E-002, 1.049E+002
 2.140E+002, 2.688E+002, 7.317E+002, 1.272E-002, 2.390E-002, 1.067E+002
 2.160E+002, 2.675E+002, 7.319E+002, 1.275E-002, 2.390E-002, 1.051E+002
 2.180E+002, 2.685E+002, 7.331E+002, 1.270E-002, 2.390E-002, 1.058E+002
 2.200E+002, 2.683E+002, 7.340E+002, 1.270E-002, 2.390E-002, 1.054E+002
 2.220E+002, 2.700E+002, 7.370E+002, 1.272E-002, 2.390E-002, 1.072E+002
 2.240E+002, 2.686E+002, 7.360E+002, 1.283E-002, 2.390E-002, 1.051E+002
 2.260E+002, 2.726E+002, 7.366E+002, 1.280E-002, 2.390E-002, 1.058E+002
 2.280E+002, 2.687E+002, 7.384E+002, 1.286E-002, 2.390E-002, 1.062E+002
 2.300E+002, 2.729E+002, 7.402E+002, 1.294E-002, 2.390E-002, 1.070E+002
 2.320E+002, 2.706E+002, 7.414E+002, 1.309E-002, 2.390E-002, 1.066E+002
 2.340E+002, 2.744E+002, 7.416E+002, 1.312E-002, 2.390E-002, 1.067E+002
 2.360E+002, 2.736E+002, 7.417E+002, 1.312E-002, 2.390E-002, 1.060E+002
 2.380E+002, 2.708E+002, 7.427E+002, 1.309E-002, 2.390E-002, 1.056E+002
 2.400E+002, 2.737E+002, 7.417E+002, 1.302E-002, 2.390E-002, 1.053E+002
 2.420E+002, 2.746E+002, 7.442E+002, 1.296E-002, 2.390E-002, 1.065E+002
 2.440E+002, 2.740E+002, 7.443E+002, 1.298E-002, 2.390E-002, 1.059E+002
 2.460E+002, 2.770E+002, 7.442E+002, 1.298E-002, 2.390E-002, 1.057E+002
 2.480E+002, 2.728E+002, 7.463E+002, 1.299E-002, 2.390E-002, 1.063E+002
 2.500E+002, 2.777E+002, 7.465E+002, 1.306E-002, 2.390E-002, 1.060E+002
 2.520E+002, 2.771E+002, 7.473E+002, 1.313E-002, 2.390E-002, 1.058E+002
 2.540E+002, 2.787E+002, 7.474E+002, 1.317E-002, 2.390E-002, 1.059E+002
 2.560E+002, 2.789E+002, 7.503E+002, 1.322E-002, 2.390E-002, 1.069E+002
 2.580E+002, 2.790E+002, 7.499E+002, 1.332E-002, 2.390E-002, 1.062E+002
 2.600E+002, 2.792E+002, 7.509E+002, 1.334E-002, 2.390E-002, 1.064E+002
 2.620E+002, 2.804E+002, 7.520E+002, 1.335E-002, 2.390E-002, 1.068E+002
 2.640E+002, 2.817E+002, 7.539E+002, 1.337E-002, 2.390E-002, 1.079E+002
 2.660E+002, 2.817E+002, 7.560E+002, 1.347E-002, 2.390E-002, 1.078E+002
 2.680E+002, 2.836E+002, 7.566E+002, 1.356E-002, 2.390E-002, 1.080E+002
 2.700E+002, 2.840E+002, 7.561E+002, 1.360E-002, 2.390E-002, 1.069E+002
 2.720E+002, 2.847E+002, 7.554E+002, 1.360E-002, 2.390E-002, 1.059E+002
 2.740E+002, 2.851E+002, 7.562E+002, 1.357E-002, 2.390E-002, 1.067E+002
 2.760E+002, 2.861E+002, 7.557E+002, 1.358E-002, 2.390E-002, 1.057E+002
 2.780E+002, 2.855E+002, 7.556E+002, 1.358E-002, 2.390E-002, 1.053E+002
 2.800E+002, 2.870E+002, 7.573E+002, 1.358E-002, 2.390E-002, 1.067E+002
 2.820E+002, 2.849E+002, 7.570E+002, 1.363E-002, 2.390E-002, 1.055E+002
 2.840E+002, 2.889E+002, 7.591E+002, 1.365E-002, 2.390E-002, 1.072E+002
 2.860E+002, 2.879E+002, 7.642E+002, 1.373E-002, 2.390E-002, 1.102E+002
 2.880E+002, 2.900E+002, 7.629E+002, 1.392E-002, 2.390E-002, 1.069E+002
 2.900E+002, 2.910E+002, 7.623E+002, 1.398E-002, 2.390E-002, 1.070E+002
 2.920E+002, 2.906E+002, 7.622E+002, 1.396E-002, 2.390E-002, 1.064E+002
 2.940E+002, 2.935E+002, 7.622E+002, 1.394E-002, 2.390E-002, 1.065E+002
 2.960E+002, 2.926E+002, 7.631E+002, 1.393E-002, 2.390E-002, 1.065E+002
 2.980E+002, 2.939E+002, 7.633E+002, 1.397E-002, 2.390E-002, 1.063E+002
 3.000E+002, 2.954E+002, 7.643E+002, 1.400E-002, 2.390E-002, 1.069E+002
 3.020E+002, 2.930E+002, 7.662E+002, 1.405E-002, 2.390E-002, 1.075E+002
 3.040E+002, 2.998E+002, 7.654E+002, 1.414E-002, 2.390E-002, 1.067E+002
 3.060E+002, 2.969E+002, 7.668E+002, 1.418E-002, 2.390E-002, 1.069E+002
 3.080E+002, 3.001E+002, 7.676E+002, 1.422E-002, 2.390E-002, 1.076E+002
 3.100E+002, 2.994E+002, 7.688E+002, 1.426E-002, 2.390E-002, 1.074E+002
 3.120E+002, 3.013E+002, 7.679E+002, 1.432E-002, 2.390E-002, 1.066E+002
 3.140E+002, 3.020E+002, 7.687E+002, 1.432E-002, 2.390E-002, 1.068E+002
 3.160E+002, 3.013E+002, 7.686E+002, 1.434E-002, 2.390E-002, 1.065E+002
 3.180E+002, 3.040E+002, 7.693E+002, 1.435E-002, 2.390E-002, 1.066E+002
 3.200E+002, 3.052E+002, 7.699E+002, 1.437E-002, 2.390E-002, 1.072E+002
 3.220E+002, 3.044E+002, 7.699E+002, 1.441E-002, 2.390E-002, 1.062E+002
 3.240E+002, 3.027E+002, 7.705E+002, 1.445E-002, 2.390E-002, 1.065E+002
 3.260E+002, 3.055E+002, 7.725E+002, 1.449E-002, 2.390E-002, 1.077E+002
 3.280E+002, 3.065E+002, 7.734E+002, 1.456E-002, 2.390E-002, 1.075E+002
 3.300E+002, 3.061E+002, 7.720E+002, 1.463E-002, 2.390E-002, 1.060E+002
 3.320E+002, 3.092E+002, 7.733E+002, 1.465E-002, 2.390E-002, 1.070E+002
 3.340E+002, 3.082E+002, 7.731E+002, 1.466E-002, 2.390E-002, 1.067E+002
 3.360E+002, 3.097E+002, 7.741E+002, 1.468E-002, 2.390E-002, 1.065E+002
 3.380E+002, 3.116E+002, 7.730E+002, 1.470E-002, 2.390E-002, 1.054E+002
 3.400E+002, 3.124E+002, 7.798E+002, 1.470E-002, 2.390E-002, 1.121E+002
 3.420E+002, 3.097E+002, 7.823E+002, 1.481E-002, 2.390E-002, 1.097E+002
 3.440E+002, 3.126E+002, 7.777E+002, 1.500E-002, 2.390E-002, 1.063E+002
 3.460E+002, 3.125E+002, 7.768E+002, 1.503E-002, 2.390E-002, 1.064E+002
 3.480E+002, 3.158E+002, 7.772E+002, 1.499E-002, 2.390E-002, 1.066E+002
 3.500E+002, 3.130E+002, 7.769E+002, 1.496E-002, 2.390E-002, 1.065E+002
 3.520E+002, 3.121E+002, 7.796E+002, 1.494E-002, 2.390E-002, 1.088E+002
 3.540E+002, 3.167E+002, 7.820E+002, 1.498E-002, 2.390E-002, 1.083E+002
 3.560E+002, 3.136E+002, 7.794E+002, 1.506E-002, 2.390E-002, 1.063E+002
 3.580E+002, 3.133E+002, 7.802E+002, 1.507E-002, 2.390E-002, 1.073E+002
 3.600E+002, 3.218E+002, 7.805E+002, 1.506E-002, 2.390E-002, 1.073E+002
 3.620E+002, 3.155E+002, 7.832E+002, 1.506E-002, 2.390E-002, 1.090E+002
 3.640E+002, 3.164E+002, 7.857E+002, 1.510E-002, 2.390E-002, 1.100E+002
 3.660E+002, 3.183E+002, 7.830E+002, 1.518E-002, 2.390E-002, 1.065E+002
 3.680E+002, 3.160E+002, 7.824E+002, 1.521E-002, 2.390E-002, 1.070E+002
 3.700E+002, 3.217E+002, 7.834E+002, 1.518E-002, 2.390E-002, 1.074E+002
 3.720E+002, 3.194E+002, 7.828E+002, 1.517E-002, 2.390E-002, 1.066E+002
 3.740E+002, 3.172E+002, 7.840E+002, 1.516E-002, 2.390E-002, 1.077E+002
 3.760E+002, 3.195E+002, 7.839E+002, 1.514E-002, 2.390E-002, 1.067E+002
 3.780E+002, 3.179E+002, 7.834E+002, 1.514E-002, 2.390E-002, 1.067E+002
 3.800E+002, 3.192E+002, 7.844E+002, 1.511E-002, 2.390E-002, 1.070E+002
 3.820E+002, 3.204E+002, 7.842E+002, 1.509E-002, 2.390E-002, 1.067E+002
 3.840E+002, 3.182E+002, 7.847E+002, 1.507E-002, 2.390E-002, 1.071E+002
 3.860E+002, 3.190E+002, 7.869E+002, 1.506E-002, 2.390E-002, 1.080E+002
 3.880E+002, 3.168E+002, 7.862E+002, 1.506E-002, 2.390E-002, 1.069E+002
 3.900E+002, 3.181E+002, 7.857E+002, 1.506E-002, 2.390E-002, 1.062E+002
 3.920E+002, 3.196E+002, 7.859E+002, 1.505E-002, 2.390E-002, 1.070E+002
 3.940E+002, 3.144E+002, 7.856E+002, 1.501E-002, 2.390E-002, 1.059E+002
 3.960E+002, 3.175E+002, 7.870E+002, 1.498E-002, 2.390E-002, 1.074E+002
 3.980E+002, 3.172E+002, 7.882E+002, 1.495E-002, 2.390E-002, 1.077E+002
 4.000E+002, 3.143E+002, 7.907E+002, 1.494E-002, 2.390E-002, 1.091E+002
 4.020E+002, 3.191E+002, 7.902E+002, 1.495E-002, 2.390E-002, 1.076E+002
 4.040E+002, 3.161E+002, 7.887E+002, 1.496E-002, 2.390E-002, 1.063E+002
 4.060E+002, 3.150E+002, 7.884E+002, 1.494E-002, 2.390E-002, 1.064E+002
 4.080E+002, 3.144E+002, 7.897E+002, 1.488E-002, 2.390E-002, 1.075E+002
 4.100E+002, 3.137E+002, 7.897E+002, 1.483E-002, 2.390E-002, 1.069E+002
 4.120E+002, 3.119E+002, 7.904E+002, 1.480E-002, 2.390E-002, 1.073E+002
 4.140E+002, 3.150E+002, 7.921E+002, 1.476E-002, 2.390E-002, 1.082E+002
 4.160E+002, 3.127E+002, 7.908E+002, 1.474E-002, 2.390E-002, 1.064E+002
 4.180E+002, 3.096E+002, 7.908E+002, 1.472E-002, 2.390E-002, 1.066E+002
 4.200E+002, 3.100E+002, 7.908E+002, 1.467E-002, 2.390E-002, 1.069E+002
 4.220E+002, 3.103E+002, 7.926E+002, 1.462E-002, 2.390E-002, 1.077E+002
 4.240E+002, 3.088E+002, 7.924E+002, 1.457E-002, 2.390E-002, 1.074E+002
 4.260E+002, 3.082E+002, 7.940E+002, 1.454E-002, 2.390E-002, 1.079E+002
 4.280E+002, 3.095E+002, 7.941E+002, 1.451E-002, 2.390E-002, 1.083E+002
 4.300E+002, 3.051E+002, 7.938E+002, 1.448E-002, 2.390E-002, 1.065E+002
 4.320E+002, 3.072E+002, 7.922E+002, 1.444E-002, 2.389E-002, 1.062E+002
 4.340E+002, 3.059E+002, 7.919E+002, 1.438E-002, 2.389E-002, 1.058E+002
 4.360E+002, 3.037E+002, 7.943E+002, 1.431E-002, 2.389E-002, 1.083E+002
 4.380E+002, 3.017E+002, 7.945E+002, 1.425E-002, 2.389E-002, 1.070E+002
 4.400E+002, 3.034E+002, 7.949E+002, 1.421E-002, 2.389E-002, 1.073E+002
 4.420E+002, 3.011E+002, 7.944E+002, 1.417E-002, 2.389E-002, 1.068E+002
 4.440E+002, 3.017E+002, 7.955E+002, 1.413E-002, 2.389E-002, 1.076E+002
 4.460E+002, 2.998E+002, 7.962E+002, 1.408E-002, 2.389E-002, 1.082E+002
 4.480E+002, 3.005E+002, 7.963E+002, 1.404E-002, 2.389E-002, 1.066E+002
 4.500E+002, 2.973E+002, 7.965E+002, 1.400E-002, 2.389E-002, 1.079E+002
 4.520E+002, 2.959E+002, 7.982E+002, 1.396E-002, 2.389E-002, 1.078E+002
 4.540E+002, 2.959E+002, 7.979E+002, 1.392E-002, 2.389E-002, 1.079E+002
 4.560E+002, 2.976E+002, 7.967E+002, 1.389E-002, 2.389E-002, 1.071E+002
 4.580E+002, 2.937E+002, 7.979E+002, 1.384E-002, 2.389E-002, 1.078E+002
 4.600E+002, 2.922E+002, 7.980E+002, 1.378E-002, 2.389E-002, 1.073E+002
 4.620E+002, 2.922E+002, 7.993E+002, 1.373E-002, 2.389E-002, 1.083E+002
 4.640E+002, 2.892E+002, 7.999E+002, 1.369E-002, 2.389E-002, 1.089E+002
 4.660E+002, 2.913E+002, 7.991E+002, 1.365E-002, 2.389E-002, 1.069E+002
 4.680E+002, 2.896E+002, 8.006E+002, 1.362E-002, 2.389E-002, 1.086E+002
 4.700E+002, 2.890E+002, 7.994E+002, 1.357E-002, 2.389E-002, 1.072E+002
 4.720E+002, 2.841E+002, 8.001E+002, 1.353E-002, 2.389E-002, 1.076E+002
 4.740E+002, 2.878E+002, 7.995E+002, 1.348E-002, 2.389E-002, 1.074E+002
 4.760E+002, 2.857E+002, 8.028E+002, 1.343E-002, 2.389E-002, 1.095E+002
 4.780E+002, 2.829E+002, 8.015E+002, 1.338E-002, 2.389E-002, 1.080E+002
 4.800E+002, 2.829E+002, 8.008E+002, 1.334E-002, 2.389E-002, 1.071E+002
 4.820E+002, 2.798E+002, 8.006E+002, 1.330E-002, 2.389E-002, 1.072E+002
 4.840E+002, 2.824E+002, 7.992E+002, 1.325E-002, 2.389E-002, 1.061E+002
 4.860E+002, 2.799E+002, 8.000E+002, 1.319E-002, 2.389E-002, 1.074E+002
 4.880E+002, 2.788E+002, 8.025E+002, 1.312E-002, 2.389E-002, 1.090E+002
 4.900E+002, 2.772E+002, 8.021E+002, 1.306E-002, 2.389E-002, 1.073E+002
 4.920E+002, 2.755E+002, 8.022E+002, 1.302E-002, 2.389E-002, 1.077E+002
 4.940E+002, 2.757E+002, 8.017E+002, 1.298E-002, 2.389E-002, 1.074E+002
 4.960E+002, 2.725E+002, 8.040E+002, 1.293E-002, 2.389E-002, 1.087E+002
 4.980E+002, 2.737E+002, 8.027E+002, 1.289E-002, 2.389E-002, 1.077E+002
 5.000E+002, 2.715E+002, 8.053E+002, 1.285E-002, 2.389E-002, 1.091E+002
 5.020E+002, 2.699E+002, 8.045E+002, 1.281E-002, 2.389E-002, 1.080E+002
 5.040E+002, 2.714E+002, 8.050E+002, 1.278E-002, 2.389E-002, 1.090E+002
 5.060E+002, 2.702E+002, 8.059E+002, 1.274E-002, 2.389E-002, 1.091E+002
 5.080E+002, 2.654E+002, 8.062E+002, 1.271E-002, 2.389E-002, 1.083E+002
 5.100E+002, 2.659E+002, 8.031E+002, 1.267E-002, 2.389E-002, 1.062E+002
 5.120E+002, 2.672E+002, 8.030E+002, 1.263E-002, 2.389E-002, 1.068E+002
 5.140E+002, 2.656E+002, 8.048E+002, 1.257E-002, 2.389E-002, 1.085E+002
 5.160E+002, 2.611E+002, 8.047E+002, 1.251E-002, 2.389E-002, 1.075E+002
 5.180E+002, 2.646E+002, 8.056E+002, 1.245E-002, 2.389E-002, 1.087E+002
 5.200E+002, 2.592E+002, 8.066E+002, 1.240E-002, 2.389E-002, 1.086E+002
 5.220E+002, 2.601E+002, 8.140E+002, 1.235E-002, 2.389E-002, 1.141E+002
 5.240E+002, 2.593E+002, 8.128E+002, 1.233E-002, 2.389E-002, 1.114E+002
 5.260E+002, 2.582E+002, 8.111E+002, 1.233E-002, 2.389E-002, 1.091E+002
 5.280E+002, 2.566E+002, 8.078E+002, 1.234E-002, 2.389E-002, 1.079E+002
 5.300E+002, 2.574E+002, 8.076E+002, 1.232E-002, 2.389E-002, 1.080E+002
 5.320E+002, 2.556E+002, 8.075E+002, 1.227E-002, 2.389E-002, 1.076E+002
 5.340E+002, 2.545E+002, 8.072E+002, 1.221E-002, 2.389E-002, 1.083E+002
 5.360E+002, 2.507E+002, 8.070E+002, 1.214E-002, 2.389E-002, 1.071E+002
 5.380E+002, 2.500E+002, 8.065E+002, 1.207E-002, 2.389E-002, 1.072E+002
 5.400E+002, 2.523E+002, 8.062E+002, 1.200E-002, 2.389E-002, 1.070E+002
 5.420E+002, 2.489E+002, 8.064E+002, 1.193E-002, 2.389E-002, 1.075E+002
 5.440E+002, 2.489E+002, 8.070E+002, 1.186E-002, 2.389E-002, 1.076E+002
 5.460E+002, 2.454E+002, 8.076E+002, 1.180E-002, 2.389E-002, 1.077E+002
 5.480E+002, 2.450E+002, 8.076E+002, 1.174E-002, 2.389E-002, 1.073E+002
 5.500E+002, 2.441E+002, 8.086E+002, 1.168E-002, 2.389E-002, 1.086E+002
