s,C,kg/m2/s,m
Time,temp,MLR,thick
 0.0000000E+000, 2.0000000E+001, 0.0000000E+000, 1.8500000E-002
 5.0100000E+000, 7.9984185E+001, 4.4465646E-014, 1.8500000E-002
 1.0010000E+001, 1.5464375E+002, 1.2622761E-010, 1.8500000E-002
 1.5010000E+001, 2.0511074E+002, 1.5536482E-008, 1.8500000E-002
 2.0000000E+001, 2.4474954E+002, 4.3962282E-007, 1.8499999E-002
 2.5000000E+001, 2.7757608E+002, 5.3204361E-006, 1.8499990E-002
 3.0000000E+001, 3.0551493E+002, 3.6995667E-005, 1.8499913E-002
 3.5000000E+001, 3.2953977E+002, 1.7339462E-004, 1.8499500E-002
 4.0000000E+001, 3.5003016E+002, 5.9573626E-004, 1.8497906E-002
 4.5010000E+001, 3.6681807E+002, 1.5531373E-003, 1.8493252E-002
 5.0010000E+001, 3.7951827E+002, 3.1159853E-003, 1.8482820E-002
 5.5010000E+001, 3.8831533E+002, 4.9829104E-003, 1.8464436E-002
 6.0010000E+001, 3.9314265E+002, 6.6120630E-003, 1.8437853E-002
 6.5010000E+001, 3.9677149E+002, 8.1397426E-003, 1.8404385E-002
 7.0010000E+001, 3.9898623E+002, 9.2511469E-003, 1.8364535E-002
 7.5000000E+001, 4.0077316E+002, 1.0290087E-002, 1.8320338E-002
 8.0000000E+001, 4.0156597E+002, 1.0933698E-002, 1.8271810E-002
 8.5000000E+001, 4.0280851E+002, 1.1725504E-002, 1.8220557E-002
 9.0000000E+001, 4.0302988E+002, 1.2155616E-002, 1.8166189E-002
 9.5000000E+001, 4.0445084E+002, 1.2857250E-002, 1.8109254E-002
 1.0000000E+002, 4.0427472E+002, 1.3142864E-002, 1.8050373E-002
 1.0500000E+002, 4.0515047E+002, 1.3594019E-002, 1.7989131E-002
 1.1000000E+002, 4.0523142E+002, 1.3933299E-002, 1.7926949E-002
 1.1500000E+002, 4.0546889E+002, 1.4181827E-002, 1.7862772E-002
 1.2000000E+002, 4.0638936E+002, 1.4676520E-002, 1.7797379E-002
 1.2500000E+002, 4.0566861E+002, 1.4663833E-002, 1.7730701E-002
 1.3000000E+002, 4.0651252E+002, 1.5068854E-002, 1.7662852E-002
 1.3500000E+002, 4.0652472E+002, 1.5301972E-002, 1.7594158E-002
 1.4000000E+002, 4.0683867E+002, 1.5484120E-002, 1.7523828E-002
 1.4500000E+002, 4.0743327E+002, 1.5850895E-002, 1.7452892E-002
 1.5000000E+002, 4.0690644E+002, 1.5813160E-002, 1.7380772E-002
 1.5500000E+002, 4.0774560E+002, 1.6208757E-002, 1.7308044E-002
 1.6001000E+002, 4.0720470E+002, 1.6219360E-002, 1.7234512E-002
 1.6501000E+002, 4.0786219E+002, 1.6485375E-002, 1.7159604E-002
 1.7001000E+002, 4.0769965E+002, 1.6656148E-002, 1.7084694E-002
 1.7501000E+002, 4.0776923E+002, 1.6749339E-002, 1.7008487E-002
 1.8001000E+002, 4.0852645E+002, 1.7135865E-002, 1.6931691E-002
 1.8501000E+002, 4.0774017E+002, 1.7031067E-002, 1.6854016E-002
 1.9001000E+002, 4.0852597E+002, 1.7377334E-002, 1.6775610E-002
 1.9501000E+002, 4.0828285E+002, 1.7495606E-002, 1.6696688E-002
 2.0001000E+002, 4.0854766E+002, 1.7640802E-002, 1.6616376E-002
 2.0501000E+002, 4.0874866E+002, 1.7914270E-002, 1.6535951E-002
 2.1001000E+002, 4.0853583E+002, 1.7941587E-002, 1.6454320E-002
 2.1501000E+002, 4.0941953E+002, 1.8346417E-002, 1.6371858E-002
 2.2001000E+002, 4.0888148E+002, 1.8350704E-002, 1.6288705E-002
 2.2501000E+002, 4.0934130E+002, 1.8581317E-002, 1.6204276E-002
 2.3001000E+002, 4.0945594E+002, 1.8839793E-002, 1.6119606E-002
 2.3501000E+002, 4.0931582E+002, 1.8901422E-002, 1.6033685E-002
 2.4001000E+002, 4.1003534E+002, 1.9273074E-002, 1.5946860E-002
 2.4501000E+002, 4.0939957E+002, 1.9309402E-002, 1.5859475E-002
 2.5001000E+002, 4.0984472E+002, 1.9548198E-002, 1.5770764E-002
 2.5501000E+002, 4.1036685E+002, 1.9926503E-002, 1.5681336E-002
 2.6001000E+002, 4.0971980E+002, 1.9913349E-002, 1.5590793E-002
 2.6501000E+002, 4.1034818E+002, 2.0257738E-002, 1.5499203E-002
 2.7001000E+002, 4.1050565E+002, 2.0556459E-002, 1.5406780E-002
 2.7501000E+002, 4.1025614E+002, 2.0651458E-002, 1.5312919E-002
 2.8001000E+002, 4.1082447E+002, 2.1030301E-002, 1.5218146E-002
 2.8501000E+002, 4.1071981E+002, 2.1257415E-002, 1.5122337E-002
 2.9001000E+002, 4.1075060E+002, 2.1454600E-002, 1.5024937E-002
 2.9501000E+002, 4.1123804E+002, 2.1860836E-002, 1.4926604E-002
 3.0001000E+002, 4.1060434E+002, 2.1979726E-002, 1.4827232E-002
 3.0501000E+002, 4.1105633E+002, 2.2320673E-002, 1.4726188E-002
 3.1001000E+002, 4.1169917E+002, 2.2808331E-002, 1.4623797E-002
 3.1501000E+002, 4.1097801E+002, 2.2914654E-002, 1.4520088E-002
 3.2001000E+002, 4.1149612E+002, 2.3313315E-002, 1.4414657E-002
 3.2501000E+002, 4.1208359E+002, 2.3812733E-002, 1.4307687E-002
 3.3001000E+002, 4.1146878E+002, 2.3996787E-002, 1.4199254E-002
 3.3501000E+002, 4.1192197E+002, 2.4415487E-002, 1.4088914E-002
 3.4001000E+002, 4.1242648E+002, 2.4918461E-002, 1.3976790E-002
 3.4501000E+002, 4.1206560E+002, 2.5238086E-002, 1.3863074E-002
 3.5001000E+002, 4.1235355E+002, 2.5648994E-002, 1.3747236E-002
 3.5501000E+002, 4.1273980E+002, 2.6143410E-002, 1.3629365E-002
 3.6001000E+002, 4.1274497E+002, 2.6606428E-002, 1.3509778E-002
 3.6501000E+002, 4.1231945E+002, 2.6909397E-002, 1.3388126E-002
 3.7001000E+002, 4.1280329E+002, 2.7445088E-002, 1.3264383E-002
 3.7501000E+002, 4.1331947E+002, 2.8013525E-002, 1.3138440E-002
 3.8001000E+002, 4.1281653E+002, 2.8317016E-002, 1.3010603E-002
 3.8501000E+002, 4.1324851E+002, 2.8775036E-002, 1.2880650E-002
 3.9001000E+002, 4.1356876E+002, 2.9198757E-002, 1.2748715E-002
 3.9501000E+002, 4.1366769E+002, 2.9587081E-002, 1.2615352E-002
 4.0001000E+002, 4.1308112E+002, 2.9759522E-002, 1.2480538E-002
 4.0501000E+002, 4.1363677E+002, 3.0142310E-002, 1.2344193E-002
 4.1001000E+002, 4.1399661E+002, 3.0423244E-002, 1.2206397E-002
 4.1501000E+002, 4.1398593E+002, 3.0630399E-002, 1.2067868E-002
 4.2001000E+002, 4.1345589E+002, 3.0684459E-002, 1.1928552E-002
 4.2501000E+002, 4.1410266E+002, 3.0957522E-002, 1.1788306E-002
 4.3001000E+002, 4.1450479E+002, 3.1076042E-002, 1.1647158E-002
 4.3501000E+002, 4.1460965E+002, 3.1165803E-002, 1.1505917E-002
 4.4001000E+002, 4.1403611E+002, 3.1118458E-002, 1.1364447E-002
 4.4501000E+002, 4.1506634E+002, 3.1279175E-002, 1.1222463E-002
 4.5001000E+002, 4.1555045E+002, 3.1156566E-002, 1.1080396E-002
 4.5501000E+002, 4.1620744E+002, 3.1073887E-002, 1.0939064E-002
 4.6001000E+002, 4.1760194E+002, 3.0841227E-002, 1.0798228E-002
 4.6501000E+002, 4.1848622E+002, 3.0334568E-002, 1.0659237E-002
 4.7001000E+002, 4.2119649E+002, 2.9721251E-002, 1.0522532E-002
 4.7501000E+002, 4.2418391E+002, 2.8430987E-002, 1.0390294E-002
 4.8001000E+002, 4.3005477E+002, 2.6406615E-002, 1.0264875E-002
 4.8501000E+002, 4.3996188E+002, 2.3504664E-002, 1.0151368E-002
 4.9001000E+002, 4.5956364E+002, 1.8248285E-002, 1.0054927E-002
 4.9501000E+002, 5.7605368E+002, 3.3927462E-003, 9.5117087E-003
 5.0001000E+002, 6.3431939E+002, 0.0000000E+000, 9.2867116E-003
 5.0501000E+002, 6.4394145E+002, 0.0000000E+000, 9.2867116E-003
 5.1001000E+002, 6.4929140E+002, 0.0000000E+000, 9.2867116E-003
 5.1501000E+002, 6.5231588E+002, 0.0000000E+000, 9.2867116E-003
 5.2001000E+002, 6.5396830E+002, 0.0000000E+000, 9.2867116E-003
 5.2501000E+002, 6.5485169E+002, 0.0000000E+000, 9.2867116E-003
 5.3001000E+002, 6.5531833E+002, 0.0000000E+000, 9.2867116E-003
 5.3501000E+002, 6.5556342E+002, 0.0000000E+000, 9.2867116E-003
 5.4001000E+002, 6.5569170E+002, 0.0000000E+000, 9.2867116E-003
 5.4501000E+002, 6.5575867E+002, 0.0000000E+000, 9.2867116E-003
 5.5001000E+002, 6.5579361E+002, 0.0000000E+000, 9.2867116E-003
 5.5501000E+002, 6.5581185E+002, 0.0000000E+000, 9.2867116E-003
 5.6001000E+002, 6.5582139E+002, 0.0000000E+000, 9.2867116E-003
 5.6501000E+002, 6.5582635E+002, 0.0000000E+000, 9.2867116E-003
 5.7001000E+002, 6.5582894E+002, 0.0000000E+000, 9.2867116E-003
 5.7501000E+002, 6.5583028E+002, 0.0000000E+000, 9.2867116E-003
 5.8001000E+002, 6.5583098E+002, 0.0000000E+000, 9.2867116E-003
 5.8501000E+002, 6.5583134E+002, 0.0000000E+000, 9.2867116E-003
 5.9001000E+002, 6.5583153E+002, 0.0000000E+000, 9.2867116E-003
 5.9501000E+002, 6.5583163E+002, 0.0000000E+000, 9.2867116E-003
 6.0001000E+002, 6.5583168E+002, 0.0000000E+000, 9.2867116E-003
 6.0501000E+002, 6.5583171E+002, 0.0000000E+000, 9.2867116E-003
 6.1001000E+002, 6.5583173E+002, 0.0000000E+000, 9.2867116E-003
 6.1501000E+002, 6.5583173E+002, 0.0000000E+000, 9.2867116E-003
 6.2001000E+002, 6.5583174E+002, 0.0000000E+000, 9.2867116E-003
 6.2501000E+002, 6.5583174E+002, 0.0000000E+000, 9.2867116E-003
 6.3001000E+002, 6.5583174E+002, 0.0000000E+000, 9.2867116E-003
 6.3501000E+002, 6.5583174E+002, 0.0000000E+000, 9.2867116E-003
 6.4001000E+002, 6.5583174E+002, 0.0000000E+000, 9.2867116E-003
 6.4501000E+002, 6.5583174E+002, 0.0000000E+000, 9.2867116E-003
 6.5001000E+002, 6.5583174E+002, 0.0000000E+000, 9.2867116E-003
 6.5501000E+002, 6.5583174E+002, 0.0000000E+000, 9.2867116E-003
 6.6001000E+002, 6.5583174E+002, 0.0000000E+000, 9.2867116E-003
 6.6501000E+002, 6.5583174E+002, 0.0000000E+000, 9.2867116E-003
 6.7001000E+002, 6.5583174E+002, 0.0000000E+000, 9.2867116E-003
 6.7501000E+002, 6.5583174E+002, 0.0000000E+000, 9.2867116E-003
 6.8001000E+002, 6.5583174E+002, 0.0000000E+000, 9.2867116E-003
 6.8501000E+002, 6.5583174E+002, 0.0000000E+000, 9.2867116E-003
 6.9001000E+002, 6.5583174E+002, 0.0000000E+000, 9.2867116E-003
 6.9501000E+002, 6.5583174E+002, 0.0000000E+000, 9.2867116E-003
 7.0001000E+002, 6.5583174E+002, 0.0000000E+000, 9.2867116E-003
 7.0501000E+002, 6.5583174E+002, 0.0000000E+000, 9.2867116E-003
 7.1001000E+002, 6.5583174E+002, 0.0000000E+000, 9.2867116E-003
 7.1501000E+002, 6.5583174E+002, 0.0000000E+000, 9.2867116E-003
 7.2001000E+002, 6.5583174E+002, 0.0000000E+000, 9.2867116E-003
 7.2501000E+002, 6.5583174E+002, 0.0000000E+000, 9.2867116E-003
 7.3001000E+002, 6.5583174E+002, 0.0000000E+000, 9.2867116E-003
 7.3501000E+002, 6.5583174E+002, 0.0000000E+000, 9.2867116E-003
 7.4001000E+002, 6.5583174E+002, 0.0000000E+000, 9.2867116E-003
 7.4501000E+002, 6.5583174E+002, 0.0000000E+000, 9.2867116E-003
 7.5001000E+002, 6.5583174E+002, 0.0000000E+000, 9.2867116E-003
 7.5501000E+002, 6.5583174E+002, 0.0000000E+000, 9.2867116E-003
 7.6001000E+002, 6.5583174E+002, 0.0000000E+000, 9.2867116E-003
 7.6501000E+002, 6.5583174E+002, 0.0000000E+000, 9.2867116E-003
 7.7001000E+002, 6.5583174E+002, 0.0000000E+000, 9.2867116E-003
 7.7501000E+002, 6.5583174E+002, 0.0000000E+000, 9.2867116E-003
 7.8001000E+002, 6.5583174E+002, 0.0000000E+000, 9.2867116E-003
 7.8501000E+002, 6.5583174E+002, 0.0000000E+000, 9.2867116E-003
 7.9001000E+002, 6.5583174E+002, 0.0000000E+000, 9.2867116E-003
 7.9501000E+002, 6.5583174E+002, 0.0000000E+000, 9.2867116E-003
 8.0000000E+002, 6.5583174E+002, 0.0000000E+000, 9.2867116E-003
