s,kW,C,kg/s,m,kW/m2
Time,"HRR","temp","MLR","thick","flux"
 0.000E+000, 0.000E+000, 2.000E+001, 0.000E+000, 1.900E-002,-4.813E-011
 2.012E+000, 0.000E+000, 3.628E+001, 0.000E+000, 1.900E-002, 3.502E+001
 4.003E+000, 0.000E+000, 5.873E+001, 0.000E+000, 1.900E-002, 3.510E+001
 6.012E+000, 0.000E+000, 7.501E+001, 0.000E+000, 1.900E-002, 3.519E+001
 8.000E+000, 0.000E+000, 8.840E+001, 0.000E+000, 1.900E-002, 3.523E+001
 1.000E+001, 0.000E+000, 9.999E+001, 0.000E+000, 1.900E-002, 3.526E+001
 1.200E+001, 0.000E+000, 1.103E+002, 0.000E+000, 1.900E-002, 3.527E+001
 1.400E+001, 0.000E+000, 1.197E+002, 0.000E+000, 1.900E-002, 3.528E+001
 1.600E+001, 0.000E+000, 1.284E+002, 0.000E+000, 1.900E-002, 3.530E+001
 1.800E+001, 0.000E+000, 1.364E+002, 0.000E+000, 1.900E-002, 3.533E+001
 2.001E+001, 0.000E+000, 1.440E+002, 0.000E+000, 1.900E-002, 3.535E+001
 2.201E+001, 9.603E-011, 1.512E+002, 0.000E+000, 1.900E-002, 3.541E+001
 2.401E+001, 1.144E-008, 1.581E+002, 0.000E+000, 1.900E-002, 3.548E+001
 2.601E+001, 5.659E-008, 1.646E+002, 0.000E+000, 1.900E-002, 3.542E+001
 2.800E+001, 1.686E-007, 1.708E+002, 0.000E+000, 1.900E-002, 3.547E+001
 3.000E+001, 4.043E-007, 1.768E+002, 0.000E+000, 1.900E-002, 3.551E+001
 3.201E+001, 8.709E-007, 1.829E+002, 0.000E+000, 1.900E-002, 3.564E+001
 3.401E+001, 1.774E-006, 1.885E+002, 0.000E+000, 1.900E-002, 3.554E+001
 3.600E+001, 3.455E-006, 1.940E+002, 0.000E+000, 1.900E-002, 3.561E+001
 3.801E+001, 6.516E-006, 1.996E+002, 0.000E+000, 1.900E-002, 3.572E+001
 4.001E+001, 1.193E-005, 2.049E+002, 0.000E+000, 1.900E-002, 3.562E+001
 4.201E+001, 2.125E-005, 2.101E+002, 0.000E+000, 1.900E-002, 3.570E+001
 4.401E+001, 3.693E-005, 2.152E+002, 0.000E+000, 1.900E-002, 3.566E+001
 4.601E+001, 6.292E-005, 2.203E+002, 0.000E+000, 1.900E-002, 3.581E+001
 4.800E+001, 1.053E-004, 2.253E+002, 0.000E+000, 1.900E-002, 3.578E+001
 5.000E+001, 1.730E-004, 2.303E+002, 0.000E+000, 1.900E-002, 3.585E+001
 5.201E+001, 2.802E-004, 2.351E+002, 0.000E+000, 1.900E-002, 3.586E+001
 5.401E+001, 4.472E-004, 2.400E+002, 0.000E+000, 1.900E-002, 3.590E+001
 5.601E+001, 7.030E-004, 2.446E+002, 0.000E+000, 1.900E-002, 3.591E+001
 5.801E+001, 1.090E-003, 2.495E+002, 0.000E+000, 1.900E-002, 3.606E+001
 6.000E+001, 1.669E-003, 2.539E+002, 0.000E+000, 1.900E-002, 3.586E+001
 6.201E+001, 2.527E-003, 2.583E+002, 0.000E+000, 1.900E-002, 3.588E+001
 6.400E+001, 3.781E-003, 2.627E+002, 0.000E+000, 1.900E-002, 3.591E+001
 6.600E+001, 5.597E-003, 2.669E+002, 0.000E+000, 1.900E-002, 3.580E+001
 6.800E+001, 8.197E-003, 2.709E+002, 0.000E+000, 1.900E-002, 3.575E+001
 7.000E+001, 1.189E-002, 2.751E+002, 0.000E+000, 1.900E-002, 3.584E+001
 7.200E+001, 1.708E-002, 2.795E+002, 0.000E+000, 1.900E-002, 3.597E+001
 7.400E+001, 2.432E-002, 2.838E+002, 0.000E+000, 1.900E-002, 3.593E+001
 7.601E+001, 3.433E-002, 2.880E+002, 0.000E+000, 1.900E-002, 3.606E+001
 7.800E+001, 4.807E-002, 2.923E+002, 0.000E+000, 1.900E-002, 3.613E+001
 8.001E+001, 6.670E-002, 2.965E+002, 0.000E+000, 1.900E-002, 3.610E+001
 8.201E+001, 9.204E-002, 3.003E+002, 0.000E+000, 1.900E-002, 3.599E+001
 8.401E+001, 1.256E-001, 3.042E+002, 0.000E+000, 1.900E-002, 3.609E+001
 8.601E+001, 1.705E-001, 3.083E+002, 0.000E+000, 1.900E-002, 3.615E+001
 8.801E+001, 2.302E-001, 3.117E+002, 0.000E+000, 1.900E-002, 3.599E+001
 9.001E+001, 3.084E-001, 3.158E+002, 0.000E+000, 1.900E-002, 3.614E+001
 9.201E+001, 4.102E-001, 3.195E+002, 0.000E+000, 1.900E-002, 3.620E+001
 9.400E+001, 5.427E-001, 3.233E+002, 0.000E+000, 1.900E-002, 3.626E+001
 9.600E+001, 7.153E-001, 3.273E+002, 0.000E+000, 1.900E-002, 3.641E+001
 9.800E+001, 9.383E-001, 3.309E+002, 0.000E+000, 1.900E-002, 3.636E+001
 1.000E+002, 1.224E+000, 3.346E+002, 0.000E+000, 1.900E-002, 3.662E+001
 1.020E+002, 1.590E+000, 3.385E+002, 0.000E+000, 1.900E-002, 3.692E+001
 1.040E+002, 2.058E+000, 3.429E+002, 0.000E+000, 1.900E-002, 3.737E+001
 1.060E+002, 2.660E+000, 3.474E+002, 0.000E+000, 1.900E-002, 3.821E+001
 1.080E+002, 3.422E+000, 3.514E+002, 0.000E+000, 1.900E-002, 3.788E+001
 1.100E+002, 4.408E+000, 3.558E+002, 0.000E+000, 1.900E-002, 3.911E+001
 1.120E+002, 5.672E+000, 3.616E+002, 0.000E+000, 1.900E-002, 4.083E+001
 1.140E+002, 7.320E+000, 3.669E+002, 0.000E+000, 1.900E-002, 4.112E+001
 1.160E+002, 9.473E+000, 3.720E+002, 0.000E+000, 1.900E-002, 4.297E+001
 1.180E+002, 1.237E+001, 3.801E+002, 0.000E+000, 1.900E-002, 4.668E+001
 1.200E+002, 1.639E+001, 3.899E+002, 0.000E+000, 1.900E-002, 5.242E+001
 1.220E+002, 2.229E+001, 4.017E+002, 0.000E+000, 1.900E-002, 5.793E+001
 1.240E+002, 3.179E+001, 4.143E+002, 0.000E+000, 1.900E-002, 6.372E+001
 1.260E+002, 4.724E+001, 4.264E+002, 0.000E+000, 1.900E-002, 6.730E+001
 1.280E+002, 7.027E+001, 4.346E+002, 0.000E+000, 1.900E-002, 6.775E+001
 1.300E+002, 1.012E+002, 4.424E+002, 0.000E+000, 1.900E-002, 6.945E+001
 1.320E+002, 1.442E+002, 4.459E+002, 0.000E+000, 1.900E-002, 6.656E+001
 1.340E+002, 1.954E+002, 4.497E+002, 0.000E+000, 1.900E-002, 6.528E+001
 1.360E+002, 2.609E+002, 4.550E+002, 0.000E+000, 1.900E-002, 6.565E+001
 1.380E+002, 3.260E+002, 4.620E+002, 0.000E+000, 1.900E-002, 6.562E+001
 1.400E+002, 4.131E+002, 4.694E+002, 0.000E+000, 1.900E-002, 6.459E+001
 1.420E+002, 4.873E+002, 4.817E+002, 0.000E+000, 1.900E-002, 6.503E+001
 1.440E+002, 5.602E+002, 5.013E+002, 0.000E+000, 1.900E-002, 6.579E+001
 1.460E+002, 6.094E+002, 5.185E+002, 0.000E+000, 1.900E-002, 6.502E+001
 1.480E+002, 6.481E+002, 5.282E+002, 0.000E+000, 1.900E-002, 6.563E+001
 1.500E+002, 6.504E+002, 5.328E+002, 0.000E+000, 1.900E-002, 6.513E+001
 1.520E+002, 6.580E+002, 5.394E+002, 0.000E+000, 1.900E-002, 6.499E+001
 1.540E+002, 6.933E+002, 5.496E+002, 0.000E+000, 1.900E-002, 6.678E+001
 1.560E+002, 6.908E+002, 5.601E+002, 0.000E+000, 1.900E-002, 6.669E+001
 1.580E+002, 6.873E+002, 5.681E+002, 0.000E+000, 1.900E-002, 6.583E+001
 1.600E+002, 6.759E+002, 5.787E+002, 0.000E+000, 1.900E-002, 6.568E+001
 1.620E+002, 6.514E+002, 5.859E+002, 0.000E+000, 1.901E-002, 6.596E+001
 1.640E+002, 6.382E+002, 5.870E+002, 0.000E+000, 1.901E-002, 6.520E+001
 1.660E+002, 6.216E+002, 5.924E+002, 0.000E+000, 1.901E-002, 6.642E+001
 1.680E+002, 6.258E+002, 5.974E+002, 0.000E+000, 1.901E-002, 6.696E+001
 1.700E+002, 6.219E+002, 6.017E+002, 0.000E+000, 1.901E-002, 6.693E+001
 1.720E+002, 6.323E+002, 6.026E+002, 0.000E+000, 1.901E-002, 6.560E+001
 1.740E+002, 6.197E+002, 6.087E+002, 0.000E+000, 1.901E-002, 6.655E+001
 1.760E+002, 6.099E+002, 6.134E+002, 0.000E+000, 1.901E-002, 6.643E+001
 1.780E+002, 5.976E+002, 6.171E+002, 0.000E+000, 1.901E-002, 6.651E+001
 1.800E+002, 5.833E+002, 6.206E+002, 0.000E+000, 1.901E-002, 6.609E+001
 1.820E+002, 5.703E+002, 6.278E+002, 0.000E+000, 1.901E-002, 6.704E+001
 1.840E+002, 5.738E+002, 6.287E+002, 0.000E+000, 1.901E-002, 6.771E+001
 1.860E+002, 5.854E+002, 6.310E+002, 0.000E+000, 1.901E-002, 6.674E+001
 1.880E+002, 5.814E+002, 6.310E+002, 0.000E+000, 1.901E-002, 6.649E+001
 1.900E+002, 5.743E+002, 6.352E+002, 0.000E+000, 1.901E-002, 6.746E+001
 1.920E+002, 5.724E+002, 6.392E+002, 0.000E+000, 1.901E-002, 6.782E+001
 1.940E+002, 5.551E+002, 6.488E+002, 0.000E+000, 1.901E-002, 7.006E+001
 1.960E+002, 5.447E+002, 6.481E+002, 0.000E+000, 1.901E-002, 6.883E+001
 1.980E+002, 5.395E+002, 6.512E+002, 0.000E+000, 1.901E-002, 6.933E+001
 2.000E+002, 5.244E+002, 6.515E+002, 0.000E+000, 1.901E-002, 6.766E+001
 2.020E+002, 5.248E+002, 6.556E+002, 0.000E+000, 1.901E-002, 6.956E+001
 2.040E+002, 5.203E+002, 6.589E+002, 0.000E+000, 1.901E-002, 6.916E+001
 2.060E+002, 5.137E+002, 6.533E+002, 0.000E+000, 1.901E-002, 6.692E+001
 2.080E+002, 5.070E+002, 6.554E+002, 0.000E+000, 1.901E-002, 6.811E+001
 2.100E+002, 4.938E+002, 6.575E+002, 0.000E+000, 1.901E-002, 6.758E+001
 2.120E+002, 4.888E+002, 6.611E+002, 0.000E+000, 1.901E-002, 6.956E+001
 2.140E+002, 4.737E+002, 6.615E+002, 0.000E+000, 1.901E-002, 6.751E+001
 2.160E+002, 4.717E+002, 6.644E+002, 0.000E+000, 1.901E-002, 6.891E+001
 2.180E+002, 4.568E+002, 6.699E+002, 0.000E+000, 1.901E-002, 7.077E+001
 2.200E+002, 4.547E+002, 6.729E+002, 0.000E+000, 1.902E-002, 6.959E+001
 2.220E+002, 4.525E+002, 6.672E+002, 0.000E+000, 1.902E-002, 6.770E+001
 2.240E+002, 4.424E+002, 6.683E+002, 0.000E+000, 1.902E-002, 6.831E+001
 2.260E+002, 4.311E+002, 6.666E+002, 0.000E+000, 1.902E-002, 6.672E+001
 2.280E+002, 4.273E+002, 6.666E+002, 0.000E+000, 1.902E-002, 6.716E+001
 2.300E+002, 4.168E+002, 6.694E+002, 0.000E+000, 1.902E-002, 6.789E+001
 2.320E+002, 4.031E+002, 6.752E+002, 0.000E+000, 1.902E-002, 6.983E+001
 2.340E+002, 3.972E+002, 6.800E+002, 0.000E+000, 1.902E-002, 7.077E+001
 2.360E+002, 3.924E+002, 6.853E+002, 0.000E+000, 1.902E-002, 7.229E+001
 2.380E+002, 3.854E+002, 6.879E+002, 0.000E+000, 1.902E-002, 7.255E+001
 2.400E+002, 3.724E+002, 6.803E+002, 0.000E+000, 1.902E-002, 6.760E+001
 2.420E+002, 3.782E+002, 6.860E+002, 0.000E+000, 1.902E-002, 7.163E+001
 2.440E+002, 3.673E+002, 6.825E+002, 0.000E+000, 1.902E-002, 6.836E+001
 2.460E+002, 3.611E+002, 6.800E+002, 0.000E+000, 1.902E-002, 6.811E+001
 2.480E+002, 3.536E+002, 6.786E+002, 0.000E+000, 1.902E-002, 6.771E+001
 2.500E+002, 3.479E+002, 6.834E+002, 0.000E+000, 1.902E-002, 6.938E+001
 2.520E+002, 3.399E+002, 6.836E+002, 0.000E+000, 1.902E-002, 6.906E+001
 2.540E+002, 3.354E+002, 6.845E+002, 0.000E+000, 1.902E-002, 6.895E+001
 2.560E+002, 3.265E+002, 6.803E+002, 0.000E+000, 1.902E-002, 6.688E+001
 2.580E+002, 3.172E+002, 6.808E+002, 0.000E+000, 1.902E-002, 6.746E+001
 2.600E+002, 3.151E+002, 6.877E+002, 0.000E+000, 1.902E-002, 7.041E+001
 2.620E+002, 3.112E+002, 6.901E+002, 0.000E+000, 1.902E-002, 6.987E+001
 2.640E+002, 3.003E+002, 6.909E+002, 0.000E+000, 1.902E-002, 6.988E+001
 2.660E+002, 2.988E+002, 6.905E+002, 0.000E+000, 1.902E-002, 6.968E+001
 2.680E+002, 2.907E+002, 6.932E+002, 0.000E+000, 1.902E-002, 7.024E+001
 2.700E+002, 2.869E+002, 7.024E+002, 0.000E+000, 1.902E-002, 7.378E+001
 2.720E+002, 2.768E+002, 7.012E+002, 0.000E+000, 1.902E-002, 7.171E+001
 2.740E+002, 2.764E+002, 6.965E+002, 0.000E+000, 1.902E-002, 6.985E+001
 2.760E+002, 2.655E+002, 7.010E+002, 0.000E+000, 1.902E-002, 7.142E+001
 2.780E+002, 2.623E+002, 6.954E+002, 0.000E+000, 1.902E-002, 6.953E+001
 2.800E+002, 2.566E+002, 6.964E+002, 0.000E+000, 1.902E-002, 6.922E+001
 2.820E+002, 2.515E+002, 7.028E+002, 0.000E+000, 1.902E-002, 7.298E+001
 2.840E+002, 2.448E+002, 7.044E+002, 0.000E+000, 1.903E-002, 7.148E+001
 2.860E+002, 2.403E+002, 6.978E+002, 0.000E+000, 1.903E-002, 6.899E+001
 2.880E+002, 2.345E+002, 6.943E+002, 0.000E+000, 1.903E-002, 6.777E+001
 2.900E+002, 2.265E+002, 6.969E+002, 0.000E+000, 1.903E-002, 6.949E+001
 2.920E+002, 2.217E+002, 7.037E+002, 0.000E+000, 1.903E-002, 7.188E+001
 2.940E+002, 2.130E+002, 7.018E+002, 0.000E+000, 1.903E-002, 7.036E+001
 2.960E+002, 2.068E+002, 7.026E+002, 0.000E+000, 1.903E-002, 7.028E+001
 2.980E+002, 1.992E+002, 7.017E+002, 0.000E+000, 1.903E-002, 6.922E+001
 3.000E+002, 1.910E+002, 6.985E+002, 0.000E+000, 1.903E-002, 6.890E+001
