s,kW,C,kg/s,m,kW/m2
Time,"HRR","temp","MLR","thick","flux"
 0.000E+000, 0.000E+000, 2.000E+001, 0.000E+000, 1.900E-002,-4.759E-011
 2.012E+000, 0.000E+000, 4.281E+001, 0.000E+000, 1.900E-002, 5.003E+001
 4.003E+000, 0.000E+000, 7.514E+001, 0.000E+000, 1.900E-002, 5.016E+001
 6.006E+000, 0.000E+000, 9.897E+001, 0.000E+000, 1.900E-002, 5.028E+001
 8.004E+000, 0.000E+000, 1.187E+002, 0.000E+000, 1.900E-002, 5.032E+001
 1.002E+001, 0.000E+000, 1.358E+002, 0.000E+000, 1.900E-002, 5.035E+001
 1.200E+001, 8.757E-010, 1.510E+002, 0.000E+000, 1.900E-002, 5.038E+001
 1.401E+001, 6.650E-008, 1.647E+002, 0.000E+000, 1.900E-002, 5.040E+001
 1.601E+001, 4.789E-007, 1.775E+002, 0.000E+000, 1.900E-002, 5.053E+001
 1.800E+001, 2.081E-006, 1.894E+002, 0.000E+000, 1.900E-002, 5.064E+001
 2.001E+001, 7.525E-006, 2.003E+002, 0.000E+000, 1.900E-002, 5.058E+001
 2.201E+001, 2.364E-005, 2.104E+002, 0.000E+000, 1.900E-002, 5.055E+001
 2.401E+001, 6.648E-005, 2.202E+002, 0.000E+000, 1.900E-002, 5.069E+001
 2.600E+001, 1.702E-004, 2.296E+002, 0.000E+000, 1.900E-002, 5.080E+001
 2.800E+001, 4.044E-004, 2.383E+002, 0.000E+000, 1.900E-002, 5.078E+001
 3.001E+001, 9.002E-004, 2.467E+002, 0.000E+000, 1.900E-002, 5.082E+001
 3.201E+001, 1.891E-003, 2.550E+002, 0.000E+000, 1.900E-002, 5.098E+001
 3.401E+001, 3.779E-003, 2.625E+002, 0.000E+000, 1.900E-002, 5.089E+001
 3.600E+001, 7.224E-003, 2.700E+002, 0.000E+000, 1.900E-002, 5.100E+001
 3.800E+001, 1.328E-002, 2.771E+002, 0.000E+000, 1.900E-002, 5.096E+001
 4.001E+001, 2.364E-002, 2.842E+002, 0.000E+000, 1.900E-002, 5.116E+001
 4.201E+001, 4.080E-002, 2.910E+002, 0.000E+000, 1.900E-002, 5.119E+001
 4.401E+001, 6.844E-002, 2.976E+002, 0.000E+000, 1.900E-002, 5.120E+001
 4.601E+001, 1.121E-001, 3.041E+002, 0.000E+000, 1.900E-002, 5.134E+001
 4.800E+001, 1.792E-001, 3.104E+002, 0.000E+000, 1.900E-002, 5.138E+001
 5.001E+001, 2.809E-001, 3.163E+002, 0.000E+000, 1.900E-002, 5.135E+001
 5.200E+001, 4.325E-001, 3.222E+002, 0.000E+000, 1.900E-002, 5.142E+001
 5.400E+001, 6.548E-001, 3.278E+002, 0.000E+000, 1.900E-002, 5.147E+001
 5.600E+001, 9.781E-001, 3.334E+002, 0.000E+000, 1.900E-002, 5.163E+001
 5.801E+001, 1.447E+000, 3.392E+002, 0.000E+000, 1.900E-002, 5.206E+001
 6.000E+001, 2.110E+000, 3.454E+002, 0.000E+000, 1.900E-002, 5.267E+001
 6.200E+001, 3.061E+000, 3.518E+002, 0.000E+000, 1.900E-002, 5.367E+001
 6.400E+001, 4.415E+000, 3.585E+002, 0.000E+000, 1.900E-002, 5.444E+001
 6.601E+001, 6.347E+000, 3.651E+002, 0.000E+000, 1.900E-002, 5.579E+001
 6.800E+001, 9.129E+000, 3.730E+002, 0.000E+000, 1.900E-002, 5.775E+001
 7.000E+001, 1.323E+001, 3.810E+002, 0.000E+000, 1.899E-002, 6.077E+001
 7.200E+001, 1.947E+001, 3.907E+002, 0.000E+000, 1.899E-002, 6.481E+001
 7.400E+001, 3.005E+001, 4.039E+002, 0.000E+000, 1.899E-002, 7.319E+001
 7.600E+001, 4.910E+001, 4.193E+002, 0.000E+000, 1.897E-002, 8.071E+001
 7.800E+001, 8.093E+001, 4.294E+002, 0.000E+000, 1.895E-002, 8.269E+001
 8.000E+001, 1.283E+002, 4.345E+002, 0.000E+000, 1.891E-002, 8.137E+001
 8.200E+001, 1.913E+002, 4.375E+002, 0.000E+000, 1.887E-002, 8.173E+001
 8.400E+001, 2.705E+002, 4.391E+002, 0.000E+000, 1.882E-002, 8.118E+001
 8.600E+001, 3.568E+002, 4.367E+002, 0.000E+000, 1.877E-002, 8.088E+001
 8.800E+001, 4.429E+002, 4.386E+002, 0.000E+000, 1.872E-002, 8.091E+001
 9.000E+001, 5.371E+002, 4.401E+002, 0.000E+000, 1.867E-002, 8.079E+001
 9.200E+001, 6.096E+002, 4.409E+002, 0.000E+000, 1.861E-002, 7.902E+001
 9.400E+001, 6.708E+002, 4.413E+002, 0.000E+000, 1.855E-002, 7.890E+001
 9.600E+001, 7.380E+002, 4.416E+002, 0.000E+000, 1.849E-002, 8.091E+001
 9.800E+001, 7.742E+002, 4.400E+002, 0.000E+000, 1.843E-002, 7.977E+001
 1.000E+002, 8.295E+002, 4.417E+002, 0.000E+000, 1.836E-002, 8.151E+001
 1.020E+002, 8.521E+002, 4.442E+002, 0.000E+000, 1.829E-002, 8.145E+001
 1.040E+002, 9.009E+002, 4.447E+002, 0.000E+000, 1.822E-002, 8.197E+001
 1.060E+002, 9.077E+002, 4.429E+002, 0.000E+000, 1.814E-002, 8.100E+001
 1.080E+002, 9.403E+002, 4.431E+002, 0.000E+000, 1.807E-002, 8.116E+001
 1.100E+002, 9.682E+002, 4.454E+002, 0.000E+000, 1.799E-002, 8.295E+001
 1.120E+002, 9.901E+002, 4.463E+002, 0.000E+000, 1.790E-002, 8.150E+001
 1.140E+002, 1.018E+003, 4.437E+002, 0.000E+000, 1.782E-002, 8.121E+001
 1.160E+002, 1.063E+003, 4.447E+002, 0.000E+000, 1.773E-002, 8.161E+001
 1.180E+002, 1.107E+003, 4.465E+002, 0.000E+000, 1.764E-002, 8.220E+001
 1.200E+002, 1.115E+003, 4.465E+002, 0.000E+000, 1.755E-002, 8.131E+001
 1.220E+002, 1.164E+003, 4.451E+002, 0.000E+000, 1.746E-002, 8.204E+001
 1.240E+002, 1.212E+003, 4.471E+002, 0.000E+000, 1.736E-002, 8.235E+001
 1.260E+002, 1.251E+003, 4.478E+002, 0.000E+000, 1.725E-002, 8.208E+001
 1.280E+002, 1.296E+003, 4.463E+002, 0.000E+000, 1.714E-002, 8.273E+001
 1.300E+002, 1.315E+003, 4.481E+002, 0.000E+000, 1.703E-002, 8.204E+001
 1.320E+002, 1.393E+003, 4.479E+002, 0.000E+000, 1.691E-002, 8.230E+001
 1.340E+002, 1.438E+003, 4.478E+002, 0.000E+000, 1.679E-002, 8.312E+001
 1.360E+002, 1.459E+003, 4.494E+002, 0.000E+000, 1.666E-002, 8.286E+001
 1.380E+002, 1.488E+003, 4.482E+002, 0.000E+000, 1.653E-002, 8.284E+001
 1.400E+002, 1.516E+003, 4.492E+002, 0.000E+000, 1.640E-002, 8.211E+001
 1.420E+002, 1.644E+003, 4.498E+002, 0.000E+000, 1.626E-002, 8.441E+001
 1.440E+002, 1.633E+003, 4.502E+002, 0.000E+000, 1.612E-002, 8.372E+001
 1.460E+002, 1.667E+003, 4.511E+002, 0.000E+000, 1.598E-002, 8.383E+001
 1.480E+002, 1.672E+003, 4.513E+002, 0.000E+000, 1.583E-002, 8.379E+001
 1.500E+002, 1.708E+003, 4.534E+002, 0.000E+000, 1.569E-002, 8.338E+001
 1.520E+002, 1.721E+003, 4.544E+002, 0.000E+000, 1.555E-002, 8.369E+001
 1.540E+002, 1.716E+003, 4.589E+002, 0.000E+000, 1.541E-002, 8.365E+001
 1.560E+002, 1.671E+003, 4.645E+002, 0.000E+000, 1.527E-002, 8.410E+001
 1.580E+002, 1.557E+003, 4.745E+002, 0.000E+000, 1.515E-002, 8.335E+001
 1.600E+002, 1.301E+003, 4.951E+002, 0.000E+000, 1.505E-002, 8.348E+001
 1.620E+002, 7.320E+002, 6.903E+002, 0.000E+000, 1.500E-002, 8.832E+001
 1.640E+002, 5.092E+002, 7.368E+002, 0.000E+000, 1.500E-002, 8.529E+001
 1.660E+002, 4.653E+002, 7.469E+002, 0.000E+000, 1.500E-002, 8.617E+001
 1.680E+002, 4.091E+002, 7.533E+002, 0.000E+000, 1.500E-002, 8.668E+001
 1.700E+002, 2.753E+002, 7.384E+002, 0.000E+000, 1.500E-002, 8.274E+001
 1.720E+002, 1.755E+002, 6.847E+002, 0.000E+000, 1.500E-002, 6.876E+001
 1.740E+002, 1.247E+002, 6.265E+002, 0.000E+000, 1.500E-002, 5.690E+001
 1.760E+002, 8.373E+001, 6.085E+002, 0.000E+000, 1.500E-002, 5.425E+001
 1.780E+002, 4.999E+001, 6.040E+002, 0.000E+000, 1.500E-002, 5.303E+001
 1.800E+002, 4.736E+001, 5.940E+002, 0.000E+000, 1.500E-002, 5.233E+001
 1.820E+002, 4.263E+001, 5.962E+002, 0.000E+000, 1.500E-002, 5.257E+001
 1.840E+002, 3.475E+001, 5.964E+002, 0.000E+000, 1.500E-002, 5.266E+001
 1.860E+002, 1.874E+001, 5.870E+002, 0.000E+000, 1.500E-002, 5.161E+001
 1.880E+002, 1.112E+000, 5.905E+002, 0.000E+000, 1.500E-002, 5.169E+001
 1.900E+002, 0.000E+000, 5.977E+002, 0.000E+000, 1.500E-002, 5.223E+001
 1.920E+002, 0.000E+000, 5.978E+002, 0.000E+000, 1.500E-002, 5.228E+001
 1.940E+002, 0.000E+000, 6.000E+002, 0.000E+000, 1.500E-002, 5.235E+001
 1.960E+002, 0.000E+000, 6.031E+002, 0.000E+000, 1.500E-002, 5.274E+001
 1.980E+002, 0.000E+000, 6.041E+002, 0.000E+000, 1.500E-002, 5.273E+001
 2.000E+002, 0.000E+000, 6.016E+002, 0.000E+000, 1.500E-002, 5.251E+001
 2.020E+002, 0.000E+000, 5.993E+002, 0.000E+000, 1.500E-002, 5.234E+001
 2.040E+002, 0.000E+000, 6.030E+002, 0.000E+000, 1.500E-002, 5.268E+001
 2.060E+002, 0.000E+000, 6.083E+002, 0.000E+000, 1.500E-002, 5.310E+001
 2.080E+002, 0.000E+000, 6.004E+002, 0.000E+000, 1.500E-002, 5.241E+001
 2.100E+002, 0.000E+000, 6.020E+002, 0.000E+000, 1.500E-002, 5.258E+001
 2.120E+002, 0.000E+000, 6.035E+002, 0.000E+000, 1.500E-002, 5.268E+001
 2.140E+002, 0.000E+000, 6.018E+002, 0.000E+000, 1.500E-002, 5.251E+001
 2.160E+002, 0.000E+000, 6.085E+002, 0.000E+000, 1.500E-002, 5.317E+001
 2.180E+002, 0.000E+000, 6.078E+002, 0.000E+000, 1.500E-002, 5.298E+001
 2.200E+002, 0.000E+000, 6.018E+002, 0.000E+000, 1.500E-002, 5.250E+001
 2.220E+002, 0.000E+000, 6.074E+002, 0.000E+000, 1.500E-002, 5.298E+001
 2.240E+002, 0.000E+000, 6.040E+002, 0.000E+000, 1.500E-002, 5.271E+001
 2.260E+002, 0.000E+000, 6.007E+002, 0.000E+000, 1.500E-002, 5.243E+001
 2.280E+002, 0.000E+000, 6.028E+002, 0.000E+000, 1.500E-002, 5.260E+001
 2.300E+002, 0.000E+000, 6.035E+002, 0.000E+000, 1.500E-002, 5.266E+001
 2.320E+002, 0.000E+000, 6.000E+002, 0.000E+000, 1.500E-002, 5.242E+001
 2.340E+002, 0.000E+000, 5.986E+002, 0.000E+000, 1.500E-002, 5.228E+001
 2.360E+002, 0.000E+000, 6.049E+002, 0.000E+000, 1.500E-002, 5.287E+001
 2.380E+002, 0.000E+000, 6.069E+002, 0.000E+000, 1.500E-002, 5.298E+001
 2.400E+002, 0.000E+000, 6.042E+002, 0.000E+000, 1.500E-002, 5.274E+001
 2.420E+002, 0.000E+000, 6.087E+002, 0.000E+000, 1.500E-002, 5.318E+001
 2.440E+002, 0.000E+000, 6.109E+002, 0.000E+000, 1.500E-002, 5.333E+001
 2.460E+002, 0.000E+000, 6.008E+002, 0.000E+000, 1.500E-002, 5.239E+001
 2.480E+002, 0.000E+000, 6.006E+002, 0.000E+000, 1.500E-002, 5.239E+001
 2.500E+002, 0.000E+000, 6.049E+002, 0.000E+000, 1.500E-002, 5.300E+001
 2.520E+002, 0.000E+000, 5.972E+002, 0.000E+000, 1.500E-002, 5.213E+001
 2.540E+002, 0.000E+000, 6.042E+002, 0.000E+000, 1.500E-002, 5.275E+001
 2.560E+002, 0.000E+000, 6.030E+002, 0.000E+000, 1.500E-002, 5.267E+001
 2.580E+002, 0.000E+000, 6.005E+002, 0.000E+000, 1.500E-002, 5.241E+001
 2.600E+002, 0.000E+000, 6.037E+002, 0.000E+000, 1.500E-002, 5.272E+001
 2.620E+002, 0.000E+000, 6.061E+002, 0.000E+000, 1.500E-002, 5.285E+001
 2.640E+002, 0.000E+000, 6.074E+002, 0.000E+000, 1.500E-002, 5.298E+001
 2.660E+002, 0.000E+000, 6.094E+002, 0.000E+000, 1.500E-002, 5.318E+001
 2.680E+002, 0.000E+000, 6.066E+002, 0.000E+000, 1.500E-002, 5.293E+001
 2.700E+002, 0.000E+000, 6.072E+002, 0.000E+000, 1.500E-002, 5.296E+001
 2.720E+002, 0.000E+000, 6.083E+002, 0.000E+000, 1.500E-002, 5.304E+001
 2.740E+002, 0.000E+000, 6.058E+002, 0.000E+000, 1.500E-002, 5.282E+001
 2.760E+002, 0.000E+000, 6.083E+002, 0.000E+000, 1.500E-002, 5.306E+001
 2.780E+002, 0.000E+000, 6.011E+002, 0.000E+000, 1.500E-002, 5.241E+001
 2.800E+002, 0.000E+000, 6.001E+002, 0.000E+000, 1.500E-002, 5.239E+001
 2.820E+002, 0.000E+000, 6.025E+002, 0.000E+000, 1.500E-002, 5.255E+001
 2.840E+002, 0.000E+000, 6.010E+002, 0.000E+000, 1.500E-002, 5.251E+001
 2.860E+002, 0.000E+000, 6.077E+002, 0.000E+000, 1.500E-002, 5.301E+001
 2.880E+002, 0.000E+000, 6.026E+002, 0.000E+000, 1.500E-002, 5.257E+001
 2.900E+002, 0.000E+000, 6.079E+002, 0.000E+000, 1.500E-002, 5.305E+001
 2.920E+002, 0.000E+000, 6.037E+002, 0.000E+000, 1.500E-002, 5.263E+001
 2.940E+002, 0.000E+000, 6.049E+002, 0.000E+000, 1.500E-002, 5.273E+001
 2.960E+002, 0.000E+000, 6.004E+002, 0.000E+000, 1.500E-002, 5.239E+001
 2.980E+002, 0.000E+000, 6.082E+002, 0.000E+000, 1.500E-002, 5.316E+001
 3.000E+002, 0.000E+000, 6.034E+002, 0.000E+000, 1.500E-002, 5.267E+001
