s,C,kg/m2/s,m
Time,"temp","MLR","thick"
 0.0000000E+000, 2.0000000E+001, 0.0000000E+000, 3.2054300E-002
 5.0100000E+000, 6.9932363E+001, 0.0000000E+000, 3.2054300E-002
 1.0010000E+001, 1.3094978E+002, 0.0000000E+000, 3.2054300E-002
 1.5010000E+001, 1.7226607E+002, 0.0000000E+000, 3.2054300E-002
 2.0000000E+001, 2.0512488E+002, 7.2316991E-024, 3.2054300E-002
 2.5000000E+001, 2.3278174E+002, 1.2947234E-015, 3.2054300E-002
 3.0000000E+001, 2.5433324E+002, 1.0758086E-010, 3.2054300E-002
 3.5000000E+001, 2.7241159E+002, 3.1895078E-009, 3.2054300E-002
 4.0000000E+001, 2.8995234E+002, 2.0608161E-008, 3.2054300E-002
 4.5010000E+001, 3.0834252E+002, 1.3492726E-007, 3.2054300E-002
 5.0010000E+001, 3.2259756E+002, 5.3883492E-007, 3.2054299E-002
 5.5010000E+001, 3.3776041E+002, 2.1981633E-006, 3.2054294E-002
 6.0010000E+001, 3.5012760E+002, 6.5266853E-006, 3.2054280E-002
 6.5010000E+001, 3.6253781E+002, 1.9142186E-005, 3.2054237E-002
 7.0010000E+001, 3.7361361E+002, 4.7320136E-005, 3.2054122E-002
 7.5000000E+001, 3.8362201E+002, 1.0685856E-004, 3.2053857E-002
 8.0000000E+001, 3.9324216E+002, 2.2625100E-004, 3.2053274E-002
 8.5000000E+001, 4.0125901E+002, 4.1806221E-004, 3.2052134E-002
 9.0000000E+001, 4.0861518E+002, 7.2985783E-004, 3.2050093E-002
 9.5000000E+001, 4.1465473E+002, 1.1419873E-003, 3.2046719E-002
 1.0000000E+002, 4.1936087E+002, 1.6243004E-003, 3.2041734E-002
 1.0500000E+002, 4.2326014E+002, 2.1750512E-003, 3.2034856E-002
 1.1000000E+002, 4.2611486E+002, 2.6955588E-003, 3.2026013E-002
 1.1500000E+002, 4.2834488E+002, 3.2017490E-003, 3.2015333E-002
 1.2000000E+002, 4.3019459E+002, 3.6965528E-003, 3.2002819E-002
 1.2500000E+002, 4.3158563E+002, 4.1238162E-003, 3.1988633E-002
 1.3000000E+002, 4.3276249E+002, 4.5358887E-003, 3.1972946E-002
 1.3500000E+002, 4.3379373E+002, 4.9326165E-003, 3.1955778E-002
 1.4000000E+002, 4.3462102E+002, 5.2805576E-003, 3.1937265E-002
 1.4500000E+002, 4.3536651E+002, 5.6241338E-003, 3.1917511E-002
 1.5000000E+002, 4.3603920E+002, 5.9538896E-003, 3.1896525E-002
 1.5500000E+002, 4.3660972E+002, 6.2542512E-003, 3.1874404E-002
 1.6001000E+002, 4.3714781E+002, 6.5562468E-003, 3.1851172E-002
 1.6501000E+002, 4.3762888E+002, 6.8403566E-003, 3.1826870E-002
 1.7001000E+002, 4.3806737E+002, 7.1147680E-003, 3.1801589E-002
 1.7501000E+002, 4.3847575E+002, 7.3830565E-003, 3.1775318E-002
 1.8001000E+002, 4.3884883E+002, 7.6399708E-003, 3.1748101E-002
 1.8501000E+002, 4.3920115E+002, 7.8930168E-003, 3.1719958E-002
 1.9001000E+002, 4.3952224E+002, 8.1354445E-003, 3.1690918E-002
 1.9501000E+002, 4.3982699E+002, 8.3733864E-003, 3.1661008E-002
 2.0001000E+002, 4.4011395E+002, 8.6056155E-003, 3.1630247E-002
 2.0501000E+002, 4.4038014E+002, 8.8302443E-003, 3.1598656E-002
 2.1001000E+002, 4.4063044E+002, 9.0487167E-003, 3.1566265E-002
 2.1501000E+002, 4.4086715E+002, 9.2610973E-003, 3.1533092E-002
 2.2001000E+002, 4.4109162E+002, 9.4679705E-003, 3.1499160E-002
 2.2501000E+002, 4.4130093E+002, 9.6667710E-003, 3.1464492E-002
 2.3001000E+002, 4.4149221E+002, 9.8554713E-003, 3.1429123E-002
 2.3501000E+002, 4.4167846E+002, 1.0040583E-002, 3.1393077E-002
 2.4001000E+002, 4.4185542E+002, 1.0222300E-002, 3.1356369E-002
 2.4501000E+002, 4.4202894E+002, 1.0407275E-002, 3.1318997E-002
 2.5001000E+002, 4.4220401E+002, 1.0599987E-002, 3.1280942E-002
 2.5501000E+002, 4.4237329E+002, 1.0795599E-002, 3.1242181E-002
 2.6001000E+002, 4.4253992E+002, 1.0994333E-002, 3.1202708E-002
 2.6501000E+002, 4.4270624E+002, 1.1196447E-002, 3.1162507E-002
 2.7001000E+002, 4.4286752E+002, 1.1398261E-002, 3.1121573E-002
 2.7501000E+002, 4.4302193E+002, 1.1597296E-002, 3.1079914E-002
 2.8001000E+002, 4.4317262E+002, 1.1795767E-002, 3.1037533E-002
 2.8501000E+002, 4.4331587E+002, 1.1990326E-002, 3.0994440E-002
 2.9001000E+002, 4.4344704E+002, 1.2177860E-002, 3.0950655E-002
 2.9501000E+002, 4.4357829E+002, 1.2364299E-002, 3.0906194E-002
 3.0001000E+002, 4.4370593E+002, 1.2548646E-002, 3.0861060E-002
 3.0501000E+002, 4.4382894E+002, 1.2729288E-002, 3.0815264E-002
 3.1001000E+002, 4.4394488E+002, 1.2903924E-002, 3.0768825E-002
 3.1501000E+002, 4.4405683E+002, 1.3074808E-002, 3.0721761E-002
 3.2001000E+002, 4.4416603E+002, 1.3242603E-002, 3.0674082E-002
 3.2501000E+002, 4.4427084E+002, 1.3405363E-002, 3.0625805E-002
 3.3001000E+002, 4.4436847E+002, 1.3562345E-002, 3.0576947E-002
 3.3501000E+002, 4.4446117E+002, 1.3712185E-002, 3.0527535E-002
 3.4001000E+002, 4.4455415E+002, 1.3859195E-002, 3.0477586E-002
 3.4501000E+002, 4.4464549E+002, 1.4002352E-002, 3.0427110E-002
 3.5001000E+002, 4.4473424E+002, 1.4140286E-002, 3.0376125E-002
 3.5501000E+002, 4.4482032E+002, 1.4272051E-002, 3.0324651E-002
 3.6001000E+002, 4.4490259E+002, 1.4396975E-002, 3.0272711E-002
 3.6501000E+002, 4.4498194E+002, 1.4515263E-002, 3.0220332E-002
 3.7001000E+002, 4.4506130E+002, 1.4629203E-002, 3.0167532E-002
 3.7501000E+002, 4.4513713E+002, 1.4734930E-002, 3.0114334E-002
 3.8001000E+002, 4.4521269E+002, 1.4835950E-002, 3.0060761E-002
 3.8501000E+002, 4.4528575E+002, 1.4930180E-002, 3.0006835E-002
 3.9001000E+002, 4.4535364E+002, 1.5015489E-002, 2.9952580E-002
 3.9501000E+002, 4.4541734E+002, 1.5091856E-002, 2.9898038E-002
 4.0001000E+002, 4.4548604E+002, 1.5167061E-002, 2.9843220E-002
 4.0501000E+002, 4.4555357E+002, 1.5235960E-002, 2.9788139E-002
 4.1001000E+002, 4.4562086E+002, 1.5300385E-002, 2.9732819E-002
 4.1501000E+002, 4.4568565E+002, 1.5358026E-002, 2.9677275E-002
 4.2001000E+002, 4.4574991E+002, 1.5410850E-002, 2.9621533E-002
 4.2501000E+002, 4.4581146E+002, 1.5457740E-002, 2.9565610E-002
 4.3001000E+002, 4.4587379E+002, 1.5501557E-002, 2.9509524E-002
 4.3501000E+002, 4.4593608E+002, 1.5541487E-002, 2.9453284E-002
 4.4001000E+002, 4.4599781E+002, 1.5577938E-002, 2.9396908E-002
 4.4501000E+002, 4.4605997E+002, 1.5611952E-002, 2.9340404E-002
 4.5001000E+002, 4.4612198E+002, 1.5643433E-002, 2.9283781E-002
 4.5501000E+002, 4.4618285E+002, 1.5671251E-002, 2.9227049E-002
 4.6001000E+002, 4.4624078E+002, 1.5694078E-002, 2.9170228E-002
 4.6501000E+002, 4.4630208E+002, 1.5718397E-002, 2.9113321E-002
 4.7001000E+002, 4.4635978E+002, 1.5738831E-002, 2.9056331E-002
 4.7501000E+002, 4.4641811E+002, 1.5757316E-002, 2.8999274E-002
 4.8001000E+002, 4.4647855E+002, 1.5775534E-002, 2.8942148E-002
 4.8501000E+002, 4.4653990E+002, 1.5793187E-002, 2.8884958E-002
 4.9001000E+002, 4.4659996E+002, 1.5808433E-002, 2.8827708E-002
 4.9501000E+002, 4.4666006E+002, 1.5822629E-002, 2.8770406E-002
 5.0001000E+002, 4.4672107E+002, 1.5836225E-002, 2.8713052E-002
 5.0501000E+002, 4.4678232E+002, 1.5848695E-002, 2.8655652E-002
 5.1001000E+002, 4.4684487E+002, 1.5861696E-002, 2.8598205E-002
 5.1501000E+002, 4.4690781E+002, 1.5873990E-002, 2.8540713E-002
 5.2001000E+002, 4.4696931E+002, 1.5883482E-002, 2.8483180E-002
 5.2501000E+002, 4.4703006E+002, 1.5892225E-002, 2.8425615E-002
 5.3001000E+002, 4.4709315E+002, 1.5901450E-002, 2.8368018E-002
 5.3501000E+002, 4.4715707E+002, 1.5910543E-002, 2.8310388E-002
 5.4001000E+002, 4.4722064E+002, 1.5918207E-002, 2.8252726E-002
 5.4501000E+002, 4.4728534E+002, 1.5926040E-002, 2.8195038E-002
 5.5001000E+002, 4.4734885E+002, 1.5932601E-002, 2.8137321E-002
 5.5501000E+002, 4.4741078E+002, 1.5937026E-002, 2.8079587E-002
 5.6001000E+002, 4.4747511E+002, 1.5941629E-002, 2.8021836E-002
 5.6501000E+002, 4.4754168E+002, 1.5946600E-002, 2.7964067E-002
 5.7001000E+002, 4.4761018E+002, 1.5952342E-002, 2.7906280E-002
 5.7501000E+002, 4.4767978E+002, 1.5957954E-002, 2.7848471E-002
 5.8001000E+002, 4.4774784E+002, 1.5960686E-002, 2.7790647E-002
 5.8501000E+002, 4.4781896E+002, 1.5965014E-002, 2.7732810E-002
 5.9001000E+002, 4.4788882E+002, 1.5967092E-002, 2.7674962E-002
 5.9501000E+002, 4.4796158E+002, 1.5969624E-002, 2.7617105E-002
 6.0001000E+002, 4.4803551E+002, 1.5971717E-002, 2.7559241E-002
 6.0501000E+002, 4.4811159E+002, 1.5973569E-002, 2.7501369E-002
 6.1001000E+002, 4.4818974E+002, 1.5975544E-002, 2.7443490E-002
 6.1501000E+002, 4.4826878E+002, 1.5976153E-002, 2.7385606E-002
 6.2001000E+002, 4.4834595E+002, 1.5973765E-002, 2.7327725E-002
 6.2501000E+002, 4.4842779E+002, 1.5972352E-002, 2.7269852E-002
 6.3001000E+002, 4.4851499E+002, 1.5971949E-002, 2.7211981E-002
 6.3501000E+002, 4.4860311E+002, 1.5969266E-002, 2.7154117E-002
 6.4001000E+002, 4.4869689E+002, 1.5967721E-002, 2.7096260E-002
 6.4501000E+002, 4.4879290E+002, 1.5964260E-002, 2.7038412E-002
 6.5001000E+002, 4.4889205E+002, 1.5959135E-002, 2.6980579E-002
 6.5501000E+002, 4.4899776E+002, 1.5954000E-002, 2.6922765E-002
 6.6001000E+002, 4.4910977E+002, 1.5948322E-002, 2.6864971E-002
 6.6501000E+002, 4.4922848E+002, 1.5941703E-002, 2.6807199E-002
 6.7001000E+002, 4.4935165E+002, 1.5931827E-002, 2.6749456E-002
 6.7501000E+002, 4.4948380E+002, 1.5920559E-002, 2.6691753E-002
 6.8001000E+002, 4.4957893E+002, 1.5905685E-002, 2.6634097E-002
 6.8501000E+002, 4.4966138E+002, 1.5892207E-002, 2.6576491E-002
 6.9001000E+002, 4.4976743E+002, 1.5880205E-002, 2.6518931E-002
 6.9501000E+002, 4.4988854E+002, 1.5865377E-002, 2.6461421E-002
 7.0001000E+002, 4.5001900E+002, 1.5845424E-002, 2.6403974E-002
 7.0501000E+002, 4.5017416E+002, 1.5822839E-002, 2.6346601E-002
 7.1001000E+002, 4.5036299E+002, 1.5795571E-002, 2.6289319E-002
 7.1501000E+002, 4.5058215E+002, 1.5761502E-002, 2.6232151E-002
 7.2001000E+002, 4.5080599E+002, 1.5718927E-002, 2.6175119E-002
 7.2501000E+002, 4.5111880E+002, 1.5673478E-002, 2.6118244E-002
 7.3001000E+002, 4.5147177E+002, 1.5613896E-002, 2.6061560E-002
 7.3501000E+002, 4.5183567E+002, 1.5537183E-002, 2.6005124E-002
 7.4001000E+002, 4.5223996E+002, 1.5438254E-002, 2.5948988E-002
 7.4501000E+002, 4.5256905E+002, 1.5303313E-002, 2.5893287E-002
 7.5001000E+002, 4.5352930E+002, 1.5170819E-002, 2.5838106E-002
 7.5501000E+002, 4.5533822E+002, 1.5026091E-002, 2.5783376E-002
 7.6001000E+002, 4.5721951E+002, 1.4675679E-002, 2.5729616E-002
 7.6501000E+002, 4.6018600E+002, 1.4515535E-002, 2.5676675E-002
 7.7001000E+002, 4.6377488E+002, 1.4244577E-002, 2.5624549E-002
 7.7501000E+002, 4.6842881E+002, 1.3872045E-002, 2.5573577E-002
 7.8001000E+002, 4.7505479E+002, 1.3319941E-002, 2.5524242E-002
 7.8501000E+002, 4.8662930E+002, 1.2300892E-002, 2.5477585E-002
 7.9001000E+002, 5.1835508E+002, 5.6642493E-003, 2.5440350E-002
 7.9501000E+002, 5.1479311E+002, 2.1518946E-017, 2.5434300E-002
 8.0001000E+002, 5.1016374E+002, 9.5150403E-020, 2.5434300E-002
 8.0501000E+002, 5.0935942E+002, 0.0000000E+000, 2.5434300E-002
 8.1001000E+002, 5.0961218E+002, 0.0000000E+000, 2.5434300E-002
 8.1501000E+002, 5.1028280E+002, 0.0000000E+000, 2.5434300E-002
 8.2001000E+002, 5.1113904E+002, 0.0000000E+000, 2.5434300E-002
 8.2501000E+002, 5.1207490E+002, 0.0000000E+000, 2.5434300E-002
 8.3001000E+002, 5.1303668E+002, 0.0000000E+000, 2.5434300E-002
 8.3501000E+002, 5.1399574E+002, 0.0000000E+000, 2.5434300E-002
 8.4001000E+002, 5.1493627E+002, 0.0000000E+000, 2.5434300E-002
 8.4501000E+002, 5.1584948E+002, 0.0000000E+000, 2.5434300E-002
 8.5001000E+002, 5.1673058E+002, 0.0000000E+000, 2.5434300E-002
 8.5501000E+002, 5.1757709E+002, 0.0000000E+000, 2.5434300E-002
 8.6001000E+002, 5.1838800E+002, 0.0000000E+000, 2.5434300E-002
 8.6501000E+002, 5.1916316E+002, 0.0000000E+000, 2.5434300E-002
 8.7001000E+002, 5.1990301E+002, 0.0000000E+000, 2.5434300E-002
 8.7501000E+002, 5.2060830E+002, 0.0000000E+000, 2.5434300E-002
 8.8001000E+002, 5.2128004E+002, 0.0000000E+000, 2.5434300E-002
 8.8501000E+002, 5.2191935E+002, 0.0000000E+000, 2.5434300E-002
 8.9001000E+002, 5.2252739E+002, 0.0000000E+000, 2.5434300E-002
 8.9501000E+002, 5.2310540E+002, 0.0000000E+000, 2.5434300E-002
 9.0001000E+002, 5.2365461E+002, 0.0000000E+000, 2.5434300E-002
 9.0501000E+002, 5.2417624E+002, 0.0000000E+000, 2.5434300E-002
 9.1001000E+002, 5.2467148E+002, 0.0000000E+000, 2.5434300E-002
 9.1501000E+002, 5.2514151E+002, 0.0000000E+000, 2.5434300E-002
 9.2001000E+002, 5.2558748E+002, 0.0000000E+000, 2.5434300E-002
 9.2501000E+002, 5.2601050E+002, 0.0000000E+000, 2.5434300E-002
 9.3001000E+002, 5.2641162E+002, 0.0000000E+000, 2.5434300E-002
 9.3501000E+002, 5.2679190E+002, 0.0000000E+000, 2.5434300E-002
 9.4001000E+002, 5.2715233E+002, 0.0000000E+000, 2.5434300E-002
 9.4501000E+002, 5.2749387E+002, 0.0000000E+000, 2.5434300E-002
 9.5001000E+002, 5.2781744E+002, 0.0000000E+000, 2.5434300E-002
 9.5501000E+002, 5.2812392E+002, 0.0000000E+000, 2.5434300E-002
 9.6001000E+002, 5.2841417E+002, 0.0000000E+000, 2.5434300E-002
 9.6501000E+002, 5.2868899E+002, 0.0000000E+000, 2.5434300E-002
 9.7001000E+002, 5.2894916E+002, 0.0000000E+000, 2.5434300E-002
 9.7501000E+002, 5.2919542E+002, 0.0000000E+000, 2.5434300E-002
 9.8001000E+002, 5.2942849E+002, 0.0000000E+000, 2.5434300E-002
 9.8501000E+002, 5.2964902E+002, 0.0000000E+000, 2.5434300E-002
 9.9001000E+002, 5.2985768E+002, 0.0000000E+000, 2.5434300E-002
 9.9501000E+002, 5.3005508E+002, 0.0000000E+000, 2.5434300E-002
 1.0000000E+003, 5.3024162E+002, 0.0000000E+000, 2.5434300E-002
