s,C,kg/m2/s,m
Time,"temp","MLR","thick"
 0.0000000E+000, 2.0000000E+001, 0.0000000E+000, 3.2054300E-002
 5.0100000E+000, 6.9932363E+001, 0.0000000E+000, 3.2054300E-002
 1.0010000E+001, 1.3094978E+002, 0.0000000E+000, 3.2054300E-002
 1.5010000E+001, 1.7226607E+002, 0.0000000E+000, 3.2054300E-002
 2.0000000E+001, 2.0512489E+002, 0.0000000E+000, 3.2054300E-002
 2.5000000E+001, 2.3278199E+002, 0.0000000E+000, 3.2054300E-002
 3.0000000E+001, 2.5309482E+002, 1.4361373E-010, 3.2054300E-002
 3.5000000E+001, 2.7276923E+002, 3.1031162E-009, 3.2054300E-002
 4.0000000E+001, 2.8988281E+002, 2.1204012E-008, 3.2054300E-002
 4.5010000E+001, 3.0813499E+002, 1.2913756E-007, 3.2054300E-002
 5.0010000E+001, 3.2265185E+002, 5.4701469E-007, 3.2054299E-002
 5.5010000E+001, 3.3773319E+002, 2.1695523E-006, 3.2054294E-002
 6.0010000E+001, 3.4999131E+002, 6.4988439E-006, 3.2054280E-002
 6.5010000E+001, 3.6265546E+002, 1.9289299E-005, 3.2054237E-002
 7.0010000E+001, 3.7338607E+002, 4.6525510E-005, 3.2054123E-002
 7.5000000E+001, 3.8370146E+002, 1.0755499E-004, 3.2053859E-002
 8.0000000E+001, 3.9316687E+002, 2.2402221E-004, 3.2053275E-002
 8.5000000E+001, 4.0123424E+002, 4.1671478E-004, 3.2052146E-002
 9.0000000E+001, 4.0872797E+002, 7.3146608E-004, 3.2050102E-002
 9.5000000E+001, 4.1467606E+002, 1.1326556E-003, 3.2046744E-002
 1.0000000E+002, 4.1960269E+002, 1.6291299E-003, 3.2041771E-002
 1.0500000E+002, 4.2360751E+002, 2.1783261E-003, 3.2034866E-002
 1.1000000E+002, 4.2654846E+002, 2.6955747E-003, 3.2026033E-002
 1.1500000E+002, 4.2903042E+002, 3.2283347E-003, 3.2015301E-002
 1.2000000E+002, 4.3099320E+002, 3.7112648E-003, 3.2002699E-002
 1.2500000E+002, 4.3254963E+002, 4.1457562E-003, 3.1988466E-002
 1.3000000E+002, 4.3396113E+002, 4.5813444E-003, 3.1972646E-002
 1.3500000E+002, 4.3511438E+002, 4.9582836E-003, 3.1955344E-002
 1.4000000E+002, 4.3613187E+002, 5.3196401E-003, 3.1936728E-002
 1.4500000E+002, 4.3707540E+002, 5.6728731E-003, 3.1916800E-002
 1.5000000E+002, 4.3591040E+002, 5.7725521E-003, 3.1896012E-002
 1.5500000E+002, 4.3649624E+002, 6.1734495E-003, 3.1874441E-002
 1.6001000E+002, 4.3739681E+002, 6.5269049E-003, 3.1851393E-002
 1.6501000E+002, 4.3819509E+002, 6.8501553E-003, 3.1827125E-002
 1.7001000E+002, 4.3890378E+002, 7.1385159E-003, 3.1801774E-002
 1.7501000E+002, 4.3956164E+002, 7.4165039E-003, 3.1775403E-002
 1.8001000E+002, 4.4016943E+002, 7.6780621E-003, 3.1748051E-002
 1.8501000E+002, 4.4073790E+002, 7.9313650E-003, 3.1719771E-002
 1.9001000E+002, 4.4126998E+002, 8.1750756E-003, 3.1690589E-002
 1.9501000E+002, 4.4176764E+002, 8.4113928E-003, 3.1660538E-002
 2.0001000E+002, 4.4223251E+002, 8.6394932E-003, 3.1629646E-002
 2.0501000E+002, 4.4266684E+002, 8.8608181E-003, 3.1597938E-002
 2.1001000E+002, 4.4042687E+002, 8.8897411E-003, 3.1565765E-002
 2.1501000E+002, 4.4069810E+002, 9.1811373E-003, 3.1533066E-002
 2.2001000E+002, 4.4128320E+002, 9.4423960E-003, 3.1499312E-002
 2.2501000E+002, 4.4180809E+002, 9.6679816E-003, 3.1464683E-002
 2.3001000E+002, 4.4229240E+002, 9.8731821E-003, 3.1429276E-002
 2.3501000E+002, 4.4274258E+002, 1.0064181E-002, 3.1393154E-002
 2.4001000E+002, 4.4316449E+002, 1.0248728E-002, 3.1356354E-002
 2.4501000E+002, 4.4356688E+002, 1.0435781E-002, 3.1318883E-002
 2.5001000E+002, 4.4395181E+002, 1.0628035E-002, 3.1280724E-002
 2.5501000E+002, 4.4206417E+002, 1.0648705E-002, 3.1242154E-002
 2.6001000E+002, 4.4216275E+002, 1.0933038E-002, 3.1203109E-002
 2.6501000E+002, 4.4269306E+002, 1.1191593E-002, 3.1163012E-002
 2.7001000E+002, 4.4317414E+002, 1.1417921E-002, 3.1122046E-002
 2.7501000E+002, 4.4362416E+002, 1.1630393E-002, 3.1080289E-002
 2.8001000E+002, 4.4404487E+002, 1.1833191E-002, 3.1037779E-002
 2.8501000E+002, 4.4443963E+002, 1.2029368E-002, 3.0994547E-002
 2.9001000E+002, 4.4464786E+002, 1.2200867E-002, 3.0950620E-002
 2.9501000E+002, 4.4265116E+002, 1.2226570E-002, 3.0906455E-002
 3.0001000E+002, 4.4320059E+002, 1.2530339E-002, 3.0861563E-002
 3.0501000E+002, 4.4367066E+002, 1.2752006E-002, 3.0815748E-002
 3.1001000E+002, 4.4410122E+002, 1.2945204E-002, 3.0769189E-002
 3.1501000E+002, 4.4450292E+002, 1.3124248E-002, 3.0721958E-002
 3.2001000E+002, 4.4487725E+002, 1.3293207E-002, 3.0674097E-002
 3.2501000E+002, 4.4489410E+002, 1.3416318E-002, 3.0625647E-002
 3.3001000E+002, 4.4322942E+002, 1.3462439E-002, 3.0577072E-002
 3.3501000E+002, 4.4373756E+002, 1.3726429E-002, 3.0527772E-002
 3.4001000E+002, 4.4417390E+002, 1.3910794E-002, 3.0477692E-002
 3.4501000E+002, 4.4457677E+002, 1.4068751E-002, 3.0426999E-002
 3.5001000E+002, 4.4495154E+002, 1.4211582E-002, 3.0375763E-002
 3.5501000E+002, 4.4529994E+002, 1.4343333E-002, 3.0324029E-002
 3.6001000E+002, 4.4393722E+002, 1.4321543E-002, 3.0272064E-002
 3.6501000E+002, 4.4384472E+002, 1.4529703E-002, 3.0219854E-002
 3.7001000E+002, 4.4428009E+002, 1.4693461E-002, 3.0166894E-002
 3.7501000E+002, 4.4467520E+002, 1.4817371E-002, 3.0113425E-002
 3.8001000E+002, 4.4504527E+002, 1.4924489E-002, 3.0059541E-002
 3.8501000E+002, 4.4538663E+002, 1.5017025E-002, 3.0005295E-002
 3.9001000E+002, 4.4418510E+002, 1.4967288E-002, 2.9950928E-002
 3.9501000E+002, 4.4399113E+002, 1.5130006E-002, 2.9896473E-002
 4.0001000E+002, 4.4441428E+002, 1.5254045E-002, 2.9841409E-002
 4.0501000E+002, 4.4480050E+002, 1.5339105E-002, 2.9785980E-002
 4.1001000E+002, 4.4516178E+002, 1.5407826E-002, 2.9730276E-002
 4.1501000E+002, 4.4549854E+002, 1.5465703E-002, 2.9674342E-002
 4.2001000E+002, 4.4399845E+002, 1.5367104E-002, 2.9618495E-002
 4.2501000E+002, 4.4415958E+002, 1.5525684E-002, 2.9562539E-002
 4.3001000E+002, 4.4456959E+002, 1.5610004E-002, 2.9506117E-002
 4.3501000E+002, 4.4494463E+002, 1.5662050E-002, 2.9449459E-002
 4.4001000E+002, 4.4529733E+002, 1.5702233E-002, 2.9392638E-002
 4.4501000E+002, 4.4534572E+002, 1.5698290E-002, 2.9335692E-002
 4.5001000E+002, 4.4387822E+002, 1.5636326E-002, 2.9279046E-002
 4.5501000E+002, 4.4434192E+002, 1.5770836E-002, 2.9222101E-002
 4.6001000E+002, 4.4473664E+002, 1.5824094E-002, 2.9164853E-002
 4.6501000E+002, 4.4510499E+002, 1.5857165E-002, 2.9107456E-002
 4.7001000E+002, 4.4544929E+002, 1.5880504E-002, 2.9049957E-002
 4.7501000E+002, 4.4474827E+002, 1.5791951E-002, 2.8992491E-002
 4.8001000E+002, 4.4411050E+002, 1.5848932E-002, 2.8935293E-002
 4.8501000E+002, 4.4453551E+002, 1.5927708E-002, 2.8877701E-002
 4.9001000E+002, 4.4492063E+002, 1.5963000E-002, 2.8819921E-002
 4.9501000E+002, 4.4528052E+002, 1.5983500E-002, 2.8762046E-002
 5.0001000E+002, 4.4561913E+002, 1.5998418E-002, 2.8704104E-002
 5.0501000E+002, 4.4412271E+002, 1.5863083E-002, 2.8646408E-002
 5.1001000E+002, 4.4434024E+002, 1.5989703E-002, 2.8588699E-002
 5.1501000E+002, 4.4474494E+002, 1.6037798E-002, 2.8530665E-002
 5.2001000E+002, 4.4512250E+002, 1.6061669E-002, 2.8472510E-002
 5.2501000E+002, 4.4547314E+002, 1.6072724E-002, 2.8414292E-002
 5.3001000E+002, 4.4515891E+002, 1.6005931E-002, 2.8356088E-002
 5.3501000E+002, 4.4413788E+002, 1.6000979E-002, 2.8298240E-002
 5.4001000E+002, 4.4458214E+002, 1.6090110E-002, 2.8240070E-002
 5.4501000E+002, 4.4497535E+002, 1.6120022E-002, 2.8181711E-002
 5.5001000E+002, 4.4534601E+002, 1.6134157E-002, 2.8123276E-002
 5.5501000E+002, 4.4569151E+002, 1.6138392E-002, 2.8064809E-002
 5.6001000E+002, 4.4445745E+002, 1.6010567E-002, 2.8006551E-002
 5.6501000E+002, 4.4443170E+002, 1.6115728E-002, 2.7948393E-002
 5.7001000E+002, 4.4485249E+002, 1.6166572E-002, 2.7889893E-002
 5.7501000E+002, 4.4524098E+002, 1.6183780E-002, 2.7831282E-002
 5.8001000E+002, 4.4560572E+002, 1.6187666E-002, 2.7772636E-002
 5.8501000E+002, 4.4546943E+002, 1.6128369E-002, 2.7714013E-002
 5.9001000E+002, 4.4428785E+002, 1.6094825E-002, 2.7655771E-002
 5.9501000E+002, 4.4475474E+002, 1.6193416E-002, 2.7597238E-002
 6.0001000E+002, 4.4516772E+002, 1.6219480E-002, 2.7538508E-002
 6.0501000E+002, 4.4555427E+002, 1.6222880E-002, 2.7479732E-002
 6.1001000E+002, 4.4591969E+002, 1.6218882E-002, 2.7420959E-002
 6.1501000E+002, 4.4480649E+002, 1.6096802E-002, 2.7362390E-002
 6.2001000E+002, 4.4470463E+002, 1.6197271E-002, 2.7303940E-002
 6.2501000E+002, 4.4515249E+002, 1.6240929E-002, 2.7245153E-002
 6.3001000E+002, 4.4557098E+002, 1.6246324E-002, 2.7186295E-002
 6.3501000E+002, 4.4596488E+002, 1.6238042E-002, 2.7127445E-002
 6.4001000E+002, 4.4591696E+002, 1.6180797E-002, 2.7068647E-002
 6.4501000E+002, 4.4473111E+002, 1.6152973E-002, 2.7010198E-002
 6.5001000E+002, 4.4524591E+002, 1.6243497E-002, 2.6951460E-002
 6.5501000E+002, 4.4570784E+002, 1.6248324E-002, 2.6892588E-002
 6.6001000E+002, 4.4614789E+002, 1.6235098E-002, 2.6833738E-002
 6.6501000E+002, 4.4657468E+002, 1.6218787E-002, 2.6774946E-002
 6.7001000E+002, 4.4558229E+002, 1.6117479E-002, 2.6716351E-002
 6.7501000E+002, 4.4554624E+002, 1.6205435E-002, 2.6657828E-002
 6.8001000E+002, 4.4609292E+002, 1.6214216E-002, 2.6599078E-002
 6.8501000E+002, 4.4661880E+002, 1.6192777E-002, 2.6540368E-002
 6.9001000E+002, 4.4714443E+002, 1.6168919E-002, 2.6481741E-002
 6.9501000E+002, 4.4731325E+002, 1.6110199E-002, 2.6423218E-002
 7.0001000E+002, 4.4631933E+002, 1.6082751E-002, 2.6364989E-002
 7.0501000E+002, 4.4704965E+002, 1.6106960E-002, 2.6306630E-002
 7.1001000E+002, 4.4776872E+002, 1.6070826E-002, 2.6248330E-002
 7.1501000E+002, 4.4851664E+002, 1.6026154E-002, 2.6190183E-002
 7.2001000E+002, 4.4930381E+002, 1.5974163E-002, 2.6132209E-002
 7.2501000E+002, 4.4909085E+002, 1.5857156E-002, 2.6074518E-002
 7.3001000E+002, 4.4955068E+002, 1.5828440E-002, 2.6017144E-002
 7.3501000E+002, 4.5079286E+002, 1.5757048E-002, 2.5959914E-002
 7.4001000E+002, 4.5217238E+002, 1.5663209E-002, 2.5902988E-002
 7.4501000E+002, 4.5374104E+002, 1.5550607E-002, 2.5846436E-002
 7.5001000E+002, 4.5556572E+002, 1.5414088E-002, 2.5790334E-002
 7.5501000E+002, 4.5739286E+002, 1.5084816E-002, 2.5735088E-002
 7.6001000E+002, 4.6038569E+002, 1.4940395E-002, 2.5680674E-002
 7.6501000E+002, 4.6408333E+002, 1.4701854E-002, 2.5626952E-002
 7.7001000E+002, 4.6892291E+002, 1.4363962E-002, 2.5574257E-002
 7.7501000E+002, 4.7593417E+002, 1.3843844E-002, 2.5523081E-002
 7.8001000E+002, 4.8879577E+002, 1.2793416E-002, 2.5474531E-002
 7.8501000E+002, 5.2074586E+002, 4.5854418E-003, 2.5438230E-002
 7.9001000E+002, 5.1364030E+002, 0.0000000E+000, 2.5434300E-002
 7.9501000E+002, 5.1009564E+002, 0.0000000E+000, 2.5434300E-002
 8.0001000E+002, 5.0956732E+002, 0.0000000E+000, 2.5434300E-002
 8.0501000E+002, 5.0992746E+002, 0.0000000E+000, 2.5434300E-002
 8.1001000E+002, 5.1064489E+002, 0.0000000E+000, 2.5434300E-002
 8.1501000E+002, 5.1151963E+002, 0.0000000E+000, 2.5434300E-002
 8.2001000E+002, 5.1245916E+002, 0.0000000E+000, 2.5434300E-002
 8.2501000E+002, 5.1341642E+002, 0.0000000E+000, 2.5434300E-002
 8.3001000E+002, 5.1436633E+002, 0.0000000E+000, 2.5434300E-002
 8.3501000E+002, 5.1529511E+002, 0.0000000E+000, 2.5434300E-002
 8.4001000E+002, 5.1619516E+002, 0.0000000E+000, 2.5434300E-002
 8.4501000E+002, 5.1706238E+002, 0.0000000E+000, 2.5434300E-002
 8.5001000E+002, 5.1789476E+002, 0.0000000E+000, 2.5434300E-002
 8.5501000E+002, 5.1869157E+002, 0.0000000E+000, 2.5434300E-002
 8.6001000E+002, 5.1945287E+002, 0.0000000E+000, 2.5434300E-002
 8.6501000E+002, 5.2017917E+002, 0.0000000E+000, 2.5434300E-002
 8.7001000E+002, 5.2087132E+002, 0.0000000E+000, 2.5434300E-002
 8.7501000E+002, 5.2153037E+002, 0.0000000E+000, 2.5434300E-002
 8.8001000E+002, 5.2215746E+002, 0.0000000E+000, 2.5434300E-002
 8.8501000E+002, 5.2275377E+002, 0.0000000E+000, 2.5434300E-002
 8.9001000E+002, 5.2332052E+002, 0.0000000E+000, 2.5434300E-002
 8.9501000E+002, 5.2385894E+002, 0.0000000E+000, 2.5434300E-002
 9.0001000E+002, 5.2437024E+002, 0.0000000E+000, 2.5434300E-002
 9.0501000E+002, 5.2485562E+002, 0.0000000E+000, 2.5434300E-002
 9.1001000E+002, 5.2531624E+002, 0.0000000E+000, 2.5434300E-002
 9.1501000E+002, 5.2575323E+002, 0.0000000E+000, 2.5434300E-002
 9.2001000E+002, 5.2616768E+002, 0.0000000E+000, 2.5434300E-002
 9.2501000E+002, 5.2656065E+002, 0.0000000E+000, 2.5434300E-002
 9.3001000E+002, 5.2693316E+002, 0.0000000E+000, 2.5434300E-002
 9.3501000E+002, 5.2728619E+002, 0.0000000E+000, 2.5434300E-002
 9.4001000E+002, 5.2762070E+002, 0.0000000E+000, 2.5434300E-002
 9.4501000E+002, 5.2793758E+002, 0.0000000E+000, 2.5434300E-002
 9.5001000E+002, 5.2823771E+002, 0.0000000E+000, 2.5434300E-002
 9.5501000E+002, 5.2852191E+002, 0.0000000E+000, 2.5434300E-002
 9.6001000E+002, 5.2879099E+002, 0.0000000E+000, 2.5434300E-002
 9.6501000E+002, 5.2904570E+002, 0.0000000E+000, 2.5434300E-002
 9.7001000E+002, 5.2928680E+002, 0.0000000E+000, 2.5434300E-002
 9.7501000E+002, 5.2951495E+002, 0.0000000E+000, 2.5434300E-002
 9.8001000E+002, 5.2973084E+002, 0.0000000E+000, 2.5434300E-002
 9.8501000E+002, 5.2993508E+002, 0.0000000E+000, 2.5434300E-002
 9.9001000E+002, 5.3012830E+002, 0.0000000E+000, 2.5434300E-002
 9.9501000E+002, 5.3031106E+002, 0.0000000E+000, 2.5434300E-002
 1.0000000E+003, 5.3048373E+002, 0.0000000E+000, 2.5434300E-002
