s,kW,C,kg/s,m,kW/m2
Time,"HRR","temp","MLR","thick","flux"
 0.000E+000, 0.000E+000, 2.000E+001, 0.000E+000, 1.900E-002,-4.813E-011
 2.012E+000, 0.000E+000, 4.326E+001, 0.000E+000, 1.900E-002, 5.003E+001
 4.003E+000, 0.000E+000, 7.530E+001, 0.000E+000, 1.900E-002, 5.016E+001
 6.018E+000, 0.000E+000, 9.851E+001, 0.000E+000, 1.900E-002, 5.028E+001
 8.004E+000, 0.000E+000, 1.175E+002, 0.000E+000, 1.900E-002, 5.032E+001
 1.001E+001, 0.000E+000, 1.339E+002, 0.000E+000, 1.900E-002, 5.035E+001
 1.201E+001, 0.000E+000, 1.485E+002, 0.000E+000, 1.900E-002, 5.037E+001
 1.401E+001, 3.287E-008, 1.617E+002, 0.000E+000, 1.900E-002, 5.039E+001
 1.600E+001, 2.772E-007, 1.739E+002, 0.000E+000, 1.900E-002, 5.052E+001
 1.800E+001, 1.204E-006, 1.853E+002, 0.000E+000, 1.900E-002, 5.061E+001
 2.001E+001, 4.281E-006, 1.958E+002, 0.000E+000, 1.900E-002, 5.056E+001
 2.200E+001, 1.326E-005, 2.056E+002, 0.000E+000, 1.900E-002, 5.053E+001
 2.401E+001, 3.698E-005, 2.151E+002, 0.000E+000, 1.900E-002, 5.066E+001
 2.601E+001, 9.464E-005, 2.243E+002, 0.000E+000, 1.900E-002, 5.077E+001
 2.801E+001, 2.257E-004, 2.329E+002, 0.000E+000, 1.900E-002, 5.075E+001
 3.000E+001, 5.057E-004, 2.411E+002, 0.000E+000, 1.900E-002, 5.079E+001
 3.201E+001, 1.078E-003, 2.494E+002, 0.000E+000, 1.900E-002, 5.096E+001
 3.401E+001, 2.199E-003, 2.570E+002, 0.000E+000, 1.900E-002, 5.087E+001
 3.601E+001, 4.311E-003, 2.647E+002, 0.000E+000, 1.900E-002, 5.100E+001
 3.801E+001, 8.142E-003, 2.719E+002, 0.000E+000, 1.900E-002, 5.098E+001
 4.001E+001, 1.492E-002, 2.794E+002, 0.000E+000, 1.900E-002, 5.124E+001
 4.201E+001, 2.660E-002, 2.865E+002, 0.000E+000, 1.900E-002, 5.121E+001
 4.400E+001, 4.618E-002, 2.933E+002, 0.000E+000, 1.900E-002, 5.117E+001
 4.601E+001, 7.837E-002, 3.001E+002, 0.000E+000, 1.900E-002, 5.126E+001
 4.801E+001, 1.302E-001, 3.067E+002, 0.000E+000, 1.900E-002, 5.131E+001
 5.000E+001, 2.120E-001, 3.131E+002, 0.000E+000, 1.900E-002, 5.136E+001
 5.201E+001, 3.390E-001, 3.194E+002, 0.000E+000, 1.900E-002, 5.137E+001
 5.400E+001, 5.340E-001, 3.258E+002, 0.000E+000, 1.900E-002, 5.155E+001
 5.600E+001, 8.293E-001, 3.315E+002, 0.000E+000, 1.900E-002, 5.138E+001
 5.800E+001, 1.273E+000, 3.378E+002, 0.000E+000, 1.900E-002, 5.179E+001
 6.000E+001, 1.931E+000, 3.444E+002, 0.000E+000, 1.900E-002, 5.278E+001
 6.200E+001, 2.908E+000, 3.514E+002, 0.000E+000, 1.900E-002, 5.340E+001
 6.400E+001, 4.353E+000, 3.581E+002, 0.000E+000, 1.900E-002, 5.401E+001
 6.601E+001, 6.505E+000, 3.660E+002, 0.000E+000, 1.900E-002, 5.585E+001
 6.800E+001, 9.761E+000, 3.745E+002, 0.000E+000, 1.900E-002, 5.823E+001
 7.000E+001, 1.481E+001, 3.846E+002, 0.000E+000, 1.900E-002, 6.322E+001
 7.201E+001, 2.320E+001, 3.977E+002, 0.000E+000, 1.900E-002, 6.848E+001
 7.400E+001, 3.874E+001, 4.151E+002, 0.000E+000, 1.900E-002, 8.021E+001
 7.600E+001, 6.707E+001, 4.309E+002, 0.000E+000, 1.900E-002, 8.380E+001
 7.800E+001, 1.168E+002, 4.410E+002, 0.000E+000, 1.900E-002, 8.394E+001
 8.000E+001, 1.961E+002, 4.476E+002, 0.000E+000, 1.900E-002, 8.195E+001
 8.200E+001, 3.006E+002, 4.547E+002, 0.000E+000, 1.900E-002, 8.235E+001
 8.400E+001, 4.217E+002, 4.618E+002, 0.000E+000, 1.900E-002, 8.065E+001
 8.600E+001, 5.618E+002, 4.720E+002, 0.000E+000, 1.900E-002, 8.060E+001
 8.800E+001, 6.717E+002, 4.873E+002, 0.000E+000, 1.900E-002, 7.917E+001
 9.000E+001, 7.557E+002, 5.191E+002, 0.000E+000, 1.900E-002, 8.040E+001
 9.200E+001, 7.632E+002, 5.438E+002, 0.000E+000, 1.900E-002, 8.089E+001
 9.400E+001, 7.498E+002, 5.560E+002, 0.000E+000, 1.900E-002, 8.290E+001
 9.600E+001, 7.231E+002, 5.598E+002, 0.000E+000, 1.900E-002, 8.065E+001
 9.800E+001, 7.524E+002, 5.692E+002, 0.000E+000, 1.900E-002, 8.087E+001
 1.000E+002, 7.662E+002, 5.818E+002, 0.000E+000, 1.900E-002, 8.153E+001
 1.020E+002, 6.919E+002, 5.992E+002, 0.000E+000, 1.900E-002, 8.214E+001
 1.040E+002, 6.019E+002, 6.158E+002, 0.000E+000, 1.901E-002, 8.198E+001
 1.060E+002, 5.862E+002, 6.229E+002, 0.000E+000, 1.901E-002, 8.164E+001
 1.080E+002, 6.065E+002, 6.262E+002, 0.000E+000, 1.901E-002, 8.114E+001
 1.100E+002, 6.513E+002, 6.285E+002, 0.000E+000, 1.901E-002, 8.134E+001
 1.120E+002, 6.805E+002, 6.370E+002, 0.000E+000, 1.901E-002, 8.316E+001
 1.140E+002, 6.680E+002, 6.512E+002, 0.000E+000, 1.901E-002, 8.684E+001
 1.160E+002, 6.365E+002, 6.499E+002, 0.000E+000, 1.901E-002, 8.180E+001
 1.180E+002, 6.076E+002, 6.571E+002, 0.000E+000, 1.901E-002, 8.340E+001
 1.200E+002, 5.854E+002, 6.692E+002, 0.000E+000, 1.901E-002, 8.499E+001
 1.220E+002, 6.051E+002, 6.741E+002, 0.000E+000, 1.901E-002, 8.503E+001
 1.240E+002, 6.585E+002, 6.748E+002, 0.000E+000, 1.901E-002, 8.297E+001
 1.260E+002, 6.604E+002, 6.733E+002, 0.000E+000, 1.901E-002, 8.187E+001
 1.280E+002, 6.850E+002, 6.735E+002, 0.000E+000, 1.901E-002, 8.157E+001
 1.300E+002, 6.817E+002, 6.780E+002, 0.000E+000, 1.901E-002, 8.253E+001
 1.320E+002, 6.523E+002, 6.807E+002, 0.000E+000, 1.901E-002, 8.200E+001
 1.340E+002, 6.210E+002, 6.861E+002, 0.000E+000, 1.901E-002, 8.281E+001
 1.360E+002, 6.159E+002, 6.966E+002, 0.000E+000, 1.901E-002, 8.625E+001
 1.380E+002, 6.209E+002, 6.970E+002, 0.000E+000, 1.901E-002, 8.276E+001
 1.400E+002, 6.432E+002, 6.992E+002, 0.000E+000, 1.901E-002, 8.390E+001
 1.420E+002, 6.544E+002, 7.006E+002, 0.000E+000, 1.901E-002, 8.341E+001
 1.440E+002, 6.373E+002, 7.003E+002, 0.000E+000, 1.901E-002, 8.213E+001
 1.460E+002, 6.368E+002, 7.026E+002, 0.000E+000, 1.901E-002, 8.342E+001
 1.480E+002, 6.144E+002, 7.057E+002, 0.000E+000, 1.901E-002, 8.378E+001
 1.500E+002, 5.878E+002, 7.088E+002, 0.000E+000, 1.901E-002, 8.332E+001
 1.520E+002, 5.786E+002, 7.113E+002, 0.000E+000, 1.901E-002, 8.444E+001
 1.540E+002, 5.685E+002, 7.189E+002, 0.000E+000, 1.901E-002, 8.657E+001
 1.560E+002, 5.663E+002, 7.224E+002, 0.000E+000, 1.902E-002, 8.513E+001
 1.580E+002, 5.706E+002, 7.188E+002, 0.000E+000, 1.902E-002, 8.416E+001
 1.600E+002, 5.699E+002, 7.205E+002, 0.000E+000, 1.902E-002, 8.435E+001
 1.620E+002, 5.554E+002, 7.207E+002, 0.000E+000, 1.902E-002, 8.317E+001
 1.640E+002, 5.415E+002, 7.185E+002, 0.000E+000, 1.902E-002, 8.288E+001
 1.660E+002, 5.216E+002, 7.199E+002, 0.000E+000, 1.902E-002, 8.299E+001
 1.680E+002, 5.095E+002, 7.211E+002, 0.000E+000, 1.902E-002, 8.301E+001
 1.700E+002, 4.984E+002, 7.230E+002, 0.000E+000, 1.902E-002, 8.311E+001
 1.720E+002, 4.893E+002, 7.235E+002, 0.000E+000, 1.902E-002, 8.263E+001
 1.740E+002, 4.853E+002, 7.292E+002, 0.000E+000, 1.902E-002, 8.465E+001
 1.760E+002, 4.828E+002, 7.281E+002, 0.000E+000, 1.902E-002, 8.359E+001
 1.780E+002, 4.682E+002, 7.325E+002, 0.000E+000, 1.902E-002, 8.454E+001
 1.800E+002, 4.684E+002, 7.331E+002, 0.000E+000, 1.902E-002, 8.492E+001
 1.820E+002, 4.509E+002, 7.357E+002, 0.000E+000, 1.902E-002, 8.539E+001
 1.840E+002, 4.389E+002, 7.354E+002, 0.000E+000, 1.902E-002, 8.397E+001
 1.860E+002, 4.299E+002, 7.364E+002, 0.000E+000, 1.902E-002, 8.500E+001
 1.880E+002, 4.240E+002, 7.396E+002, 0.000E+000, 1.902E-002, 8.584E+001
 1.900E+002, 4.153E+002, 7.395E+002, 0.000E+000, 1.902E-002, 8.412E+001
 1.920E+002, 4.103E+002, 7.390E+002, 0.000E+000, 1.902E-002, 8.456E+001
 1.940E+002, 3.985E+002, 7.440E+002, 0.000E+000, 1.902E-002, 8.650E+001
 1.960E+002, 3.912E+002, 7.409E+002, 0.000E+000, 1.902E-002, 8.351E+001
 1.980E+002, 3.825E+002, 7.441E+002, 0.000E+000, 1.902E-002, 8.551E+001
 2.000E+002, 3.719E+002, 7.433E+002, 0.000E+000, 1.902E-002, 8.510E+001
 2.020E+002, 3.604E+002, 7.453E+002, 0.000E+000, 1.902E-002, 8.469E+001
 2.040E+002, 3.568E+002, 7.456E+002, 0.000E+000, 1.902E-002, 8.564E+001
 2.060E+002, 3.513E+002, 7.464E+002, 0.000E+000, 1.902E-002, 8.516E+001
 2.080E+002, 3.395E+002, 7.452E+002, 0.000E+000, 1.903E-002, 8.390E+001
 2.100E+002, 3.352E+002, 7.456E+002, 0.000E+000, 1.903E-002, 8.463E+001
 2.120E+002, 3.209E+002, 7.456E+002, 0.000E+000, 1.903E-002, 8.352E+001
 2.140E+002, 3.121E+002, 7.450E+002, 0.000E+000, 1.903E-002, 8.363E+001
 2.160E+002, 3.018E+002, 7.510E+002, 0.000E+000, 1.903E-002, 8.634E+001
 2.180E+002, 2.934E+002, 7.538E+002, 0.000E+000, 1.903E-002, 8.642E+001
 2.200E+002, 2.787E+002, 7.611E+002, 0.000E+000, 1.903E-002, 8.976E+001
 2.220E+002, 2.691E+002, 7.622E+002, 0.000E+000, 1.903E-002, 8.842E+001
 2.240E+002, 2.527E+002, 7.625E+002, 0.000E+000, 1.903E-002, 8.758E+001
 2.260E+002, 2.411E+002, 7.564E+002, 0.000E+000, 1.903E-002, 8.525E+001
 2.280E+002, 2.198E+002, 7.578E+002, 0.000E+000, 1.903E-002, 8.672E+001
 2.300E+002, 1.990E+002, 7.680E+002, 0.000E+000, 1.903E-002, 9.030E+001
 2.320E+002, 1.718E+002, 7.628E+002, 0.000E+000, 1.903E-002, 8.668E+001
 2.340E+002, 1.521E+002, 7.627E+002, 0.000E+000, 1.903E-002, 8.744E+001
 2.360E+002, 1.339E+002, 7.650E+002, 0.000E+000, 1.903E-002, 8.764E+001
 2.380E+002, 1.174E+002, 7.415E+002, 0.000E+000, 1.903E-002, 7.758E+001
 2.400E+002, 1.044E+002, 7.335E+002, 0.000E+000, 1.903E-002, 7.767E+001
 2.420E+002, 9.550E+001, 7.230E+002, 0.000E+000, 1.904E-002, 7.273E+001
 2.440E+002, 8.944E+001, 7.054E+002, 0.000E+000, 1.904E-002, 6.812E+001
 2.460E+002, 8.416E+001, 7.021E+002, 0.000E+000, 1.904E-002, 6.783E+001
 2.480E+002, 8.004E+001, 6.980E+002, 0.000E+000, 1.904E-002, 6.705E+001
 2.500E+002, 7.678E+001, 6.963E+002, 0.000E+000, 1.904E-002, 6.668E+001
 2.520E+002, 7.403E+001, 6.953E+002, 0.000E+000, 1.904E-002, 6.664E+001
 2.540E+002, 7.126E+001, 6.921E+002, 0.000E+000, 1.904E-002, 6.515E+001
 2.560E+002, 6.835E+001, 6.924E+002, 0.000E+000, 1.904E-002, 6.618E+001
 2.580E+002, 6.546E+001, 6.917E+002, 0.000E+000, 1.904E-002, 6.481E+001
 2.600E+002, 6.238E+001, 6.893E+002, 0.000E+000, 1.904E-002, 6.465E+001
 2.620E+002, 5.956E+001, 6.842E+002, 0.000E+000, 1.904E-002, 6.265E+001
 2.640E+002, 5.697E+001, 6.838E+002, 0.000E+000, 1.904E-002, 6.294E+001
 2.660E+002, 5.458E+001, 6.831E+002, 0.000E+000, 1.904E-002, 6.279E+001
 2.680E+002, 5.233E+001, 6.790E+002, 0.000E+000, 1.904E-002, 6.158E+001
 2.700E+002, 5.001E+001, 6.751E+002, 0.000E+000, 1.904E-002, 5.988E+001
 2.720E+002, 4.767E+001, 6.751E+002, 0.000E+000, 1.904E-002, 6.144E+001
 2.740E+002, 4.518E+001, 6.759E+002, 0.000E+000, 1.904E-002, 6.081E+001
 2.760E+002, 4.262E+001, 6.755E+002, 0.000E+000, 1.904E-002, 6.093E+001
 2.780E+002, 3.986E+001, 6.740E+002, 0.000E+000, 1.904E-002, 5.991E+001
 2.800E+002, 3.699E+001, 6.666E+002, 0.000E+000, 1.904E-002, 5.785E+001
 2.820E+002, 3.394E+001, 6.583E+002, 0.000E+000, 1.904E-002, 5.610E+001
 2.840E+002, 3.086E+001, 6.586E+002, 0.000E+000, 1.904E-002, 5.681E+001
 2.860E+002, 2.760E+001, 6.603E+002, 0.000E+000, 1.904E-002, 5.716E+001
 2.880E+002, 2.429E+001, 6.558E+002, 0.000E+000, 1.904E-002, 5.581E+001
 2.900E+002, 2.095E+001, 6.494E+002, 0.000E+000, 1.904E-002, 5.418E+001
 2.920E+002, 1.773E+001, 6.431E+002, 0.000E+000, 1.904E-002, 5.328E+001
 2.940E+002, 1.473E+001, 6.417E+002, 0.000E+000, 1.904E-002, 5.321E+001
 2.960E+002, 1.214E+001, 6.342E+002, 0.000E+000, 1.904E-002, 5.204E+001
 2.980E+002, 9.956E+000, 6.349E+002, 0.000E+000, 1.904E-002, 5.245E+001
 3.000E+002, 8.174E+000, 6.334E+002, 0.000E+000, 1.904E-002, 5.230E+001
