s,kW,C,kg/s,m,kW/m2
Time,"HRR","temp","MLR","thick","flux"
 0.000E+000, 0.000E+000, 2.000E+001, 0.000E+000, 1.900E-002,-4.813E-011
 2.010E+000, 0.000E+000, 4.322E+001, 0.000E+000, 1.900E-002, 5.003E+001
 4.019E+000, 0.000E+000, 7.532E+001, 0.000E+000, 1.900E-002, 5.011E+001
 6.013E+000, 0.000E+000, 9.837E+001, 0.000E+000, 1.900E-002, 5.017E+001
 8.009E+000, 0.000E+000, 1.172E+002, 0.000E+000, 1.900E-002, 5.022E+001
 1.001E+001, 0.000E+000, 1.335E+002, 0.000E+000, 1.900E-002, 5.027E+001
 1.201E+001, 0.000E+000, 1.481E+002, 0.000E+000, 1.900E-002, 5.031E+001
 1.400E+001, 1.125E-008, 1.612E+002, 0.000E+000, 1.900E-002, 5.035E+001
 1.601E+001, 2.267E-007, 1.733E+002, 0.000E+000, 1.900E-002, 5.038E+001
 1.801E+001, 1.110E-006, 1.845E+002, 0.000E+000, 1.900E-002, 5.041E+001
 2.001E+001, 4.003E-006, 1.950E+002, 0.000E+000, 1.900E-002, 5.045E+001
 2.200E+001, 1.236E-005, 2.048E+002, 0.000E+000, 1.900E-002, 5.048E+001
 2.400E+001, 3.429E-005, 2.141E+002, 0.000E+000, 1.900E-002, 5.050E+001
 2.600E+001, 8.740E-005, 2.230E+002, 0.000E+000, 1.900E-002, 5.053E+001
 2.801E+001, 2.082E-004, 2.316E+002, 0.000E+000, 1.900E-002, 5.056E+001
 3.001E+001, 4.666E-004, 2.398E+002, 0.000E+000, 1.900E-002, 5.058E+001
 3.200E+001, 9.891E-004, 2.476E+002, 0.000E+000, 1.900E-002, 5.060E+001
 3.401E+001, 2.010E-003, 2.553E+002, 0.000E+000, 1.900E-002, 5.063E+001
 3.601E+001, 3.926E-003, 2.627E+002, 0.000E+000, 1.900E-002, 5.065E+001
 3.800E+001, 7.394E-003, 2.699E+002, 0.000E+000, 1.900E-002, 5.067E+001
 4.001E+001, 1.352E-002, 2.770E+002, 0.000E+000, 1.900E-002, 5.070E+001
 4.201E+001, 2.405E-002, 2.839E+002, 0.000E+000, 1.900E-002, 5.072E+001
 4.400E+001, 4.167E-002, 2.906E+002, 0.000E+000, 1.900E-002, 5.075E+001
 4.600E+001, 7.054E-002, 2.972E+002, 0.000E+000, 1.900E-002, 5.078E+001
 4.800E+001, 1.170E-001, 3.037E+002, 0.000E+000, 1.900E-002, 5.082E+001
 5.000E+001, 1.903E-001, 3.101E+002, 0.000E+000, 1.900E-002, 5.087E+001
 5.200E+001, 3.043E-001, 3.164E+002, 0.000E+000, 1.900E-002, 5.092E+001
 5.401E+001, 4.792E-001, 3.227E+002, 0.000E+000, 1.900E-002, 5.102E+001
 5.600E+001, 7.438E-001, 3.290E+002, 0.000E+000, 1.900E-002, 5.113E+001
 5.801E+001, 1.139E+000, 3.352E+002, 0.000E+000, 1.900E-002, 5.130E+001
 6.001E+001, 1.726E+000, 3.414E+002, 0.000E+000, 1.900E-002, 5.159E+001
 6.201E+001, 2.589E+000, 3.477E+002, 0.000E+000, 1.900E-002, 5.204E+001
 6.400E+001, 3.853E+000, 3.542E+002, 0.000E+000, 1.900E-002, 5.269E+001
 6.601E+001, 5.704E+000, 3.610E+002, 0.000E+000, 1.900E-002, 5.361E+001
 6.800E+001, 8.417E+000, 3.683E+002, 0.000E+000, 1.900E-002, 5.509E+001
 7.000E+001, 1.245E+001, 3.767E+002, 0.000E+000, 1.900E-002, 5.776E+001
 7.200E+001, 1.861E+001, 3.872E+002, 0.000E+000, 1.900E-002, 6.251E+001
 7.400E+001, 2.879E+001, 4.015E+002, 0.000E+000, 1.900E-002, 7.212E+001
 7.600E+001, 5.044E+001, 4.263E+002, 0.000E+000, 1.900E-002, 9.262E+001
 7.800E+001, 9.810E+001, 4.478E+002, 0.000E+000, 1.900E-002, 9.659E+001
 8.000E+001, 1.865E+002, 4.592E+002, 0.000E+000, 1.899E-002, 9.398E+001
 8.200E+001, 3.245E+002, 4.698E+002, 0.000E+000, 1.899E-002, 9.161E+001
 8.400E+001, 4.959E+002, 4.864E+002, 0.000E+000, 1.898E-002, 9.072E+001
 8.600E+001, 6.985E+002, 5.228E+002, 0.000E+000, 1.897E-002, 8.965E+001
 8.800E+001, 8.174E+002, 5.558E+002, 0.000E+000, 1.897E-002, 9.006E+001
 9.000E+001, 8.709E+002, 5.658E+002, 0.000E+000, 1.897E-002, 9.043E+001
 9.200E+001, 9.752E+002, 5.755E+002, 0.000E+000, 1.896E-002, 8.990E+001
 9.400E+001, 9.431E+002, 5.879E+002, 0.000E+000, 1.896E-002, 8.888E+001
 9.600E+001, 9.925E+002, 6.127E+002, 0.000E+000, 1.895E-002, 9.092E+001
 9.800E+001, 8.812E+002, 6.357E+002, 0.000E+000, 1.895E-002, 9.218E+001
 1.000E+002, 7.410E+002, 6.416E+002, 0.000E+000, 1.895E-002, 9.115E+001
 1.020E+002, 6.799E+002, 6.472E+002, 0.000E+000, 1.894E-002, 9.167E+001
 1.040E+002, 7.535E+002, 6.476E+002, 0.000E+000, 1.894E-002, 8.999E+001
 1.060E+002, 7.891E+002, 6.535E+002, 0.000E+000, 1.894E-002, 9.000E+001
 1.080E+002, 7.821E+002, 6.662E+002, 0.000E+000, 1.893E-002, 9.218E+001
 1.100E+002, 7.146E+002, 6.728E+002, 0.000E+000, 1.893E-002, 9.058E+001
 1.120E+002, 6.524E+002, 6.855E+002, 0.000E+000, 1.893E-002, 9.262E+001
 1.140E+002, 6.643E+002, 6.888E+002, 0.000E+000, 1.892E-002, 9.157E+001
 1.160E+002, 7.033E+002, 6.893E+002, 0.000E+000, 1.892E-002, 9.104E+001
 1.180E+002, 7.413E+002, 6.930E+002, 0.000E+000, 1.892E-002, 9.137E+001
 1.200E+002, 7.571E+002, 6.973E+002, 0.000E+000, 1.891E-002, 9.138E+001
 1.220E+002, 7.458E+002, 7.022E+002, 0.000E+000, 1.891E-002, 9.198E+001
 1.240E+002, 7.481E+002, 7.097E+002, 0.000E+000, 1.890E-002, 9.247E+001
 1.260E+002, 7.308E+002, 7.148E+002, 0.000E+000, 1.890E-002, 9.237E+001
 1.280E+002, 7.362E+002, 7.128E+002, 0.000E+000, 1.890E-002, 9.052E+001
 1.300E+002, 7.494E+002, 7.174E+002, 0.000E+000, 1.889E-002, 9.124E+001
 1.320E+002, 7.643E+002, 7.173E+002, 0.000E+000, 1.889E-002, 9.037E+001
 1.340E+002, 7.544E+002, 7.196E+002, 0.000E+000, 1.888E-002, 9.066E+001
 1.360E+002, 7.512E+002, 7.236E+002, 0.000E+000, 1.888E-002, 9.173E+001
 1.380E+002, 7.300E+002, 7.286E+002, 0.000E+000, 1.888E-002, 9.261E+001
 1.400E+002, 7.251E+002, 7.343E+002, 0.000E+000, 1.887E-002, 9.247E+001
 1.420E+002, 7.209E+002, 7.336E+002, 0.000E+000, 1.887E-002, 9.173E+001
 1.440E+002, 7.124E+002, 7.365E+002, 0.000E+000, 1.887E-002, 9.201E+001
 1.460E+002, 6.987E+002, 7.381E+002, 0.000E+000, 1.886E-002, 9.198E+001
 1.480E+002, 6.906E+002, 7.396E+002, 0.000E+000, 1.886E-002, 9.216E+001
 1.500E+002, 6.709E+002, 7.440E+002, 0.000E+000, 1.886E-002, 9.338E+001
 1.520E+002, 6.677E+002, 7.499E+002, 0.000E+000, 1.885E-002, 9.551E+001
 1.540E+002, 6.559E+002, 7.559E+002, 0.000E+000, 1.885E-002, 9.500E+001
 1.560E+002, 6.460E+002, 7.504E+002, 0.000E+000, 1.885E-002, 9.275E+001
 1.580E+002, 6.295E+002, 7.541E+002, 0.000E+000, 1.884E-002, 9.370E+001
 1.600E+002, 6.056E+002, 7.543E+002, 0.000E+000, 1.884E-002, 9.279E+001
 1.620E+002, 5.958E+002, 7.519E+002, 0.000E+000, 1.884E-002, 9.213E+001
 1.640E+002, 5.818E+002, 7.520E+002, 0.000E+000, 1.883E-002, 9.217E+001
 1.660E+002, 5.696E+002, 7.529E+002, 0.000E+000, 1.883E-002, 9.173E+001
 1.680E+002, 5.672E+002, 7.620E+002, 0.000E+000, 1.883E-002, 9.556E+001
 1.700E+002, 5.541E+002, 7.596E+002, 0.000E+000, 1.882E-002, 9.261E+001
 1.720E+002, 5.431E+002, 7.627E+002, 0.000E+000, 1.882E-002, 9.439E+001
 1.740E+002, 5.297E+002, 7.641E+002, 0.000E+000, 1.882E-002, 9.374E+001
 1.760E+002, 5.099E+002, 7.642E+002, 0.000E+000, 1.882E-002, 9.307E+001
 1.780E+002, 4.943E+002, 7.649E+002, 0.000E+000, 1.881E-002, 9.375E+001
 1.800E+002, 4.843E+002, 7.659E+002, 0.000E+000, 1.881E-002, 9.354E+001
 1.820E+002, 4.720E+002, 7.690E+002, 0.000E+000, 1.881E-002, 9.438E+001
 1.840E+002, 4.559E+002, 7.698E+002, 0.000E+000, 1.881E-002, 9.401E+001
 1.860E+002, 4.490E+002, 7.688E+002, 0.000E+000, 1.880E-002, 9.333E+001
 1.880E+002, 4.315E+002, 7.787E+002, 0.000E+000, 1.880E-002, 9.710E+001
 1.900E+002, 4.116E+002, 7.794E+002, 0.000E+000, 1.880E-002, 9.596E+001
 1.920E+002, 3.879E+002, 7.800E+002, 0.000E+000, 1.880E-002, 9.596E+001
 1.940E+002, 3.606E+002, 7.780E+002, 0.000E+000, 1.879E-002, 9.466E+001
 1.960E+002, 3.261E+002, 7.798E+002, 0.000E+000, 1.879E-002, 9.560E+001
 1.980E+002, 2.801E+002, 7.838E+002, 0.000E+000, 1.879E-002, 9.579E+001
 2.000E+002, 2.461E+002, 7.880E+002, 0.000E+000, 1.879E-002, 9.667E+001
 2.020E+002, 2.142E+002, 7.893E+002, 0.000E+000, 1.879E-002, 9.639E+001
 2.040E+002, 1.804E+002, 7.876E+002, 0.000E+000, 1.879E-002, 9.447E+001
 2.060E+002, 1.470E+002, 7.674E+002, 0.000E+000, 1.878E-002, 8.533E+001
 2.080E+002, 1.276E+002, 7.476E+002, 0.000E+000, 1.878E-002, 7.965E+001
 2.100E+002, 1.176E+002, 7.310E+002, 0.000E+000, 1.878E-002, 7.461E+001
 2.120E+002, 1.095E+002, 7.188E+002, 0.000E+000, 1.878E-002, 7.173E+001
 2.140E+002, 1.037E+002, 7.167E+002, 0.000E+000, 1.878E-002, 7.248E+001
 2.160E+002, 9.903E+001, 7.113E+002, 0.000E+000, 1.878E-002, 7.008E+001
 2.180E+002, 9.558E+001, 6.978E+002, 0.000E+000, 1.878E-002, 6.559E+001
 2.200E+002, 9.221E+001, 6.988E+002, 0.000E+000, 1.878E-002, 6.820E+001
 2.220E+002, 8.927E+001, 7.062E+002, 0.000E+000, 1.878E-002, 6.964E+001
 2.240E+002, 8.643E+001, 7.032E+002, 0.000E+000, 1.878E-002, 6.838E+001
 2.260E+002, 8.351E+001, 7.004E+002, 0.000E+000, 1.878E-002, 6.759E+001
 2.280E+002, 8.077E+001, 6.930E+002, 0.000E+000, 1.878E-002, 6.431E+001
 2.300E+002, 7.804E+001, 6.930E+002, 0.000E+000, 1.878E-002, 6.566E+001
 2.320E+002, 7.521E+001, 6.929E+002, 0.000E+000, 1.878E-002, 6.574E+001
 2.340E+002, 7.248E+001, 6.930E+002, 0.000E+000, 1.878E-002, 6.521E+001
 2.360E+002, 6.932E+001, 6.905E+002, 0.000E+000, 1.878E-002, 6.470E+001
 2.380E+002, 6.628E+001, 6.899E+002, 0.000E+000, 1.878E-002, 6.489E+001
 2.400E+002, 6.314E+001, 6.883E+002, 0.000E+000, 1.878E-002, 6.411E+001
 2.420E+002, 5.997E+001, 6.854E+002, 0.000E+000, 1.878E-002, 6.322E+001
 2.440E+002, 5.672E+001, 6.852E+002, 0.000E+000, 1.878E-002, 6.349E+001
 2.460E+002, 5.337E+001, 6.838E+002, 0.000E+000, 1.878E-002, 6.284E+001
 2.480E+002, 4.979E+001, 6.783E+002, 0.000E+000, 1.878E-002, 6.092E+001
 2.500E+002, 4.603E+001, 6.772E+002, 0.000E+000, 1.878E-002, 6.131E+001
 2.520E+002, 4.204E+001, 6.762E+002, 0.000E+000, 1.878E-002, 6.095E+001
 2.540E+002, 3.777E+001, 6.720E+002, 0.000E+000, 1.878E-002, 5.961E+001
 2.560E+002, 3.319E+001, 6.683E+002, 0.000E+000, 1.878E-002, 5.865E+001
 2.580E+002, 2.841E+001, 6.653E+002, 0.000E+000, 1.878E-002, 5.801E+001
 2.600E+002, 2.357E+001, 6.621E+002, 0.000E+000, 1.878E-002, 5.717E+001
 2.620E+002, 1.884E+001, 6.586E+002, 0.000E+000, 1.878E-002, 5.632E+001
 2.640E+002, 1.448E+001, 6.547E+002, 0.000E+000, 1.878E-002, 5.534E+001
 2.660E+002, 1.084E+001, 6.499E+002, 0.000E+000, 1.878E-002, 5.406E+001
 2.680E+002, 8.110E+000, 6.464E+002, 0.000E+000, 1.878E-002, 5.326E+001
 2.700E+002, 6.291E+000, 6.427E+002, 0.000E+000, 1.878E-002, 5.263E+001
 2.720E+002, 5.166E+000, 6.404E+002, 0.000E+000, 1.878E-002, 5.236E+001
 2.740E+002, 4.460E+000, 6.387E+002, 0.000E+000, 1.878E-002, 5.222E+001
 2.760E+002, 3.946E+000, 6.382E+002, 0.000E+000, 1.878E-002, 5.230E+001
 2.780E+002, 3.501E+000, 6.373E+002, 0.000E+000, 1.878E-002, 5.224E+001
 2.800E+002, 3.056E+000, 6.369E+002, 0.000E+000, 1.878E-002, 5.227E+001
 2.820E+002, 2.593E+000, 6.363E+002, 0.000E+000, 1.878E-002, 5.226E+001
 2.840E+002, 2.118E+000, 6.358E+002, 0.000E+000, 1.878E-002, 5.222E+001
 2.860E+002, 1.642E+000, 6.350E+002, 0.000E+000, 1.878E-002, 5.210E+001
 2.880E+002, 1.186E+000, 6.343E+002, 0.000E+000, 1.878E-002, 5.204E+001
 2.900E+002, 7.787E-001, 6.342E+002, 0.000E+000, 1.878E-002, 5.211E+001
 2.920E+002, 4.547E-001, 6.337E+002, 0.000E+000, 1.878E-002, 5.204E+001
 2.940E+002, 2.315E-001, 6.328E+002, 0.000E+000, 1.878E-002, 5.190E+001
 2.960E+002, 1.016E-001, 6.325E+002, 0.000E+000, 1.878E-002, 5.189E+001
 2.980E+002, 3.846E-002, 6.321E+002, 0.000E+000, 1.878E-002, 5.190E+001
 3.000E+002, 1.269E-002, 6.320E+002, 0.000E+000, 1.878E-002, 5.192E+001
