s,,,,,,,
Time,"O2 EXHAUST","CO2 EXHAUST","H2O EXHAUST","CO EXHAUST","FUEL EXHAUST","SOOT EXHAUST","TEMP EXHAUST"
 0.0000000E+000, 2.3118142E-001, 5.9193618E-004, 5.1492695E-003, 0.0000000E+000, 0.0000000E+000, 0.0000000E+000, 2.0000000E+001
 1.0052095E+000, 2.3118142E-001, 5.9193618E-004, 5.1492695E-003, 4.6716922E-029, 5.6464734E-029, 1.0873744E-029, 2.0825446E+001
 2.0000614E+000, 2.2479860E-001, 5.7132668E-003, 8.4112158E-003, 6.0141138E-005, 1.6308575E-004, 3.4223250E-005, 9.5569292E+001
 3.0021342E+000, 2.1840864E-001, 1.0809232E-002, 1.1691467E-002, 1.4416318E-004, 3.1545371E-004, 7.3508512E-005, 1.4453647E+002
 4.0033757E+000, 2.1359416E-001, 1.4632698E-002, 1.4159234E-002, 2.1202740E-004, 4.8125554E-004, 1.0402766E-004, 1.8540653E+002
 5.0008267E+000, 2.0792978E-001, 1.9190399E-002, 1.7059054E-002, 2.6317648E-004, 5.7487692E-004, 1.3397084E-004, 2.3038672E+002
 6.0072419E+000, 2.0166798E-001, 2.4353109E-002, 2.0243404E-002, 2.5008061E-004, 5.3489581E-004, 1.5251873E-004, 2.7706703E+002
 7.0044538E+000, 1.9298387E-001, 3.1525608E-002, 2.4657069E-002, 2.2459359E-004, 4.6659947E-004, 1.7670911E-004, 3.2788105E+002
 8.0049191E+000, 1.8519561E-001, 3.8044818E-002, 2.8604044E-002, 1.5559116E-004, 2.8791417E-004, 1.8877819E-004, 3.7301728E+002
 9.0072066E+000, 1.7868526E-001, 4.3487350E-002, 3.1901661E-002, 9.9819690E-005, 1.6131632E-004, 1.9925108E-004, 4.0638926E+002
 1.0004071E+001, 1.7288737E-001, 4.8314500E-002, 3.4841454E-002, 6.0998076E-005, 7.3128007E-005, 2.1084287E-004, 4.2493203E+002
 1.1002241E+001, 1.6377143E-001, 5.5835356E-002, 3.9474818E-002, 3.8073728E-005, 1.7027669E-005, 2.3703048E-004, 4.5104854E+002
 1.2000409E+001, 1.5743710E-001, 6.1042453E-002, 4.2697464E-002, 3.2616561E-005, 5.2272461E-007, 2.5741505E-004, 4.6499220E+002
 1.3005477E+001, 1.5265477E-001, 6.4963227E-002, 4.5132327E-002, 3.4390640E-005, 1.9530701E-007, 2.7403692E-004, 4.6504685E+002
 1.4003037E+001, 1.4494430E-001, 7.1283991E-002, 4.9058187E-002, 3.7648514E-005, 1.8093310E-008, 3.0091948E-004, 4.8704688E+002
 1.5000983E+001, 1.3791112E-001, 7.7048987E-002, 5.2639371E-002, 4.0983202E-005, 1.2304743E-007, 3.2551692E-004, 4.9036777E+002
 1.6009960E+001, 1.3459335E-001, 7.9768119E-002, 5.4328883E-002, 4.2838231E-005, 1.9860326E-007, 3.3717967E-004, 4.9058098E+002
 1.7010158E+001, 1.2914196E-001, 8.4237498E-002, 5.7104286E-002, 4.4754587E-005, 1.4035058E-007, 3.5610439E-004, 4.9608128E+002
 1.8010979E+001, 1.2673996E-001, 8.6206673E-002, 5.8327255E-002, 4.5702083E-005, 5.8095289E-008, 3.6446480E-004, 4.9487587E+002
 1.9007885E+001, 1.2101266E-001, 9.0901604E-002, 6.1243383E-002, 4.8179874E-005, 5.4303067E-008, 3.8444514E-004, 5.0097314E+002
 2.0003370E+001, 1.1968758E-001, 9.1987912E-002, 6.1918039E-002, 4.8700672E-005, 2.7457221E-008, 3.8905680E-004, 4.9425790E+002
 2.1009733E+001, 1.1514838E-001, 9.5708492E-002, 6.4229379E-002, 5.0948780E-005, 1.2442940E-007, 4.0495213E-004, 4.9553648E+002
 2.2004241E+001, 1.1138748E-001, 9.8790993E-002, 6.6144447E-002, 5.2897310E-005, 2.8228914E-007, 4.1814001E-004, 5.0567223E+002
 2.3011542E+001, 1.1001444E-001, 9.9917398E-002, 6.6843257E-002, 5.2910328E-005, 2.5739198E-008, 4.2280787E-004, 4.9826880E+002
 2.4007027E+001, 1.0539628E-001, 1.0370289E-001, 6.9194730E-002, 5.5061584E-005, 6.5016555E-008, 4.3895108E-004, 4.9339228E+002
 2.5011073E+001, 1.0308415E-001, 1.0559837E-001, 7.0371934E-002, 5.5975649E-005, 5.1106532E-008, 4.4699906E-004, 5.0083286E+002
 2.6011224E+001, 1.0170179E-001, 1.0673148E-001, 7.1075815E-002, 5.6629919E-005, 5.4573892E-008, 4.5183344E-004, 5.0439714E+002
 2.7001864E+001, 9.7827812E-002, 1.0990727E-001, 7.3048260E-002, 5.8229529E-005, 2.3632384E-008, 4.6533218E-004, 5.0200516E+002
 2.8001065E+001, 9.7048284E-002, 1.1054626E-001, 7.3445178E-002, 5.8587940E-005, 2.3149914E-008, 4.6805610E-004, 4.9201784E+002
 2.9002492E+001, 9.6351773E-002, 1.1111719E-001, 7.3799824E-002, 5.8908298E-005, 3.8402201E-008, 4.7048996E-004, 4.9229321E+002
 3.0001024E+001, 9.0893917E-002, 1.1559057E-001, 7.6578993E-002, 6.1728011E-005, 2.3540895E-007, 4.8962671E-004, 4.9703122E+002
 3.1005680E+001, 9.1423863E-002, 1.1515677E-001, 7.6308950E-002, 6.1077647E-005, 6.4146861E-008, 4.8768938E-004, 4.9773194E+002
 3.2005146E+001, 8.7622056E-002, 1.1827334E-001, 7.8244671E-002, 6.2682538E-005, 2.8230651E-008, 5.0094404E-004, 4.9308145E+002
 3.3007598E+001, 8.7071846E-002, 1.1872441E-001, 7.8524806E-002, 6.2898264E-005, 1.9685062E-008, 5.0285882E-004, 4.9417887E+002
 3.4005768E+001, 8.5742216E-002, 1.1981435E-001, 7.9201812E-002, 6.3489641E-005, 2.5073844E-008, 5.0750078E-004, 4.9010813E+002
 3.5003605E+001, 8.2217870E-002, 1.2270331E-001, 8.0996314E-002, 6.5083776E-005, 4.7346563E-008, 5.1981046E-004, 4.9486328E+002
 3.6008957E+001, 7.9859691E-002, 1.2463614E-001, 8.2197110E-002, 6.6298242E-005, 1.2296343E-007, 5.2807808E-004, 4.9706857E+002
 3.7008641E+001, 7.3853740E-002, 1.2955935E-001, 8.5255179E-002, 6.9002665E-005, 9.9349575E-008, 5.4905287E-004, 5.1014405E+002
 3.8002222E+001, 7.5705579E-002, 1.2804160E-001, 8.4312182E-002, 6.7996325E-005, 5.6242314E-008, 5.4254935E-004, 4.9513160E+002
 3.9003396E+001, 7.0992771E-002, 1.3190458E-001, 8.6711890E-002, 7.0264859E-005, 1.1548026E-007, 5.5903883E-004, 5.0722564E+002
 4.0005721E+001, 7.3562959E-002, 1.2979819E-001, 8.5403059E-002, 6.8796481E-005, 1.5594635E-008, 5.4999745E-004, 4.9343576E+002
 4.1001327E+001, 6.9910326E-002, 1.3279194E-001, 8.7263014E-002, 7.0709427E-005, 1.3968338E-007, 5.6281004E-004, 5.0321481E+002
 4.2003572E+001, 6.9857426E-002, 1.3283551E-001, 8.7289879E-002, 7.0590132E-005, 6.3227046E-008, 5.6296471E-004, 4.9532269E+002
 4.3006559E+001, 6.6187978E-002, 1.3584251E-001, 8.9158609E-002, 7.2892848E-005, 1.9473381E-007, 5.7591651E-004, 5.0561543E+002
 4.4003004E+001, 6.7455206E-002, 1.3480479E-001, 8.8512971E-002, 7.1582435E-005, 8.2359932E-008, 5.7133522E-004, 4.8778101E+002
 4.5004056E+001, 6.3764710E-002, 1.3782947E-001, 9.0392257E-002, 7.3592343E-005, 1.4831611E-007, 5.8429692E-004, 4.9181587E+002
 4.6008839E+001, 6.4789973E-002, 1.3698973E-001, 8.9869966E-002, 7.2649292E-005, 3.2576019E-008, 5.8061507E-004, 4.9846198E+002
 4.7006756E+001, 6.2516117E-002, 1.3885368E-001, 9.1027741E-002, 7.3656448E-005, 4.3535758E-008, 5.8855260E-004, 4.9696932E+002
 4.8008050E+001, 6.1602805E-002, 1.3960180E-001, 9.1492973E-002, 7.4444891E-005, 1.4602491E-007, 5.9182154E-004, 4.9168312E+002
 4.9002788E+001, 6.1218733E-002, 1.3991688E-001, 9.1688444E-002, 7.4447991E-005, 8.5767856E-008, 5.9312712E-004, 4.9733950E+002
 5.0004243E+001, 6.0048666E-002, 1.4087635E-001, 9.2284083E-002, 7.4735930E-005, 3.0345913E-008, 5.9716311E-004, 4.9308416E+002
 5.1006413E+001, 5.6587494E-002, 1.4371205E-001, 9.4046967E-002, 7.7332621E-005, 2.8473722E-007, 6.0946911E-004, 5.0617976E+002
 5.2004460E+001, 5.7039523E-002, 1.4334265E-001, 9.3816380E-002, 7.6334451E-005, 1.3576864E-007, 6.0772325E-004, 5.0381023E+002
 5.3000733E+001, 5.6389750E-002, 1.4387392E-001, 9.4147744E-002, 7.7581744E-005, 2.6825052E-007, 6.1019342E-004, 4.9805203E+002
 5.4002399E+001, 5.1967235E-002, 1.4749154E-001, 9.6402583E-002, 8.5010162E-005, 4.6696169E-007, 6.2678319E-004, 5.0164087E+002
 5.5006213E+001, 4.8558544E-002, 1.5029346E-001, 9.8135143E-002, 8.1026155E-005, 1.9372909E-007, 6.3752541E-004, 5.0654543E+002
 5.6010598E+001, 5.3690913E-002, 1.4608750E-001, 9.5521422E-002, 7.7888356E-005, 1.7476109E-007, 6.1942737E-004, 4.9898832E+002
 5.7006164E+001, 5.1876256E-002, 1.4757548E-001, 9.6445232E-002, 7.8386022E-005, 5.0204588E-008, 6.2569758E-004, 4.9785512E+002
 5.8006163E+001, 5.1324564E-002, 1.4802581E-001, 9.6726841E-002, 7.9961842E-005, 3.6700566E-007, 6.2790357E-004, 4.9463297E+002
 5.9004493E+001, 4.9166985E-002, 1.4979206E-001, 9.7826367E-002, 8.2625240E-005, 3.7048872E-007, 6.3579486E-004, 4.9435155E+002
 6.0010034E+001, 4.7327715E-002, 1.5130310E-001, 9.8761571E-002, 8.1077431E-005, 1.6099458E-007, 6.4171798E-004, 4.9959677E+002
 6.1009818E+001, 4.6821549E-002, 1.5171813E-001, 9.9019243E-002, 8.1221380E-005, 2.1683940E-007, 6.4346795E-004, 5.0192359E+002
 6.2000579E+001, 4.9463947E-002, 1.4955287E-001, 9.7673523E-002, 7.9492693E-005, 6.1768194E-008, 6.3412646E-004, 4.9390780E+002
 6.3006073E+001, 4.5031190E-002, 1.5317831E-001, 9.9933634E-002, 8.7221726E-005, 1.1438426E-006, 6.5081364E-004, 5.0233240E+002
 6.4002084E+001, 4.5564123E-002, 1.5274992E-001, 9.9659102E-002, 8.1052694E-005, 2.4552750E-008, 6.4770468E-004, 4.9853462E+002
 6.5004826E+001, 4.1560876E-002, 1.5603119E-001, 1.0169755E-001, 8.3052871E-005, 6.8103842E-008, 6.6172692E-004, 5.0514883E+002
 6.6004736E+001, 4.4797558E-002, 1.5337826E-001, 1.0004943E-001, 8.1421424E-005, 3.6571545E-008, 6.5038673E-004, 4.8970813E+002
 6.7008885E+001, 4.4392864E-002, 1.5371003E-001, 1.0025547E-001, 8.1578404E-005, 2.7627351E-008, 6.5179474E-004, 4.8865595E+002
 6.8008203E+001, 4.3488981E-002, 1.5444980E-001, 1.0071614E-001, 8.2796316E-005, 2.1709284E-007, 6.5512203E-004, 4.9483049E+002
 6.9005357E+001, 4.1376719E-002, 1.5618241E-001, 1.0179122E-001, 8.2950278E-005, 3.3431682E-008, 6.6233101E-004, 4.9098108E+002
 7.0007571E+001, 4.1376980E-002, 1.5618200E-001, 1.0179115E-001, 8.3082759E-005, 8.0136135E-008, 6.6235799E-004, 4.9394018E+002
 7.1007710E+001, 3.7359050E-002, 1.5947337E-001, 1.0383780E-001, 8.6436922E-005, 4.1385317E-007, 6.7671504E-004, 5.0769969E+002
 7.2002158E+001, 3.9561412E-002, 1.5767056E-001, 1.0271549E-001, 8.3697501E-005, 2.4382075E-008, 6.6865589E-004, 5.0197061E+002
 7.3002319E+001, 3.7617655E-002, 1.5926319E-001, 1.0370545E-001, 8.5058742E-005, 1.5090636E-007, 6.7554639E-004, 5.0934552E+002
 7.4000609E+001, 4.1238078E-002, 1.5629551E-001, 1.0186202E-001, 8.3397161E-005, 9.5321902E-008, 6.6289611E-004, 4.8794201E+002
 7.5006670E+001, 3.9616966E-002, 1.5762474E-001, 1.0268730E-001, 8.3864495E-005, 9.5682326E-008, 6.6850226E-004, 4.9339468E+002
 7.6008978E+001, 4.0343389E-002, 1.5702880E-001, 1.0231761E-001, 8.3871834E-005, 1.0913286E-007, 6.6603577E-004, 4.9433462E+002
 7.7008228E+001, 3.8172654E-002, 1.5880852E-001, 1.0342276E-001, 8.4622950E-005, 9.3317233E-008, 6.7356905E-004, 4.9771745E+002
 7.8011286E+001, 3.9960792E-002, 1.5734198E-001, 1.0251259E-001, 8.4360165E-005, 1.1310283E-007, 6.6743849E-004, 4.9223110E+002
 7.9010421E+001, 3.7347567E-002, 1.5948521E-001, 1.0384274E-001, 8.4748319E-005, 4.0221293E-008, 6.7639872E-004, 4.8610337E+002
 8.0004975E+001, 3.4898848E-002, 1.6149168E-001, 1.0508985E-001, 8.6404740E-005, 2.0135012E-007, 6.8506697E-004, 5.0622924E+002
 8.1006414E+001, 3.4712068E-002, 1.6162683E-001, 1.0519202E-001, 9.9282308E-005, 9.2104165E-007, 6.8841300E-004, 4.9951076E+002
 8.2004294E+001, 3.6638046E-002, 1.6006461E-001, 1.0420486E-001, 8.6626096E-005, 2.4977704E-007, 6.7920462E-004, 4.9462134E+002
 8.3002400E+001, 3.2819424E-002, 1.6319092E-001, 1.0615075E-001, 9.1137640E-005, 3.1743312E-007, 6.9312847E-004, 5.0644047E+002
 8.4001804E+001, 3.4372355E-002, 1.6192428E-001, 1.0535756E-001, 8.5932306E-005, 1.2498587E-008, 6.8675638E-004, 4.9420959E+002
 8.5002320E+001, 3.5130383E-002, 1.6129147E-001, 1.0497595E-001, 9.3642432E-005, 1.1625148E-006, 6.8580383E-004, 5.0252584E+002
 8.6004105E+001, 3.0520347E-002, 1.6507990E-001, 1.0731964E-001, 8.9044334E-005, 2.0172905E-007, 7.0049882E-004, 5.0376162E+002
 8.7001043E+001, 3.3063075E-002, 1.6299719E-001, 1.0602433E-001, 8.6752358E-005, 7.8604526E-008, 6.9137731E-004, 4.9665169E+002
 8.8007814E+001, 3.3520055E-002, 1.6262159E-001, 1.0579204E-001, 8.7263142E-005, 1.3050278E-007, 6.8993225E-004, 4.9046879E+002
 8.9005061E+001, 3.2994039E-002, 1.6305316E-001, 1.0605970E-001, 8.7210504E-005, 2.2109682E-007, 6.9170823E-004, 4.9700199E+002
 9.0002742E+001, 3.3570185E-002, 1.6258148E-001, 1.0576614E-001, 8.6545365E-005, 2.7058257E-008, 6.8961085E-004, 4.8594247E+002
 9.1008407E+001, 3.4528229E-002, 1.6179621E-001, 1.0527830E-001, 8.6072784E-005, 3.9444895E-008, 6.8625636E-004, 4.9794664E+002
 9.2005575E+001, 3.2922684E-002, 1.6311251E-001, 1.0609572E-001, 8.6651193E-005, 4.3893433E-008, 6.9183301E-004, 4.9116777E+002
 9.3012105E+001, 3.1223081E-002, 1.6450493E-001, 1.0696141E-001, 8.7965326E-005, 1.0565444E-007, 6.9788412E-004, 5.0274682E+002
 9.4008395E+001, 3.2309990E-002, 1.6360315E-001, 1.0641213E-001, 9.5110146E-005, 1.1003515E-006, 6.9569526E-004, 4.9996984E+002
 9.5000928E+001, 3.1743189E-002, 1.6407728E-001, 1.0669710E-001, 8.8661540E-005, 1.9269066E-007, 6.9626361E-004, 4.9413024E+002
 9.6000772E+001, 3.3445788E-002, 1.6268307E-001, 1.0582960E-001, 8.6858336E-005, 1.7236281E-007, 6.9009929E-004, 4.8656690E+002
 9.7001094E+001, 3.2171453E-002, 1.6372789E-001, 1.0647839E-001, 8.7282518E-005, 8.0777297E-008, 6.9451825E-004, 5.0529244E+002
 9.8011043E+001, 3.2324999E-002, 1.6360248E-001, 1.0640003E-001, 8.6892568E-005, 4.9582200E-008, 6.9391448E-004, 4.8258087E+002
 9.9006744E+001, 3.1005701E-002, 1.6468377E-001, 1.0707184E-001, 8.7601355E-005, 8.1465997E-008, 6.9854604E-004, 5.0028086E+002
 1.0000184E+002, 3.1175346E-002, 1.6454255E-001, 1.0698629E-001, 8.9048376E-005, 3.0068163E-007, 6.9827424E-004, 4.9660992E+002
 1.0100638E+002, 3.1190154E-002, 1.6453100E-001, 1.0697851E-001, 8.8617393E-005, 3.0042721E-007, 6.9813316E-004, 5.0056640E+002
 1.0200876E+002, 2.8556079E-002, 1.6667074E-001, 1.0832726E-001, 1.0359982E-004, 1.6140862E-006, 7.1023670E-004, 5.0765645E+002
 1.0300923E+002, 3.1009170E-002, 1.6468067E-001, 1.0707018E-001, 8.7784963E-005, 1.0745009E-007, 6.9857290E-004, 4.9101037E+002
 1.0401133E+002, 2.8779889E-002, 1.6650846E-001, 1.0820511E-001, 8.8503408E-005, 4.8920273E-008, 7.0629824E-004, 4.9849301E+002
 1.0500111E+002, 2.9390210E-002, 1.6600595E-001, 1.0789519E-001, 8.9785344E-005, 3.2964315E-007, 7.0449442E-004, 5.0336087E+002
 1.0600667E+002, 2.7451943E-002, 1.6759094E-001, 1.0888359E-001, 9.3380077E-005, 6.1901076E-007, 7.1183651E-004, 5.0263259E+002
 1.0700627E+002, 2.7498798E-002, 1.6755745E-001, 1.0885783E-001, 8.9878428E-005, 2.5785366E-007, 7.1094016E-004, 5.0518211E+002
 1.0800626E+002, 2.8347639E-002, 1.6685808E-001, 1.0842705E-001, 9.2052913E-005, 2.4870005E-007, 7.0851417E-004, 4.9875989E+002
 1.0900899E+002, 2.5259264E-002, 1.6939138E-001, 1.0999889E-001, 9.2225156E-005, 2.5034068E-007, 7.1904321E-004, 5.1043795E+002
 1.1000685E+002, 2.7124749E-002, 1.6786469E-001, 1.0904806E-001, 8.9619663E-005, 1.3346170E-007, 7.1215659E-004, 4.9227937E+002
 1.1100149E+002, 2.5671832E-002, 1.6905316E-001, 1.0978881E-001, 9.2048918E-005, 3.6592668E-007, 7.1760430E-004, 5.0951543E+002
 1.1200057E+002, 3.0477548E-002, 1.6511707E-001, 1.0734063E-001, 8.7592609E-005, 1.7366998E-008, 7.0033865E-004, 4.9856684E+002
 1.1301004E+002, 2.7722277E-002, 1.6737446E-001, 1.0874399E-001, 8.9654656E-005, 1.0523233E-007, 7.1013388E-004, 5.0639647E+002
 1.1400403E+002, 2.6411150E-002, 1.6845044E-001, 1.0941111E-001, 8.9379559E-005, 1.3550411E-008, 7.1453057E-004, 4.9213369E+002
 1.1500131E+002, 3.0864901E-002, 1.6479951E-001, 1.0714342E-001, 8.7444380E-005, 1.4875318E-008, 6.9899140E-004, 4.8211593E+002
 1.1601049E+002, 3.0016889E-002, 1.6549450E-001, 1.0757525E-001, 8.7920697E-005, 5.7558492E-008, 7.0197280E-004, 4.9317395E+002
 1.1700580E+002, 3.1880991E-002, 1.6396545E-001, 1.0662648E-001, 8.7786704E-005, 1.7678622E-007, 6.9561120E-004, 5.0200904E+002
 1.1800556E+002, 3.1058735E-002, 1.6463848E-001, 1.0704553E-001, 8.8862206E-005, 2.5972046E-007, 6.9863125E-004, 4.8830241E+002
 1.1900650E+002, 2.9245619E-002, 1.6612618E-001, 1.0796817E-001, 8.8653806E-005, 1.0579380E-007, 7.0474755E-004, 4.9762444E+002
 1.2000356E+002, 3.0265899E-002, 1.6529011E-001, 1.0744857E-001, 8.8008860E-005, 5.4659211E-008, 7.0114536E-004, 4.9510318E+002
 1.2100648E+002, 2.9007511E-002, 1.6632141E-001, 1.0808939E-001, 8.8729753E-005, 9.8999151E-008, 7.0557252E-004, 4.9630354E+002
 1.2200253E+002, 2.7255084E-002, 1.6775670E-001, 1.0898214E-001, 9.0367708E-005, 2.3530843E-007, 7.1187124E-004, 4.9844551E+002
 1.2300279E+002, 2.7569288E-002, 1.6750039E-001, 1.0882168E-001, 8.9352829E-005, 7.9231421E-008, 7.1059012E-004, 4.9108664E+002
 1.2400098E+002, 2.7896907E-002, 1.6723124E-001, 1.0865510E-001, 8.9624327E-005, 1.0574080E-007, 7.0953419E-004, 4.8896952E+002
 1.2500218E+002, 2.5911027E-002, 1.6885774E-001, 1.0966677E-001, 9.1477819E-005, 2.9724898E-007, 7.1667141E-004, 4.9856999E+002
 1.2600217E+002, 2.6476694E-002, 1.6839641E-001, 1.0937785E-001, 8.9564825E-005, 4.7681898E-008, 7.1434688E-004, 4.9356202E+002
 1.2700228E+002, 2.5903525E-002, 1.6886344E-001, 1.0967079E-001, 9.1819683E-005, 2.0875742E-007, 7.1676897E-004, 5.0395317E+002
 1.2800422E+002, 2.3901517E-002, 1.7050702E-001, 1.1068918E-001, 9.0944268E-005, 8.6296058E-008, 7.2338653E-004, 5.0099680E+002
 1.2900942E+002, 2.4243387E-002, 1.7022677E-001, 1.1051512E-001, 9.0806445E-005, 5.8895802E-008, 7.2219602E-004, 4.9725545E+002
 1.3001025E+002, 2.3796356E-002, 1.7059338E-001, 1.1074266E-001, 9.0878867E-005, 9.3618474E-008, 7.2373003E-004, 4.9495420E+002
 1.3100429E+002, 2.5107120E-002, 1.6951238E-001, 1.1007782E-001, 9.4948139E-005, 3.6999815E-007, 7.2013348E-004, 5.0650573E+002
 1.3200875E+002, 2.4787605E-002, 1.6977880E-001, 1.1023872E-001, 9.1865627E-005, 2.7883685E-007, 7.2056993E-004, 4.9760199E+002
 1.3300190E+002, 2.2740167E-002, 1.7144246E-001, 1.1128694E-001, 1.0320254E-004, 1.1463658E-006, 7.2991297E-004, 5.0489057E+002
 1.3400617E+002, 2.3376271E-002, 1.7093585E-001, 1.1095728E-001, 9.2402846E-005, 2.2480882E-007, 7.2547812E-004, 4.9990268E+002
 1.3500039E+002, 2.3451452E-002, 1.7087183E-001, 1.1091995E-001, 9.4076309E-005, 2.9638819E-007, 7.2557507E-004, 4.9650029E+002
 1.3600307E+002, 2.4766003E-002, 1.6979880E-001, 1.1024884E-001, 9.0262039E-005, 5.6241732E-008, 7.2030578E-004, 4.9202381E+002
 1.3700135E+002, 2.6283269E-002, 1.6855410E-001, 1.0947667E-001, 9.0262798E-005, 1.1212125E-007, 7.1515098E-004, 4.8673856E+002
 1.3800069E+002, 2.7743967E-002, 1.6735795E-001, 1.0873246E-001, 8.8750050E-005, 4.7634559E-009, 7.0986976E-004, 4.8518274E+002
 1.3900261E+002, 2.3687794E-002, 1.7053859E-001, 1.1085505E-001, 1.9373273E-004, 3.0691007E-006, 7.4575753E-004, 5.1716396E+002
 1.4000996E+002, 2.5796078E-002, 1.6895397E-001, 1.0972454E-001, 9.0121627E-005, 8.3458480E-008, 7.1677651E-004, 4.9907951E+002
 1.4100600E+002, 2.4176157E-002, 1.7027947E-001, 1.1055027E-001, 9.2531031E-005, 3.0630727E-007, 7.2278744E-004, 4.9791189E+002
 1.4201105E+002, 2.8124865E-002, 1.6704543E-001, 1.0853862E-001, 8.8781520E-005, 4.6990423E-008, 7.0858225E-004, 4.9400071E+002
 1.4300549E+002, 2.6036029E-002, 1.6875057E-001, 1.0960490E-001, 9.4721831E-005, 8.5586260E-007, 7.1692947E-004, 4.9809540E+002
 1.4401103E+002, 2.3696799E-002, 1.7065270E-001, 1.1080197E-001, 1.0670418E-004, 1.7295710E-006, 7.2739980E-004, 5.1724043E+002
 1.4500889E+002, 2.5336731E-002, 1.6931673E-001, 1.0996383E-001, 1.0013428E-004, 7.0416791E-007, 7.2044531E-004, 5.0030321E+002
 1.4600605E+002, 2.2007150E-002, 1.7201508E-001, 1.1167141E-001, 1.2374678E-004, 1.5945789E-006, 7.3672966E-004, 5.1113846E+002
 1.4700170E+002, 2.4622222E-002, 1.6989891E-001, 1.1032900E-001, 1.0294784E-004, 9.3871147E-007, 7.2346521E-004, 4.9863884E+002
 1.4800234E+002, 2.3444012E-002, 1.7088144E-001, 1.1092236E-001, 9.1578123E-005, 1.3247910E-007, 7.2507435E-004, 4.9913457E+002
 1.4900033E+002, 2.5365238E-002, 1.6930787E-001, 1.0994363E-001, 8.9798934E-005, 6.3533386E-009, 7.1817239E-004, 4.8474256E+002
 1.5000614E+002, 2.4864248E-002, 1.6971817E-001, 1.1019886E-001, 9.0286210E-005, 6.8567646E-008, 7.1997707E-004, 4.9563922E+002
 1.5100901E+002, 2.4995273E-002, 1.6961092E-001, 1.1013209E-001, 9.0118417E-005, 4.2330808E-008, 7.1949660E-004, 4.9373713E+002
 1.5200570E+002, 2.3375582E-002, 1.7093619E-001, 1.1095774E-001, 9.2571806E-005, 1.6590529E-007, 7.2551609E-004, 4.9947301E+002
 1.5300989E+002, 2.5696933E-002, 1.6903575E-001, 1.0977482E-001, 8.9803914E-005, 3.2112503E-008, 7.1704648E-004, 4.8565366E+002
 1.5400231E+002, 2.5973975E-002, 1.6880629E-001, 1.0963465E-001, 9.1337009E-005, 3.4311512E-007, 7.1642786E-004, 5.0460136E+002
