s,,,,,,,
Time,"O2 EXHAUST","CO2 EXHAUST","H2O EXHAUST","CO EXHAUST","FUEL EXHAUST","SOOT EXHAUST","TEMP EXHAUST"
 0.0000000E+000, 2.3118142E-001, 5.9193618E-004, 5.1492695E-003, 0.0000000E+000, 0.0000000E+000, 0.0000000E+000, 2.0000000E+001
 1.0018949E+000, 2.3118142E-001, 5.9193618E-004, 5.1492695E-003, 1.0652919E-032, 3.0166098E-031, 2.2325910E-032, 2.0339616E+001
 2.0062738E+000, 2.2546323E-001, 5.8569055E-003, 6.6463099E-003, 2.1940209E-005, 3.5393056E-004, 3.5095625E-004, 7.8016173E+001
 3.0038681E+000, 2.2247512E-001, 8.5499325E-003, 7.4472792E-003, 9.8996140E-005, 4.6467048E-004, 5.4471327E-004, 1.0390570E+002
 4.0013282E+000, 2.1882589E-001, 1.1822513E-002, 8.4083722E-003, 1.7129688E-004, 7.8841958E-004, 7.7555779E-004, 1.3527904E+002
 5.0073039E+000, 2.1770599E-001, 1.2833784E-002, 8.7080873E-003, 1.9824070E-004, 8.3101620E-004, 8.4788537E-004, 1.4871529E+002
 6.0010423E+000, 2.1332604E-001, 1.6839836E-002, 9.8808604E-003, 2.7667175E-004, 9.0376876E-004, 1.1282756E-003, 1.8141583E+002
 7.0075970E+000, 2.0979601E-001, 2.0044835E-002, 1.0817772E-002, 3.3798781E-004, 1.0812023E-003, 1.3522936E-003, 2.0993614E+002
 8.0038214E+000, 2.0719151E-001, 2.2496739E-002, 1.1510003E-002, 3.3705276E-004, 1.0519092E-003, 1.5133136E-003, 2.2917465E+002
 9.0006253E+000, 2.0283770E-001, 2.6556471E-002, 1.2667369E-002, 3.5726506E-004, 1.0686767E-003, 1.7846331E-003, 2.5832362E+002
 1.0000244E+001, 1.9749259E-001, 3.1562540E-002, 1.4093179E-002, 3.7886546E-004, 1.0049129E-003, 2.1184758E-003, 2.8877298E+002
 1.1007987E+001, 1.9302716E-001, 3.5783411E-002, 1.5279845E-002, 3.6758135E-004, 9.2672908E-004, 2.3935717E-003, 3.1157076E+002
 1.2001790E+001, 1.9000755E-001, 3.8601408E-002, 1.6085152E-002, 3.8500533E-004, 9.0982045E-004, 2.5826371E-003, 3.2491244E+002
 1.3003332E+001, 1.8666254E-001, 4.1790709E-002, 1.6975223E-002, 3.6352454E-004, 7.9280475E-004, 2.7876947E-003, 3.3917594E+002
 1.4007054E+001, 1.8113044E-001, 4.7020393E-002, 1.8444878E-002, 3.4838705E-004, 6.9939329E-004, 3.1282900E-003, 3.5589407E+002
 1.5005888E+001, 1.7659604E-001, 5.1331802E-002, 1.9649789E-002, 3.2285508E-004, 5.7683183E-004, 3.4062543E-003, 3.7143434E+002
 1.6005255E+001, 1.7053180E-001, 5.7090172E-002, 2.1260284E-002, 2.9122839E-004, 4.3499870E-004, 3.7780429E-003, 3.8564154E+002
 1.7005055E+001, 1.6855909E-001, 5.8983285E-002, 2.1783316E-002, 2.6845034E-004, 3.6247351E-004, 3.8975915E-003, 3.9069439E+002
 1.8006560E+001, 1.6445739E-001, 6.2861477E-002, 2.2872984E-002, 2.5685505E-004, 2.9185119E-004, 4.1500877E-003, 4.0147192E+002
 1.9008158E+001, 1.6151894E-001, 6.5642097E-002, 2.3652470E-002, 2.4522263E-004, 2.4805782E-004, 4.3304067E-003, 3.9800239E+002
 2.0009002E+001, 1.5688693E-001, 6.9995394E-002, 2.4883133E-002, 2.4678234E-004, 2.1285453E-004, 4.6169912E-003, 4.0472352E+002
 2.1011227E+001, 1.4985344E-001, 7.6635083E-002, 2.6749526E-002, 2.2883581E-004, 1.3010695E-004, 5.0496930E-003, 4.2119006E+002
 2.2005609E+001, 1.5004544E-001, 7.6468255E-002, 2.6698051E-002, 2.2045678E-004, 1.1233144E-004, 5.0369095E-003, 4.2042738E+002
 2.3001543E+001, 1.4571194E-001, 8.0538745E-002, 2.7848736E-002, 2.2195576E-004, 8.9574229E-005, 5.3048855E-003, 4.2249151E+002
 2.4005392E+001, 1.4654404E-001, 7.9760640E-002, 2.7628037E-002, 2.2019970E-004, 8.5514736E-005, 5.2533416E-003, 4.1937332E+002
 2.5003963E+001, 1.3966659E-001, 8.6215468E-002, 2.9453945E-002, 2.2494217E-004, 6.1058530E-005, 5.6788000E-003, 4.3164905E+002
 2.6000785E+001, 1.4072156E-001, 8.5234010E-002, 2.9173383E-002, 2.1858798E-004, 5.4233279E-005, 5.6128896E-003, 4.2090140E+002
 2.7004055E+001, 1.3800343E-001, 8.7791427E-002, 2.9894618E-002, 2.1625870E-004, 3.7409675E-005, 5.7805462E-003, 4.3123775E+002
 2.8010344E+001, 1.3362181E-001, 9.1897994E-002, 3.1058131E-002, 2.2287666E-004, 2.9737493E-005, 6.0520027E-003, 4.3409454E+002
 2.9000905E+001, 1.3028958E-001, 9.5018667E-002, 3.1943143E-002, 2.2950270E-004, 2.6515768E-005, 6.2586343E-003, 4.3616388E+002
 3.0000485E+001, 1.2841668E-001, 9.6777551E-002, 3.2440009E-002, 2.2953053E-004, 2.1500713E-005, 6.3742945E-003, 4.3249305E+002
 3.1004079E+001, 1.2915049E-001, 9.6088792E-002, 3.2245331E-002, 2.2930528E-004, 2.2875641E-005, 6.3289569E-003, 4.3007956E+002
 3.2005474E+001, 1.2798554E-001, 9.7185102E-002, 3.2554341E-002, 2.2799371E-004, 1.6201509E-005, 6.4007600E-003, 4.2694844E+002
 3.3011689E+001, 1.2715322E-001, 9.7963352E-002, 3.2775535E-002, 2.3056969E-004, 1.6243520E-005, 6.4524908E-003, 4.2322753E+002
 3.4001135E+001, 1.2576479E-001, 9.9261615E-002, 3.3144401E-002, 2.3463686E-004, 1.7356742E-005, 6.5387374E-003, 4.2373676E+002
 3.5003948E+001, 1.2434961E-001, 1.0058877E-001, 3.3520050E-002, 2.3607190E-004, 1.4829508E-005, 6.6263140E-003, 4.2222485E+002
 3.6008722E+001, 1.2160374E-001, 1.0315994E-001, 3.4249263E-002, 2.4161323E-004, 1.3462004E-005, 6.7965786E-003, 4.2674800E+002
 3.7003637E+001, 1.1949905E-001, 1.0512967E-001, 3.4808260E-002, 2.4654805E-004, 1.3668901E-005, 6.9271649E-003, 4.2704668E+002
 3.8003489E+001, 1.2042641E-001, 1.0425956E-001, 3.4562062E-002, 2.4578001E-004, 1.6425425E-005, 6.8697853E-003, 4.2073229E+002
 3.9005389E+001, 1.1794289E-001, 1.0658725E-001, 3.5221420E-002, 2.4926592E-004, 1.3103010E-005, 7.0235953E-003, 4.2882781E+002
 4.0007574E+001, 1.1563058E-001, 1.0875305E-001, 3.5835343E-002, 2.5332612E-004, 1.2339306E-005, 7.1668850E-003, 4.2955176E+002
 4.1008741E+001, 1.1422015E-001, 1.1007257E-001, 3.6209987E-002, 2.5696595E-004, 1.2908468E-005, 7.2544364E-003, 4.2702118E+002
 4.2009215E+001, 1.1084779E-001, 1.1322955E-001, 3.7105597E-002, 2.6425724E-004, 1.2418579E-005, 7.4636000E-003, 4.3087269E+002
 4.3001708E+001, 1.1128804E-001, 1.1281033E-001, 3.6989307E-002, 2.6833497E-004, 1.8886219E-005, 7.4369165E-003, 4.2753995E+002
 4.4011569E+001, 1.1010968E-001, 1.1391918E-001, 3.7301753E-002, 2.6683230E-004, 1.3405400E-005, 7.5095033E-003, 4.2869700E+002
 4.5005491E+001, 1.0661990E-001, 1.1713108E-001, 3.8232853E-002, 3.1234777E-004, 6.7851802E-005, 7.7305507E-003, 4.3459595E+002
 4.6012277E+001, 1.0779826E-001, 1.1607242E-001, 3.7916476E-002, 2.7920302E-004, 2.3219585E-005, 7.6537652E-003, 4.2999855E+002
 4.7006060E+001, 1.0703321E-001, 1.1679445E-001, 3.8119042E-002, 2.7655070E-004, 1.8719968E-005, 7.7006676E-003, 4.2898361E+002
 4.8002141E+001, 1.0549645E-001, 1.1823462E-001, 3.8526961E-002, 2.7864984E-004, 1.7702599E-005, 7.7958197E-003, 4.2766222E+002
 4.9000814E+001, 1.0524178E-001, 1.1845886E-001, 3.8595880E-002, 2.8929402E-004, 3.0154025E-005, 7.8128684E-003, 4.2548829E+002
 5.0003310E+001, 9.9694991E-002, 1.2357423E-001, 4.0078116E-002, 3.6015732E-004, 7.7271257E-005, 8.1645624E-003, 4.3656635E+002
 5.1004649E+001, 1.0217109E-001, 1.2132360E-001, 3.9412714E-002, 3.0375216E-004, 3.4233634E-005, 8.0043663E-003, 4.3134773E+002
 5.2008077E+001, 1.0152264E-001, 1.2192814E-001, 3.9585104E-002, 3.0684968E-004, 3.6801255E-005, 8.0447877E-003, 4.3063254E+002
 5.3000929E+001, 1.0174549E-001, 1.2171473E-001, 3.9526336E-002, 3.0974875E-004, 4.1252307E-005, 8.0313823E-003, 4.2400013E+002
 5.4010956E+001, 9.6967751E-002, 1.2594128E-001, 4.0817925E-002, 4.9617836E-004, 2.5360551E-004, 8.3496472E-003, 4.3600088E+002
 5.5013213E+001, 9.9290039E-002, 1.2392847E-001, 4.0185621E-002, 3.7461427E-004, 1.2063628E-004, 8.1909853E-003, 4.3056120E+002
 5.6010860E+001, 9.7902750E-002, 1.2524445E-001, 4.0552959E-002, 3.6615606E-004, 1.0069560E-004, 8.2756857E-003, 4.3376283E+002
 5.7009056E+001, 9.4785542E-002, 1.2812641E-001, 4.1383926E-002, 3.9838224E-004, 1.3369160E-004, 8.4721616E-003, 4.3694594E+002
 5.8012082E+001, 9.6318196E-002, 1.2675767E-001, 4.0970654E-002, 3.4756498E-004, 7.7997874E-005, 8.3711625E-003, 4.3029501E+002
 5.9011235E+001, 9.4046005E-002, 1.2862833E-001, 4.1592037E-002, 5.2563499E-004, 3.5367091E-004, 8.5327105E-003, 4.3625003E+002
 6.0007206E+001, 9.2711545E-002, 1.2997155E-001, 4.1945340E-002, 4.7492098E-004, 2.0088525E-004, 8.6100531E-003, 4.3274497E+002
 6.1010121E+001, 9.3624686E-002, 1.2922301E-001, 4.1692013E-002, 3.9508797E-004, 1.1832726E-004, 8.5435549E-003, 4.3258820E+002
 6.2009402E+001, 8.8972465E-002, 1.3258197E-001, 4.3013756E-002, 1.1075391E-003, 1.0350744E-003, 8.9186264E-003, 4.3915352E+002
 6.3003762E+001, 9.0996495E-002, 1.3140924E-001, 4.2413197E-002, 5.9311173E-004, 3.7532316E-004, 8.7301697E-003, 4.3090134E+002
 6.4008959E+001, 8.8616519E-002, 1.3303394E-001, 4.3103969E-002, 1.0353046E-003, 8.6973291E-004, 8.9327077E-003, 4.3935461E+002
 6.5000170E+001, 8.8302991E-002, 1.3325995E-001, 4.3175844E-002, 1.0525668E-003, 1.0934326E-003, 8.9513135E-003, 4.3389922E+002
 6.6008947E+001, 8.9083368E-002, 1.3284567E-001, 4.2950826E-002, 8.4516852E-004, 7.1219695E-004, 8.8791783E-003, 4.3428757E+002
 6.7006395E+001, 8.8589986E-002, 1.3342827E-001, 4.3072619E-002, 7.6330042E-004, 5.8955814E-004, 8.8997658E-003, 4.3200714E+002
 6.8002346E+001, 8.8378443E-002, 1.3360731E-001, 4.3133857E-002, 7.8328839E-004, 5.7499912E-004, 8.9158635E-003, 4.2855571E+002
 6.9003914E+001, 8.7487384E-002, 1.3416358E-001, 4.3383882E-002, 9.6195185E-004, 9.3088988E-004, 8.9911157E-003, 4.3431284E+002
 7.0004693E+001, 8.8002004E-002, 1.3389036E-001, 4.3240098E-002, 8.3347861E-004, 6.3633250E-004, 8.9453383E-003, 4.2967062E+002
 7.1013119E+001, 8.6618948E-002, 1.3509303E-001, 4.3618905E-002, 9.0773924E-004, 6.8777616E-004, 9.0404905E-003, 4.3258147E+002
 7.2007159E+001, 8.6040897E-002, 1.3544844E-001, 4.3785368E-002, 1.0343115E-003, 8.8809006E-004, 9.0912575E-003, 4.3294180E+002
 7.3001894E+001, 8.5738527E-002, 1.3565746E-001, 4.3881555E-002, 1.1042175E-003, 8.6736881E-004, 9.1201281E-003, 4.3403458E+002
 7.4000136E+001, 8.6928709E-002, 1.3484307E-001, 4.3532472E-002, 8.7758407E-004, 6.5755964E-004, 9.0175282E-003, 4.2740819E+002
 7.5003430E+001, 8.2850709E-002, 1.3721167E-001, 4.4752835E-002, 1.9295066E-003, 1.8796326E-003, 9.4009511E-003, 4.3590233E+002
 7.6007500E+001, 8.4409812E-002, 1.3650470E-001, 4.4258553E-002, 1.3683789E-003, 1.3281736E-003, 9.2330187E-003, 4.3345460E+002
 7.7004437E+001, 8.5362705E-002, 1.3605391E-001, 4.3969751E-002, 1.0596244E-003, 8.9888095E-004, 9.1365477E-003, 4.2947931E+002
 7.8001243E+001, 8.4779011E-002, 1.3648973E-001, 4.4132895E-002, 1.1362675E-003, 1.0141895E-003, 9.1817946E-003, 4.2937765E+002
 7.9013089E+001, 8.4316883E-002, 1.3683331E-001, 4.4265403E-002, 1.2037719E-003, 1.0766997E-003, 9.2189964E-003, 4.2941351E+002
 8.0010704E+001, 8.3738255E-002, 1.3710055E-001, 4.4426109E-002, 1.3684449E-003, 1.4861351E-003, 9.2722190E-003, 4.3279506E+002
 8.1002880E+001, 8.3581240E-002, 1.3729206E-001, 4.4473732E-002, 1.3549884E-003, 1.3534251E-003, 9.2818940E-003, 4.3003229E+002
 8.2008577E+001, 8.3597089E-002, 1.3728711E-001, 4.4473644E-002, 1.3569337E-003, 1.2976454E-003, 9.2819876E-003, 4.2775528E+002
 8.3008735E+001, 8.2993236E-002, 1.3744925E-001, 4.4668835E-002, 1.6423597E-003, 1.6695600E-003, 9.3544280E-003, 4.2719250E+002
 8.4010148E+001, 8.2810207E-002, 1.3771322E-001, 4.4703323E-002, 1.5664691E-003, 1.6414372E-003, 9.3553616E-003, 4.2589617E+002
 8.5011771E+001, 8.3732703E-002, 1.3710428E-001, 4.4436694E-002, 1.3856541E-003, 1.4032388E-003, 9.2761850E-003, 4.2409636E+002
 8.6004083E+001, 8.3230587E-002, 1.3748221E-001, 4.4589787E-002, 1.4728666E-003, 1.3776487E-003, 9.3199067E-003, 4.2179181E+002
 8.7007788E+001, 8.3123570E-002, 1.3696715E-001, 4.4649174E-002, 1.8667964E-003, 2.1532948E-003, 9.3713135E-003, 4.2608492E+002
 8.8002702E+001, 8.2874759E-002, 1.3745839E-001, 4.4707206E-002, 1.7109535E-003, 1.7811205E-003, 9.3698763E-003, 4.2160691E+002
 8.9003093E+001, 8.1677878E-002, 1.3810692E-001, 4.5066290E-002, 2.0469556E-003, 2.2120855E-003, 9.4852454E-003, 4.2663494E+002
 9.0000282E+001, 8.1244162E-002, 1.3849689E-001, 4.5186239E-002, 2.0652821E-003, 2.1951382E-003, 9.5148528E-003, 4.2565739E+002
 9.1006680E+001, 8.1229097E-002, 1.3850239E-001, 4.5183686E-002, 2.0582459E-003, 2.2714926E-003, 9.5136952E-003, 4.2569339E+002
 9.2003151E+001, 8.2439107E-002, 1.3788794E-001, 4.4819660E-002, 1.6941273E-003, 1.7738365E-003, 9.3944798E-003, 4.2502350E+002
 9.3002032E+001, 8.2709105E-002, 1.3777386E-001, 4.4736402E-002, 1.5965720E-003, 1.6419275E-003, 9.3658634E-003, 4.2255623E+002
 9.4003041E+001, 8.1464258E-002, 1.3837398E-001, 4.5109299E-002, 1.9858764E-003, 2.2245002E-003, 9.4895892E-003, 4.2349351E+002
 9.5008769E+001, 8.1743674E-002, 1.3822587E-001, 4.5037831E-002, 1.9278658E-003, 2.0022730E-003, 9.4672885E-003, 4.2361576E+002
 9.6000851E+001, 8.1312466E-002, 1.3843381E-001, 4.5162698E-002, 2.0549413E-003, 2.2442929E-003, 9.5084696E-003, 4.2576071E+002
 9.7010737E+001, 8.1385736E-002, 1.3852306E-001, 4.5129309E-002, 1.9430099E-003, 2.1014463E-003, 9.4901112E-003, 4.2470142E+002
 9.8012705E+001, 8.1451491E-002, 1.3843619E-001, 4.5115967E-002, 1.9641893E-003, 2.1066744E-003, 9.4889824E-003, 4.2027690E+002
 9.9010106E+001, 8.1282443E-002, 1.3870173E-001, 4.5163613E-002, 1.9105637E-003, 1.8949458E-003, 9.4948305E-003, 4.2633913E+002
 1.0000238E+002, 8.1208365E-002, 1.3854964E-001, 4.5199523E-002, 2.0615823E-003, 2.1263665E-003, 9.5175184E-003, 4.2032265E+002
 1.0100988E+002, 8.0760322E-002, 1.3886724E-001, 4.5333849E-002, 2.1460885E-003, 2.1589286E-003, 9.5566895E-003, 4.1729889E+002
 1.0200670E+002, 8.0392958E-002, 1.3875446E-001, 4.5470335E-002, 2.4677876E-003, 2.5851830E-003, 9.6189042E-003, 4.2290788E+002
 1.0300046E+002, 7.9741038E-002, 1.3914936E-001, 4.5659714E-002, 2.6167503E-003, 2.8059453E-003, 9.6771138E-003, 4.2368535E+002
 1.0400722E+002, 7.9395731E-002, 1.3959877E-001, 4.5747424E-002, 2.5410039E-003, 2.6247609E-003, 9.6902665E-003, 4.2763055E+002
 1.0500082E+002, 7.9424919E-002, 1.3931303E-001, 4.5725440E-002, 2.6573016E-003, 3.2059884E-003, 9.6966665E-003, 4.2454356E+002
 1.0601100E+002, 7.9205521E-002, 1.3953787E-001, 4.5797720E-002, 2.6722996E-003, 3.0408461E-003, 9.7146897E-003, 4.2155365E+002
 1.0700713E+002, 7.9687123E-002, 1.3956784E-001, 4.5627451E-002, 2.3308976E-003, 2.6050943E-003, 9.6427660E-003, 4.2162666E+002
 1.0800983E+002, 7.9863953E-002, 1.3927324E-001, 4.5593126E-002, 2.4241513E-003, 2.7102522E-003, 9.6435783E-003, 4.2244174E+002
 1.0900629E+002, 8.0773203E-002, 1.3871471E-001, 4.5326108E-002, 2.2154569E-003, 2.4428462E-003, 9.5616819E-003, 4.2101920E+002
 1.1000729E+002, 8.0618124E-002, 1.3886411E-001, 4.5359707E-002, 2.1998211E-003, 2.5066271E-003, 9.5681250E-003, 4.1784184E+002
 1.1100828E+002, 7.9445458E-002, 1.3924779E-001, 4.5751591E-002, 2.7393965E-003, 2.9893477E-003, 9.7101328E-003, 4.2417967E+002
 1.1200586E+002, 7.9607963E-002, 1.3921869E-001, 4.5674848E-002, 2.6110371E-003, 3.0911445E-003, 9.6804471E-003, 4.2098251E+002
 1.1300793E+002, 7.9756834E-002, 1.3933746E-001, 4.5613486E-002, 2.4296400E-003, 2.8485574E-003, 9.6489943E-003, 4.2216352E+002
 1.1400855E+002, 7.9612705E-002, 1.3910449E-001, 4.5679908E-002, 2.6826932E-003, 3.2220787E-003, 9.6884490E-003, 4.2125484E+002
 1.1500791E+002, 7.9269880E-002, 1.3890384E-001, 4.5774899E-002, 2.9770694E-003, 4.0887923E-003, 9.7389902E-003, 4.1893202E+002
 1.1600815E+002, 7.9295957E-002, 1.3943234E-001, 4.5768538E-002, 2.6742786E-003, 3.1254550E-003, 9.7081820E-003, 4.2267661E+002
 1.1700049E+002, 7.8990432E-002, 1.3975060E-001, 4.5851386E-002, 2.6602976E-003, 3.0535157E-003, 9.7260808E-003, 4.2353185E+002
 1.1801171E+002, 7.8675460E-002, 1.3939596E-001, 4.5981460E-002, 3.1013100E-003, 3.7435270E-003, 9.7982206E-003, 4.2168826E+002
 1.1900224E+002, 7.8084566E-002, 1.3981651E-001, 4.6149239E-002, 3.1949624E-003, 3.8714402E-003, 9.8461444E-003, 4.2280846E+002
 1.2001352E+002, 7.8373797E-002, 1.4001358E-001, 4.6022426E-002, 2.8473773E-003, 3.5297283E-003, 9.7838741E-003, 4.2687421E+002
 1.2100310E+002, 7.8554455E-002, 1.3981401E-001, 4.5958799E-002, 2.8355614E-003, 3.7292714E-003, 9.7682022E-003, 4.2255254E+002
 1.2200345E+002, 7.8700415E-002, 1.3944927E-001, 4.5924485E-002, 2.9685586E-003, 4.0827962E-003, 9.7730128E-003, 4.1902396E+002
 1.2300225E+002, 7.8602437E-002, 1.3968602E-001, 4.5956457E-002, 2.8998051E-003, 3.7756881E-003, 9.7736901E-003, 4.2002186E+002
 1.2400235E+002, 7.8639032E-002, 1.3974355E-001, 4.5946657E-002, 2.8491555E-003, 3.6174031E-003, 9.7665066E-003, 4.2247385E+002
 1.2500124E+002, 7.8912689E-002, 1.3963346E-001, 4.5862434E-002, 2.7475332E-003, 3.4725857E-003, 9.7372718E-003, 4.2206324E+002
 1.2601081E+002, 7.8078501E-002, 1.3995343E-001, 4.6099105E-002, 3.0297835E-003, 4.1292506E-003, 9.8194141E-003, 4.2149411E+002
 1.2700862E+002, 7.8471735E-002, 1.4000195E-001, 4.5970856E-002, 2.7571995E-003, 3.6307127E-003, 9.7635998E-003, 4.2066565E+002
 1.2800470E+002, 7.8563765E-002, 1.3998871E-001, 4.5946016E-002, 2.7162287E-003, 3.5081378E-003, 9.7538584E-003, 4.2001395E+002
 1.2900531E+002, 7.8081620E-002, 1.3978442E-001, 4.6111251E-002, 3.1443633E-003, 4.2953774E-003, 9.8331016E-003, 4.1892171E+002
 1.3000218E+002, 7.7810523E-002, 1.4036058E-001, 4.6161542E-002, 2.9287982E-003, 3.9402771E-003, 9.8243262E-003, 4.2360547E+002
 1.3101013E+002, 7.8159057E-002, 1.4025795E-001, 4.6061974E-002, 2.7925758E-003, 3.6185162E-003, 9.7880877E-003, 4.2011024E+002
 1.3200126E+002, 7.7622437E-002, 1.4015576E-001, 4.6256856E-002, 3.2200653E-003, 4.1748670E-003, 9.8738955E-003, 4.2400281E+002
 1.3300222E+002, 7.7661065E-002, 1.4040005E-001, 4.6237047E-002, 3.0487305E-003, 3.7784831E-003, 9.8528675E-003, 4.2535754E+002
 1.3400785E+002, 7.8113276E-002, 1.4002496E-001, 4.6061412E-002, 2.9213347E-003, 4.2157724E-003, 9.8006530E-003, 4.2117696E+002
 1.3500962E+002, 7.8340606E-002, 1.3975441E-001, 4.6030620E-002, 3.0057765E-003, 4.0384550E-003, 9.8011291E-003, 4.2239547E+002
 1.3600231E+002, 7.8202896E-002, 1.4010494E-001, 4.6057462E-002, 2.8668209E-003, 3.7456755E-003, 9.7940977E-003, 4.2468158E+002
 1.3700380E+002, 7.8023009E-002, 1.4018536E-001, 4.6113179E-002, 2.9298367E-003, 3.8236133E-003, 9.8130245E-003, 4.2002124E+002
 1.3800430E+002, 7.8114526E-002, 1.4000144E-001, 4.6067047E-002, 2.9443415E-003, 4.1985295E-003, 9.8040848E-003, 4.1928484E+002
 1.3900209E+002, 7.7256910E-002, 1.4057421E-001, 4.6350893E-002, 3.1734935E-003, 4.0711415E-003, 9.8913286E-003, 4.2344447E+002
 1.4001004E+002, 7.7314383E-002, 1.4056617E-001, 4.6292916E-002, 3.0713831E-003, 4.3923833E-003, 9.8687167E-003, 4.2059478E+002
 1.4100923E+002, 7.6802382E-002, 1.4038858E-001, 4.6502814E-002, 3.5663547E-003, 4.8373299E-003, 9.9641651E-003, 4.2334162E+002
 1.4200255E+002, 7.7590116E-002, 1.4036139E-001, 4.6244084E-002, 3.0853731E-003, 4.0712390E-003, 9.8582661E-003, 4.1978087E+002
 1.4300860E+002, 7.7878088E-002, 1.4007427E-001, 4.6147706E-002, 3.0585803E-003, 4.2882801E-003, 9.8335977E-003, 4.2197494E+002
 1.4400252E+002, 7.7804017E-002, 1.4028999E-001, 4.6165151E-002, 2.9743211E-003, 4.0555072E-003, 9.8295399E-003, 4.2174647E+002
 1.4500423E+002, 7.7452236E-002, 1.4032007E-001, 4.6271685E-002, 3.1630567E-003, 4.4510154E-003, 9.8723743E-003, 4.2362507E+002
 1.4601107E+002, 7.7499817E-002, 1.4042522E-001, 4.6239704E-002, 3.0459169E-003, 4.3730492E-003, 9.8539370E-003, 4.2097970E+002
 1.4700355E+002, 7.7712768E-002, 1.4041899E-001, 4.6198675E-002, 2.9672932E-003, 3.8928635E-003, 9.8364950E-003, 4.2250911E+002
 1.4801134E+002, 7.6580395E-002, 1.4065216E-001, 4.6522591E-002, 3.4657155E-003, 5.1080412E-003, 9.9597295E-003, 4.2075886E+002
 1.4900741E+002, 7.6632834E-002, 1.4101974E-001, 4.6500731E-002, 3.2224274E-003, 4.4604568E-003, 9.9312285E-003, 4.2152673E+002
 1.5001141E+002, 7.6875762E-002, 1.4088023E-001, 4.6449315E-002, 3.1971760E-003, 4.1853393E-003, 9.9165803E-003, 4.2087542E+002
 1.5100037E+002, 7.6706476E-002, 1.4050615E-001, 4.6490730E-002, 3.4837370E-003, 5.1413337E-003, 9.9540295E-003, 4.2051461E+002
 1.5200602E+002, 7.7461823E-002, 1.4073471E-001, 4.6247852E-002, 2.8920237E-003, 3.9166193E-003, 9.8409680E-003, 4.2391055E+002
 1.5300275E+002, 7.7474074E-002, 1.4046786E-001, 4.6241420E-002, 3.0265728E-003, 4.3889312E-003, 9.8525556E-003, 4.2114770E+002
 1.5400887E+002, 7.7323010E-002, 1.4041529E-001, 4.6300288E-002, 3.1672028E-003, 4.5492309E-003, 9.8795361E-003, 4.1975718E+002
