s,,,,,,,
Time,"O2 EXHAUST","CO2 EXHAUST","H2O EXHAUST","CO EXHAUST","FUEL EXHAUST","SOOT EXHAUST","TEMP EXHAUST"
 0.0000000E+000, 2.3118142E-001, 5.9193618E-004, 5.1492695E-003, 0.0000000E+000, 0.0000000E+000, 0.0000000E+000, 2.0000000E+001
 1.0052095E+000, 2.3118142E-001, 5.9193618E-004, 5.1492695E-003, 4.6716922E-029, 5.6464734E-029, 1.0873744E-029, 2.0825446E+001
 2.0000614E+000, 2.2479860E-001, 5.7132668E-003, 8.4112158E-003, 6.0141138E-005, 1.6308575E-004, 3.4223250E-005, 9.5569292E+001
 3.0021342E+000, 2.1840864E-001, 1.0809232E-002, 1.1691467E-002, 1.4416318E-004, 3.1545371E-004, 7.3508512E-005, 1.4453647E+002
 4.0033757E+000, 2.1359416E-001, 1.4632698E-002, 1.4159234E-002, 2.1202740E-004, 4.8125554E-004, 1.0402766E-004, 1.8540653E+002
 5.0008271E+000, 2.0792978E-001, 1.9190404E-002, 1.7059058E-002, 2.6317654E-004, 5.7487703E-004, 1.3397087E-004, 2.3038675E+002
 6.0072371E+000, 2.0166823E-001, 2.4352903E-002, 2.0243278E-002, 2.5008122E-004, 5.3489805E-004, 1.5251801E-004, 2.7706603E+002
 7.0046469E+000, 1.9298134E-001, 3.1527701E-002, 2.4658353E-002, 2.2458340E-004, 4.6656566E-004, 1.7671557E-004, 3.2789885E+002
 8.0020892E+000, 1.8512624E-001, 3.8102423E-002, 2.8639226E-002, 1.5519899E-004, 2.8709241E-004, 1.8893191E-004, 3.7296194E+002
 9.0022802E+000, 1.7751570E-001, 4.4453477E-002, 3.2496061E-002, 9.6304684E-005, 1.5194077E-004, 2.0249177E-004, 4.1116010E+002
 1.0003210E+001, 1.7139187E-001, 4.9542505E-002, 3.5602459E-002, 6.0419760E-005, 7.1193355E-005, 2.1580356E-004, 4.2977533E+002
 1.1009209E+001, 1.6429715E-001, 5.5414956E-002, 3.9205228E-002, 3.1861838E-005, 5.3524956E-006, 2.3394529E-004, 4.5232748E+002
 1.2003349E+001, 1.6207015E-001, 5.7244450E-002, 4.0338450E-002, 3.0620697E-005, 9.0266970E-007, 2.4125365E-004, 4.5240662E+002
 1.3006546E+001, 1.5360178E-001, 6.4186793E-002, 4.4650203E-002, 3.4076787E-005, 1.4111558E-007, 2.7075338E-004, 4.7122963E+002
 1.4009714E+001, 1.4744929E-001, 6.9230492E-002, 4.7782757E-002, 3.6596696E-005, 3.6725815E-008, 2.9218726E-004, 4.7920237E+002
 1.5002722E+001, 1.4032327E-001, 7.5071754E-002, 5.1411146E-002, 3.9854227E-005, 1.2543181E-007, 3.1708387E-004, 4.8847878E+002
 1.6003787E+001, 1.3321894E-001, 8.0895642E-002, 5.5028365E-002, 4.2836667E-005, 4.4504733E-008, 3.4184901E-004, 4.8729212E+002
 1.7001564E+001, 1.3113452E-001, 8.2604405E-002, 5.6089652E-002, 4.3693949E-005, 2.6113029E-008, 3.4911139E-004, 4.9559745E+002
 1.8007214E+001, 1.2481508E-001, 8.7784160E-002, 5.9307487E-002, 4.6829249E-005, 1.5132351E-007, 3.7124191E-004, 4.9688471E+002
 1.9008718E+001, 1.1469843E-001, 9.6069346E-002, 6.4461410E-002, 5.6691545E-005, 1.4877396E-006, 4.0768918E-004, 5.1841346E+002
 2.0010046E+001, 1.1644796E-001, 9.4643486E-002, 6.3567568E-002, 5.0167305E-005, 3.9357049E-008, 4.0037228E-004, 5.0194988E+002
 2.1009077E+001, 1.1483567E-001, 9.5965200E-002, 6.4388472E-002, 5.0835488E-005, 3.2069807E-008, 4.0599078E-004, 4.9222815E+002
 2.2005106E+001, 1.1389226E-001, 9.6738657E-002, 6.4868784E-002, 5.1173411E-005, 5.1839119E-009, 4.0926719E-004, 4.8750836E+002
 2.3010929E+001, 1.0881728E-001, 1.0089859E-001, 6.7452871E-002, 5.3549723E-005, 5.2645464E-008, 4.2700987E-004, 4.9775370E+002
 2.4008449E+001, 1.0551092E-001, 1.0360895E-001, 6.9136349E-002, 5.4989483E-005, 7.8437577E-008, 4.3854642E-004, 5.0298524E+002
 2.5005702E+001, 1.0334325E-001, 1.0538594E-001, 7.0240031E-002, 5.5893163E-005, 4.4330465E-008, 4.4610142E-004, 5.0496000E+002
 2.6008314E+001, 1.0244324E-001, 1.0612386E-001, 7.0698227E-002, 5.6182490E-005, 1.0526339E-008, 4.4922015E-004, 4.9498405E+002
 2.7006981E+001, 1.0020731E-001, 1.0795651E-001, 7.1836769E-002, 5.7320123E-005, 5.7369417E-008, 4.5705627E-004, 4.8801213E+002
 2.8007736E+001, 9.7019965E-002, 1.1056954E-001, 7.3459573E-002, 5.8555183E-005, 1.5135465E-008, 4.6814543E-004, 4.8759720E+002
 2.9000725E+001, 9.6316706E-002, 1.1114431E-001, 7.3818275E-002, 6.0051601E-005, 3.2607847E-007, 4.7084965E-004, 4.9525307E+002
 3.0002039E+001, 9.2557553E-002, 1.1422678E-001, 7.5731954E-002, 6.1035995E-005, 1.7795748E-007, 4.8382881E-004, 5.0543922E+002
 3.1009855E+001, 9.3000604E-002, 1.1386426E-001, 7.5506128E-002, 6.0384060E-005, 4.7803432E-008, 4.8218635E-004, 4.9418764E+002
 3.2003830E+001, 9.0352880E-002, 1.1603486E-001, 7.6854204E-002, 6.1436442E-005, 3.5823267E-009, 4.9140366E-004, 4.8770669E+002
 3.3002264E+001, 8.6690326E-002, 1.1903697E-001, 7.8719129E-002, 6.3194354E-005, 6.8596686E-008, 5.0421735E-004, 4.9627890E+002
 3.4001881E+001, 8.4194322E-002, 1.2108327E-001, 7.9989927E-002, 6.4126977E-005, 7.0204717E-009, 5.1289399E-004, 4.8972748E+002
 3.5008509E+001, 7.9919328E-002, 1.2458441E-001, 8.2167839E-002, 6.8281012E-005, 3.6540284E-007, 5.2829285E-004, 5.0195801E+002
 3.6006115E+001, 7.9336964E-002, 1.2506471E-001, 8.2463239E-002, 6.6478816E-005, 1.0962570E-007, 5.2989208E-004, 4.9557851E+002
 3.7008307E+001, 7.7552862E-002, 1.2652683E-001, 8.3371789E-002, 6.7526848E-005, 1.3812514E-007, 5.3617427E-004, 4.9922290E+002
 3.8012022E+001, 7.5235342E-002, 1.2842694E-001, 8.4551656E-002, 6.8293021E-005, 9.6080776E-008, 5.4420943E-004, 4.9189281E+002
 3.9006799E+001, 7.6461739E-002, 1.2742185E-001, 8.3927132E-002, 6.7591566E-005, 4.2773740E-008, 5.3989506E-004, 4.9226645E+002
 4.0005975E+001, 7.3763360E-002, 1.2963359E-001, 8.5301131E-002, 6.8925982E-005, 1.0753930E-007, 5.4934379E-004, 4.9771503E+002
 4.1011493E+001, 6.9823572E-002, 1.3286324E-001, 8.7307123E-002, 7.0620988E-005, 7.5464616E-008, 5.6308621E-004, 4.9980407E+002
 4.2000862E+001, 6.9367607E-002, 1.3323672E-001, 8.7539386E-002, 7.1019855E-005, 1.6011336E-007, 5.6471929E-004, 4.9552614E+002
 4.3006410E+001, 6.8030104E-002, 1.3433315E-001, 8.8220386E-002, 7.1584393E-005, 1.5268416E-007, 5.6938236E-004, 4.9812605E+002
 4.4008960E+001, 6.7527669E-002, 1.3474443E-001, 8.8476436E-002, 7.2222114E-005, 2.0477064E-007, 5.7122364E-004, 4.8717130E+002
 4.5010550E+001, 6.5359708E-002, 1.3652182E-001, 8.9580194E-002, 7.3003661E-005, 2.0086002E-007, 5.7875389E-004, 4.8854247E+002
 4.6010536E+001, 6.2970308E-002, 1.3848107E-001, 9.0796591E-002, 7.3661926E-005, 8.7221963E-008, 5.8701060E-004, 5.0255042E+002
 4.7001508E+001, 5.7964964E-002, 1.4258298E-001, 9.3345589E-002, 7.6673383E-005, 1.7227369E-007, 6.0465041E-004, 5.0691113E+002
 4.8008792E+001, 6.1540795E-002, 1.3965231E-001, 9.1524665E-002, 7.4694480E-005, 1.9068815E-007, 5.9208475E-004, 4.8945279E+002
 4.9002926E+001, 5.6280010E-002, 1.4396473E-001, 9.4203295E-002, 7.7031854E-005, 1.8814780E-007, 6.1045052E-004, 5.1003693E+002
 5.0009661E+001, 5.8397806E-002, 1.4222928E-001, 9.3124764E-002, 7.5691029E-005, 1.2130251E-007, 6.0297298E-004, 4.9296911E+002
 5.1011040E+001, 6.0401833E-002, 1.4058690E-001, 9.2104242E-002, 7.4541369E-005, 2.0763268E-008, 5.9592226E-004, 4.8186582E+002
 5.2004959E+001, 5.8909413E-002, 1.4181013E-001, 9.2864190E-002, 7.5309087E-005, 5.6578444E-008, 6.0115441E-004, 4.9444878E+002
 5.3003137E+001, 5.7533272E-002, 1.4293841E-001, 9.3564800E-002, 7.5769761E-005, 1.2449520E-008, 6.0592691E-004, 4.8724573E+002
 5.4004896E+001, 5.0857402E-002, 1.4840523E-001, 9.6966094E-002, 8.2680133E-005, 4.9768764E-007, 6.3006312E-004, 5.1482264E+002
 5.5007703E+001, 5.3755195E-002, 1.4603527E-001, 9.5488533E-002, 7.7548833E-005, 4.1332409E-008, 6.1913757E-004, 4.9041752E+002
 5.6006227E+001, 5.2680343E-002, 1.4691640E-001, 9.6035796E-002, 7.7995169E-005, 5.6370184E-008, 6.2288337E-004, 4.9005756E+002
 5.7003000E+001, 5.0455139E-002, 1.4874002E-001, 9.7168957E-002, 7.9285299E-005, 1.5811871E-007, 6.3071513E-004, 5.0211887E+002
 5.8002834E+001, 4.9613897E-002, 1.4942918E-001, 9.7597459E-002, 7.9967079E-005, 2.0529577E-007, 6.3371680E-004, 5.0025763E+002
 5.9006490E+001, 5.0039001E-002, 1.4908078E-001, 9.7380993E-002, 7.9736648E-005, 1.4104854E-007, 6.3222402E-004, 4.9784438E+002
 6.0009415E+001, 4.7461591E-002, 1.5119315E-001, 9.8693490E-002, 8.1168027E-005, 1.5494110E-007, 6.4128222E-004, 5.0253072E+002
 6.1006967E+001, 5.0667115E-002, 1.4856687E-001, 9.7060809E-002, 7.8772221E-005, 1.0526372E-008, 6.2988700E-004, 4.8904545E+002
 6.2001341E+001, 4.9428391E-002, 1.4958206E-001, 9.7691611E-002, 7.9479641E-005, 6.3096187E-008, 6.3424451E-004, 4.9097568E+002
 6.3008150E+001, 4.6202854E-002, 1.5222629E-001, 9.9333898E-002, 8.0801574E-005, 2.4558643E-008, 6.4548171E-004, 4.9689797E+002
 6.4008803E+001, 4.6827815E-002, 1.5171340E-001, 9.9015910E-002, 8.0940027E-005, 1.0187735E-007, 6.4338750E-004, 4.9160092E+002
 6.5005654E+001, 4.7315835E-002, 1.5131299E-001, 9.8767536E-002, 8.0962209E-005, 2.9190692E-007, 6.4173397E-004, 4.9981092E+002
 6.6002790E+001, 4.4852202E-002, 1.5333336E-001, 1.0002164E-001, 8.1468632E-005, 8.5173244E-008, 6.5021098E-004, 4.9170944E+002
 6.7000295E+001, 4.4602371E-002, 1.5353801E-001, 1.0014890E-001, 8.1675625E-005, 9.9104727E-008, 6.5110336E-004, 4.9551209E+002
 6.8004490E+001, 4.3290066E-002, 1.5461381E-001, 1.0081707E-001, 8.2223167E-005, 6.6474484E-008, 6.5567726E-004, 4.9052026E+002
 6.9010701E+001, 4.1902207E-002, 1.5575170E-001, 1.0152364E-001, 8.2681660E-005, 3.4992803E-008, 6.6048910E-004, 4.9183060E+002
 7.0009871E+001, 3.8438425E-002, 1.5858842E-001, 1.0328829E-001, 8.6083615E-005, 3.2113894E-007, 6.7297353E-004, 5.0719553E+002
 7.1007270E+001, 3.8933420E-002, 1.5818532E-001, 1.0303525E-001, 8.3990524E-005, 3.1518088E-008, 6.7085120E-004, 4.9756979E+002
 7.2009987E+001, 3.9124843E-002, 1.5802526E-001, 1.0293900E-001, 8.6136188E-005, 2.2905921E-007, 6.7065256E-004, 5.0243213E+002
 7.3001030E+001, 4.0202782E-002, 1.5714468E-001, 1.0238896E-001, 8.3495380E-005, 7.1858192E-008, 6.6643423E-004, 4.9096007E+002
 7.4002647E+001, 3.7643397E-002, 1.5924210E-001, 1.0369234E-001, 8.5041064E-005, 1.5582071E-007, 6.7545520E-004, 4.9469677E+002
 7.5003186E+001, 4.0633924E-002, 1.5679148E-001, 1.0216936E-001, 8.3154864E-005, 1.6447010E-008, 6.6489776E-004, 4.8980286E+002
 7.6003444E+001, 3.6846027E-002, 1.5989566E-001, 1.0409836E-001, 8.5444854E-005, 1.5426105E-007, 6.7824931E-004, 4.9975877E+002
 7.7006661E+001, 3.5612731E-002, 1.6090689E-001, 1.0472622E-001, 8.5809026E-005, 1.1478198E-007, 6.8251616E-004, 4.9556277E+002
 7.8006256E+001, 3.8483303E-002, 1.5855443E-001, 1.0326438E-001, 8.4094430E-005, 1.5660307E-008, 6.7240237E-004, 4.8924200E+002
 7.9003831E+001, 3.6604993E-002, 1.6009307E-001, 1.0422117E-001, 8.5683116E-005, 1.1636257E-007, 6.7911843E-004, 4.9614480E+002
 8.0009203E+001, 3.5011399E-002, 1.6140044E-001, 1.0503217E-001, 8.5648735E-005, 1.9174988E-008, 6.8452550E-004, 4.9132911E+002
 8.1010387E+001, 3.6889296E-002, 1.5986093E-001, 1.0407606E-001, 8.4910344E-005, 5.3417203E-008, 6.7798981E-004, 4.9612337E+002
 8.2001451E+001, 3.5896047E-002, 1.6067520E-001, 1.0458176E-001, 8.5301884E-005, 3.2125257E-008, 6.8144685E-004, 4.9010006E+002
 8.3006339E+001, 3.6023351E-002, 1.6056774E-001, 1.0451810E-001, 8.7411866E-005, 4.8147656E-007, 6.8145835E-004, 5.0287034E+002
 8.4005742E+001, 3.2942462E-002, 1.6309174E-001, 1.0608744E-001, 8.9886131E-005, 2.3433605E-007, 6.9244694E-004, 4.9918752E+002
 8.5000540E+001, 3.3647599E-002, 1.6251844E-001, 1.0572656E-001, 8.6216185E-005, 1.5148686E-008, 6.8927852E-004, 4.9147984E+002
 8.6006359E+001, 3.2763797E-002, 1.6324276E-001, 1.0617662E-001, 8.6719710E-005, 4.4029660E-008, 6.9238726E-004, 4.9844700E+002
 8.7006878E+001, 3.3866215E-002, 1.6233807E-001, 1.0561568E-001, 8.6930925E-005, 1.5453000E-007, 6.8868619E-004, 4.9742891E+002
 8.8002187E+001, 3.3316071E-002, 1.6278895E-001, 1.0589583E-001, 8.7239775E-005, 1.8708698E-007, 6.9062032E-004, 4.9795224E+002
 8.9005989E+001, 3.4535576E-002, 1.6179050E-001, 1.0527444E-001, 8.5845618E-005, 2.8237733E-008, 6.8618357E-004, 4.8693780E+002
 9.0003355E+001, 3.5774950E-002, 1.6077156E-001, 1.0464453E-001, 8.7404519E-005, 2.9556292E-007, 6.8230089E-004, 4.8999917E+002
 9.1010472E+001, 3.0478458E-002, 1.6508341E-001, 1.0735254E-001, 1.1064150E-004, 4.2044157E-006, 7.0518636E-004, 5.0470169E+002
 9.2001753E+001, 3.2311877E-002, 1.6360943E-001, 1.0640815E-001, 8.9569241E-005, 5.1244064E-007, 6.9452240E-004, 5.0807614E+002
 9.3002040E+001, 3.2010571E-002, 1.6385984E-001, 1.0656027E-001, 8.7301389E-005, 1.4189186E-007, 6.9506877E-004, 4.9687820E+002
 9.4005335E+001, 3.2299112E-002, 1.6362385E-001, 1.0641316E-001, 8.6799831E-005, 1.5337562E-008, 6.9398292E-004, 4.8711483E+002
 9.5003647E+001, 3.1371947E-002, 1.6438008E-001, 1.0688670E-001, 8.9894819E-005, 3.3305144E-007, 6.9778452E-004, 5.0224943E+002
 9.6008112E+001, 3.4092567E-002, 1.6215305E-001, 1.0550023E-001, 8.6458472E-005, 1.0685253E-007, 6.8781770E-004, 4.8826183E+002
 9.7008960E+001, 2.9105704E-002, 1.6624089E-001, 1.0803940E-001, 8.8706159E-005, 1.0723855E-007, 7.0523393E-004, 5.0444306E+002
 9.8003195E+001, 3.0271762E-002, 1.6528333E-001, 1.0744633E-001, 8.9386608E-005, 2.9864520E-007, 7.0141540E-004, 4.9968972E+002
 9.9008217E+001, 3.1088113E-002, 1.6461597E-001, 1.0702998E-001, 8.7744288E-005, 7.6935596E-008, 6.9829615E-004, 5.0167201E+002
 1.0001146E+002, 2.7150173E-002, 1.6783229E-001, 1.0903959E-001, 9.7788663E-005, 9.7665725E-007, 7.1378994E-004, 5.1361654E+002
 1.0100606E+002, 3.1942519E-002, 1.6391592E-001, 1.0659481E-001, 8.7129690E-005, 5.5355921E-008, 6.9526389E-004, 4.9468918E+002
 1.0200307E+002, 3.2634335E-002, 1.6334910E-001, 1.0624246E-001, 8.6626307E-005, 8.8055168E-009, 6.9280747E-004, 4.8947332E+002
 1.0300866E+002, 3.3251639E-002, 1.6284308E-001, 1.0592815E-001, 8.6350983E-005, 6.3667107E-009, 6.9065219E-004, 4.8268202E+002
 1.0400308E+002, 2.8287190E-002, 1.6690989E-001, 1.0845695E-001, 9.0473041E-005, 1.4747099E-007, 7.0838691E-004, 5.0147235E+002
 1.0500389E+002, 2.8107350E-002, 1.6705620E-001, 1.0854895E-001, 9.1340337E-005, 1.9926808E-007, 7.0918053E-004, 4.9901995E+002
 1.0600438E+002, 2.9154883E-002, 1.6619750E-001, 1.0801557E-001, 9.0868889E-005, 2.7018102E-007, 7.0552219E-004, 4.9578681E+002
 1.0700148E+002, 2.9613573E-002, 1.6582496E-001, 1.0778067E-001, 8.8211489E-005, 6.0945364E-008, 7.0340431E-004, 4.9354212E+002
 1.0800864E+002, 2.8707501E-002, 1.6656641E-001, 1.0824251E-001, 8.9521026E-005, 1.3950529E-007, 7.0675841E-004, 4.8934768E+002
 1.0900448E+002, 2.8834597E-002, 1.6646364E-001, 1.0817725E-001, 8.8461105E-005, 5.7896293E-008, 7.0610345E-004, 4.9404902E+002
 1.1000703E+002, 2.8173196E-002, 1.6700568E-001, 1.0851406E-001, 8.8842470E-005, 8.4437365E-008, 7.0843085E-004, 4.9716063E+002
 1.1100888E+002, 3.0314176E-002, 1.6525050E-001, 1.0742400E-001, 8.8006088E-005, 8.3827056E-008, 7.0098073E-004, 4.9444754E+002
 1.1201043E+002, 2.8767176E-002, 1.6651355E-001, 1.0821364E-001, 9.2276017E-005, 4.9862403E-007, 7.0713559E-004, 4.8916502E+002
 1.1300100E+002, 2.8489777E-002, 1.6674640E-001, 1.0835278E-001, 8.8544908E-005, 3.7652456E-008, 7.0729264E-004, 4.9503966E+002
 1.1400958E+002, 2.6379956E-002, 1.6847551E-001, 1.0942718E-001, 8.9742969E-005, 8.4901617E-008, 7.1471304E-004, 4.9867131E+002
 1.1500411E+002, 2.9669270E-002, 1.6577660E-001, 1.0775334E-001, 9.0090643E-005, 3.3721779E-007, 7.0361061E-004, 4.9747654E+002
 1.1600969E+002, 2.6680337E-002, 1.6822872E-001, 1.0927445E-001, 9.0005971E-005, 1.2624118E-007, 7.1374784E-004, 4.9841977E+002
 1.1700826E+002, 2.4536825E-002, 1.6998638E-001, 1.1036565E-001, 9.0566497E-005, 3.7669690E-008, 7.2114855E-004, 5.0617876E+002
 1.1801097E+002, 2.7272704E-002, 1.6774111E-001, 1.0897362E-001, 9.1177089E-005, 2.6723322E-007, 7.1198180E-004, 4.9303018E+002
 1.1900611E+002, 2.5934980E-002, 1.6883997E-001, 1.0965386E-001, 9.0152771E-005, 1.3413262E-007, 7.1631110E-004, 4.9444176E+002
 1.2000523E+002, 2.7099095E-002, 1.6788541E-001, 1.0906125E-001, 8.9853220E-005, 1.0451125E-007, 7.1229296E-004, 4.9497591E+002
 1.2101090E+002, 2.5228627E-002, 1.6941627E-001, 1.1001456E-001, 9.2387688E-005, 3.6133402E-007, 7.1918144E-004, 5.0352432E+002
 1.2200753E+002, 2.3979953E-002, 1.7044328E-001, 1.1064903E-001, 9.0518545E-005, 4.1640497E-008, 7.2303042E-004, 4.9747368E+002
 1.2300656E+002, 2.6149945E-002, 1.6866431E-001, 1.0954420E-001, 8.9672120E-005, 4.7668288E-008, 7.1547960E-004, 4.8959914E+002
 1.2400264E+002, 2.7237240E-002, 1.6777316E-001, 1.0899053E-001, 8.9087850E-005, 3.2244526E-008, 7.1166248E-004, 4.9809450E+002
 1.2500808E+002, 2.4734451E-002, 1.6982461E-001, 1.1026493E-001, 9.0312533E-005, 5.1845192E-008, 7.2042362E-004, 4.9936757E+002
 1.2600098E+002, 2.3059901E-002, 1.7119372E-001, 1.1111895E-001, 9.3589342E-005, 2.7133401E-007, 7.2680282E-004, 5.0720860E+002
 1.2700867E+002, 2.3703375E-002, 1.7066087E-001, 1.1079347E-001, 9.7165728E-005, 2.6276141E-007, 7.2536981E-004, 5.1129234E+002
 1.2800784E+002, 3.0117323E-002, 1.6541236E-001, 1.0752405E-001, 8.7749706E-005, 1.6804683E-008, 7.0159560E-004, 4.9012473E+002
 1.2900954E+002, 2.6485313E-002, 1.6837361E-001, 1.0937951E-001, 1.0067467E-004, 1.3831936E-006, 7.1665628E-004, 5.0048168E+002
 1.3001034E+002, 2.7930122E-002, 1.6720424E-001, 1.0863810E-001, 8.9450328E-005, 1.2546219E-007, 7.0938468E-004, 4.9855009E+002
 1.3100248E+002, 2.8815220E-002, 1.6647865E-001, 1.0818745E-001, 8.9093530E-005, 1.1654040E-007, 7.0630242E-004, 4.9963943E+002
 1.3200863E+002, 2.6260327E-002, 1.6857383E-001, 1.0948799E-001, 8.9616842E-005, 5.8618665E-008, 7.1509293E-004, 4.9417340E+002
 1.3300892E+002, 2.6404224E-002, 1.6845559E-001, 1.0941483E-001, 8.9754761E-005, 7.0432852E-008, 7.1463308E-004, 4.9792259E+002
 1.3401070E+002, 2.6748580E-002, 1.6817331E-001, 1.0923950E-001, 8.9602551E-005, 6.9504429E-008, 7.1343107E-004, 4.9040635E+002
 1.3500684E+002, 2.7358444E-002, 1.6767351E-001, 1.0892893E-001, 8.9244337E-005, 8.0480041E-008, 7.1128361E-004, 4.9360422E+002
 1.3600353E+002, 2.6942886E-002, 1.6800537E-001, 1.0914397E-001, 9.5681689E-005, 4.4920228E-007, 7.1405089E-004, 4.9995821E+002
 1.3700105E+002, 2.5018577E-002, 1.6959169E-001, 1.1012027E-001, 9.0199322E-005, 2.9042099E-008, 7.1943447E-004, 4.9556253E+002
 1.3800868E+002, 2.3113486E-002, 1.7115268E-001, 1.1109055E-001, 9.1522700E-005, 9.1597001E-008, 7.2618567E-004, 5.0068920E+002
 1.3900374E+002, 2.5214717E-002, 1.6943098E-001, 1.1002037E-001, 9.0057994E-005, 3.7790275E-008, 7.1873832E-004, 5.0074453E+002
 1.4000820E+002, 2.5780155E-002, 1.6896603E-001, 1.0973302E-001, 9.0823846E-005, 2.0056958E-007, 7.1697840E-004, 4.9831032E+002
 1.4100411E+002, 2.3624517E-002, 1.7073332E-001, 1.1083052E-001, 9.1619117E-005, 9.4504523E-008, 7.2446975E-004, 5.0010181E+002
 1.4200683E+002, 2.5592109E-002, 1.6912037E-001, 1.0982869E-001, 9.0767034E-005, 1.9739435E-007, 7.1760532E-004, 5.0113803E+002
 1.4300139E+002, 2.6662844E-002, 1.6824371E-001, 1.0928311E-001, 8.9558099E-005, 7.6855841E-008, 7.1371300E-004, 4.9489908E+002
 1.4400771E+002, 2.2367408E-002, 1.7176286E-001, 1.1147096E-001, 9.2839911E-005, 2.1226159E-007, 7.2899779E-004, 5.0437367E+002
 1.4500290E+002, 2.7037849E-002, 1.6793638E-001, 1.0909214E-001, 8.9341943E-005, 4.3075620E-008, 7.1239342E-004, 4.9202303E+002
 1.4600941E+002, 2.5522432E-002, 1.6917692E-001, 1.0986436E-001, 9.1186279E-005, 3.5191424E-007, 7.1793022E-004, 5.0609150E+002
 1.4700673E+002, 2.8447420E-002, 1.6677530E-001, 1.0837658E-001, 9.2670988E-005, 5.6651886E-007, 7.0830508E-004, 4.9408064E+002
 1.4800623E+002, 2.4026606E-002, 1.7039456E-001, 1.1062938E-001, 9.7949581E-005, 5.5034128E-007, 7.2443649E-004, 5.1234573E+002
 1.4901095E+002, 2.1358558E-002, 1.7258814E-001, 1.1198527E-001, 9.4479503E-005, 4.5181640E-007, 7.3277047E-004, 5.1899098E+002
 1.5001132E+002, 2.5950134E-002, 1.6882732E-001, 1.0964623E-001, 9.0308863E-005, 1.4980336E-007, 7.1629248E-004, 4.8930584E+002
 1.5100180E+002, 2.4409220E-002, 1.7008472E-001, 1.1043303E-001, 9.5048378E-005, 5.8184467E-007, 7.2252554E-004, 5.0520727E+002
 1.5201016E+002, 2.3468578E-002, 1.7086129E-001, 1.1090987E-001, 9.1584169E-005, 7.5398337E-008, 7.2499221E-004, 4.9569543E+002
 1.5300022E+002, 2.6300122E-002, 1.6853987E-001, 1.0946825E-001, 9.0551226E-005, 1.4088633E-007, 7.1515444E-004, 4.9565255E+002
 1.5400372E+002, 2.5036488E-002, 1.6956818E-001, 1.1011462E-001, 9.6476691E-005, 4.1767919E-007, 7.2069533E-004, 4.9393824E+002
