s,,,,,,,
Time,"O2 EXHAUST","CO2 EXHAUST","H2O EXHAUST","CO EXHAUST","FUEL EXHAUST","SOOT EXHAUST","TEMP EXHAUST"
 0.0000000E+000, 2.3118142E-001, 5.9193618E-004, 5.1492695E-003, 0.0000000E+000, 0.0000000E+000, 0.0000000E+000, 2.0000000E+001
 1.0013274E+000, 2.3118142E-001, 5.9193618E-004, 5.1492695E-003, 6.5275074E-029, 1.0736806E-028, 1.5610172E-029, 2.0831230E+001
 2.0030301E+000, 2.2493650E-001, 5.6093833E-003, 8.3422797E-003, 5.6903170E-005, 1.3822699E-004, 3.3092355E-005, 9.1754754E+001
 3.0021527E+000, 2.1861511E-001, 1.0632200E-002, 1.1589089E-002, 1.4940181E-004, 3.1732928E-004, 7.3908814E-005, 1.4208655E+002
 4.0000764E+000, 2.1173392E-001, 1.6080683E-002, 1.5119949E-002, 2.5617995E-004, 5.6826667E-004, 1.1957800E-004, 1.9860052E+002
 5.0033868E+000, 2.0703120E-001, 1.9925349E-002, 1.7524812E-002, 2.6994464E-004, 5.3690473E-004, 1.3847899E-004, 2.3586452E+002
 6.0067396E+000, 1.9948635E-001, 2.6156644E-002, 2.1356686E-002, 2.4601539E-004, 4.9193150E-004, 1.5910844E-004, 2.8722344E+002
 7.0022630E+000, 1.9152049E-001, 3.2744772E-002, 2.5402546E-002, 2.1682643E-004, 4.2528418E-004, 1.8007764E-004, 3.3908656E+002
 8.0035378E+000, 1.8631393E-001, 3.7107897E-002, 2.8039291E-002, 1.6723236E-004, 3.0520960E-004, 1.8741674E-004, 3.6744896E+002
 9.0005524E+000, 1.7831296E-001, 4.3785419E-002, 3.2093588E-002, 1.0475524E-004, 1.6380563E-004, 2.0155345E-004, 4.0077000E+002
 1.0000447E+001, 1.6788833E-001, 5.2431779E-002, 3.7383744E-002, 5.2520574E-005, 4.9403727E-005, 2.2606039E-004, 4.4035012E+002
 1.1003071E+001, 1.6242149E-001, 5.6946955E-002, 4.0161252E-002, 3.5827557E-005, 1.1495716E-005, 2.4114820E-004, 4.5441554E+002
 1.2008593E+001, 1.5830111E-001, 6.0333881E-002, 4.2257595E-002, 3.2412933E-005, 8.8255085E-007, 2.5443642E-004, 4.5955427E+002
 1.3011089E+001, 1.5182994E-001, 6.5639391E-002, 4.5552320E-002, 3.4755441E-005, 6.1675766E-008, 2.7691621E-004, 4.6464927E+002
 1.4003475E+001, 1.4423110E-001, 7.1868473E-002, 4.9421383E-002, 3.8070470E-005, 5.6144053E-008, 3.0343143E-004, 4.7728496E+002
 1.5002191E+001, 1.3648618E-001, 7.8217373E-002, 5.3364796E-002, 4.1398550E-005, 5.4565420E-008, 3.3044570E-004, 4.8619521E+002
 1.6006669E+001, 1.3173242E-001, 8.2114260E-002, 5.5785232E-002, 4.3449212E-005, 2.7944968E-008, 3.4702849E-004, 4.8761959E+002
 1.7005350E+001, 1.2315429E-001, 8.9145357E-002, 6.0153171E-002, 4.7698408E-005, 2.3691077E-007, 3.7706741E-004, 4.9650226E+002
 1.8009122E+001, 1.1409185E-001, 9.6574098E-002, 6.4767489E-002, 5.1731188E-005, 2.4255708E-007, 4.0870635E-004, 5.1418366E+002
 1.9002082E+001, 1.1115543E-001, 9.8981196E-002, 6.6262609E-002, 5.3013092E-005, 2.6399322E-007, 4.1895279E-004, 5.0246680E+002
 2.0001804E+001, 1.0143618E-001, 1.0694680E-001, 7.1211949E-002, 5.8428887E-005, 4.3590931E-007, 4.5311442E-004, 5.1758992E+002
 2.1002717E+001, 1.0102134E-001, 1.0728731E-001, 7.1422988E-002, 5.8286510E-005, 4.2797853E-007, 4.5449384E-004, 5.2025081E+002
 2.2010256E+001, 9.8040156E-002, 1.0973285E-001, 7.2940269E-002, 5.8382165E-005, 1.0191624E-007, 4.6464282E-004, 5.0812087E+002
 2.3001688E+001, 9.3045978E-002, 1.1382640E-001, 7.5483279E-002, 6.0831514E-005, 1.0828796E-007, 4.8212637E-004, 5.0326994E+002
 2.4001789E+001, 8.3360503E-002, 1.2176643E-001, 8.0414609E-002, 6.4739501E-005, 7.4098201E-008, 5.1585584E-004, 5.1872141E+002
 2.5003720E+001, 8.2921417E-002, 1.2212653E-001, 8.0638115E-002, 6.4817290E-005, 5.1690883E-008, 5.1736403E-004, 5.0802492E+002
 2.6009573E+001, 7.6413358E-002, 1.2745973E-001, 8.3952422E-002, 6.8852663E-005, 3.4769771E-007, 5.4032478E-004, 5.1645437E+002
 2.7003705E+001, 7.1839144E-002, 1.3120954E-001, 8.6281403E-002, 7.0756161E-005, 3.0962334E-007, 5.5626659E-004, 5.2116352E+002
 2.8008710E+001, 7.0438841E-002, 1.3235899E-001, 8.6993806E-002, 7.0271955E-005, 6.6908693E-008, 5.6092234E-004, 5.0292462E+002
 2.9000897E+001, 6.5478913E-002, 1.3642201E-001, 8.9520266E-002, 7.4403256E-005, 5.5835761E-007, 5.7864336E-004, 5.1266635E+002
 3.0003549E+001, 6.3968978E-002, 1.3766237E-001, 9.0288119E-002, 7.3256045E-005, 1.0036349E-007, 5.8353213E-004, 5.0828816E+002
 3.1007708E+001, 5.9079065E-002, 1.4167066E-001, 9.2777949E-002, 7.5507655E-005, 1.5964596E-007, 6.0061976E-004, 5.2278417E+002
 3.2012141E+001, 5.6515016E-002, 1.4376764E-001, 9.4085328E-002, 8.0057269E-005, 6.7353838E-007, 6.1028886E-004, 5.1698742E+002
 3.3011821E+001, 5.6756301E-002, 1.4357513E-001, 9.3960476E-002, 7.6243061E-005, 5.7403868E-008, 6.0866631E-004, 5.0254636E+002
 3.4010049E+001, 4.5362775E-002, 1.5290991E-001, 9.9763560E-002, 8.4711534E-005, 4.9275174E-007, 6.4915894E-004, 5.3315638E+002
 3.5002807E+001, 4.9502619E-002, 1.4952101E-001, 9.7653903E-002, 7.9598732E-005, 4.9858607E-008, 6.3401741E-004, 4.9983170E+002
 3.6003174E+001, 4.5735195E-002, 1.5260965E-001, 9.9572015E-002, 8.1008827E-005, 2.9123390E-008, 6.4711422E-004, 5.0542696E+002
 3.7001616E+001, 4.2821177E-002, 1.5499749E-001, 1.0105608E-001, 8.2913386E-005, 9.0140217E-008, 6.5741565E-004, 5.0443627E+002
 3.8009295E+001, 3.6065459E-002, 1.6052765E-001, 1.0449878E-001, 9.1316679E-005, 1.0430933E-006, 6.8213719E-004, 5.2142654E+002
 3.9006151E+001, 3.5654240E-002, 1.6086863E-001, 1.0470675E-001, 8.8801296E-005, 3.1264996E-007, 6.8300515E-004, 5.1035180E+002
 4.0005273E+001, 3.3656982E-002, 1.6251065E-001, 1.0572182E-001, 8.6277154E-005, 3.1990854E-008, 6.8925947E-004, 5.0378228E+002
 4.1002338E+001, 2.9258156E-002, 1.6611308E-001, 1.0796288E-001, 9.0653280E-005, 2.9321180E-007, 7.0512589E-004, 5.1260081E+002
 4.2012243E+001, 2.8527481E-002, 1.6671332E-001, 1.0833439E-001, 9.0044984E-005, 3.4744069E-007, 7.0748021E-004, 5.0425629E+002
 4.3009117E+001, 1.9372031E-002, 1.7420013E-001, 1.1300317E-001, 1.0703144E-004, 1.3470161E-006, 7.4216242E-004, 5.2759427E+002
 4.4002583E+001, 2.2462111E-002, 1.7168706E-001, 1.1142196E-001, 9.1448197E-005, 4.6706207E-007, 7.2838274E-004, 5.0750574E+002
 4.5000123E+001, 1.2316908E-002, 1.7990653E-001, 1.1662639E-001, 1.6544246E-004, 7.8438826E-007, 7.7843400E-004, 5.4057580E+002
 4.6008408E+001, 1.1215442E-002, 1.8085743E-001, 1.1716796E-001, 1.3147684E-004, 7.6189426E-007, 7.7502310E-004, 5.2687696E+002
 4.7003581E+001, 6.9599014E-003, 1.8401138E-001, 1.1946875E-001, 3.7329373E-004, 1.8997118E-006, 8.4040699E-004, 5.3724615E+002
 4.8011289E+001, 1.0314226E-002, 1.8164533E-001, 1.1760726E-001, 9.6697521E-005, 3.4716655E-008, 7.7076104E-004, 5.1092539E+002
 4.9010305E+001, 9.0122528E-003, 1.8268338E-001, 1.1828178E-001, 1.1815972E-004, 6.8920818E-007, 7.7970391E-004, 5.0897806E+002
 5.0005727E+001, 5.5053557E-003, 1.8549100E-001, 1.2009424E-001, 1.6783271E-004, 1.0200145E-006, 8.0207946E-004, 5.1403070E+002
 5.1004895E+001, 3.4347510E-003, 1.8683878E-001, 1.2128292E-001, 4.1563985E-004, 3.0612397E-005, 8.6127922E-004, 5.1489489E+002
 5.2004515E+001, 8.3518573E-004, 1.8688739E-001, 1.2341690E-001, 1.8941937E-003, 1.5787456E-004, 1.1813943E-003, 5.1562022E+002
 5.3001962E+001, 1.4595832E-003, 1.8632021E-001, 1.2310736E-001, 1.9241634E-003, 2.2729223E-004, 1.1855300E-003, 5.0388217E+002
 5.4011565E+001, 6.3648228E-005, 1.8374455E-001, 1.2507572E-001, 4.4337375E-003, 1.4089930E-003, 1.7178602E-003, 4.9669000E+002
 5.5010808E+001, 4.4995501E-004, 1.8666563E-001, 1.2380706E-001, 2.2653470E-003, 2.6693423E-004, 1.2607823E-003, 5.0332229E+002
 5.6009001E+001, 1.4534089E-004, 1.8310127E-001, 1.2522504E-001, 4.8197140E-003, 1.6117336E-003, 1.7987100E-003, 4.9236894E+002
 5.7005048E+001, 6.7802833E-005, 1.7988930E-001, 1.2638031E-001, 7.0347429E-003, 2.6098987E-003, 2.2646739E-003, 4.8080813E+002
 5.8002032E+001, 1.2955391E-004, 1.8286069E-001, 1.2541644E-001, 5.0576702E-003, 1.2019490E-003, 1.8491990E-003, 4.8466637E+002
 5.9011238E+001, 8.1187548E-005, 1.7894437E-001, 1.2685863E-001, 7.7808152E-003, 2.0560174E-003, 2.4221861E-003, 4.7403018E+002
 6.0005111E+001, 8.2819401E-005, 1.7922701E-001, 1.2672954E-001, 7.5671609E-003, 2.1277690E-003, 2.3771287E-003, 4.7319012E+002
 6.1000624E+001, 7.0152055E-005, 1.7924268E-001, 1.2669331E-001, 7.5355595E-003, 2.3314336E-003, 2.3703565E-003, 4.6764552E+002
 6.2011351E+001, 6.7004945E-005, 1.7890144E-001, 1.2683274E-001, 7.7822669E-003, 2.3321830E-003, 2.4223231E-003, 4.6471218E+002
 6.3009171E+001, 6.1326624E-005, 1.7855946E-001, 1.2694688E-001, 8.0119833E-003, 2.4721438E-003, 2.4706107E-003, 4.5938928E+002
 6.4004765E+001, 5.3167948E-005, 1.7599366E-001, 1.2775752E-001, 9.7036967E-003, 3.6065947E-003, 2.8260218E-003, 4.5964942E+002
 6.5000738E+001, 5.1213343E-005, 1.7446020E-001, 1.2833352E-001, 1.0777470E-002, 3.8127984E-003, 3.0520029E-003, 4.5692108E+002
 6.6008268E+001, 6.2000436E-005, 1.7647047E-001, 1.2764610E-001, 9.4161159E-003, 3.1680098E-003, 2.7657718E-003, 4.5777935E+002
 6.7002755E+001, 5.5479363E-005, 1.7486158E-001, 1.2815673E-001, 1.0478514E-002, 3.8736868E-003, 2.9889804E-003, 4.5046754E+002
 6.8005241E+001, 5.5897709E-005, 1.7408517E-001, 1.2840338E-001, 1.0991312E-002, 4.1980579E-003, 3.0967194E-003, 4.4704560E+002
 6.9010136E+001, 5.0248981E-005, 1.7340265E-001, 1.2872506E-001, 1.1514087E-002, 3.9819952E-003, 3.2070046E-003, 4.6085789E+002
 7.0007391E+001, 4.3813429E-005, 1.7468245E-001, 1.2832471E-001, 1.0673155E-002, 3.4403111E-003, 3.0303518E-003, 4.5358495E+002
 7.1013153E+001, 4.3095710E-005, 1.7154857E-001, 1.2918462E-001, 1.2650002E-002, 5.4408793E-003, 3.4451064E-003, 4.4406360E+002
 7.2010935E+001, 4.9464005E-005, 1.7144008E-001, 1.2921899E-001, 1.2721506E-002, 5.4601016E-003, 3.4601284E-003, 4.3481750E+002
 7.3005325E+001, 4.9788571E-005, 1.7100645E-001, 1.2944704E-001, 1.3069817E-002, 5.1874833E-003, 3.5336956E-003, 4.4572207E+002
 7.4012113E+001, 4.7565317E-005, 1.7062863E-001, 1.2960703E-001, 1.3346798E-002, 5.1548537E-003, 3.5920609E-003, 4.3982920E+002
 7.5013247E+001, 4.9647204E-005, 1.6932576E-001, 1.3000602E-001, 1.4197067E-002, 5.7681744E-003, 3.7706385E-003, 4.3741424E+002
 7.6008251E+001, 5.2974601E-005, 1.6901168E-001, 1.3006137E-001, 1.4373997E-002, 6.1091988E-003, 3.8076208E-003, 4.3408999E+002
 7.7008466E+001, 5.7684339E-005, 1.6717124E-001, 1.3042475E-001, 1.5437757E-002, 7.9736164E-003, 4.0301681E-003, 4.3102324E+002
 7.8005303E+001, 5.3737701E-005, 1.6670794E-001, 1.3070664E-001, 1.5836188E-002, 7.5083704E-003, 4.1144563E-003, 4.3427288E+002
 7.9010746E+001, 5.7623510E-005, 1.6601887E-001, 1.3080559E-001, 1.6208995E-002, 8.3837802E-003, 4.1922686E-003, 4.3274076E+002
 8.0001801E+001, 5.7382619E-005, 1.6638558E-001, 1.3070805E-001, 1.5979793E-002, 8.1355731E-003, 4.1441944E-003, 4.3240463E+002
 8.1006361E+001, 5.3695048E-005, 1.6639805E-001, 1.3071976E-001, 1.5982351E-002, 8.0671816E-003, 4.1447994E-003, 4.3743317E+002
 8.2009910E+001, 5.2044508E-005, 1.6501597E-001, 1.3133622E-001, 1.7016858E-002, 7.7638991E-003, 4.3629102E-003, 4.3929437E+002
 8.3001899E+001, 5.1987166E-005, 1.6474030E-001, 1.3131968E-001, 1.7127542E-002, 8.4026721E-003, 4.3857187E-003, 4.3301261E+002
 8.4008303E+001, 6.1050858E-005, 1.6299622E-001, 1.3193684E-001, 1.8322606E-002, 8.7802813E-003, 4.6370715E-003, 4.2547295E+002
 8.5006787E+001, 6.6011132E-005, 1.6397269E-001, 1.3167937E-001, 1.7713764E-002, 8.0844554E-003, 4.5093792E-003, 4.2611132E+002
 8.6005763E+001, 7.9562627E-005, 1.6238275E-001, 1.3191412E-001, 1.8578317E-002, 1.0052709E-002, 4.6898619E-003, 4.2456678E+002
 8.7005068E+001, 7.6691938E-005, 1.6220515E-001, 1.3200719E-001, 1.8720786E-002, 9.9553833E-003, 4.7199519E-003, 4.2784446E+002
 8.8001343E+001, 8.4430074E-005, 1.6060981E-001, 1.3230884E-001, 1.9633681E-002, 1.1623063E-002, 4.9108713E-003, 4.2734614E+002
 8.9010140E+001, 7.4722135E-005, 1.5989214E-001, 1.3264681E-001, 2.0183244E-002, 1.1413130E-002, 5.0268069E-003, 4.2565695E+002
 9.0009168E+001, 7.3672285E-005, 1.5864806E-001, 1.3292890E-001, 2.0927378E-002, 1.2508129E-002, 5.1826649E-003, 4.2774845E+002
 9.1008462E+001, 7.6410241E-005, 1.5964596E-001, 1.3266607E-001, 2.0305394E-002, 1.1805413E-002, 5.0522179E-003, 4.2969904E+002
 9.2009687E+001, 7.7461607E-005, 1.5891286E-001, 1.3285611E-001, 2.0760195E-002, 1.2324064E-002, 5.1475878E-003, 4.2562726E+002
 9.3000410E+001, 7.9808394E-005, 1.5841767E-001, 1.3315683E-001, 2.1185563E-002, 1.1802098E-002, 5.2375722E-003, 4.2609612E+002
 9.4010184E+001, 9.3153850E-005, 1.5816974E-001, 1.3320750E-001, 2.1329863E-002, 1.1991110E-002, 5.2677681E-003, 4.2302104E+002
 9.5004032E+001, 9.1305832E-005, 1.5758475E-001, 1.3338338E-001, 2.1709435E-002, 1.2294615E-002, 5.3474736E-003, 4.2147719E+002
 9.6008795E+001, 9.8342603E-005, 1.5343082E-001, 1.3465266E-001, 2.4418397E-002, 1.4262585E-002, 5.9164107E-003, 4.2125464E+002
 9.7001182E+001, 1.0416823E-004, 1.5527040E-001, 1.3401131E-001, 2.3164257E-002, 1.3751384E-002, 5.6526709E-003, 4.2001983E+002
 9.8012223E+001, 1.0893321E-004, 1.5485646E-001, 1.3394503E-001, 2.3301964E-002, 1.4898290E-002, 5.6807548E-003, 4.1925812E+002
 9.9010544E+001, 9.3139052E-005, 1.5505170E-001, 1.3428824E-001, 2.3451118E-002, 1.2847949E-002, 5.7138307E-003, 4.2351348E+002
 1.0000736E+002, 9.9712552E-005, 1.5472158E-001, 1.3424848E-001, 2.3569883E-002, 1.3685209E-002, 5.7381627E-003, 4.1975887E+002
 1.0101318E+002, 1.0102704E-004, 1.5402822E-001, 1.3442297E-001, 2.3996425E-002, 1.4200765E-002, 5.8275830E-003, 4.1862844E+002
 1.0200916E+002, 9.6236190E-005, 1.5306156E-001, 1.3473750E-001, 2.4640056E-002, 1.4589549E-002, 5.9628424E-003, 4.2480616E+002
 1.0300358E+002, 1.1576997E-004, 1.5225625E-001, 1.3509140E-001, 2.5238915E-002, 1.4353208E-002, 6.0890813E-003, 4.1745951E+002
 1.0400562E+002, 1.1703967E-004, 1.5127428E-001, 1.3541107E-001, 2.5892760E-002, 1.4721579E-002, 6.2264871E-003, 4.1602263E+002
 1.0501023E+002, 1.1883135E-004, 1.5050221E-001, 1.3562137E-001, 2.6378690E-002, 1.5213946E-002, 6.3284311E-003, 4.1992478E+002
 1.0600117E+002, 1.2938463E-004, 1.5041065E-001, 1.3571399E-001, 2.6482577E-002, 1.4888953E-002, 6.3505290E-003, 4.1617649E+002
 1.0700793E+002, 1.4208540E-004, 1.4939539E-001, 1.3609263E-001, 2.7191441E-002, 1.4980172E-002, 6.4997007E-003, 4.1298728E+002
 1.0800689E+002, 1.3754913E-004, 1.4877057E-001, 1.3634207E-001, 2.7639113E-002, 1.5005901E-002, 6.5939757E-003, 4.1303957E+002
 1.0900934E+002, 1.3896518E-004, 1.4747294E-001, 1.3662759E-001, 2.8409268E-002, 1.6181239E-002, 6.7552421E-003, 4.1453833E+002
 1.1000519E+002, 1.3958160E-004, 1.4766433E-001, 1.3666742E-001, 2.8351857E-002, 1.5592943E-002, 6.7436113E-003, 4.1936743E+002
 1.1100623E+002, 1.3853039E-004, 1.4701702E-001, 1.3702774E-001, 2.8885470E-002, 1.5092573E-002, 6.8563866E-003, 4.1602766E+002
 1.1200990E+002, 1.3951988E-004, 1.4614580E-001, 1.3752956E-001, 2.9615201E-002, 1.4324307E-002, 7.0106680E-003, 4.1708234E+002
 1.1300464E+002, 1.4597069E-004, 1.4444096E-001, 1.3780453E-001, 3.0558296E-002, 1.6352033E-002, 7.2076688E-003, 4.1425447E+002
 1.1400200E+002, 1.6250179E-004, 1.4399011E-001, 1.3791858E-001, 3.0835835E-002, 1.6618328E-002, 7.2658531E-003, 4.1401232E+002
 1.1500900E+002, 1.5023632E-004, 1.4385970E-001, 1.3810754E-001, 3.1023302E-002, 1.5983921E-002, 7.3058737E-003, 4.1617306E+002
 1.1600547E+002, 1.6198937E-004, 1.4446290E-001, 1.3797315E-001, 3.0663985E-002, 1.5393702E-002, 7.2306252E-003, 4.1673508E+002
 1.1700990E+002, 1.5143736E-004, 1.4252267E-001, 1.3844309E-001, 3.1845196E-002, 1.6988393E-002, 7.4781712E-003, 4.1550473E+002
 1.1800293E+002, 1.6228041E-004, 1.4151370E-001, 1.3896995E-001, 3.2652933E-002, 1.6330503E-002, 7.6487603E-003, 4.1266089E+002
 1.1900689E+002, 1.9723814E-004, 1.4011078E-001, 1.3927805E-001, 3.3484698E-002, 1.7463476E-002, 7.8229211E-003, 4.1005137E+002
 1.2000297E+002, 1.7867682E-004, 1.4003807E-001, 1.3933858E-001, 3.3558651E-002, 1.7384200E-002, 7.8386210E-003, 4.1503674E+002
 1.2101077E+002, 1.6921524E-004, 1.3892963E-001, 1.3962272E-001, 3.4244268E-002, 1.8230955E-002, 7.9823788E-003, 4.1511168E+002
 1.2201423E+002, 1.5901415E-004, 1.4022110E-001, 1.3944301E-001, 3.3549525E-002, 1.6573708E-002, 7.8374026E-003, 4.1687992E+002
 1.2301368E+002, 1.6536309E-004, 1.3834929E-001, 1.3994634E-001, 3.4723113E-002, 1.7791714E-002, 8.0835816E-003, 4.1667801E+002
 1.2400693E+002, 1.7824550E-004, 1.3739514E-001, 1.3997903E-001, 3.5167693E-002, 1.9496171E-002, 8.1758274E-003, 4.1499469E+002
 1.2500938E+002, 2.0724255E-004, 1.3746975E-001, 1.4030222E-001, 3.5355875E-002, 1.7600951E-002, 8.2168486E-003, 4.1180325E+002
 1.2600761E+002, 1.9181759E-004, 1.3572735E-001, 1.4088792E-001, 3.6528974E-002, 1.8236175E-002, 8.4634565E-003, 4.1465791E+002
 1.2701408E+002, 1.8721500E-004, 1.3585368E-001, 1.4079551E-001, 3.6409756E-002, 1.8464969E-002, 8.4381852E-003, 4.1527648E+002
 1.2800505E+002, 1.8968516E-004, 1.3634489E-001, 1.4070409E-001, 3.6129599E-002, 1.7923740E-002, 8.3796008E-003, 4.1645977E+002
 1.2901019E+002, 1.7449124E-004, 1.3526625E-001, 1.4095618E-001, 3.6780126E-002, 1.8895529E-002, 8.5158901E-003, 4.1760717E+002
 1.3000143E+002, 1.7478563E-004, 1.3603393E-001, 1.4088933E-001, 3.6394479E-002, 1.7682922E-002, 8.4356243E-003, 4.1564302E+002
 1.3101497E+002, 1.7981860E-004, 1.3412547E-001, 1.4166217E-001, 3.7769118E-002, 1.7627048E-002, 8.7251496E-003, 4.1705122E+002
 1.3200641E+002, 2.1425657E-004, 1.3204387E-001, 1.4221457E-001, 3.9068825E-002, 1.8903136E-002, 8.9977483E-003, 4.1392636E+002
 1.3300345E+002, 2.3673452E-004, 1.3089380E-001, 1.4278501E-001, 3.9968733E-002, 1.8261849E-002, 9.1876961E-003, 4.1153948E+002
 1.3400953E+002, 2.1816257E-004, 1.3116528E-001, 1.4249516E-001, 3.9650075E-002, 1.9248324E-002, 9.1198749E-003, 4.1413109E+002
 1.3501330E+002, 1.9927543E-004, 1.3150103E-001, 1.4250200E-001, 3.9506414E-002, 1.8616855E-002, 9.0901802E-003, 4.1576932E+002
 1.3600189E+002, 2.0395234E-004, 1.3100168E-001, 1.4284727E-001, 3.9964138E-002, 1.7869799E-002, 9.1871476E-003, 4.1583347E+002
 1.3700760E+002, 2.0019655E-004, 1.3057815E-001, 1.4268599E-001, 4.0041069E-002, 1.9548944E-002, 9.2020432E-003, 4.1788050E+002
 1.3800109E+002, 1.9012676E-004, 1.3071794E-001, 1.4270531E-001, 3.9992585E-002, 1.9212561E-002, 9.1921309E-003, 4.1714047E+002
 1.3901307E+002, 2.1672264E-004, 1.2973314E-001, 1.4323765E-001, 4.0793156E-002, 1.8412207E-002, 9.3612691E-003, 4.1438797E+002
 1.4000180E+002, 2.3043976E-004, 1.2856518E-001, 1.4335458E-001, 4.1390124E-002, 2.0121010E-002, 9.4856018E-003, 4.1316350E+002
 1.4100217E+002, 2.1977421E-004, 1.2856918E-001, 1.4360328E-001, 4.1559046E-002, 1.8909016E-002, 9.5221649E-003, 4.1415403E+002
 1.4200243E+002, 2.1041617E-004, 1.2800885E-001, 1.4379697E-001, 4.1940022E-002, 1.9105000E-002, 9.6022761E-003, 4.1554931E+002
 1.4300527E+002, 2.1023699E-004, 1.2687321E-001, 1.4397485E-001, 4.2564680E-002, 2.0501098E-002, 9.7327330E-003, 4.1536315E+002
 1.4401402E+002, 2.2510971E-004, 1.2549983E-001, 1.4487595E-001, 4.3790284E-002, 1.8681443E-002, 9.9922237E-003, 4.1552545E+002
 1.4501507E+002, 2.3568689E-004, 1.2421463E-001, 1.4498825E-001, 4.4436021E-002, 2.0662986E-002, 1.0126623E-002, 4.1517108E+002
 1.4600234E+002, 2.3692624E-004, 1.2582340E-001, 1.4456155E-001, 4.3431303E-002, 1.9558357E-002, 9.9158933E-003, 4.1534635E+002
 1.4701541E+002, 2.1017615E-004, 1.2582297E-001, 1.4435906E-001, 4.3293017E-002, 2.0688589E-002, 9.8859735E-003, 4.1935028E+002
 1.4800687E+002, 2.2296420E-004, 1.2451805E-001, 1.4499405E-001, 4.4305870E-002, 2.0075982E-002, 1.0099718E-002, 4.1851384E+002
 1.4900480E+002, 2.3770209E-004, 1.2420971E-001, 1.4526902E-001, 4.4630695E-002, 1.9254613E-002, 1.0168721E-002, 4.1569362E+002
 1.5000258E+002, 2.3689562E-004, 1.2365661E-001, 1.4527486E-001, 4.4879541E-002, 2.0343263E-002, 1.0220275E-002, 4.1603481E+002
 1.5100613E+002, 2.3712924E-004, 1.2400739E-001, 1.4541877E-001, 4.4822949E-002, 1.8912802E-002, 1.0209480E-002, 4.1846946E+002
 1.5200917E+002, 2.3780659E-004, 1.2328638E-001, 1.4549909E-001, 4.5197161E-002, 1.9959633E-002, 1.0287464E-002, 4.1819988E+002
 1.5301016E+002, 2.4661493E-004, 1.2232427E-001, 1.4562804E-001, 4.5711328E-002, 2.1213905E-002, 1.0394733E-002, 4.1756527E+002
 1.5401185E+002, 2.2112421E-004, 1.2371102E-001, 1.4537893E-001, 4.4927040E-002, 1.9777429E-002, 1.0230777E-002, 4.1818960E+002
