s,,,,,,,
Time,"O2 EXHAUST","CO2 EXHAUST","H2O EXHAUST","CO EXHAUST","FUEL EXHAUST","SOOT EXHAUST","TEMP EXHAUST"
 0.0000000E+000, 2.3118142E-001, 5.9193618E-004, 5.1492695E-003, 0.0000000E+000, 0.0000000E+000, 0.0000000E+000, 2.0000000E+001
 1.0026105E+000, 2.3118142E-001, 5.9193618E-004, 5.1492695E-003, 5.1238150E-031, 2.9139962E-030, 1.4215049E-031, 2.0386322E+001
 2.0023925E+000, 2.2479443E-001, 5.5532070E-003, 9.3195373E-003, 2.2815872E-005, 1.8765662E-004, 3.3706526E-005, 9.2439717E+001
 3.0048938E+000, 2.1996136E-001, 9.3064228E-003, 1.2488440E-002, 4.7349017E-005, 2.7843804E-004, 6.0779081E-005, 1.2635257E+002
 4.0022088E+000, 2.1652909E-001, 1.1907913E-002, 1.4742757E-002, 9.5019381E-005, 4.5684295E-004, 8.6179617E-005, 1.6099944E+002
 5.0059284E+000, 2.1406223E-001, 1.3823913E-002, 1.6367501E-002, 1.1116482E-004, 4.7316679E-004, 1.0078350E-004, 1.8158125E+002
 6.0002393E+000, 2.0854785E-001, 1.8171860E-002, 1.9977685E-002, 1.0733789E-004, 4.6552075E-004, 1.2516809E-004, 2.2788666E+002
 7.0079882E+000, 2.0295273E-001, 2.2588014E-002, 2.3649087E-002, 1.0575435E-004, 4.1490098E-004, 1.5043345E-004, 2.7000228E+002
 8.0011152E+000, 1.9867438E-001, 2.5986660E-002, 2.6452608E-002, 9.2925305E-005, 3.4749652E-004, 1.6736527E-004, 2.9950204E+002
 9.0081404E+000, 1.9549093E-001, 2.8533451E-002, 2.8540617E-002, 7.6468719E-005, 2.5311578E-004, 1.7857240E-004, 3.2101416E+002
 1.0009978E+001, 1.8748332E-001, 3.4909214E-002, 3.3788694E-002, 4.6412972E-005, 9.3791578E-005, 2.0904007E-004, 3.6093574E+002
 1.1006722E+001, 1.8400167E-001, 3.7680275E-002, 3.6070402E-002, 3.3758794E-005, 2.7193207E-005, 2.2237053E-004, 3.7697168E+002
 1.2002738E+001, 1.7930718E-001, 4.1385313E-002, 3.9146990E-002, 3.0566922E-005, 6.8678083E-007, 2.4316439E-004, 3.9884468E+002
 1.3004043E+001, 1.7394210E-001, 4.5604748E-002, 4.2663182E-002, 3.3548264E-005, 2.9630797E-008, 2.6827691E-004, 4.0803759E+002
 1.4000503E+001, 1.6660464E-001, 5.1374913E-002, 4.7472054E-002, 3.7842029E-005, 9.4381383E-009, 3.0266570E-004, 4.3175025E+002
 1.5010026E+001, 1.6252832E-001, 5.4580505E-002, 5.0143635E-002, 4.0243053E-005, 1.8415227E-008, 3.2177364E-004, 4.3529812E+002
 1.6007128E+001, 1.5842428E-001, 5.7807853E-002, 5.2833389E-002, 4.2683040E-005, 4.2626710E-008, 3.4101617E-004, 4.4608492E+002
 1.7002071E+001, 1.5623208E-001, 5.9531847E-002, 5.4270109E-002, 4.3933568E-005, 2.3465972E-008, 3.5128376E-004, 4.4629070E+002
 1.8001767E+001, 1.5051948E-001, 6.4024159E-002, 5.8014088E-002, 4.7315051E-005, 4.5651125E-008, 3.7806520E-004, 4.5089485E+002
 1.9005873E+001, 1.4559546E-001, 6.7896313E-002, 6.1241262E-002, 5.0253688E-005, 9.1985182E-008, 4.0115469E-004, 4.5984175E+002
 2.0006281E+001, 1.4190064E-001, 7.0802015E-002, 6.3662755E-002, 5.2348415E-005, 3.2729982E-008, 4.1845737E-004, 4.5705708E+002
 2.1008722E+001, 1.3644982E-001, 7.5088532E-002, 6.7235149E-002, 5.5537395E-005, 3.0964576E-008, 4.4400381E-004, 4.6285729E+002
 2.2002477E+001, 1.3413489E-001, 7.6908947E-002, 6.8752343E-002, 5.6920412E-005, 4.7325785E-008, 4.5485919E-004, 4.6148745E+002
 2.3006046E+001, 1.3108076E-001, 7.9310725E-002, 7.0753972E-002, 5.8697284E-005, 4.0494001E-008, 4.6917096E-004, 4.6675684E+002
 2.4004193E+001, 1.2906542E-001, 8.0895643E-002, 7.2074774E-002, 5.9838322E-005, 1.0392262E-008, 4.7860839E-004, 4.5717335E+002
 2.5009167E+001, 1.2365526E-001, 8.5149912E-002, 7.5620612E-002, 6.3170860E-005, 1.8579716E-007, 5.0399890E-004, 4.7283253E+002
 2.6002262E+001, 1.1769902E-001, 8.9833531E-002, 7.9524370E-002, 6.6875762E-005, 4.5783872E-007, 5.3195967E-004, 4.7715429E+002
 2.7006317E+001, 1.1967187E-001, 8.8282654E-002, 7.8231203E-002, 6.5373237E-005, 2.8607553E-008, 5.2264141E-004, 4.6418289E+002
 2.8006329E+001, 1.1609819E-001, 9.1093037E-002, 8.0573327E-002, 6.7434160E-005, 1.0869456E-008, 5.3938405E-004, 4.6437903E+002
 2.9009389E+001, 1.1051048E-001, 9.5487167E-002, 8.4235449E-002, 7.0725613E-005, 2.9905247E-008, 5.6557668E-004, 4.6876653E+002
 3.0000599E+001, 1.1150826E-001, 9.4702513E-002, 8.3581524E-002, 7.0145608E-005, 2.9728549E-008, 5.6090117E-004, 4.6501010E+002
 3.1003224E+001, 1.0863216E-001, 9.6964241E-002, 8.5466493E-002, 7.1848539E-005, 5.0464041E-008, 5.7438484E-004, 4.6471062E+002
 3.2009638E+001, 1.0681463E-001, 9.8393597E-002, 8.6657654E-002, 7.2876323E-005, 1.1905319E-008, 5.8289570E-004, 4.6503017E+002
 3.3007795E+001, 1.0021957E-001, 1.0357964E-001, 9.0980075E-002, 7.6923369E-005, 1.9995187E-007, 6.1384392E-004, 4.7706693E+002
 3.4010481E+001, 1.0136858E-001, 1.0267636E-001, 9.0226921E-002, 7.6061531E-005, 9.7494634E-009, 6.0841957E-004, 4.6257057E+002
 3.5010409E+001, 9.7649180E-002, 1.0560104E-001, 9.2664655E-002, 7.8396599E-005, 1.6939681E-007, 6.2588427E-004, 4.7228495E+002
 3.6000931E+001, 9.6278727E-002, 1.0667897E-001, 9.3562760E-002, 7.9067295E-005, 2.3166102E-008, 6.3228007E-004, 4.5806468E+002
 3.7000605E+001, 9.5052860E-002, 1.0764298E-001, 9.4366180E-002, 7.9791747E-005, 3.5666782E-008, 6.3802685E-004, 4.5471369E+002
 3.8006295E+001, 9.2778248E-002, 1.0943175E-001, 9.5856925E-002, 8.1113445E-005, 2.6460973E-008, 6.4868544E-004, 4.6212056E+002
 3.9004599E+001, 9.0197970E-002, 1.1146071E-001, 9.7548069E-002, 8.2728774E-005, 9.7164665E-008, 6.6080040E-004, 4.6501147E+002
 4.0002416E+001, 8.6265101E-002, 1.1455351E-001, 1.0012561E-001, 8.5022698E-005, 1.3074084E-007, 6.7923113E-004, 4.7516110E+002
 4.1007289E+001, 8.5225651E-002, 1.1537104E-001, 1.0080681E-001, 8.5568326E-005, 7.1408860E-008, 6.8408980E-004, 4.6376513E+002
 4.2005656E+001, 8.2666562E-002, 1.1738357E-001, 1.0248398E-001, 8.7021599E-005, 1.5283996E-008, 6.9607444E-004, 4.6142435E+002
 4.3004227E+001, 8.0128976E-002, 1.1935776E-001, 1.0415294E-001, 1.0096863E-004, 1.9772343E-005, 7.1054007E-004, 4.6908650E+002
 4.4005807E+001, 7.9469653E-002, 1.1989550E-001, 1.0457984E-001, 9.0158285E-005, 1.7130134E-006, 7.1131918E-004, 4.5905074E+002
 4.5000854E+001, 7.8576958E-002, 1.2055036E-001, 1.0517385E-001, 1.1613832E-004, 6.1274357E-005, 7.2073813E-004, 4.5801926E+002
 4.6009596E+001, 7.5588498E-002, 1.2281750E-001, 1.0714718E-001, 1.6216218E-004, 1.7025116E-004, 7.4384331E-004, 4.6169040E+002
 4.7007870E+001, 7.5202026E-002, 1.2313822E-001, 1.0739549E-001, 1.5239540E-004, 1.5620713E-004, 7.4358981E-004, 4.5894131E+002
 4.8004663E+001, 7.2455698E-002, 1.2519448E-001, 1.0921625E-001, 2.1047977E-004, 2.8203764E-004, 7.6808178E-004, 4.6234290E+002
 4.9001198E+001, 7.1736229E-002, 1.2577095E-001, 1.0969592E-001, 2.1037628E-004, 2.2763883E-004, 7.7140200E-004, 4.5134426E+002
 5.0001888E+001, 7.0058030E-002, 1.2697589E-001, 1.1083016E-001, 2.7981507E-004, 3.2206322E-004, 7.9341412E-004, 4.5642540E+002
 5.1009277E+001, 6.7580240E-002, 1.2816730E-001, 1.1257136E-001, 6.7639439E-004, 1.3850496E-003, 8.8613514E-004, 4.6530544E+002
 5.2000077E+001, 6.5310743E-002, 1.2959310E-001, 1.1417673E-001, 8.9719307E-004, 1.6381016E-003, 9.4217849E-004, 4.6504651E+002
 5.3009159E+001, 6.7159424E-002, 1.2866699E-001, 1.1285260E-001, 6.0485375E-004, 1.0210391E-003, 8.7355203E-004, 4.5816630E+002
 5.4005090E+001, 6.5847718E-002, 1.2939827E-001, 1.1375052E-001, 7.5804892E-004, 1.4758214E-003, 9.1094130E-004, 4.4817683E+002
 5.5004706E+001, 6.4658562E-002, 1.3016252E-001, 1.1459076E-001, 8.6567026E-004, 1.5773780E-003, 9.3865957E-004, 4.5074936E+002
 5.6009320E+001, 6.3062049E-002, 1.3057999E-001, 1.1565243E-001, 1.2449399E-003, 3.2145273E-003, 1.0231494E-003, 4.4675633E+002
 5.7010134E+001, 6.3027932E-002, 1.3048536E-001, 1.1570381E-001, 1.3136137E-003, 3.3439918E-003, 1.0374601E-003, 4.4362100E+002
 5.8003865E+001, 6.2304377E-002, 1.3128427E-001, 1.1619316E-001, 1.2202130E-003, 2.8170381E-003, 1.0218817E-003, 4.4183745E+002
 5.9009343E+001, 6.1418308E-002, 1.3191155E-001, 1.1680802E-001, 1.2690638E-003, 2.8205706E-003, 1.0360891E-003, 4.5098138E+002
 6.0000389E+001, 6.1279383E-002, 1.3194601E-001, 1.1691933E-001, 1.3126468E-003, 2.8907164E-003, 1.0457193E-003, 4.4429323E+002
 6.1006768E+001, 6.0979153E-002, 1.3181722E-001, 1.1718887E-001, 1.5116317E-003, 3.3376442E-003, 1.0880288E-003, 4.4317610E+002
 6.2003967E+001, 6.1045982E-002, 1.3178254E-001, 1.1713963E-001, 1.5008878E-003, 3.3233104E-003, 1.0855029E-003, 4.3561944E+002
 6.3011208E+001, 5.9740573E-002, 1.3218101E-001, 1.1802081E-001, 1.7925005E-003, 4.4934981E-003, 1.1509144E-003, 4.3672240E+002
 6.4002250E+001, 5.9544246E-002, 1.3248834E-001, 1.1813524E-001, 1.7176668E-003, 4.2407511E-003, 1.1365038E-003, 4.4041754E+002
 6.5008793E+001, 5.9507577E-002, 1.3190595E-001, 1.1815168E-001, 1.9839552E-003, 5.5104002E-003, 1.1907484E-003, 4.2970827E+002
 6.6011908E+001, 5.8338845E-002, 1.3213266E-001, 1.1898398E-001, 2.3248862E-003, 6.6471334E-003, 1.2658348E-003, 4.3438967E+002
 6.7008686E+001, 5.8236275E-002, 1.3234658E-001, 1.1897881E-001, 2.2287208E-003, 6.6682374E-003, 1.2462679E-003, 4.2220855E+002
 6.8006574E+001, 5.8947714E-002, 1.3215808E-001, 1.1857106E-001, 2.0944883E-003, 5.6807692E-003, 1.2161273E-003, 4.2640634E+002
 6.9007467E+001, 5.7685671E-002, 1.3237721E-001, 1.1949633E-001, 2.4876570E-003, 6.8536883E-003, 1.3024727E-003, 4.2484066E+002
 7.0008415E+001, 5.8012925E-002, 1.3255606E-001, 1.1929370E-001, 2.3007567E-003, 5.9217379E-003, 1.2630666E-003, 4.2324611E+002
 7.1004136E+001, 5.8116523E-002, 1.3217306E-001, 1.1927980E-001, 2.4618202E-003, 6.3157663E-003, 1.2956967E-003, 4.2145909E+002
 7.2003974E+001, 5.7791768E-002, 1.3200213E-001, 1.1962518E-001, 2.7187745E-003, 6.6467894E-003, 1.3503044E-003, 4.1939863E+002
 7.3006505E+001, 5.7654329E-002, 1.3241276E-001, 1.1964007E-001, 2.5463656E-003, 6.3359514E-003, 1.3153799E-003, 4.1881659E+002
 7.4005941E+001, 5.7216724E-002, 1.3213524E-001, 1.1989438E-001, 2.8046607E-003, 7.7268669E-003, 1.3696633E-003, 4.1746577E+002
 7.5006214E+001, 5.6643075E-002, 1.3232921E-001, 1.2026932E-001, 2.9181343E-003, 8.2522962E-003, 1.3953424E-003, 4.1628908E+002
 7.6002518E+001, 5.6768817E-002, 1.3202432E-001, 1.2024027E-001, 3.0366280E-003, 8.4552347E-003, 1.4192138E-003, 4.1125809E+002
 7.7008095E+001, 5.6774952E-002, 1.3183755E-001, 1.2025642E-001, 3.1274427E-003, 8.7429590E-003, 1.4377816E-003, 4.1238759E+002
 7.8000155E+001, 5.6766032E-002, 1.3196763E-001, 1.2027914E-001, 3.0817494E-003, 8.4256020E-003, 1.4286480E-003, 4.1657608E+002
 7.9007261E+001, 5.6664264E-002, 1.3159299E-001, 1.2030204E-001, 3.2602090E-003, 9.5235054E-003, 1.4650930E-003, 4.1206320E+002
 8.0003614E+001, 5.5714769E-002, 1.3223804E-001, 1.2092620E-001, 3.3066578E-003, 9.7219738E-003, 1.4788844E-003, 4.2181571E+002
 8.1011304E+001, 5.5669329E-002, 1.3143316E-001, 1.2070783E-001, 3.5503385E-003, 1.2424390E-002, 1.5269521E-003, 4.0654344E+002
 8.2008013E+001, 5.5462592E-002, 1.3137635E-001, 1.2093241E-001, 3.6933566E-003, 1.2510744E-002, 1.5575681E-003, 4.1089323E+002
 8.3011507E+001, 5.5549924E-002, 1.3189698E-001, 1.2099782E-001, 3.4960348E-003, 1.0822697E-002, 1.5178864E-003, 4.1079174E+002
 8.4005618E+001, 5.5394207E-002, 1.3154488E-001, 1.2100356E-001, 3.6562432E-003, 1.2172207E-002, 1.5505139E-003, 4.1103918E+002
 8.5001893E+001, 5.4840711E-002, 1.3146228E-001, 1.2149093E-001, 3.9497201E-003, 1.2720675E-002, 1.6135370E-003, 4.0975964E+002
 8.6000323E+001, 5.4910047E-002, 1.3183064E-001, 1.2144586E-001, 3.7629468E-003, 1.1861929E-002, 1.5752575E-003, 4.0368405E+002
 8.7001216E+001, 5.4653975E-002, 1.3142671E-001, 1.2144679E-001, 3.9446221E-003, 1.3760454E-002, 1.6122312E-003, 4.0550942E+002
 8.8008510E+001, 5.4626462E-002, 1.3090396E-001, 1.2145699E-001, 4.1812355E-003, 1.4895510E-002, 1.6604003E-003, 4.0461795E+002
 8.9002807E+001, 5.4365793E-002, 1.3128823E-001, 1.2176401E-001, 4.1723432E-003, 1.3984233E-002, 1.6607014E-003, 4.0672684E+002
 9.0006762E+001, 5.4151990E-002, 1.3174329E-001, 1.2197783E-001, 4.0836258E-003, 1.3106086E-002, 1.6441412E-003, 4.0969856E+002
 9.1004356E+001, 5.4946327E-002, 1.3123609E-001, 1.2132399E-001, 3.9625566E-003, 1.3403971E-002, 1.6150051E-003, 4.0522545E+002
 9.2005510E+001, 5.4640825E-002, 1.3083321E-001, 1.2158964E-001, 4.2807379E-003, 1.4444535E-002, 1.6815181E-003, 4.0529523E+002
 9.3005265E+001, 5.4706354E-002, 1.3133115E-001, 1.2158692E-001, 4.0585534E-003, 1.3168797E-002, 1.6363266E-003, 4.0918290E+002
 9.4004337E+001, 5.4538909E-002, 1.3110153E-001, 1.2159605E-001, 4.1664947E-003, 1.4305979E-002, 1.6583545E-003, 4.0529387E+002
 9.5009964E+001, 5.4480140E-002, 1.3034537E-001, 1.2144170E-001, 4.4217828E-003, 1.6708491E-002, 1.7092151E-003, 4.0452667E+002
 9.6010429E+001, 5.4818961E-002, 1.3024367E-001, 1.2102140E-001, 4.2465648E-003, 1.7172030E-002, 1.6707147E-003, 3.9465118E+002
 9.7005681E+001, 5.4106670E-002, 1.3078271E-001, 1.2157120E-001, 4.2990866E-003, 1.6880996E-002, 1.6852037E-003, 4.0383427E+002
 9.8005725E+001, 5.4139192E-002, 1.3124460E-001, 1.2161021E-001, 4.1146880E-003, 1.5650107E-002, 1.6479792E-003, 4.0470782E+002
 9.9008964E+001, 5.4038059E-002, 1.3033242E-001, 1.2169771E-001, 4.5640511E-003, 1.7575180E-002, 1.7399259E-003, 4.0504849E+002
 1.0001157E+002, 5.3996820E-002, 1.3032291E-001, 1.2148636E-001, 4.4597307E-003, 1.8619191E-002, 1.7173023E-003, 3.9875475E+002
 1.0100394E+002, 5.3884139E-002, 1.3083038E-001, 1.2149915E-001, 4.2431753E-003, 1.8015690E-002, 1.6733864E-003, 4.1611905E+002
 1.0200134E+002, 5.3997295E-002, 1.3078948E-001, 1.2160393E-001, 4.3140935E-003, 1.7198366E-002, 1.6884912E-003, 4.0053142E+002
 1.0300546E+002, 5.3771394E-002, 1.3050109E-001, 1.2180451E-001, 4.5473092E-003, 1.7931799E-002, 1.7372827E-003, 4.0264108E+002
 1.0400408E+002, 5.3836918E-002, 1.3035983E-001, 1.2141952E-001, 4.4106127E-003, 1.9489738E-002, 1.7068916E-003, 4.0368142E+002
 1.0500334E+002, 5.3467714E-002, 1.3033930E-001, 1.2181108E-001, 4.6253489E-003, 1.9518173E-002, 1.7532356E-003, 4.0061865E+002
 1.0600038E+002, 5.3236109E-002, 1.3066988E-001, 1.2214105E-001, 4.6517206E-003, 1.8500408E-002, 1.7608552E-003, 4.0820114E+002
 1.0700453E+002, 5.3152433E-002, 1.3065511E-001, 1.2217242E-001, 4.6752893E-003, 1.8758181E-002, 1.7658700E-003, 4.0383133E+002
 1.0800051E+002, 5.3427320E-002, 1.2949440E-001, 1.2174060E-001, 4.9629061E-003, 2.1685402E-002, 1.8213816E-003, 3.9883338E+002
 1.0900579E+002, 5.3387784E-002, 1.3050487E-001, 1.2186435E-001, 4.5804568E-003, 1.9306382E-002, 1.7444815E-003, 4.0664343E+002
 1.1000945E+002, 5.3801145E-002, 1.2988358E-001, 1.2122577E-001, 4.5216221E-003, 2.1386036E-002, 1.7281558E-003, 3.9622880E+002
 1.1100598E+002, 5.3375863E-002, 1.2994371E-001, 1.2168039E-001, 4.7337958E-003, 2.1234457E-002, 1.7744125E-003, 3.9434797E+002
 1.1200358E+002, 5.3433932E-002, 1.3011729E-001, 1.2161031E-001, 4.6203419E-003, 2.0918861E-002, 1.7508696E-003, 3.9587429E+002
 1.1300964E+002, 5.3111242E-002, 1.2993036E-001, 1.2174882E-001, 4.7777116E-003, 2.2105816E-002, 1.7838401E-003, 4.0207647E+002
 1.1400009E+002, 5.3401379E-002, 1.3008509E-001, 1.2160999E-001, 4.6347477E-003, 2.1123159E-002, 1.7538006E-003, 3.9715207E+002
 1.1500338E+002, 5.3511492E-002, 1.2998891E-001, 1.2153698E-001, 4.6384877E-003, 2.1145978E-002, 1.7540522E-003, 3.9130862E+002
 1.1600525E+002, 5.3081933E-002, 1.2975627E-001, 1.2178259E-001, 4.8723748E-003, 2.2446895E-002, 1.8033143E-003, 3.9794934E+002
 1.1700303E+002, 5.3200270E-002, 1.2992877E-001, 1.2165268E-001, 4.7279330E-003, 2.2119166E-002, 1.7730603E-003, 3.9745936E+002
 1.1801078E+002, 5.2844182E-002, 1.2990745E-001, 1.2200475E-001, 4.9225306E-003, 2.2252547E-002, 1.8150426E-003, 4.0360293E+002
 1.1900895E+002, 5.2664612E-002, 1.2993861E-001, 1.2214332E-001, 4.9820466E-003, 2.2391649E-002, 1.8281013E-003, 3.9924592E+002
 1.2000700E+002, 5.2428767E-002, 1.2998425E-001, 1.2242764E-001, 5.1108757E-003, 2.2153104E-002, 1.8562402E-003, 3.9958306E+002
 1.2100033E+002, 5.2688211E-002, 1.2968584E-001, 1.2210003E-001, 5.0712183E-003, 2.2978373E-002, 1.8459319E-003, 3.9737118E+002
 1.2200572E+002, 5.2568901E-002, 1.2960407E-001, 1.2228313E-001, 5.2029795E-003, 2.2912311E-002, 1.8739670E-003, 3.9889647E+002
 1.2300046E+002, 5.2342484E-002, 1.2947473E-001, 1.2231489E-001, 5.2788716E-003, 2.4004673E-002, 1.8896416E-003, 4.0159967E+002
 1.2400746E+002, 5.2696955E-002, 1.2921020E-001, 1.2209634E-001, 5.2794724E-003, 2.3920443E-002, 1.8882374E-003, 3.9353898E+002
 1.2500752E+002, 5.2621069E-002, 1.2945584E-001, 1.2203115E-001, 5.1380754E-003, 2.4005784E-002, 1.8590677E-003, 3.9291665E+002
 1.2600537E+002, 5.2597208E-002, 1.2893869E-001, 1.2185859E-001, 5.2779598E-003, 2.5849337E-002, 1.8863423E-003, 3.9015568E+002
 1.2700528E+002, 5.2508677E-002, 1.2944437E-001, 1.2226878E-001, 5.2668032E-003, 2.3548572E-002, 1.8868527E-003, 4.0672190E+002
 1.2800947E+002, 5.2798583E-002, 1.2868501E-001, 1.2173043E-001, 5.3219422E-003, 2.6027212E-002, 1.8943884E-003, 4.0080851E+002
 1.2901124E+002, 5.2712753E-002, 1.2880635E-001, 1.2182222E-001, 5.3165137E-003, 2.5775086E-002, 1.8939166E-003, 3.9812760E+002
 1.3001072E+002, 5.2216356E-002, 1.2921330E-001, 1.2238463E-001, 5.4316883E-003, 2.4787706E-002, 1.9211936E-003, 3.9524376E+002
 1.3100277E+002, 5.2336970E-002, 1.2885919E-001, 1.2217361E-001, 5.4781885E-003, 2.5844196E-002, 1.9292051E-003, 4.0032321E+002
 1.3200314E+002, 5.2535891E-002, 1.2895933E-001, 1.2195448E-001, 5.3189047E-003, 2.5681145E-002, 1.8953207E-003, 3.9929685E+002
 1.3300000E+002, 5.2061676E-002, 1.2949071E-001, 1.2245839E-001, 5.3486887E-003, 2.4583000E-002, 1.9048427E-003, 3.9995513E+002
 1.3400404E+002, 5.2090261E-002, 1.2905822E-001, 1.2246172E-001, 5.5412797E-003, 2.5325460E-002, 1.9440086E-003, 4.0316280E+002
 1.3501132E+002, 5.1761404E-002, 1.2952390E-001, 1.2278927E-001, 5.5076895E-003, 2.4455003E-002, 1.9394381E-003, 4.0211433E+002
 1.3600113E+002, 5.2152140E-002, 1.2887225E-001, 1.2210916E-001, 5.4411011E-003, 2.6858966E-002, 1.9212597E-003, 3.9590564E+002
 1.3700320E+002, 5.2263941E-002, 1.2888275E-001, 1.2209468E-001, 5.4278362E-003, 2.6422953E-002, 1.9184490E-003, 3.9310329E+002
 1.3800228E+002, 5.1657170E-002, 1.2901664E-001, 1.2268253E-001, 5.6779688E-003, 2.6353731E-002, 1.9733468E-003, 3.9769496E+002
 1.3901188E+002, 5.1658670E-002, 1.2869178E-001, 1.2273757E-001, 5.8499223E-003, 2.6784549E-002, 2.0086704E-003, 3.9895696E+002
 1.4000575E+002, 5.2304642E-002, 1.2850067E-001, 1.2188584E-001, 5.4886519E-003, 2.7865468E-002, 1.9293971E-003, 4.0015085E+002
 1.4100633E+002, 5.2043768E-002, 1.2900269E-001, 1.2230638E-001, 5.4862310E-003, 2.6259635E-002, 1.9317789E-003, 3.9416766E+002
 1.4200965E+002, 5.2045989E-002, 1.2887833E-001, 1.2220926E-001, 5.4911176E-003, 2.6893046E-002, 1.9321172E-003, 3.9589195E+002
 1.4300214E+002, 5.2049345E-002, 1.2903434E-001, 1.2231659E-001, 5.4774454E-003, 2.6130815E-002, 1.9300610E-003, 3.9645933E+002
 1.4400232E+002, 5.1127395E-002, 1.2932164E-001, 1.2307741E-001, 5.7521867E-003, 2.6388209E-002, 1.9911742E-003, 4.0755741E+002
 1.4500136E+002, 5.1698714E-002, 1.2886434E-001, 1.2244256E-001, 5.6211562E-003, 2.7452120E-002, 1.9601748E-003, 4.0049044E+002
 1.4600283E+002, 5.1730956E-002, 1.2854288E-001, 1.2234742E-001, 5.7138712E-003, 2.8350124E-002, 1.9783747E-003, 4.0097329E+002
 1.4700773E+002, 5.1682072E-002, 1.2833430E-001, 1.2216347E-001, 5.7117527E-003, 2.9719793E-002, 1.9767115E-003, 3.9307729E+002
 1.4800257E+002, 5.1137346E-002, 1.2925183E-001, 1.2296065E-001, 5.7227532E-003, 2.6957382E-002, 1.9844028E-003, 4.0575531E+002
 1.4900472E+002, 5.0940945E-002, 1.2888022E-001, 1.2321035E-001, 6.0177640E-003, 2.7537097E-002, 2.0460820E-003, 4.0456620E+002
 1.5000499E+002, 5.1231849E-002, 1.2876366E-001, 1.2289172E-001, 5.9020287E-003, 2.7824487E-002, 2.0203652E-003, 3.9590909E+002
 1.5101125E+002, 5.0686325E-002, 1.2842083E-001, 1.2350408E-001, 6.3748816E-003, 2.8363974E-002, 2.1206912E-003, 4.0738222E+002
 1.5200674E+002, 5.0857960E-002, 1.2872157E-001, 1.2348662E-001, 6.2311711E-003, 2.7098382E-002, 2.0913358E-003, 4.0820791E+002
 1.5300491E+002, 5.1323946E-002, 1.2834667E-001, 1.2290275E-001, 6.0910825E-003, 2.8235809E-002, 2.0588545E-003, 4.0387224E+002
 1.5400939E+002, 5.0920810E-002, 1.2900836E-001, 1.2326990E-001, 5.9920270E-003, 2.7122958E-002, 2.0412549E-003, 4.0062440E+002
