s,,,,,,,
Time,"O2 EXHAUST","CO2 EXHAUST","H2O EXHAUST","CO EXHAUST","FUEL EXHAUST","SOOT EXHAUST","TEMP EXHAUST"
 0.0000000E+000, 2.3118142E-001, 5.9193618E-004, 5.1492695E-003, 0.0000000E+000, 0.0000000E+000, 0.0000000E+000, 2.0000000E+001
 1.0018949E+000, 2.3118142E-001, 5.9193618E-004, 5.1492695E-003, 1.0652919E-032, 3.0166098E-031, 2.2325910E-032, 2.0339616E+001
 2.0062738E+000, 2.2546323E-001, 5.8569055E-003, 6.6463099E-003, 2.1940209E-005, 3.5393056E-004, 3.5095625E-004, 7.8016173E+001
 3.0038681E+000, 2.2247512E-001, 8.5499325E-003, 7.4472792E-003, 9.8996140E-005, 4.6467048E-004, 5.4471327E-004, 1.0390570E+002
 4.0013282E+000, 2.1882589E-001, 1.1822513E-002, 8.4083722E-003, 1.7129688E-004, 7.8841958E-004, 7.7555779E-004, 1.3527904E+002
 5.0073039E+000, 2.1770599E-001, 1.2833784E-002, 8.7080873E-003, 1.9824070E-004, 8.3101620E-004, 8.4788537E-004, 1.4871529E+002
 6.0010423E+000, 2.1332604E-001, 1.6839836E-002, 9.8808603E-003, 2.7667174E-004, 9.0376876E-004, 1.1282756E-003, 1.8141583E+002
 7.0075951E+000, 2.0979602E-001, 2.0044829E-002, 1.0817770E-002, 3.3798799E-004, 1.0812026E-003, 1.3522933E-003, 2.0993609E+002
 8.0038097E+000, 2.0719142E-001, 2.2496829E-002, 1.1510029E-002, 3.3705320E-004, 1.0519026E-003, 1.5133196E-003, 2.2917619E+002
 9.0074180E+000, 2.0281428E-001, 2.6578848E-002, 1.2673702E-002, 3.5727081E-004, 1.0668273E-003, 1.7861057E-003, 2.5844956E+002
 1.0004218E+001, 1.9757516E-001, 3.1484553E-002, 1.4071671E-002, 3.7982138E-004, 1.0021706E-003, 2.1135545E-003, 2.8775958E+002
 1.1009138E+001, 1.9304329E-001, 3.5769317E-002, 1.5277829E-002, 3.7107442E-004, 9.0369450E-004, 2.3933999E-003, 3.1093218E+002
 1.2003454E+001, 1.8943939E-001, 3.9142021E-002, 1.6239856E-002, 3.8829888E-004, 8.5881895E-004, 2.6188954E-003, 3.3032898E+002
 1.3005271E+001, 1.8534872E-001, 4.3035398E-002, 1.7326668E-002, 3.6279766E-004, 7.4330820E-004, 2.8693792E-003, 3.4509054E+002
 1.4004613E+001, 1.8114601E-001, 4.7030498E-002, 1.8442788E-002, 3.3847419E-004, 6.3746284E-004, 3.1268069E-003, 3.5928331E+002
 1.5003774E+001, 1.7679538E-001, 5.1156946E-002, 1.9598639E-002, 3.1918623E-004, 5.3972401E-004, 3.3939613E-003, 3.7031616E+002
 1.6006368E+001, 1.7210745E-001, 5.5595186E-002, 2.0843594E-002, 3.0195747E-004, 4.5328585E-004, 3.6820635E-003, 3.7992948E+002
 1.7003523E+001, 1.6842050E-001, 5.9094392E-002, 2.1822599E-002, 2.8344161E-004, 3.7150710E-004, 3.9081417E-003, 3.8949171E+002
 1.8004159E+001, 1.6381366E-001, 6.3462183E-002, 2.3045047E-002, 2.6128779E-004, 2.8471397E-004, 4.1905457E-003, 3.9954033E+002
 1.9011060E+001, 1.6039403E-001, 6.6690298E-002, 2.3952960E-002, 2.5346608E-004, 2.3997093E-004, 4.4011141E-003, 4.0086373E+002
 2.0000471E+001, 1.5574075E-001, 7.1080115E-002, 2.5188265E-002, 2.4413686E-004, 1.8546630E-004, 4.6877428E-003, 4.0918038E+002
 2.1004964E+001, 1.5362521E-001, 7.3092934E-002, 2.5748913E-002, 2.2879007E-004, 1.4014171E-004, 4.8167718E-003, 4.1835992E+002
 2.2001808E+001, 1.5186613E-001, 7.4752517E-002, 2.6215766E-002, 2.2497620E-004, 1.2055344E-004, 4.9250706E-003, 4.1480749E+002
 2.3005446E+001, 1.4816327E-001, 7.8238029E-002, 2.7198258E-002, 2.2087149E-004, 9.5222858E-005, 5.1533690E-003, 4.1690817E+002
 2.4002185E+001, 1.4482435E-001, 8.1374358E-002, 2.8084798E-002, 2.2190221E-004, 7.8068614E-005, 5.3598187E-003, 4.2176036E+002
 2.5002493E+001, 1.4433361E-001, 8.1848117E-002, 2.8214376E-002, 2.1372578E-004, 6.0165609E-005, 5.3892004E-003, 4.2240082E+002
 2.6009290E+001, 1.3908357E-001, 8.6768628E-002, 2.9608762E-002, 2.2211984E-004, 4.8376343E-005, 5.7145615E-003, 4.3041400E+002
 2.7008412E+001, 1.3731645E-001, 8.8432922E-002, 3.0077354E-002, 2.1915543E-004, 3.7389574E-005, 5.8233542E-003, 4.2815053E+002
 2.8006837E+001, 1.3462924E-001, 9.0955297E-002, 3.0790634E-002, 2.2057132E-004, 2.8722168E-005, 5.9895174E-003, 4.3063453E+002
 2.9004343E+001, 1.3241461E-001, 9.3030007E-002, 3.1378782E-002, 2.2453050E-004, 2.5787664E-005, 6.1267953E-003, 4.3086231E+002
 3.0006574E+001, 1.3089941E-001, 9.4453921E-002, 3.1780823E-002, 2.2415360E-004, 1.9436051E-005, 6.2203421E-003, 4.2997915E+002
 3.1003819E+001, 1.3101881E-001, 9.4340461E-002, 3.1749250E-002, 2.2506708E-004, 2.1065173E-005, 6.2130793E-003, 4.2408079E+002
 3.2009593E+001, 1.2978644E-001, 9.5494704E-002, 3.2076512E-002, 2.2737300E-004, 2.0098049E-005, 6.2894748E-003, 4.2411074E+002
 3.3005515E+001, 1.2688305E-001, 9.8214087E-002, 3.2847531E-002, 2.3279329E-004, 1.7676970E-005, 6.4694589E-003, 4.2821546E+002
 3.4010675E+001, 1.2429307E-001, 1.0064085E-001, 3.3535195E-002, 2.3689423E-004, 1.5094912E-005, 6.6299162E-003, 4.2818092E+002
 3.5007737E+001, 1.2358717E-001, 1.0130069E-001, 3.3722854E-002, 2.3929759E-004, 1.4879987E-005, 6.6738241E-003, 4.2749224E+002
 3.6005174E+001, 1.2148101E-001, 1.0327436E-001, 3.4281897E-002, 2.4221082E-004, 1.3882476E-005, 6.8042315E-003, 4.2935414E+002
 3.7007794E+001, 1.1805967E-001, 1.0646873E-001, 3.5191258E-002, 2.5559989E-004, 2.1094311E-005, 7.0171728E-003, 4.3046039E+002
 3.8001450E+001, 1.1813332E-001, 1.0640827E-001, 3.5170914E-002, 2.4936276E-004, 1.3737316E-005, 7.0118478E-003, 4.3004110E+002
 3.9009664E+001, 1.1700215E-001, 1.0746711E-001, 3.5471310E-002, 2.5183600E-004, 1.3845108E-005, 7.0820063E-003, 4.2485810E+002
 4.0009069E+001, 1.1668597E-001, 1.0776303E-001, 3.5555286E-002, 2.5257187E-004, 1.3868639E-005, 7.1016232E-003, 4.2487639E+002
 4.1002175E+001, 1.1525815E-001, 1.0909813E-001, 3.5934493E-002, 2.5652664E-004, 1.6181214E-005, 7.1902681E-003, 4.2648105E+002
 4.2002858E+001, 1.1540098E-001, 1.0896028E-001, 3.5897015E-002, 2.5931134E-004, 1.9104830E-005, 7.1818064E-003, 4.2473548E+002
 4.3011996E+001, 1.1317237E-001, 1.1104970E-001, 3.6488532E-002, 2.6178775E-004, 1.6586198E-005, 7.3197308E-003, 4.2308811E+002
 4.4001841E+001, 1.1202955E-001, 1.1211858E-001, 3.6792237E-002, 2.6514718E-004, 1.6155233E-005, 7.3907414E-003, 4.2315845E+002
 4.5002566E+001, 1.0826497E-001, 1.1563795E-001, 3.7792472E-002, 2.7675063E-004, 1.9623439E-005, 7.6246662E-003, 4.3030292E+002
 4.6011969E+001, 1.0885146E-001, 1.1509289E-001, 3.7636236E-002, 2.7243208E-004, 1.7283261E-005, 7.5878919E-003, 4.2689431E+002
 4.7006702E+001, 1.0569743E-001, 1.1804184E-001, 3.8474281E-002, 2.8201239E-004, 1.9256021E-005, 7.7838711E-003, 4.3349738E+002
 4.8008208E+001, 1.0563956E-001, 1.1809563E-001, 3.8489702E-002, 2.8244158E-004, 1.9420364E-005, 7.7875010E-003, 4.2891997E+002
 4.9001822E+001, 1.0436250E-001, 1.1929496E-001, 3.8828530E-002, 2.8251510E-004, 1.5664639E-005, 7.8663781E-003, 4.2938397E+002
 5.0011588E+001, 1.0267281E-001, 1.2085935E-001, 3.9278820E-002, 2.9851753E-004, 3.0989530E-005, 7.9727067E-003, 4.2962456E+002
 5.1002226E+001, 1.0271934E-001, 1.2081639E-001, 3.9266140E-002, 2.9750494E-004, 3.2979897E-005, 7.9696630E-003, 4.3211853E+002
 5.2011149E+001, 1.0049573E-001, 1.2286365E-001, 3.9859298E-002, 3.2590533E-004, 6.7563651E-005, 8.1104260E-003, 4.3555109E+002
 5.3008185E+001, 1.0046587E-001, 1.2287659E-001, 3.9868238E-002, 3.3603476E-004, 8.4099410E-005, 8.1134696E-003, 4.3017055E+002
 5.4006001E+001, 9.8314177E-002, 1.2484717E-001, 4.0445477E-002, 3.7513819E-004, 1.0506648E-004, 8.2515064E-003, 4.3257793E+002
 5.5002431E+001, 9.5570277E-002, 1.2730508E-001, 4.1186004E-002, 4.6317992E-004, 1.8575052E-004, 8.4321793E-003, 4.4113611E+002
 5.6000905E+001, 9.8086997E-002, 1.2509931E-001, 4.0501707E-002, 3.4656370E-004, 7.5123204E-005, 8.2619013E-003, 4.2726353E+002
 5.7007312E+001, 9.4045052E-002, 1.2844376E-001, 4.1618405E-002, 6.7450235E-004, 4.3013727E-004, 8.5527914E-003, 4.3799372E+002
 5.8002801E+001, 9.5484323E-002, 1.2746665E-001, 4.1199580E-002, 4.0216377E-004, 1.3194676E-004, 8.4295980E-003, 4.3384916E+002
 5.9006728E+001, 9.3192154E-002, 1.2948977E-001, 4.1820356E-002, 4.9616059E-004, 2.3130662E-004, 8.5829710E-003, 4.3621433E+002
 6.0002883E+001, 9.2002998E-002, 1.3041101E-001, 4.2152680E-002, 6.3390754E-004, 4.0889872E-004, 8.6733609E-003, 4.3562630E+002
 6.1002024E+001, 9.2812693E-002, 1.2982269E-001, 4.1919488E-002, 5.0628040E-004, 2.8530405E-004, 8.6070539E-003, 4.3119896E+002
 6.2001753E+001, 9.3270864E-002, 1.2949169E-001, 4.1791429E-002, 4.4002100E-004, 1.7555122E-004, 8.5709470E-003, 4.3065667E+002
 6.3010055E+001, 9.0574259E-002, 1.3131546E-001, 4.2581804E-002, 9.6428323E-004, 6.9309291E-004, 8.8043349E-003, 4.3318257E+002
 6.4010671E+001, 8.7992353E-002, 1.3360152E-001, 4.3272588E-002, 1.0509789E-003, 8.7183207E-004, 8.9734207E-003, 4.3945337E+002
 6.5001207E+001, 9.1183059E-002, 1.3125741E-001, 4.2363885E-002, 5.8059289E-004, 3.3360264E-004, 8.7174757E-003, 4.3551301E+002
 6.6000304E+001, 8.9062528E-002, 1.3277562E-001, 4.2958103E-002, 8.9755288E-004, 8.5104880E-004, 8.8859127E-003, 4.3307858E+002
 6.7006847E+001, 8.7199060E-002, 1.3381288E-001, 4.3492097E-002, 1.3604418E-003, 1.7094509E-003, 9.0543169E-003, 4.3338556E+002
 6.8003334E+001, 8.9729498E-002, 1.3228650E-001, 4.2768696E-002, 7.9971817E-004, 7.3191206E-004, 8.8325756E-003, 4.2549445E+002
 6.9008027E+001, 9.0048752E-002, 1.3209313E-001, 4.2679400E-002, 7.3295939E-004, 5.9145114E-004, 8.8054091E-003, 4.2431350E+002
 7.0007513E+001, 8.8625973E-002, 1.3345570E-001, 4.3055811E-002, 7.1659883E-004, 5.5164171E-004, 8.8914625E-003, 4.2562602E+002
 7.1000769E+001, 8.7145334E-002, 1.3460268E-001, 4.3482433E-002, 9.1124863E-004, 6.5251301E-004, 9.0090058E-003, 4.3373206E+002
 7.2002504E+001, 8.6635751E-002, 1.3482284E-001, 4.3631295E-002, 1.0778068E-003, 9.7065324E-004, 9.0595373E-003, 4.3125487E+002
 7.3005029E+001, 8.6664166E-002, 1.3481413E-001, 4.3629331E-002, 1.0779613E-003, 8.8731262E-004, 9.0589946E-003, 4.3089147E+002
 7.4011630E+001, 8.5552730E-002, 1.3566287E-001, 4.3943144E-002, 1.2192271E-003, 1.0444998E-003, 9.1453783E-003, 4.3272338E+002
 7.5008968E+001, 8.4115382E-002, 1.3627311E-001, 4.4373315E-002, 1.7134535E-003, 1.8640891E-003, 9.2924830E-003, 4.3164558E+002
 7.6006979E+001, 8.5612702E-002, 1.3562258E-001, 4.3914581E-002, 1.1876557E-003, 1.1355368E-003, 9.1359008E-003, 4.2611789E+002
 7.7000599E+001, 8.4984230E-002, 1.3627285E-001, 4.4083756E-002, 1.1590767E-003, 1.0068574E-003, 9.1724692E-003, 4.3081037E+002
 7.8008994E+001, 8.4785340E-002, 1.3603370E-001, 4.4158675E-002, 1.4329243E-003, 1.5365865E-003, 9.2160239E-003, 4.2996661E+002
 7.9012057E+001, 8.4187171E-002, 1.3669744E-001, 4.4315088E-002, 1.3728125E-003, 1.3796306E-003, 9.2466535E-003, 4.2728553E+002
 8.0005986E+001, 8.5158135E-002, 1.3605098E-001, 4.4034133E-002, 1.1849682E-003, 1.1414818E-003, 9.1634881E-003, 4.2520676E+002
 8.1010876E+001, 8.4337768E-002, 1.3660130E-001, 4.4268448E-002, 1.3358984E-003, 1.3642628E-003, 9.2323434E-003, 4.2701104E+002
 8.2008752E+001, 8.2444553E-002, 1.3755060E-001, 4.4808240E-002, 1.8586911E-003, 2.4430432E-003, 9.4079351E-003, 4.2929002E+002
 8.3010914E+001, 8.3154383E-002, 1.3728972E-001, 4.4622977E-002, 1.6412737E-003, 1.7133253E-003, 9.3437045E-003, 4.2767848E+002
 8.4007035E+001, 8.3710464E-002, 1.3705361E-001, 4.4444480E-002, 1.4283584E-003, 1.5094884E-003, 9.2820981E-003, 4.2702900E+002
 8.5010352E+001, 8.4142831E-002, 1.3669754E-001, 4.4325360E-002, 1.3929527E-003, 1.4654744E-003, 9.2510215E-003, 4.2180434E+002
 8.6010147E+001, 8.2713972E-002, 1.3753773E-001, 4.4738370E-002, 1.7296464E-003, 2.0126068E-003, 9.3791476E-003, 4.2824727E+002
 8.7009784E+001, 8.3610879E-002, 1.3714691E-001, 4.4471170E-002, 1.4289717E-003, 1.5070774E-003, 9.2883653E-003, 4.2347071E+002
 8.8003195E+001, 8.1839846E-002, 1.3799794E-001, 4.5000018E-002, 1.9813350E-003, 2.3563032E-003, 9.4638855E-003, 4.3190735E+002
 8.9005068E+001, 8.2759352E-002, 1.3763843E-001, 4.4717800E-002, 1.6355648E-003, 1.8444021E-003, 9.3654038E-003, 4.2010117E+002
 9.0004295E+001, 8.2306690E-002, 1.3789227E-001, 4.4863346E-002, 1.7754603E-003, 1.9012247E-003, 9.4123693E-003, 4.2398287E+002
 9.1010695E+001, 8.1920237E-002, 1.3811581E-001, 4.4970763E-002, 1.8608466E-003, 2.0958180E-003, 9.4455525E-003, 4.2474477E+002
 9.2000172E+001, 8.1999724E-002, 1.3805629E-001, 4.4938423E-002, 1.8322887E-003, 2.1753271E-003, 9.4354625E-003, 4.2221746E+002
 9.3002737E+001, 8.2291146E-002, 1.3778705E-001, 4.4868067E-002, 1.8423593E-003, 2.1031952E-003, 9.4199350E-003, 4.2408754E+002
 9.4007834E+001, 8.2807877E-002, 1.3763788E-001, 4.4706050E-002, 1.6128527E-003, 1.7559845E-003, 9.3604495E-003, 4.2117155E+002
 9.5008606E+001, 8.1943080E-002, 1.3808986E-001, 4.4963791E-002, 1.8616757E-003, 2.1122154E-003, 9.4440264E-003, 4.2127853E+002
 9.6003342E+001, 8.1733660E-002, 1.3809452E-001, 4.5034401E-002, 1.9942386E-003, 2.3032053E-003, 9.4730263E-003, 4.1962860E+002
 9.7004168E+001, 8.1048510E-002, 1.3865808E-001, 4.5216865E-002, 2.0393889E-003, 2.4332141E-003, 9.5198583E-003, 4.2130059E+002
 9.8009999E+001, 8.0625428E-002, 1.3887882E-001, 4.5354011E-002, 2.1812111E-003, 2.5045242E-003, 9.5650649E-003, 4.2441307E+002
 9.9009482E+001, 8.0207983E-002, 1.3887648E-001, 4.5479399E-002, 2.4242136E-003, 3.0494271E-003, 9.6175166E-003, 4.2592240E+002
 1.0000138E+002, 8.0697114E-002, 1.3897238E-001, 4.5313471E-002, 2.0541103E-003, 2.4277624E-003, 9.5437101E-003, 4.2223881E+002
 1.0101150E+002, 8.0945315E-002, 1.3882223E-001, 4.5244313E-002, 2.0025808E-003, 2.3157729E-003, 9.5226822E-003, 4.2597629E+002
 1.0200392E+002, 7.9534919E-002, 1.3956477E-001, 4.5665483E-002, 2.4068919E-003, 2.8796909E-003, 9.6590192E-003, 4.2483069E+002
 1.0300737E+002, 8.0394482E-002, 1.3915042E-001, 4.5404479E-002, 2.1317288E-003, 2.5103707E-003, 9.5722164E-003, 4.2472208E+002
 1.0401246E+002, 8.0476135E-002, 1.3907724E-001, 4.5380151E-002, 2.1250086E-003, 2.5295301E-003, 9.5659508E-003, 4.2445333E+002
 1.0500147E+002, 8.0081071E-002, 1.3943161E-001, 4.5489567E-002, 2.1424499E-003, 2.5140986E-003, 9.5930256E-003, 4.2099464E+002
 1.0600335E+002, 8.1418510E-002, 1.3843225E-001, 4.5109437E-002, 1.9558807E-003, 2.3103614E-003, 9.4869334E-003, 4.1929323E+002
 1.0701095E+002, 8.1479344E-002, 1.3822871E-001, 4.5096187E-002, 2.0415080E-003, 2.5371244E-003, 9.4920878E-003, 4.1798880E+002
 1.0800432E+002, 8.0102172E-002, 1.3906777E-001, 4.5526075E-002, 2.4071926E-003, 2.7154154E-003, 9.6263980E-003, 4.2050751E+002
 1.0900348E+002, 7.9874045E-002, 1.3910989E-001, 4.5584257E-002, 2.4975443E-003, 3.0349602E-003, 9.6487317E-003, 4.2371412E+002
 1.1000853E+002, 7.9358075E-002, 1.3951123E-001, 4.5743351E-002, 2.5832245E-003, 2.9694911E-003, 9.6936599E-003, 4.2384777E+002
 1.1100573E+002, 8.0478721E-002, 1.3886409E-001, 4.5404601E-002, 2.2859901E-003, 2.6589548E-003, 9.5867757E-003, 4.2247031E+002
 1.1200650E+002, 7.8954235E-002, 1.3932616E-001, 4.5873531E-002, 2.9347082E-003, 3.7301397E-003, 9.7575791E-003, 4.2139332E+002
 1.1300532E+002, 7.9303660E-002, 1.3932318E-001, 4.5750026E-002, 2.7006458E-003, 3.4565107E-003, 9.7067229E-003, 4.2118617E+002
 1.1400305E+002, 7.9255664E-002, 1.3921474E-001, 4.5769513E-002, 2.7971313E-003, 3.6590467E-003, 9.7204792E-003, 4.1828863E+002
 1.1500348E+002, 7.9625066E-002, 1.3922062E-001, 4.5668022E-002, 2.5970324E-003, 3.0814685E-003, 9.6775435E-003, 4.2101581E+002
 1.1600067E+002, 7.9974482E-002, 1.3910928E-001, 4.5565131E-002, 2.4595888E-003, 2.8023455E-003, 9.6404691E-003, 4.1926099E+002
 1.1700725E+002, 7.9127960E-002, 1.3966438E-001, 4.5790954E-002, 2.5936298E-003, 3.2040500E-003, 9.7059906E-003, 4.1992648E+002
 1.1800233E+002, 7.9219110E-002, 1.3967028E-001, 4.5781630E-002, 2.5700866E-003, 2.9064100E-003, 9.7012728E-003, 4.2056481E+002
 1.1900230E+002, 7.9550299E-002, 1.3948412E-001, 4.5681003E-002, 2.4785244E-003, 2.8106489E-003, 9.6692143E-003, 4.1946648E+002
 1.2000195E+002, 7.8599000E-002, 1.3985037E-001, 4.5962043E-002, 2.8196993E-003, 3.4526533E-003, 9.7671501E-003, 4.2234399E+002
 1.2100392E+002, 7.8566618E-002, 1.3945316E-001, 4.5970563E-002, 3.0544884E-003, 4.1941721E-003, 9.7918678E-003, 4.2104192E+002
 1.2200136E+002, 7.7898245E-002, 1.4000564E-001, 4.6179068E-002, 3.1519284E-003, 4.0302157E-003, 9.8492745E-003, 4.2306134E+002
 1.2300055E+002, 7.9074957E-002, 1.3958716E-001, 4.5819696E-002, 2.6898076E-003, 3.2862873E-003, 9.7217286E-003, 4.2384333E+002
 1.2400907E+002, 7.9179693E-002, 1.3948125E-001, 4.5786909E-002, 2.6849554E-003, 3.3465381E-003, 9.7137171E-003, 4.1978964E+002
 1.2500143E+002, 7.9583998E-002, 1.3930362E-001, 4.5663632E-002, 2.5451284E-003, 3.1477225E-003, 9.6717715E-003, 4.1842686E+002
 1.2601210E+002, 7.7950306E-002, 1.4005670E-001, 4.6157306E-002, 3.0827153E-003, 3.9317189E-003, 9.8376508E-003, 4.2223324E+002
 1.2700948E+002, 7.8619041E-002, 1.3966675E-001, 4.5962978E-002, 2.9214790E-003, 3.6796321E-003, 9.7771097E-003, 4.2355321E+002
 1.2800065E+002, 7.9302581E-002, 1.3943295E-001, 4.5752488E-002, 2.6448148E-003, 3.2476714E-003, 9.7018509E-003, 4.1841308E+002
 1.2901099E+002, 7.8225590E-002, 1.3981181E-001, 4.6072233E-002, 3.0535532E-003, 4.0217442E-003, 9.8152415E-003, 4.1935948E+002
 1.3000793E+002, 7.8263978E-002, 1.4014812E-001, 4.6043555E-002, 2.8157224E-003, 3.5500896E-003, 9.7858716E-003, 4.1775519E+002
 1.3100791E+002, 7.7599608E-002, 1.4018823E-001, 4.6265541E-002, 3.2187336E-003, 4.1310345E-003, 9.8757408E-003, 4.2493617E+002
 1.3200484E+002, 7.7623738E-002, 1.4040068E-001, 4.6256064E-002, 3.0840406E-003, 3.7525555E-003, 9.8605488E-003, 4.2261573E+002
 1.3301171E+002, 7.7373072E-002, 1.3988506E-001, 4.6325021E-002, 3.5010483E-003, 5.0301643E-003, 9.9169322E-003, 4.2207711E+002
 1.3400092E+002, 7.8041243E-002, 1.4009986E-001, 4.6124238E-002, 2.9959996E-003, 3.7930715E-003, 9.8217184E-003, 4.2193806E+002
 1.3500402E+002, 7.8160291E-002, 1.4044341E-001, 4.6062061E-002, 2.6908028E-003, 3.2912678E-003, 9.7782466E-003, 4.2588779E+002
 1.3600186E+002, 7.7314445E-002, 1.4029257E-001, 4.6345755E-002, 3.3167444E-003, 4.3707219E-003, 9.9038201E-003, 4.2101093E+002
 1.3700993E+002, 7.7358108E-002, 1.4019813E-001, 4.6350791E-002, 3.3760014E-003, 4.3075967E-003, 9.9104301E-003, 4.2219470E+002
 1.3800922E+002, 7.7381893E-002, 1.4011555E-001, 4.6339595E-002, 3.4003063E-003, 4.4578621E-003, 9.9102654E-003, 4.2256351E+002
 1.3901189E+002, 7.7185158E-002, 1.4023121E-001, 4.6397734E-002, 3.4489631E-003, 4.5212891E-003, 9.9284025E-003, 4.2150595E+002
 1.4000815E+002, 7.7220137E-002, 1.4069603E-001, 4.6349158E-002, 3.1048723E-003, 4.0275567E-003, 9.8844877E-003, 4.2482054E+002
 1.4100196E+002, 7.7972854E-002, 1.4009770E-001, 4.6128601E-002, 3.0076745E-003, 4.0371307E-003, 9.8241128E-003, 4.2200830E+002
 1.4200014E+002, 7.7719741E-002, 1.4018686E-001, 4.6212231E-002, 3.1189375E-003, 4.1393001E-003, 9.8540555E-003, 4.2373847E+002
 1.4300826E+002, 7.7484801E-002, 1.4061234E-001, 4.6265849E-002, 2.9907388E-003, 3.8653983E-003, 9.8542808E-003, 4.2026930E+002
 1.4401248E+002, 7.7540093E-002, 1.4039568E-001, 4.6253437E-002, 3.0852938E-003, 4.1298342E-003, 9.8605060E-003, 4.1814450E+002
 1.4500176E+002, 7.7510887E-002, 1.4060323E-001, 4.6272554E-002, 3.0067976E-003, 3.7110457E-003, 9.8571506E-003, 4.2320831E+002
 1.4600200E+002, 7.7103109E-002, 1.4042763E-001, 4.6425831E-002, 3.3947787E-003, 4.2548799E-003, 9.9295824E-003, 4.2148481E+002
 1.4700391E+002, 7.6806564E-002, 1.4095814E-001, 4.6478529E-002, 3.2096078E-003, 4.0609648E-003, 9.9243884E-003, 4.2161995E+002
 1.4800013E+002, 7.7525171E-002, 1.4051735E-001, 4.6255090E-002, 3.0220050E-003, 3.9648634E-003, 9.8548046E-003, 4.2174761E+002
 1.4900017E+002, 7.7381129E-002, 1.4048217E-001, 4.6296316E-002, 3.1210654E-003, 4.2315703E-003, 9.8739380E-003, 4.2060141E+002
 1.5000068E+002, 7.7065933E-002, 1.4072958E-001, 4.6396753E-002, 3.1780260E-003, 4.1572374E-003, 9.9025290E-003, 4.2151011E+002
 1.5100112E+002, 7.7181456E-002, 1.4044455E-001, 4.6380616E-002, 3.3011139E-003, 4.3273870E-003, 9.9104289E-003, 4.2171160E+002
 1.5200305E+002, 7.6513769E-002, 1.4057887E-001, 4.6615749E-002, 3.6761498E-003, 4.6354448E-003, 1.0000429E-002, 4.2644979E+002
 1.5301168E+002, 7.6249326E-002, 1.4073045E-001, 4.6640397E-002, 3.6474417E-003, 5.2291307E-003, 1.0004207E-002, 4.2388072E+002
 1.5400106E+002, 7.6439713E-002, 1.4104112E-001, 4.6606125E-002, 3.4077560E-003, 4.2292735E-003, 9.9727292E-003, 4.2549133E+002
