s,,,,,,,
Time,"O2 EXHAUST","CO2 EXHAUST","H2O EXHAUST","CO EXHAUST","FUEL EXHAUST","SOOT EXHAUST","TEMP EXHAUST"
 0.0000000E+000, 2.3118142E-001, 5.9193618E-004, 5.1492695E-003, 0.0000000E+000, 0.0000000E+000, 0.0000000E+000, 2.0000000E+001
 1.0022244E+000, 2.3118142E-001, 5.9193618E-004, 5.1492695E-003, 8.9554388E-031, 5.5360370E-030, 2.5006075E-031, 2.0256867E+001
 2.0035086E+000, 2.2544688E-001, 5.8103895E-003, 7.3410168E-003, 2.5996172E-005, 3.0559108E-004, 3.7049957E-005, 8.3260895E+001
 3.0005962E+000, 2.2020543E-001, 1.0568615E-002, 9.3702779E-003, 8.1715177E-005, 4.5001348E-004, 7.7759102E-005, 1.2783541E+002
 4.0028882E+000, 2.1555891E-001, 1.4712881E-002, 1.1155103E-002, 1.4994651E-004, 8.1070695E-004, 1.1747921E-004, 1.7148576E+002
 5.0066013E+000, 2.1136963E-001, 1.8528652E-002, 1.2781698E-002, 1.9356845E-004, 8.7239410E-004, 1.4989542E-004, 2.0531231E+002
 6.0060851E+000, 2.0833365E-001, 2.1346317E-002, 1.3950715E-002, 1.9145442E-004, 8.7231470E-004, 1.6640520E-004, 2.3217446E+002
 7.0004234E+000, 1.9742506E-001, 3.1448959E-002, 1.8166574E-002, 2.0950482E-004, 8.2094849E-004, 2.3114589E-004, 3.0429549E+002
 8.0020822E+000, 1.9341277E-001, 3.5207459E-002, 1.9715946E-002, 1.9558006E-004, 7.2490999E-004, 2.5076530E-004, 3.3427565E+002
 9.0044067E+000, 1.9032509E-001, 3.8108655E-002, 2.0911496E-002, 1.8420063E-004, 6.1385313E-004, 2.6577293E-004, 3.5203679E+002
 1.0001300E+001, 1.8289962E-001, 4.5090256E-002, 2.3777574E-002, 1.4541656E-004, 3.9271053E-004, 2.9942171E-004, 3.8606848E+002
 1.1008689E+001, 1.7543124E-001, 5.2081920E-002, 2.6661069E-002, 1.2096602E-004, 2.2533884E-004, 3.3623262E-004, 4.1543556E+002
 1.2008839E+001, 1.6896489E-001, 5.8120750E-002, 2.9156309E-002, 1.0504473E-004, 1.1819182E-004, 3.6915151E-004, 4.3583429E+002
 1.3009655E+001, 1.6322955E-001, 6.3473405E-002, 3.1369266E-002, 9.2296542E-005, 3.1289751E-005, 3.9862509E-004, 4.5084704E+002
 1.4004823E+001, 1.5809379E-001, 6.8238478E-002, 3.3350950E-002, 9.3605493E-005, 8.7916165E-006, 4.2760217E-004, 4.5876975E+002
 1.5003449E+001, 1.5612702E-001, 7.0059229E-002, 3.4109842E-002, 9.5935996E-005, 8.2934089E-006, 4.3907048E-004, 4.4433450E+002
 1.6002026E+001, 1.5044436E-001, 7.5321320E-002, 3.6302582E-002, 1.0211444E-004, 3.8761252E-006, 4.7209414E-004, 4.5676566E+002
 1.7000686E+001, 1.4783132E-001, 7.7740873E-002, 3.7310900E-002, 1.0503899E-004, 1.8241992E-006, 4.8729680E-004, 4.5882069E+002
 1.8007824E+001, 1.4214355E-001, 8.3006184E-002, 3.9505543E-002, 1.1183470E-004, 8.6811619E-007, 5.2047343E-004, 4.6666205E+002
 1.9001536E+001, 1.3454088E-001, 9.0043520E-002, 4.2439152E-002, 1.2131073E-004, 2.8539220E-007, 5.6490064E-004, 4.8074698E+002
 2.0008399E+001, 1.3127713E-001, 9.3064806E-002, 4.3698439E-002, 1.2519168E-004, 4.6062444E-008, 5.8393371E-004, 4.8190090E+002
 2.1006636E+001, 1.2846089E-001, 9.5671337E-002, 4.4785165E-002, 1.2887147E-004, 1.9710654E-007, 6.0042571E-004, 4.7770496E+002
 2.2010232E+001, 1.2370442E-001, 1.0007327E-001, 4.6620670E-002, 1.3533460E-004, 6.1875947E-007, 6.2833134E-004, 4.8817280E+002
 2.3001940E+001, 1.2222806E-001, 1.0144076E-001, 4.7190126E-002, 1.3653351E-004, 4.9527474E-008, 6.3682541E-004, 4.7784143E+002
 2.4003978E+001, 1.1696622E-001, 1.0631122E-001, 4.9220453E-002, 1.4310392E-004, 5.4805234E-008, 6.6757562E-004, 4.8396065E+002
 2.5000281E+001, 1.1511333E-001, 1.0802557E-001, 4.9935543E-002, 1.4588394E-004, 7.0191870E-007, 6.7850047E-004, 4.9056305E+002
 2.6008600E+001, 1.0984882E-001, 1.1289912E-001, 5.1966800E-002, 1.5207394E-004, 8.1626324E-008, 7.0918698E-004, 4.9081344E+002
 2.7003633E+001, 1.0859202E-001, 1.1406247E-001, 5.2451743E-002, 1.5362764E-004, 7.0446071E-008, 7.1652849E-004, 4.8328201E+002
 2.8010174E+001, 1.0598195E-001, 1.1647806E-001, 5.3458919E-002, 1.5709935E-004, 3.9483379E-007, 7.3182569E-004, 4.8966921E+002
 2.9000231E+001, 1.0291323E-001, 1.1931874E-001, 5.4642987E-002, 1.6080915E-004, 1.5399265E-007, 7.4973417E-004, 4.8898524E+002
 3.0008125E+001, 1.0064253E-001, 1.2142065E-001, 5.5519130E-002, 1.6356733E-004, 7.2739347E-008, 7.6298810E-004, 4.8992818E+002
 3.1005541E+001, 1.0115131E-001, 1.2094945E-001, 5.5322883E-002, 1.6312608E-004, 2.0578423E-007, 7.6005516E-004, 4.7780122E+002
 3.2006485E+001, 1.0243383E-001, 1.1976258E-001, 5.4827947E-002, 1.6134116E-004, 7.4599740E-008, 7.5252197E-004, 4.6190785E+002
 3.3006678E+001, 9.3043446E-002, 1.2805558E-001, 5.8534028E-002, 4.3846020E-004, 2.9126242E-004, 8.6242135E-004, 5.0024072E+002
 3.4008813E+001, 9.1762683E-002, 1.2923828E-001, 5.9021525E-002, 4.3442476E-004, 3.3751444E-004, 8.6867025E-004, 4.8688362E+002
 3.5002380E+001, 9.0230385E-002, 1.3063658E-001, 5.9609809E-002, 4.4232330E-004, 3.9537173E-004, 8.7879967E-004, 4.9350451E+002
 3.6003051E+001, 8.7934212E-002, 1.3273852E-001, 6.0499801E-002, 4.5989334E-004, 4.1775806E-004, 8.9525867E-004, 4.9351140E+002
 3.7006431E+001, 8.9750557E-002, 1.3105142E-001, 5.9797006E-002, 4.5826753E-004, 4.4119638E-004, 8.8474774E-004, 4.7375264E+002
 3.8005035E+001, 8.8111077E-002, 1.3239281E-001, 6.0462010E-002, 5.7324779E-004, 5.9484043E-004, 9.1770402E-004, 4.7111721E+002
 3.9002028E+001, 8.4975701E-002, 1.3471765E-001, 6.1762981E-002, 9.3182624E-004, 1.1896529E-003, 1.0092912E-003, 4.7682016E+002
 4.0006515E+001, 8.3296706E-002, 1.3582742E-001, 6.2454748E-002, 1.1798482E-003, 1.8068842E-003, 1.0696406E-003, 4.6822920E+002
 4.1004752E+001, 8.1109588E-002, 1.3765636E-001, 6.3338228E-002, 1.3116333E-003, 1.9555088E-003, 1.1091689E-003, 4.7475318E+002
 4.2009692E+001, 8.2493228E-002, 1.3682242E-001, 6.2739306E-002, 1.0411172E-003, 1.4617070E-003, 1.0456138E-003, 4.7003172E+002
 4.3006422E+001, 8.0265226E-002, 1.3845195E-001, 6.3669552E-002, 1.3120392E-003, 1.8940766E-003, 1.1140473E-003, 4.6921721E+002
 4.4002975E+001, 8.1412090E-002, 1.3754151E-001, 6.3194110E-002, 1.2084415E-003, 1.7933626E-003, 1.0861491E-003, 4.5991670E+002
 4.5001847E+001, 7.9761532E-002, 1.3884352E-001, 6.3857288E-002, 1.3395657E-003, 2.0827999E-003, 1.1223618E-003, 4.6713099E+002
 4.6001538E+001, 7.9266230E-002, 1.3914279E-001, 6.4076464E-002, 1.4409934E-003, 2.2290579E-003, 1.1461103E-003, 4.6250703E+002
 4.7004097E+001, 7.8559532E-002, 1.3961266E-001, 6.4396091E-002, 1.5734574E-003, 2.3104927E-003, 1.1776013E-003, 4.6764626E+002
 4.8001523E+001, 7.8037384E-002, 1.3985629E-001, 6.4546289E-002, 1.6295357E-003, 3.0987887E-003, 1.1912048E-003, 4.5683297E+002
 4.9001509E+001, 7.7321866E-002, 1.4042719E-001, 6.4861177E-002, 1.7116789E-003, 3.0449231E-003, 1.2124157E-003, 4.5223165E+002
 5.0003405E+001, 7.6760933E-002, 1.4102476E-001, 6.5094910E-002, 1.6948041E-003, 2.7840132E-003, 1.2123620E-003, 4.6087367E+002
 5.1010876E+001, 7.5973000E-002, 1.4139146E-001, 6.5460989E-002, 1.9234922E-003, 3.1285203E-003, 1.2640526E-003, 4.5830435E+002
 5.2006038E+001, 7.5708685E-002, 1.4153054E-001, 6.5524022E-002, 1.9313715E-003, 3.5751677E-003, 1.2665965E-003, 4.4606309E+002
 5.3005799E+001, 7.5850592E-002, 1.4106965E-001, 6.5536236E-002, 2.1490270E-003, 3.8239598E-003, 1.3109161E-003, 4.5019209E+002
 5.4002037E+001, 7.4948836E-002, 1.4180531E-001, 6.5919331E-002, 2.2310825E-003, 3.8074702E-003, 1.3331004E-003, 4.4844684E+002
 5.5011065E+001, 7.5139697E-002, 1.4180054E-001, 6.5794247E-002, 2.1002125E-003, 3.7779576E-003, 1.3047552E-003, 4.3141722E+002
 5.6003718E+001, 7.5017164E-002, 1.4203167E-001, 6.5865687E-002, 2.0720918E-003, 3.3970372E-003, 1.3000612E-003, 4.3643018E+002
 5.7006424E+001, 7.3811341E-002, 1.4257827E-001, 6.6396791E-002, 2.3986447E-003, 4.1302129E-003, 1.3740115E-003, 4.4482156E+002
 5.8008425E+001, 7.4292780E-002, 1.4177889E-001, 6.6151368E-002, 2.4963581E-003, 5.1963129E-003, 1.3903439E-003, 4.2337502E+002
 5.9008578E+001, 7.5535900E-002, 1.4138306E-001, 6.5631078E-002, 2.1120388E-003, 3.9414228E-003, 1.3048007E-003, 4.1103800E+002
 6.0003136E+001, 7.5224344E-002, 1.4163599E-001, 6.5788509E-002, 2.1667797E-003, 3.7859093E-003, 1.3181675E-003, 4.0028106E+002
 6.1002353E+001, 7.5186537E-002, 1.4187239E-001, 6.5789449E-002, 2.0618003E-003, 3.4681329E-003, 1.2968755E-003, 3.9917133E+002
 6.2007206E+001, 7.5352819E-002, 1.4191550E-001, 6.5699707E-002, 1.9462531E-003, 3.2315637E-003, 1.2721333E-003, 3.9693865E+002
 6.3010246E+001, 7.5402097E-002, 1.4188284E-001, 6.5686504E-002, 1.9463260E-003, 3.1704868E-003, 1.2719523E-003, 3.8230262E+002
 6.4008840E+001, 7.6910805E-002, 1.4079654E-001, 6.5048756E-002, 1.7470679E-003, 2.8911428E-003, 1.2222964E-003, 3.7639204E+002
 6.5005999E+001, 7.7490521E-002, 1.4043163E-001, 6.4792630E-002, 1.6353815E-003, 2.7466105E-003, 1.1959329E-003, 3.7377814E+002
 6.6000066E+001, 7.8326092E-002, 1.3975707E-001, 6.4453045E-002, 1.5719961E-003, 2.6542507E-003, 1.1781559E-003, 3.6210800E+002
 6.7002171E+001, 7.7785055E-002, 1.4029932E-001, 6.4657590E-002, 1.5496044E-003, 2.5974170E-003, 1.1765761E-003, 3.6546157E+002
 6.8001523E+001, 7.7398048E-002, 1.4059765E-001, 6.4832184E-002, 1.6031625E-003, 2.5630932E-003, 1.1899608E-003, 3.7165712E+002
 6.9000333E+001, 7.9153546E-002, 1.3916955E-001, 6.4110069E-002, 1.4659826E-003, 2.4433049E-003, 1.1516791E-003, 3.6670778E+002
 7.0000714E+001, 8.0264717E-002, 1.3827265E-001, 6.3652579E-002, 1.3755455E-003, 2.3560066E-003, 1.1267101E-003, 3.6131642E+002
 7.1003027E+001, 8.2460655E-002, 1.3642433E-001, 6.2771145E-002, 1.2544291E-003, 2.1965869E-003, 1.0893735E-003, 3.6264777E+002
 7.2000941E+001, 8.3938482E-002, 1.3519420E-001, 6.2175370E-002, 1.1640412E-003, 2.0776454E-003, 1.0624084E-003, 3.6178553E+002
 7.3008159E+001, 8.5998575E-002, 1.3344112E-001, 6.1356910E-002, 1.0677451E-003, 1.9147737E-003, 1.0310157E-003, 3.6064504E+002
 7.4000546E+001, 8.7863794E-002, 1.3187725E-001, 6.0611080E-002, 9.6506602E-004, 1.7499356E-003, 9.9938119E-004, 3.6437497E+002
 7.5000565E+001, 8.9416438E-002, 1.3057608E-001, 5.9991333E-002, 8.8043750E-004, 1.6047987E-003, 9.7323435E-004, 3.6306963E+002
 7.6007723E+001, 9.1901806E-002, 1.2843154E-001, 5.9011873E-002, 7.8581470E-004, 1.4187898E-003, 9.3984635E-004, 3.5964883E+002
 7.7008133E+001, 9.3495612E-002, 1.2701550E-001, 5.8387635E-002, 7.4754582E-004, 1.3571943E-003, 9.2303888E-004, 3.4578697E+002
 7.8012741E+001, 9.5088085E-002, 1.2552912E-001, 5.7766066E-002, 7.4382247E-004, 1.4248747E-003, 9.1328296E-004, 3.2606461E+002
 7.9002948E+001, 9.6292374E-002, 1.2438996E-001, 5.7292641E-002, 7.4435767E-004, 1.5265928E-003, 9.0653941E-004, 3.0952039E+002
 8.0000425E+001, 9.7017934E-002, 1.2384297E-001, 5.6995361E-002, 6.6933632E-004, 1.3839041E-003, 8.8701269E-004, 3.3920866E+002
 8.1004081E+001, 9.7608593E-002, 1.2338517E-001, 5.6759113E-002, 6.1984606E-004, 1.2576329E-003, 8.7354731E-004, 3.5119727E+002
 8.2009375E+001, 9.7407426E-002, 1.2367773E-001, 5.6830076E-002, 5.6520162E-004, 1.0865019E-003, 8.6348500E-004, 3.5858035E+002
 8.3003671E+001, 9.8151587E-002, 1.2302116E-001, 5.6538377E-002, 5.4501526E-004, 1.0500548E-003, 8.5516346E-004, 3.4768075E+002
 8.4001030E+001, 9.8746923E-002, 1.2256213E-001, 5.6297648E-002, 4.9136103E-004, 9.3386175E-004, 8.4078977E-004, 3.5451264E+002
 8.5004553E+001, 1.0100245E-001, 1.2050022E-001, 5.5422607E-002, 4.7199937E-004, 9.1111830E-004, 8.2418417E-004, 3.4012709E+002
 8.6006454E+001, 1.0251582E-001, 1.1917361E-001, 5.4828402E-002, 4.2603461E-004, 8.2584109E-004, 8.0624996E-004, 3.5048705E+002
 8.7002684E+001, 1.0158256E-001, 1.2009275E-001, 5.5185026E-002, 3.9863611E-004, 7.3698156E-004, 8.0585626E-004, 3.6357243E+002
 8.8009752E+001, 1.0341367E-001, 1.1845423E-001, 5.4473826E-002, 3.6608939E-004, 6.5304483E-004, 7.8894713E-004, 3.5679611E+002
 8.9012141E+001, 1.0517433E-001, 1.1685784E-001, 5.3787373E-002, 3.4154731E-004, 6.2981302E-004, 7.7402383E-004, 3.5432905E+002
 9.0000030E+001, 1.0577689E-001, 1.1632105E-001, 5.3552235E-002, 3.2861732E-004, 6.0417165E-004, 7.6799368E-004, 3.5016310E+002
 9.1007116E+001, 1.0650038E-001, 1.1565884E-001, 5.3268975E-002, 3.2012133E-004, 6.1415631E-004, 7.6216781E-004, 3.4435841E+002
 9.2009742E+001, 1.0666497E-001, 1.1553227E-001, 5.3201917E-002, 3.0461859E-004, 5.8445392E-004, 7.5805118E-004, 3.4994357E+002
 9.3003547E+001, 1.0654397E-001, 1.1569677E-001, 5.3245626E-002, 2.7798837E-004, 4.9812689E-004, 7.5327947E-004, 3.7212826E+002
 9.4011208E+001, 1.0745893E-001, 1.1489780E-001, 5.2889045E-002, 2.5154918E-004, 4.2422489E-004, 7.4274744E-004, 3.7443318E+002
 9.5000275E+001, 1.0802005E-001, 1.1440628E-001, 5.2669442E-002, 2.3508394E-004, 3.8755805E-004, 7.3622489E-004, 3.7651876E+002
 9.6000527E+001, 1.0832654E-001, 1.1412550E-001, 5.2548646E-002, 2.3077319E-004, 3.9713977E-004, 7.3360145E-004, 3.7140971E+002
 9.7000759E+001, 1.0999879E-001, 1.1258788E-001, 5.1900470E-002, 2.2104364E-004, 3.9452093E-004, 7.2223716E-004, 3.6652026E+002
 9.8008296E+001, 1.1020782E-001, 1.1239157E-001, 5.1815524E-002, 2.1764100E-004, 4.2618635E-004, 7.2031891E-004, 3.6138958E+002
 9.9006010E+001, 1.0927941E-001, 1.1328671E-001, 5.2174933E-002, 2.0384971E-004, 3.4788400E-004, 7.2272485E-004, 3.8503658E+002
 1.0000108E+002, 1.0937697E-001, 1.1320060E-001, 5.2134991E-002, 1.9946376E-004, 3.5348612E-004, 7.2125740E-004, 3.7733302E+002
 1.0100240E+002, 1.0856799E-001, 1.1397043E-001, 5.2446625E-002, 1.9044580E-004, 3.1480309E-004, 7.2394174E-004, 3.8791341E+002
 1.0200109E+002, 1.0743343E-001, 1.1503469E-001, 5.2884316E-002, 1.8540905E-004, 2.8732354E-004, 7.2926050E-004, 3.9677365E+002
 1.0300412E+002, 1.0821502E-001, 1.1431641E-001, 5.2582055E-002, 1.8139796E-004, 2.8117189E-004, 7.2406732E-004, 3.8946028E+002
 1.0400818E+002, 1.0660157E-001, 1.1582043E-001, 5.3204539E-002, 1.7855309E-004, 2.6059063E-004, 7.3250848E-004, 4.1055047E+002
 1.0500186E+002, 1.0619574E-001, 1.1620994E-001, 5.3362626E-002, 1.7433442E-004, 2.2395806E-004, 7.3394110E-004, 4.1004530E+002
 1.0600861E+002, 1.0676839E-001, 1.1567507E-001, 5.3138189E-002, 1.7221194E-004, 2.5462951E-004, 7.3026116E-004, 4.0364311E+002
 1.0700269E+002, 1.0440978E-001, 1.1787386E-001, 5.4054560E-002, 1.7457449E-004, 1.8541834E-004, 7.4401260E-004, 4.2792837E+002
 1.0800098E+002, 1.0412001E-001, 1.1815428E-001, 5.4167669E-002, 1.7076579E-004, 1.5325033E-004, 7.4487696E-004, 4.2377955E+002
 1.0900835E+002, 1.0327631E-001, 1.1892664E-001, 5.4489683E-002, 1.7205496E-004, 1.9179733E-004, 7.4980698E-004, 4.2116426E+002
 1.1000338E+002, 1.0308801E-001, 1.1910746E-001, 5.4563312E-002, 1.7034175E-004, 1.7291007E-004, 7.5052510E-004, 4.2059591E+002
 1.1100187E+002, 1.0216589E-001, 1.1995127E-001, 5.4915474E-002, 1.7213113E-004, 2.1440881E-004, 7.5599357E-004, 4.2376801E+002
 1.1200310E+002, 1.0042560E-001, 1.2154421E-001, 5.5586498E-002, 1.8189244E-004, 2.5297698E-004, 7.6769803E-004, 4.3001014E+002
 1.1300049E+002, 9.8439310E-002, 1.2337083E-001, 5.6352938E-002, 1.8977501E-004, 2.7664982E-004, 7.8040304E-004, 4.3871677E+002
 1.1401129E+002, 9.7371556E-002, 1.2428944E-001, 5.6776498E-002, 2.3450462E-004, 3.4514563E-004, 7.9561306E-004, 4.4045928E+002
 1.1500625E+002, 9.6856682E-002, 1.2479999E-001, 5.6962536E-002, 2.0679046E-004, 3.5428363E-004, 7.9269099E-004, 4.4378129E+002
 1.1600009E+002, 9.4710926E-002, 1.2672570E-001, 5.7792836E-002, 2.3918307E-004, 4.6032911E-004, 8.1129621E-004, 4.4475232E+002
 1.1701082E+002, 9.2378619E-002, 1.2880771E-001, 5.8711516E-002, 2.9609330E-004, 4.9932572E-004, 8.3614733E-004, 4.5550078E+002
 1.1801051E+002, 9.0556743E-002, 1.3033790E-001, 5.9447116E-002, 4.0250355E-004, 6.1192752E-004, 8.6838607E-004, 4.5495286E+002
 1.1900718E+002, 8.8483348E-002, 1.3206195E-001, 6.0288551E-002, 5.3587223E-004, 7.4865634E-004, 9.0762524E-004, 4.5438025E+002
 1.2000575E+002, 8.7283020E-002, 1.3322353E-001, 6.0738781E-002, 5.0122543E-004, 7.2664041E-004, 9.0712340E-004, 4.6060062E+002
 1.2100666E+002, 8.5880354E-002, 1.3426657E-001, 6.1342696E-002, 6.8286113E-004, 8.5377217E-004, 9.5270522E-004, 4.5676846E+002
 1.2201239E+002, 8.4833354E-002, 1.3528455E-001, 6.1723438E-002, 6.3814768E-004, 8.9781825E-004, 9.4916074E-004, 4.5677942E+002
 1.2301126E+002, 8.2973906E-002, 1.3661234E-001, 6.2551073E-002, 9.3160773E-004, 1.0112750E-003, 1.0206526E-003, 4.5758131E+002
 1.2400369E+002, 8.1482052E-002, 1.3769304E-001, 6.3200706E-002, 1.1452732E-003, 1.1590332E-003, 1.0733916E-003, 4.5790238E+002
 1.2500505E+002, 8.0432392E-002, 1.3819436E-001, 6.3732156E-002, 1.4892305E-003, 1.3266133E-003, 1.1508330E-003, 4.5692903E+002
 1.2600457E+002, 7.8720143E-002, 1.3940356E-001, 6.4479639E-002, 1.7504721E-003, 1.5467978E-003, 1.2146400E-003, 4.5979422E+002
 1.2700937E+002, 7.6422857E-002, 1.4072784E-001, 6.5579055E-002, 2.3350505E-003, 1.8488061E-003, 1.3491007E-003, 4.6467923E+002
 1.2800378E+002, 7.6166297E-002, 1.4069701E-001, 6.5746487E-002, 2.5270523E-003, 1.9668519E-003, 1.3904589E-003, 4.5538942E+002
 1.2901202E+002, 7.4367996E-002, 1.4213375E-001, 6.6480961E-002, 2.6739978E-003, 2.1735432E-003, 1.4309058E-003, 4.6547189E+002
 1.3000324E+002, 7.3412485E-002, 1.4203136E-001, 6.7117882E-002, 3.3972268E-003, 2.5074119E-003, 1.5867754E-003, 4.6052880E+002
 1.3100057E+002, 7.3253635E-002, 1.4294107E-001, 6.6969373E-002, 2.8368190E-003, 2.2645629E-003, 1.4709972E-003, 4.5321764E+002
 1.3200763E+002, 7.2547899E-002, 1.4308944E-001, 6.7362240E-002, 3.1899216E-003, 2.5366813E-003, 1.5482924E-003, 4.5646808E+002
 1.3300516E+002, 7.1042760E-002, 1.4395305E-001, 6.8094482E-002, 3.5870359E-003, 2.6701506E-003, 1.6394168E-003, 4.5795702E+002
 1.3400306E+002, 7.1040772E-002, 1.4390730E-001, 6.8110849E-002, 3.6246044E-003, 2.6700705E-003, 1.6472700E-003, 4.5565341E+002
 1.3500084E+002, 7.0324066E-002, 1.4426164E-001, 6.8464136E-002, 3.8441428E-003, 2.8187537E-003, 1.6969058E-003, 4.5658575E+002
 1.3600846E+002, 6.9966706E-002, 1.4468840E-001, 6.8569304E-002, 3.7675297E-003, 2.8265862E-003, 1.6828989E-003, 4.5140902E+002
 1.3700367E+002, 6.9100403E-002, 1.4506015E-001, 6.9028425E-002, 4.0914978E-003, 2.9238848E-003, 1.7552347E-003, 4.5563986E+002
 1.3800391E+002, 6.8862489E-002, 1.4484932E-001, 6.9220060E-002, 4.3893284E-003, 3.1749778E-003, 1.8184076E-003, 4.4852357E+002
 1.3900615E+002, 6.8741241E-002, 1.4491841E-001, 6.9289081E-002, 4.4318719E-003, 3.1257252E-003, 1.8280286E-003, 4.4593514E+002
 1.4000699E+002, 6.8009925E-002, 1.4496512E-001, 6.9740813E-002, 4.8920897E-003, 3.3495742E-003, 1.9278880E-003, 4.4928388E+002
 1.4101164E+002, 6.7377490E-002, 1.4466799E-001, 7.0225367E-002, 5.5392650E-003, 3.6442522E-003, 2.0661290E-003, 4.4894708E+002
 1.4200236E+002, 6.7384700E-002, 1.4510657E-001, 7.0101949E-002, 5.2138756E-003, 3.4912489E-003, 1.9983650E-003, 4.4490351E+002
 1.4300047E+002, 6.7054179E-002, 1.4489930E-001, 7.0373694E-002, 5.5946465E-003, 3.6362284E-003, 2.0795048E-003, 4.4181775E+002
 1.4400922E+002, 6.6849631E-002, 1.4500838E-001, 7.0472339E-002, 5.6514631E-003, 3.6761112E-003, 2.0924551E-003, 4.3901196E+002
 1.4501187E+002, 6.6268189E-002, 1.4514616E-001, 7.0809170E-002, 5.9489131E-003, 3.7894860E-003, 2.1576444E-003, 4.3979457E+002
 1.4600431E+002, 6.6378247E-002, 1.4557018E-001, 7.0614955E-002, 5.5549227E-003, 3.6650523E-003, 2.0749496E-003, 4.4056489E+002
 1.4700033E+002, 6.6345908E-002, 1.4569450E-001, 7.0611356E-002, 5.4957708E-003, 3.5749385E-003, 2.0628992E-003, 4.3422384E+002
 1.4800234E+002, 6.5665996E-002, 1.4574142E-001, 7.1022152E-002, 5.9126025E-003, 3.8318911E-003, 2.1533725E-003, 4.3419814E+002
 1.4901085E+002, 6.5575721E-002, 1.4589218E-001, 7.1058973E-002, 5.8844095E-003, 3.6861215E-003, 2.1481797E-003, 4.3373380E+002
 1.5000374E+002, 6.5752418E-002, 1.4580890E-001, 7.0958914E-002, 5.8150934E-003, 3.7200756E-003, 2.1326804E-003, 4.2979244E+002
 1.5100562E+002, 6.5342563E-002, 1.4574838E-001, 7.1228615E-002, 6.1292040E-003, 3.9175578E-003, 2.2002808E-003, 4.3311989E+002
 1.5200295E+002, 6.4991554E-002, 1.4576739E-001, 7.1449337E-002, 6.3556580E-003, 4.0080616E-003, 2.2493934E-003, 4.2991978E+002
 1.5300976E+002, 6.4738684E-002, 1.4569165E-001, 7.1636206E-002, 6.5878957E-003, 4.0819768E-003, 2.2991868E-003, 4.3661965E+002
 1.5401062E+002, 6.5440318E-002, 1.4610784E-001, 7.1064315E-002, 5.7954602E-003, 3.7913417E-003, 2.1302328E-003, 4.3427835E+002
