s,C,C
Time,"cs-temp","hs-temp"
 0.0000000E+000, 2.0000000E+001, 2.0000000E+001
 1.0000000E+001, 2.0005255E+001, 2.5574700E+001
 2.0000000E+001, 2.0013511E+001, 3.5979064E+001
 3.0000000E+001, 2.0020797E+001, 4.5546798E+001
 4.0000000E+001, 2.0027480E+001, 5.4370519E+001
 5.0000000E+001, 2.0033717E+001, 6.2524478E+001
 6.0000000E+001, 2.0039603E+001, 7.0073929E+001
 7.0000000E+001, 2.0045200E+001, 7.7075565E+001
 8.0000000E+001, 2.0050555E+001, 8.3579880E+001
 9.0000000E+001, 2.0055700E+001, 8.9630602E+001
 1.0000000E+002, 2.0060665E+001, 9.5268081E+001
 1.1000000E+002, 2.0065472E+001, 1.0052903E+002
 1.2000000E+002, 2.0070139E+001, 1.0544474E+002
 1.3000000E+002, 2.0074686E+001, 1.1004419E+002
 1.4000000E+002, 2.0079128E+001, 1.1435347E+002
 1.5000000E+002, 2.0083485E+001, 1.1839772E+002
 1.6000000E+002, 2.0087772E+001, 1.2219843E+002
 1.7000000E+002, 2.0092009E+001, 1.2577531E+002
 1.8000000E+002, 2.0096215E+001, 1.2914704E+002
 1.9000000E+002, 2.0100412E+001, 1.3232996E+002
 2.0000000E+002, 2.0104621E+001, 1.3533976E+002
 2.1000000E+002, 2.0108868E+001, 1.3819052E+002
 2.2000000E+002, 2.0113177E+001, 1.4089440E+002
 2.3000000E+002, 2.0117577E+001, 1.4346317E+002
 2.4000000E+002, 2.0122097E+001, 1.4590762E+002
 2.5000000E+002, 2.0126767E+001, 1.4823716E+002
 2.6000000E+002, 2.0131620E+001, 1.5046066E+002
 2.7000000E+002, 2.0136689E+001, 1.5258646E+002
 2.8000000E+002, 2.0142009E+001, 1.5462214E+002
 2.9000000E+002, 2.0147616E+001, 1.5657484E+002
 3.0000000E+002, 2.0153547E+001, 1.5845066E+002
 3.1000000E+002, 2.0159839E+001, 1.6025526E+002
 3.2000000E+002, 2.0166532E+001, 1.6199356E+002
 3.3000000E+002, 2.0173664E+001, 1.6367063E+002
 3.4000000E+002, 2.0181275E+001, 1.6529080E+002
 3.5000000E+002, 2.0189404E+001, 1.6685827E+002
 3.6000000E+002, 2.0198093E+001, 1.6837665E+002
 3.7000000E+002, 2.0207386E+001, 1.6984951E+002
 3.8000000E+002, 2.0217319E+001, 1.7128014E+002
 3.9000000E+002, 2.0227931E+001, 1.7267131E+002
 4.0000000E+002, 2.0239260E+001, 1.7402599E+002
 4.1000000E+002, 2.0251343E+001, 1.7534675E+002
 4.2000000E+002, 2.0264216E+001, 1.7663583E+002
 4.3000000E+002, 2.0277917E+001, 1.7789537E+002
 4.4000000E+002, 2.0292479E+001, 1.7912715E+002
 4.5000000E+002, 2.0307938E+001, 1.8033304E+002
 4.6000000E+002, 2.0324329E+001, 1.8151448E+002
 4.7000000E+002, 2.0341716E+001, 1.8267343E+002
 4.8000000E+002, 2.0360131E+001, 1.8381098E+002
 4.9000000E+002, 2.0379582E+001, 1.8492851E+002
 5.0000000E+002, 2.0400088E+001, 1.8602720E+002
 5.1000000E+002, 2.0421675E+001, 1.8710809E+002
 5.2000000E+002, 2.0444368E+001, 1.8817238E+002
 5.3000000E+002, 2.0468191E+001, 1.8922114E+002
 5.4000000E+002, 2.0493194E+001, 1.9025514E+002
 5.5000000E+002, 2.0519487E+001, 1.9127503E+002
 5.6000000E+002, 2.0546966E+001, 1.9228153E+002
 5.7000000E+002, 2.0575650E+001, 1.9327516E+002
 5.8000000E+002, 2.0605565E+001, 1.9425649E+002
 5.9000000E+002, 2.0636773E+001, 1.9522613E+002
 6.0000000E+002, 2.0669357E+001, 1.9618446E+002
 6.1000000E+002, 2.0703196E+001, 1.9713192E+002
 6.2000000E+002, 2.0738467E+001, 1.9806873E+002
 6.3000000E+002, 2.0775095E+001, 1.9899521E+002
 6.4000000E+002, 2.0813034E+001, 1.9991155E+002
 6.5000000E+002, 2.0852241E+001, 2.0081804E+002
 6.6000000E+002, 2.0892778E+001, 2.0171519E+002
 6.7000000E+002, 2.0934656E+001, 2.0260319E+002
 6.8000000E+002, 2.0977885E+001, 2.0348236E+002
 6.9000000E+002, 2.1022469E+001, 2.0435277E+002
 7.0000000E+002, 2.1068527E+001, 2.0521488E+002
 7.1000000E+002, 2.1116387E+001, 2.0606878E+002
 7.2000000E+002, 2.1165566E+001, 2.0691468E+002
 7.3000000E+002, 2.1216008E+001, 2.0775267E+002
 7.4000000E+002, 2.1267773E+001, 2.0858300E+002
 7.5000000E+002, 2.1320884E+001, 2.0940574E+002
 7.6000000E+002, 2.1375384E+001, 2.1022122E+002
 7.7000000E+002, 2.1431585E+001, 2.1102950E+002
 7.8000000E+002, 2.1489025E+001, 2.1183055E+002
 7.9000000E+002, 2.1547870E+001, 2.1262464E+002
 8.0000000E+002, 2.1608224E+001, 2.1341184E+002
 8.1000000E+002, 2.1670085E+001, 2.1419240E+002
 8.2000000E+002, 2.1733559E+001, 2.1496629E+002
 8.3000000E+002, 2.1798165E+001, 2.1573361E+002
 8.4000000E+002, 2.1863885E+001, 2.1649446E+002
 8.5000000E+002, 2.1931102E+001, 2.1724903E+002
 8.6000000E+002, 2.1999586E+001, 2.1799746E+002
 8.7000000E+002, 2.2069295E+001, 2.1873976E+002
 8.8000000E+002, 2.2140536E+001, 2.1947594E+002
 8.9000000E+002, 2.2213398E+001, 2.2020598E+002
 9.0000000E+002, 2.2287648E+001, 2.2093026E+002
 9.1000000E+002, 2.2363290E+001, 2.2164865E+002
 9.2000000E+002, 2.2439988E+001, 2.2236158E+002
 9.3000000E+002, 2.2518261E+001, 2.2306926E+002
 9.4000000E+002, 2.2597097E+001, 2.2377145E+002
 9.5000000E+002, 2.2677456E+001, 2.2446822E+002
 9.6000000E+002, 2.2759246E+001, 2.2515991E+002
 9.7000000E+002, 2.2842213E+001, 2.2584651E+002
 9.8000000E+002, 2.2927536E+001, 2.2652790E+002
 9.9000000E+002, 2.3013273E+001, 2.2720428E+002
 1.0000000E+003, 2.3099808E+001, 2.2787579E+002
 1.0100000E+003, 2.3187550E+001, 2.2896404E+002
 1.0200000E+003, 2.3276292E+001, 2.3187250E+002
 1.0300000E+003, 2.3366649E+001, 2.3677771E+002
 1.0400000E+003, 2.3457948E+001, 2.4352700E+002
 1.0500000E+003, 2.3550899E+001, 2.5194513E+002
 1.0600000E+003, 2.3645504E+001, 2.6188147E+002
 1.0700000E+003, 2.3740902E+001, 2.7317106E+002
 1.0800000E+003, 2.3836406E+001, 2.8567764E+002
 1.0900000E+003, 2.3932923E+001, 2.9925240E+002
 1.1000000E+003, 2.4030801E+001, 3.1377487E+002
 1.1100000E+003, 2.4130320E+001, 3.2872536E+002
 1.1200000E+003, 2.4230914E+001, 3.4274789E+002
 1.1300000E+003, 2.4331993E+001, 3.5559955E+002
 1.1400000E+003, 2.4434753E+001, 3.6738377E+002
 1.1500000E+003, 2.4538538E+001, 3.7821780E+002
 1.1600000E+003, 2.4643022E+001, 3.8821668E+002
 1.1700000E+003, 2.4749084E+001, 3.9748741E+002
 1.1800000E+003, 2.4855706E+001, 4.0612621E+002
 1.1900000E+003, 2.4963255E+001, 4.1421798E+002
 1.2000000E+003, 2.5072215E+001, 4.2183685E+002
 1.2100000E+003, 2.5183811E+001, 4.2904746E+002
 1.2200000E+003, 2.5297508E+001, 4.3590196E+002
 1.2300000E+003, 2.5411579E+001, 4.4244763E+002
 1.2400000E+003, 2.5527393E+001, 4.4872723E+002
 1.2500000E+003, 2.5644363E+001, 4.5477763E+002
 1.2600000E+003, 2.5763838E+001, 4.6062752E+002
 1.2700000E+003, 2.5886500E+001, 4.6630280E+002
 1.2800000E+003, 2.6013965E+001, 4.7182608E+002
 1.2900000E+003, 2.6141379E+001, 4.7721702E+002
 1.3000000E+003, 2.6270898E+001, 4.8249180E+002
 1.3100000E+003, 2.6404436E+001, 4.8766427E+002
 1.3200000E+003, 2.6542804E+001, 4.9274317E+002
 1.3300000E+003, 2.6684994E+001, 4.9774734E+002
 1.3400000E+003, 2.6832104E+001, 5.0268897E+002
 1.3500000E+003, 2.6982405E+001, 5.0757129E+002
 1.3600000E+003, 2.7137621E+001, 5.1239940E+002
 1.3700000E+003, 2.7297681E+001, 5.1717443E+002
 1.3800000E+003, 2.7464679E+001, 5.2189823E+002
 1.3900000E+003, 2.7638541E+001, 5.2657112E+002
 1.4000000E+003, 2.7818353E+001, 5.3119352E+002
 1.4100000E+003, 2.8002508E+001, 5.3576645E+002
 1.4200000E+003, 2.8195365E+001, 5.4028992E+002
 1.4300000E+003, 2.8397234E+001, 5.4476442E+002
 1.4400000E+003, 2.8605456E+001, 5.4919013E+002
 1.4500000E+003, 2.8821541E+001, 5.5356724E+002
 1.4600000E+003, 2.9047504E+001, 5.5789678E+002
 1.4700000E+003, 2.9281476E+001, 5.6217992E+002
 1.4800000E+003, 2.9526908E+001, 5.6641689E+002
 1.4900000E+003, 2.9781606E+001, 5.7060855E+002
 1.5000000E+003, 3.0045606E+001, 5.7475476E+002
 1.5100000E+003, 3.0321183E+001, 5.7885593E+002
 1.5200000E+003, 3.0608896E+001, 5.8291084E+002
 1.5300000E+003, 3.0903922E+001, 5.8691918E+002
 1.5400000E+003, 3.1216685E+001, 5.9087958E+002
 1.5500000E+003, 3.1537733E+001, 5.9479166E+002
 1.5600000E+003, 3.1871062E+001, 5.9865657E+002
 1.5700000E+003, 3.2221406E+001, 6.0247399E+002
 1.5800000E+003, 3.2580597E+001, 6.0624265E+002
 1.5900000E+003, 3.2957534E+001, 6.0996667E+002
 1.6000000E+003, 3.3345385E+001, 6.1365057E+002
 1.6100000E+003, 3.3750739E+001, 6.1728682E+002
 1.6200000E+003, 3.4169810E+001, 6.2087525E+002
 1.6300000E+003, 3.4602923E+001, 6.2441690E+002
 1.6400000E+003, 3.5053168E+001, 6.2791357E+002
 1.6500000E+003, 3.5517124E+001, 6.3136584E+002
 1.6600000E+003, 3.5999243E+001, 6.3477531E+002
 1.6700000E+003, 3.6497490E+001, 6.3814165E+002
 1.6800000E+003, 3.7012164E+001, 6.4146513E+002
 1.6900000E+003, 3.7546602E+001, 6.4474720E+002
 1.7000000E+003, 3.8098265E+001, 6.4798796E+002
 1.7100000E+003, 3.8668598E+001, 6.5118839E+002
 1.7200000E+003, 3.9258867E+001, 6.5434802E+002
 1.7300000E+003, 3.9869532E+001, 6.5746694E+002
 1.7400000E+003, 4.0499402E+001, 6.6054562E+002
 1.7500000E+003, 4.1149783E+001, 6.6358456E+002
 1.7600000E+003, 4.1822121E+001, 6.6658414E+002
 1.7700000E+003, 4.2515229E+001, 6.6954532E+002
 1.7800000E+003, 4.3227956E+001, 6.7246841E+002
 1.7900000E+003, 4.3962573E+001, 6.7535371E+002
 1.8000000E+003, 4.4720049E+001, 6.7820244E+002
 1.8100000E+003, 4.5500194E+001, 6.8101508E+002
 1.8200000E+003, 4.6300240E+001, 6.8379157E+002
 1.8300000E+003, 4.7122148E+001, 6.8653265E+002
 1.8400000E+003, 4.7965872E+001, 6.8923879E+002
 1.8500000E+003, 4.8830497E+001, 6.9191097E+002
 1.8600000E+003, 4.9717175E+001, 6.9454980E+002
 1.8700000E+003, 5.0626596E+001, 6.9715545E+002
 1.8800000E+003, 5.1558703E+001, 6.9972864E+002
 1.8900000E+003, 5.2512009E+001, 7.0226974E+002
 1.9000000E+003, 5.3487947E+001, 7.0477895E+002
 1.9100000E+003, 5.4486756E+001, 7.0725660E+002
 1.9200000E+003, 5.5510653E+001, 7.0970285E+002
 1.9300000E+003, 5.6558968E+001, 7.1211771E+002
 1.9400000E+003, 5.7631213E+001, 7.1450208E+002
 1.9500000E+003, 5.8725468E+001, 7.1685668E+002
 1.9600000E+003, 5.9841359E+001, 7.1918204E+002
 1.9700000E+003, 6.0978311E+001, 7.2145421E+002
 1.9800000E+003, 6.2135115E+001, 7.2358547E+002
 1.9900000E+003, 6.3314426E+001, 7.2560759E+002
 2.0000000E+003, 6.4513072E+001, 7.2755748E+002
 2.0100000E+003, 6.5729716E+001, 7.2945086E+002
 2.0200000E+003, 6.6971610E+001, 7.3128482E+002
 2.0300000E+003, 6.8236534E+001, 7.3302623E+002
 2.0400000E+003, 6.9522647E+001, 7.3469625E+002
 2.0500000E+003, 7.0830903E+001, 7.3631507E+002
 2.0600000E+003, 7.2157188E+001, 7.3789317E+002
 2.0700000E+003, 7.3504430E+001, 7.3943626E+002
 2.0800000E+003, 7.4871652E+001, 7.4095163E+002
 2.0900000E+003, 7.6249452E+001, 7.4249756E+002
 2.1000000E+003, 7.7643009E+001, 7.4408302E+002
 2.1100000E+003, 7.9050609E+001, 7.4569715E+002
 2.1200000E+003, 8.0475329E+001, 7.4733157E+002
 2.1300000E+003, 8.1918583E+001, 7.4898031E+002
 2.1400000E+003, 8.3368978E+001, 7.5063938E+002
 2.1500000E+003, 8.4829854E+001, 7.5232568E+002
 2.1600000E+003, 8.6298734E+001, 7.5405115E+002
 2.1700000E+003, 8.7777664E+001, 7.5580845E+002
 2.1800000E+003, 8.9265237E+001, 7.5759237E+002
 2.1900000E+003, 9.0756261E+001, 7.5940187E+002
 2.2000000E+003, 9.2251132E+001, 7.6122953E+002
 2.2100000E+003, 9.3747701E+001, 7.6307069E+002
 2.2200000E+003, 9.5247898E+001, 7.6492052E+002
 2.2300000E+003, 9.6748264E+001, 7.6677626E+002
 2.2400000E+003, 9.8253339E+001, 7.6863828E+002
 2.2500000E+003, 9.9756453E+001, 7.7050364E+002
 2.2600000E+003, 1.0126901E+002, 7.7234300E+002
 2.2700000E+003, 1.0278622E+002, 7.7413926E+002
 2.2800000E+003, 1.0430803E+002, 7.7589859E+002
 2.2900000E+003, 1.0582706E+002, 7.7762599E+002
 2.3000000E+003, 1.0734144E+002, 7.7932717E+002
 2.3100000E+003, 1.0885541E+002, 7.8100154E+002
 2.3200000E+003, 1.1036334E+002, 7.8264496E+002
 2.3300000E+003, 1.1185922E+002, 7.8425913E+002
 2.3400000E+003, 1.1334937E+002, 7.8584751E+002
 2.3500000E+003, 1.1483143E+002, 7.8741205E+002
 2.3600000E+003, 1.1630780E+002, 7.8895605E+002
 2.3700000E+003, 1.1777200E+002, 7.9047924E+002
 2.3800000E+003, 1.1921792E+002, 7.9198302E+002
 2.3900000E+003, 1.2065482E+002, 7.9346816E+002
 2.4000000E+003, 1.2207926E+002, 7.9493613E+002
 2.4100000E+003, 1.2349488E+002, 7.9638699E+002
 2.4200000E+003, 1.2489089E+002, 7.9782194E+002
 2.4300000E+003, 1.2627113E+002, 7.9924016E+002
 2.4400000E+003, 1.2763733E+002, 8.0064201E+002
 2.4500000E+003, 1.2899998E+002, 8.0202390E+002
 2.4600000E+003, 1.3034347E+002, 8.0338490E+002
 2.4700000E+003, 1.3168283E+002, 8.0472756E+002
 2.4800000E+003, 1.3299944E+002, 8.0605292E+002
 2.4900000E+003, 1.3428934E+002, 8.0736204E+002
 2.5000000E+003, 1.3556237E+002, 8.0865604E+002
 2.5100000E+003, 1.3681051E+002, 8.0993507E+002
 2.5200000E+003, 1.3804720E+002, 8.1119959E+002
 2.5300000E+003, 1.3926620E+002, 8.1244965E+002
 2.5400000E+003, 1.4046459E+002, 8.1368603E+002
 2.5500000E+003, 1.4164265E+002, 8.1490916E+002
 2.5600000E+003, 1.4280231E+002, 8.1611926E+002
 2.5700000E+003, 1.4394365E+002, 8.1731695E+002
 2.5800000E+003, 1.4507853E+002, 8.1850222E+002
 2.5900000E+003, 1.4620656E+002, 8.1967529E+002
 2.6000000E+003, 1.4731249E+002, 8.2083641E+002
 2.6100000E+003, 1.4840329E+002, 8.2198593E+002
 2.6200000E+003, 1.4947811E+002, 8.2312340E+002
 2.6300000E+003, 1.5053185E+002, 8.2424892E+002
 2.6400000E+003, 1.5156443E+002, 8.2536261E+002
 2.6500000E+003, 1.5257451E+002, 8.2646484E+002
 2.6600000E+003, 1.5357616E+002, 8.2755596E+002
 2.6700000E+003, 1.5455126E+002, 8.2863590E+002
 2.6800000E+003, 1.5551271E+002, 8.2970482E+002
 2.6900000E+003, 1.5644965E+002, 8.3076302E+002
 2.7000000E+003, 1.5736057E+002, 8.3181076E+002
 2.7100000E+003, 1.5825239E+002, 8.3284796E+002
 2.7200000E+003, 1.5912895E+002, 8.3387460E+002
 2.7300000E+003, 1.5997684E+002, 8.3489078E+002
 2.7400000E+003, 1.6079980E+002, 8.3589685E+002
 2.7500000E+003, 1.6161059E+002, 8.3689306E+002
 2.7600000E+003, 1.6240110E+002, 8.3787962E+002
 2.7700000E+003, 1.6317145E+002, 8.3885649E+002
 2.7800000E+003, 1.6391795E+002, 8.3982380E+002
 2.7900000E+003, 1.6464520E+002, 8.4078201E+002
 2.8000000E+003, 1.6535019E+002, 8.4173107E+002
 2.8100000E+003, 1.6604397E+002, 8.4267079E+002
 2.8200000E+003, 1.6671597E+002, 8.4360129E+002
 2.8300000E+003, 1.6737308E+002, 8.4452261E+002
 2.8400000E+003, 1.6800980E+002, 8.4543492E+002
 2.8500000E+003, 1.6862539E+002, 8.4633832E+002
 2.8600000E+003, 1.6922189E+002, 8.4723302E+002
 2.8700000E+003, 1.6980288E+002, 8.4811893E+002
 2.8800000E+003, 1.7036125E+002, 8.4899637E+002
 2.8900000E+003, 1.7090384E+002, 8.4986567E+002
 2.9000000E+003, 1.7143566E+002, 8.5072701E+002
 2.9100000E+003, 1.7195580E+002, 8.5158011E+002
 2.9200000E+003, 1.7246017E+002, 8.5242477E+002
 2.9300000E+003, 1.7294638E+002, 8.5326130E+002
 2.9400000E+003, 1.7341812E+002, 8.5408983E+002
 2.9500000E+003, 1.7388778E+002, 8.5491055E+002
 2.9600000E+003, 1.7430362E+002, 8.5572360E+002
 2.9700000E+003, 1.7476181E+002, 8.5652932E+002
 2.9800000E+003, 1.7514207E+002, 8.5732762E+002
 2.9900000E+003, 1.7556435E+002, 8.5811862E+002
 3.0000000E+003, 1.7593436E+002, 8.5890221E+002
 3.0100000E+003, 1.7630552E+002, 8.5967888E+002
 3.0200000E+003, 1.7668461E+002, 8.6044887E+002
 3.0300000E+003, 1.7701774E+002, 8.6121173E+002
 3.0400000E+003, 1.7735616E+002, 8.6196765E+002
 3.0500000E+003, 1.7768504E+002, 8.6271709E+002
 3.0600000E+003, 1.7798644E+002, 8.6346039E+002
 3.0700000E+003, 1.7830651E+002, 8.6419727E+002
 3.0800000E+003, 1.7857054E+002, 8.6492782E+002
 3.0900000E+003, 1.7889178E+002, 8.6565228E+002
 3.1000000E+003, 1.7914136E+002, 8.6637096E+002
 3.1100000E+003, 1.7940463E+002, 8.6708326E+002
 3.1200000E+003, 1.7969152E+002, 8.6778860E+002
 3.1300000E+003, 1.7989852E+002, 8.6848760E+002
 3.1400000E+003, 1.8013394E+002, 8.6918014E+002
 3.1500000E+003, 1.8038713E+002, 8.6986614E+002
 3.1600000E+003, 1.8059978E+002, 8.7054633E+002
 3.1700000E+003, 1.8078200E+002, 8.7122047E+002
 3.1800000E+003, 1.8098373E+002, 8.7188804E+002
 3.1900000E+003, 1.8121990E+002, 8.7255045E+002
 3.2000000E+003, 1.8138779E+002, 8.7320725E+002
 3.2100000E+003, 1.8154306E+002, 8.7385820E+002
 3.2200000E+003, 1.8173951E+002, 8.7450450E+002
 3.2300000E+003, 1.8189762E+002, 8.7514505E+002
 3.2400000E+003, 1.8207390E+002, 8.7578045E+002
 3.2500000E+003, 1.8220677E+002, 8.7641122E+002
 3.2600000E+003, 1.8236818E+002, 8.7703628E+002
 3.2700000E+003, 1.8252453E+002, 8.7765689E+002
 3.2800000E+003, 1.8264021E+002, 8.7827235E+002
 3.2900000E+003, 1.8275324E+002, 8.7888287E+002
 3.3000000E+003, 1.8292631E+002, 8.7948923E+002
 3.3100000E+003, 1.8305155E+002, 8.8009040E+002
 3.3200000E+003, 1.8317400E+002, 8.8068717E+002
 3.3300000E+003, 1.8326234E+002, 8.8127883E+002
 3.3400000E+003, 1.8335526E+002, 8.8186589E+002
 3.3500000E+003, 1.8346925E+002, 8.8244839E+002
 3.3600000E+003, 1.8356604E+002, 8.8302604E+002
 3.3700000E+003, 1.8367139E+002, 8.8359983E+002
 3.3800000E+003, 1.8376356E+002, 8.8416900E+002
 3.3900000E+003, 1.8386406E+002, 8.8473437E+002
 3.4000000E+003, 1.8393652E+002, 8.8529532E+002
 3.4100000E+003, 1.8401153E+002, 8.8585245E+002
 3.4200000E+003, 1.8410027E+002, 8.8640509E+002
 3.4300000E+003, 1.8416624E+002, 8.8695306E+002
 3.4400000E+003, 1.8421876E+002, 8.8749675E+002
 3.4500000E+003, 1.8427120E+002, 8.8803613E+002
 3.4600000E+003, 1.8433253E+002, 8.8857149E+002
 3.4700000E+003, 1.8439207E+002, 8.8910278E+002
 3.4800000E+003, 1.8449058E+002, 8.8963021E+002
 3.4900000E+003, 1.8455389E+002, 8.9015385E+002
 3.5000000E+003, 1.8461411E+002, 8.9067376E+002
 3.5100000E+003, 1.8468440E+002, 8.9119012E+002
 3.5200000E+003, 1.8472171E+002, 8.9170246E+002
 3.5300000E+003, 1.8475326E+002, 8.9221140E+002
 3.5400000E+003, 1.8478560E+002, 8.9271696E+002
 3.5500000E+003, 1.8483346E+002, 8.9321916E+002
 3.5600000E+003, 1.8487811E+002, 8.9371833E+002
 3.5700000E+003, 1.8491609E+002, 8.9421342E+002
 3.5800000E+003, 1.8494939E+002, 8.9470594E+002
 3.5900000E+003, 1.8497916E+002, 8.9519476E+002
 3.6000000E+003, 1.8500610E+002, 8.9568111E+002
