s,C,kW/m2,C,kW/m2,C,kW/m2
Time,"WALL TEMPERATURE-CONE_4p00_035","HRRPUA-CONE_4p00_035","WALL TEMPERATURE-CONE_4p00_050","HRRPUA-CONE_4p00_050","WALL TEMPERATURE-CONE_4p00_070","HRRPUA-CONE_4p00_070"
 0.000E+00, 2.700E+01, 0.000E+00, 2.700E+01, 0.000E+00, 2.700E+01, 0.000E+00
 1.000E+01, 9.637E+01, 0.000E+00, 1.258E+02, 0.000E+00, 1.647E+02, 0.000E+00
 2.000E+01, 1.631E+02, 0.000E+00, 2.197E+02, 0.000E+00, 2.931E+02, 0.000E+00
 3.000E+01, 1.992E+02, 0.000E+00, 2.692E+02, 1.060E+01, 3.578E+02, 2.867E+00
 4.000E+01, 2.263E+02, 0.000E+00, 3.054E+02, 4.042E+01, 4.033E+02, 5.684E+00
 5.000E+01, 2.488E+02, 0.000E+00, 3.347E+02, 2.293E+02, 4.387E+02, 2.263E+01
 6.000E+01, 2.685E+02, 0.000E+00, 3.598E+02, 4.006E+02, 4.681E+02, 2.928E+02
 7.000E+01, 2.864E+02, 0.000E+00, 3.820E+02, 5.090E+02, 4.934E+02, 5.763E+02
 8.000E+01, 3.029E+02, 0.000E+00, 4.022E+02, 6.271E+02, 5.158E+02, 7.595E+02
 9.000E+01, 3.183E+02, 0.000E+00, 4.206E+02, 7.820E+02, 5.357E+02, 1.003E+03
 1.000E+02, 3.328E+02, 0.000E+00, 4.375E+02, 9.406E+02, 5.536E+02, 1.217E+03
 1.100E+02, 3.465E+02, 0.000E+00, 4.532E+02, 1.071E+03, 5.698E+02, 1.423E+03
 1.200E+02, 3.593E+02, 9.043E-01, 4.676E+02, 1.132E+03, 5.845E+02, 1.653E+03
 1.300E+02, 3.715E+02, 1.990E+00, 4.810E+02, 1.127E+03, 5.979E+02, 1.436E+03
 1.400E+02, 3.829E+02, 2.589E+00, 4.934E+02, 1.082E+03, 6.100E+02, 6.478E+02
 1.500E+02, 3.937E+02, 3.183E+00, 5.049E+02, 8.582E+02, 6.210E+02, 1.284E+02
 1.600E+02, 4.038E+02, 3.778E+00, 5.155E+02, 5.372E+02, 6.311E+02, 5.584E+01
 1.700E+02, 4.134E+02, 2.227E+01, 5.253E+02, 1.761E+02, 6.402E+02, 4.486E+01
 1.800E+02, 4.224E+02, 1.163E+02, 5.344E+02, 5.693E+01, 6.485E+02, 4.166E+01
 1.900E+02, 4.309E+02, 2.546E+02, 5.428E+02, 3.853E+01, 6.561E+02, 3.826E+01
 2.000E+02, 4.388E+02, 3.390E+02, 5.505E+02, 3.086E+01, 6.630E+02, 3.390E+01
 2.100E+02, 4.463E+02, 4.095E+02, 5.577E+02, 2.743E+01, 6.693E+02, 2.942E+01
 2.200E+02, 4.533E+02, 4.829E+02, 5.643E+02, 2.046E+01, 6.751E+02, 2.620E+01
 2.300E+02, 4.598E+02, 5.782E+02, 5.704E+02, 1.101E+01, 6.803E+02, 2.421E+01
 2.400E+02, 4.660E+02, 6.714E+02, 5.761E+02, 1.056E+01, 6.851E+02, 2.220E+01
 2.500E+02, 4.718E+02, 7.663E+02, 5.813E+02, 1.027E+01, 6.894E+02, 2.006E+01
 2.600E+02, 4.772E+02, 8.603E+02, 5.861E+02, 9.976E+00, 6.934E+02, 1.790E+01
 2.700E+02, 4.823E+02, 9.760E+02, 5.906E+02, 9.664E+00, 6.970E+02, 1.618E+01
 2.800E+02, 4.870E+02, 1.085E+03, 5.947E+02, 9.236E+00, 7.003E+02, 1.513E+01
 2.900E+02, 4.915E+02, 1.045E+03, 5.985E+02, 8.783E+00, 7.034E+02, 9.760E+00
 3.000E+02, 4.956E+02, 8.490E+02, 6.020E+02, 8.326E+00, 7.061E+02, 0.000E+00
 3.100E+02, 4.995E+02, 4.643E+02, 6.052E+02, 7.956E+00, 7.086E+02, 0.000E+00
 3.200E+02, 5.032E+02, 1.565E+02, 6.082E+02, 7.791E+00, 7.109E+02, 0.000E+00
 3.300E+02, 5.066E+02, 6.170E+01, 6.110E+02, 7.633E+00, 7.130E+02, 0.000E+00
 3.400E+02, 5.098E+02, 3.431E+01, 6.135E+02, 7.471E+00, 7.150E+02, 0.000E+00
 3.500E+02, 5.128E+02, 2.794E+01, 6.159E+02, 6.574E+00, 7.167E+02, 0.000E+00
 3.600E+02, 5.156E+02, 2.361E+01, 6.180E+02, 5.095E+00, 7.183E+02, 0.000E+00
 3.700E+02, 5.182E+02, 2.267E+01, 6.201E+02, 3.579E+00, 7.198E+02, 0.000E+00
 3.800E+02, 5.206E+02, 2.185E+01, 6.219E+02, 1.495E+00, 7.211E+02, 0.000E+00
 3.900E+02, 5.229E+02, 2.103E+01, 6.236E+02, 0.000E+00, 7.223E+02, 0.000E+00
 4.000E+02, 5.250E+02, 2.021E+01, 6.252E+02, 0.000E+00, 7.234E+02, 0.000E+00
 4.100E+02, 5.270E+02, 1.931E+01, 6.267E+02, 0.000E+00, 7.244E+02, 0.000E+00
 4.200E+02, 5.289E+02, 1.817E+01, 6.280E+02, 0.000E+00, 7.254E+02, 0.000E+00
 4.300E+02, 5.306E+02, 1.702E+01, 6.293E+02, 0.000E+00, 7.262E+02, 0.000E+00
 4.400E+02, 5.322E+02, 1.587E+01, 6.304E+02, 0.000E+00, 7.270E+02, 0.000E+00
 4.500E+02, 5.337E+02, 1.472E+01, 6.315E+02, 0.000E+00, 7.277E+02, 0.000E+00
 4.600E+02, 5.352E+02, 1.372E+01, 6.324E+02, 0.000E+00, 7.284E+02, 0.000E+00
 4.700E+02, 5.365E+02, 1.318E+01, 6.334E+02, 0.000E+00, 7.289E+02, 0.000E+00
 4.800E+02, 5.377E+02, 1.267E+01, 6.342E+02, 0.000E+00, 7.295E+02, 0.000E+00
 4.900E+02, 5.389E+02, 1.216E+01, 6.350E+02, 0.000E+00, 7.300E+02, 0.000E+00
 5.000E+02, 5.400E+02, 1.164E+01, 6.357E+02, 0.000E+00, 7.304E+02, 0.000E+00
 5.100E+02, 5.410E+02, 1.112E+01, 6.363E+02, 0.000E+00, 7.308E+02, 0.000E+00
 5.200E+02, 5.419E+02, 1.057E+01, 6.369E+02, 0.000E+00, 7.312E+02, 0.000E+00
 5.300E+02, 5.428E+02, 1.002E+01, 6.375E+02, 0.000E+00, 7.316E+02, 0.000E+00
 5.400E+02, 5.436E+02, 9.464E+00, 6.380E+02, 0.000E+00, 7.319E+02, 0.000E+00
 5.500E+02, 5.444E+02, 8.910E+00, 6.385E+02, 0.000E+00, 7.322E+02, 0.000E+00
 5.600E+02, 5.451E+02, 8.404E+00, 6.389E+02, 0.000E+00, 7.324E+02, 0.000E+00
 5.700E+02, 5.458E+02, 8.110E+00, 6.393E+02, 0.000E+00, 7.327E+02, 0.000E+00
 5.800E+02, 5.464E+02, 7.840E+00, 6.397E+02, 0.000E+00, 7.329E+02, 0.000E+00
 5.900E+02, 5.470E+02, 7.570E+00, 6.401E+02, 0.000E+00, 7.331E+02, 0.000E+00
 6.000E+02, 5.475E+02, 7.300E+00, 6.404E+02, 0.000E+00, 7.333E+02, 0.000E+00
 6.100E+02, 5.480E+02, 3.492E+00, 6.407E+02, 0.000E+00, 7.334E+02, 0.000E+00
 6.200E+02, 5.485E+02, 0.000E+00, 6.410E+02, 0.000E+00, 7.336E+02, 0.000E+00
 6.300E+02, 5.490E+02, 0.000E+00, 6.412E+02, 0.000E+00, 7.337E+02, 0.000E+00
 6.400E+02, 5.494E+02, 0.000E+00, 6.414E+02, 0.000E+00, 7.339E+02, 0.000E+00
 6.500E+02, 5.498E+02, 0.000E+00, 6.417E+02, 0.000E+00, 7.340E+02, 0.000E+00
 6.600E+02, 5.501E+02, 0.000E+00, 6.419E+02, 0.000E+00, 7.341E+02, 0.000E+00
 6.700E+02, 5.505E+02, 0.000E+00, 6.420E+02, 0.000E+00, 7.342E+02, 0.000E+00
 6.800E+02, 5.508E+02, 0.000E+00, 6.422E+02, 0.000E+00, 7.343E+02, 0.000E+00
 6.900E+02, 5.511E+02, 0.000E+00, 6.424E+02, 0.000E+00, 7.344E+02, 0.000E+00
 7.000E+02, 5.514E+02, 0.000E+00, 6.425E+02, 0.000E+00, 7.344E+02, 0.000E+00
 7.100E+02, 5.516E+02, 0.000E+00, 6.427E+02, 0.000E+00, 7.345E+02, 0.000E+00
 7.200E+02, 5.519E+02, 0.000E+00, 6.428E+02, 0.000E+00, 7.346E+02, 0.000E+00
 7.300E+02, 5.521E+02, 0.000E+00, 6.429E+02, 0.000E+00, 7.346E+02, 0.000E+00
 7.400E+02, 5.523E+02, 0.000E+00, 6.430E+02, 0.000E+00, 7.347E+02, 0.000E+00
 7.500E+02, 5.525E+02, 0.000E+00, 6.431E+02, 0.000E+00, 7.347E+02, 0.000E+00
 7.600E+02, 5.527E+02, 0.000E+00, 6.432E+02, 0.000E+00, 7.348E+02, 0.000E+00
 7.622E+02, 5.528E+02, 0.000E+00, 6.432E+02, 0.000E+00, 7.348E+02, 0.000E+00
