s,C,kW/m2,C,kW/m2,C,kW/m2,C,kW/m2
Time,"WALL TEMPERATURE-CONE_12p50_020","HRRPUA-CONE_12p50_020","WALL TEMPERATURE-CONE_12p50_035","HRRPUA-CONE_12p50_035","WALL TEMPERATURE-CONE_12p50_050","HRRPUA-CONE_12p50_050","WALL TEMPERATURE-CONE_12p50_065","HRRPUA-CONE_12p50_065"
 0.000E+00, 2.700E+01, 0.000E+00, 2.700E+01, 0.000E+00, 2.700E+01, 0.000E+00, 2.700E+01, 0.000E+00
 1.000E+01, 1.076E+02, 0.000E+00, 1.665E+02, 0.000E+00, 2.234E+02, 0.000E+00, 2.782E+02, 0.000E+00
 2.000E+01, 1.806E+02, 0.000E+00, 2.859E+02, 0.000E+00, 3.811E+02, 0.000E+00, 4.657E+02, 1.187E+01
 3.000E+01, 2.174E+02, 0.000E+00, 3.399E+02, 0.000E+00, 4.439E+02, 0.000E+00, 5.314E+02, 3.065E+01
 4.000E+01, 2.426E+02, 0.000E+00, 3.736E+02, 0.000E+00, 4.798E+02, 9.260E+00, 5.664E+02, 4.397E+01
 5.000E+01, 2.617E+02, 9.593E-01, 3.971E+02, 0.000E+00, 5.034E+02, 3.817E+01, 5.886E+02, 4.592E+01
 6.000E+01, 2.769E+02, 7.732E+00, 4.149E+02, 0.000E+00, 5.208E+02, 6.742E+01, 6.046E+02, 3.811E+01
 7.000E+01, 2.898E+02, 1.558E+01, 4.293E+02, 8.549E-01, 5.345E+02, 8.548E+01, 6.172E+02, 4.152E+01
 8.000E+01, 3.009E+02, 2.478E+01, 4.414E+02, 4.677E+00, 5.458E+02, 8.366E+01, 6.276E+02, 5.703E+01
 9.000E+01, 3.108E+02, 3.458E+01, 4.518E+02, 7.282E+00, 5.556E+02, 7.026E+01, 6.365E+02, 7.469E+01
 1.000E+02, 3.197E+02, 4.441E+01, 4.610E+02, 9.751E+00, 5.641E+02, 5.486E+01, 6.443E+02, 8.589E+01
 1.100E+02, 3.278E+02, 5.178E+01, 4.693E+02, 1.172E+01, 5.717E+02, 4.643E+01, 6.512E+02, 8.893E+01
 1.200E+02, 3.353E+02, 5.720E+01, 4.768E+02, 1.263E+01, 5.785E+02, 4.464E+01, 6.574E+02, 8.653E+01
 1.300E+02, 3.422E+02, 5.899E+01, 4.836E+02, 1.308E+01, 5.847E+02, 4.661E+01, 6.630E+02, 8.232E+01
 1.400E+02, 3.486E+02, 5.539E+01, 4.898E+02, 1.189E+01, 5.903E+02, 4.831E+01, 6.680E+02, 7.823E+01
 1.500E+02, 3.546E+02, 4.992E+01, 4.955E+02, 1.072E+01, 5.954E+02, 4.679E+01, 6.726E+02, 7.415E+01
 1.600E+02, 3.602E+02, 4.343E+01, 5.007E+02, 1.098E+01, 6.000E+02, 4.395E+01, 6.768E+02, 7.015E+01
 1.700E+02, 3.654E+02, 3.604E+01, 5.055E+02, 1.164E+01, 6.043E+02, 4.085E+01, 6.806E+02, 6.743E+01
 1.800E+02, 3.702E+02, 2.967E+01, 5.099E+02, 1.370E+01, 6.082E+02, 3.919E+01, 6.841E+02, 6.518E+01
 1.900E+02, 3.748E+02, 2.554E+01, 5.140E+02, 1.618E+01, 6.118E+02, 3.872E+01, 6.872E+02, 6.395E+01
 2.000E+02, 3.790E+02, 2.222E+01, 5.178E+02, 1.860E+01, 6.150E+02, 3.803E+01, 6.901E+02, 6.343E+01
 2.100E+02, 3.830E+02, 1.980E+01, 5.213E+02, 2.104E+01, 6.180E+02, 3.734E+01, 6.928E+02, 6.291E+01
 2.200E+02, 3.867E+02, 1.876E+01, 5.245E+02, 2.291E+01, 6.208E+02, 3.685E+01, 6.952E+02, 6.313E+01
 2.300E+02, 3.902E+02, 1.813E+01, 5.274E+02, 2.414E+01, 6.233E+02, 3.655E+01, 6.974E+02, 6.633E+01
 2.400E+02, 3.934E+02, 1.873E+01, 5.302E+02, 2.583E+01, 6.257E+02, 3.666E+01, 6.994E+02, 6.994E+01
 2.500E+02, 3.965E+02, 1.945E+01, 5.327E+02, 2.697E+01, 6.278E+02, 3.735E+01, 7.013E+02, 7.390E+01
 2.600E+02, 3.993E+02, 2.017E+01, 5.351E+02, 2.902E+01, 6.298E+02, 3.755E+01, 7.030E+02, 7.791E+01
 2.700E+02, 4.020E+02, 2.089E+01, 5.373E+02, 3.271E+01, 6.316E+02, 3.682E+01, 7.046E+02, 8.193E+01
 2.800E+02, 4.045E+02, 2.149E+01, 5.393E+02, 3.815E+01, 6.332E+02, 3.604E+01, 7.060E+02, 8.736E+01
 2.900E+02, 4.068E+02, 2.109E+01, 5.411E+02, 4.343E+01, 6.348E+02, 3.526E+01, 7.073E+02, 9.824E+01
 3.000E+02, 4.090E+02, 2.039E+01, 5.429E+02, 4.681E+01, 6.362E+02, 3.448E+01, 7.085E+02, 1.175E+02
 3.100E+02, 4.111E+02, 1.897E+01, 5.445E+02, 4.614E+01, 6.375E+02, 3.397E+01, 7.096E+02, 1.421E+02
 3.200E+02, 4.130E+02, 1.735E+01, 5.460E+02, 4.166E+01, 6.387E+02, 4.261E+01, 7.106E+02, 1.621E+02
 3.300E+02, 4.148E+02, 1.572E+01, 5.473E+02, 3.618E+01, 6.398E+02, 6.381E+01, 7.116E+02, 1.648E+02
 3.400E+02, 4.165E+02, 1.399E+01, 5.486E+02, 3.123E+01, 6.408E+02, 8.455E+01, 7.124E+02, 1.529E+02
 3.500E+02, 4.181E+02, 1.220E+01, 5.498E+02, 2.804E+01, 6.417E+02, 9.650E+01, 7.132E+02, 1.330E+02
 3.600E+02, 4.196E+02, 1.100E+01, 5.509E+02, 2.617E+01, 6.426E+02, 9.822E+01, 7.139E+02, 1.128E+02
 3.700E+02, 4.210E+02, 1.009E+01, 5.519E+02, 2.457E+01, 6.434E+02, 9.530E+01, 7.146E+02, 9.332E+01
 3.800E+02, 4.223E+02, 9.188E+00, 5.528E+02, 2.320E+01, 6.441E+02, 9.012E+01, 7.152E+02, 7.609E+01
 3.900E+02, 4.235E+02, 8.739E+00, 5.537E+02, 2.259E+01, 6.448E+02, 8.256E+01, 7.157E+02, 6.376E+01
 4.000E+02, 4.247E+02, 8.608E+00, 5.545E+02, 2.250E+01, 6.454E+02, 7.491E+01, 7.163E+02, 5.569E+01
 4.100E+02, 4.258E+02, 8.477E+00, 5.552E+02, 2.265E+01, 6.460E+02, 6.809E+01, 7.167E+02, 4.954E+01
 4.200E+02, 4.268E+02, 8.346E+00, 5.559E+02, 2.351E+01, 6.465E+02, 6.476E+01, 7.171E+02, 4.548E+01
 4.300E+02, 4.277E+02, 8.215E+00, 5.566E+02, 2.448E+01, 6.470E+02, 6.310E+01, 7.175E+02, 4.263E+01
 4.400E+02, 4.286E+02, 8.084E+00, 5.572E+02, 2.611E+01, 6.475E+02, 6.272E+01, 7.179E+02, 4.099E+01
 4.500E+02, 4.294E+02, 7.953E+00, 5.577E+02, 2.956E+01, 6.479E+02, 6.251E+01, 7.182E+02, 3.936E+01
 4.600E+02, 4.302E+02, 7.821E+00, 5.582E+02, 3.453E+01, 6.483E+02, 6.369E+01, 7.185E+02, 3.775E+01
 4.700E+02, 4.309E+02, 7.690E+00, 5.587E+02, 4.085E+01, 6.486E+02, 6.526E+01, 7.188E+02, 3.668E+01
 4.800E+02, 4.316E+02, 7.636E+00, 5.592E+02, 4.812E+01, 6.489E+02, 6.746E+01, 7.191E+02, 3.583E+01
 4.900E+02, 4.323E+02, 7.659E+00, 5.596E+02, 5.493E+01, 6.492E+02, 7.026E+01, 7.193E+02, 3.497E+01
 5.000E+02, 4.329E+02, 7.682E+00, 5.599E+02, 5.970E+01, 6.495E+02, 7.129E+01, 7.195E+02, 3.411E+01
 5.100E+02, 4.334E+02, 7.705E+00, 5.603E+02, 6.271E+01, 6.498E+02, 7.156E+01, 7.197E+02, 3.325E+01
 5.200E+02, 4.340E+02, 7.728E+00, 5.606E+02, 6.541E+01, 6.500E+02, 6.901E+01, 7.199E+02, 3.244E+01
 5.300E+02, 4.345E+02, 7.815E+00, 5.609E+02, 6.760E+01, 6.502E+02, 6.553E+01, 7.201E+02, 3.047E+01
 5.400E+02, 4.349E+02, 8.132E+00, 5.612E+02, 6.808E+01, 6.504E+02, 5.984E+01, 7.202E+02, 2.468E+01
 5.500E+02, 4.354E+02, 8.469E+00, 5.615E+02, 6.731E+01, 6.506E+02, 5.423E+01, 7.204E+02, 1.714E+01
 5.600E+02, 4.358E+02, 8.807E+00, 5.617E+02, 6.689E+01, 6.507E+02, 4.648E+01, 7.205E+02, 1.597E+01
 5.700E+02, 4.362E+02, 9.145E+00, 5.619E+02, 6.664E+01, 6.509E+02, 3.879E+01, 7.206E+02, 1.274E+01
 5.800E+02, 4.365E+02, 9.431E+00, 5.621E+02, 6.685E+01, 6.510E+02, 3.361E+01, 7.207E+02, 0.000E+00
 5.900E+02, 4.368E+02, 9.375E+00, 5.623E+02, 6.544E+01, 6.512E+02, 3.026E+01, 7.208E+02, 0.000E+00
 6.000E+02, 4.372E+02, 9.256E+00, 5.625E+02, 6.387E+01, 6.513E+02, 2.808E+01, 7.209E+02, 0.000E+00
 6.100E+02, 4.375E+02, 9.136E+00, 5.627E+02, 6.214E+01, 6.514E+02, 2.637E+01, 7.210E+02, 0.000E+00
 6.200E+02, 4.377E+02, 9.014E+00, 5.628E+02, 5.970E+01, 6.515E+02, 1.759E+01, 7.211E+02, 0.000E+00
 6.300E+02, 4.380E+02, 8.887E+00, 5.630E+02, 5.908E+01, 6.516E+02, 1.678E+01, 7.212E+02, 0.000E+00
 6.400E+02, 4.382E+02, 8.761E+00, 5.631E+02, 5.956E+01, 6.517E+02, 1.614E+01, 7.212E+02, 0.000E+00
 6.500E+02, 4.385E+02, 8.635E+00, 5.632E+02, 5.870E+01, 6.518E+02, 1.551E+01, 7.213E+02, 0.000E+00
 6.600E+02, 4.387E+02, 8.509E+00, 5.633E+02, 5.726E+01, 6.519E+02, 1.514E+01, 7.213E+02, 0.000E+00
 6.700E+02, 4.389E+02, 8.383E+00, 5.634E+02, 5.465E+01, 6.519E+02, 1.490E+01, 7.214E+02, 0.000E+00
 6.800E+02, 4.391E+02, 8.256E+00, 5.635E+02, 5.183E+01, 6.520E+02, 1.466E+01, 7.214E+02, 0.000E+00
 6.900E+02, 4.393E+02, 8.130E+00, 5.636E+02, 4.854E+01, 6.520E+02, 1.442E+01, 7.215E+02, 0.000E+00
 7.000E+02, 4.394E+02, 8.004E+00, 5.637E+02, 4.548E+01, 6.521E+02, 1.417E+01, 7.215E+02, 0.000E+00
 7.100E+02, 4.396E+02, 7.877E+00, 5.638E+02, 3.868E+01, 6.522E+02, 1.393E+01, 7.216E+02, 0.000E+00
 7.200E+02, 4.397E+02, 7.755E+00, 5.639E+02, 2.702E+01, 6.522E+02, 1.369E+01, 7.216E+02, 0.000E+00
 7.300E+02, 4.399E+02, 1.027E+01, 5.639E+02, 2.281E+01, 6.522E+02, 1.344E+01, 7.216E+02, 0.000E+00
 7.400E+02, 4.400E+02, 1.640E+01, 5.640E+02, 2.073E+01, 6.523E+02, 1.320E+01, 7.216E+02, 0.000E+00
 7.500E+02, 4.401E+02, 2.381E+01, 5.641E+02, 1.898E+01, 6.523E+02, 1.304E+01, 7.217E+02, 0.000E+00
 7.600E+02, 4.402E+02, 3.237E+01, 5.641E+02, 1.749E+01, 6.524E+02, 1.291E+01, 7.217E+02, 0.000E+00
 7.700E+02, 4.403E+02, 4.249E+01, 5.642E+02, 1.622E+01, 6.524E+02, 1.277E+01, 7.217E+02, 0.000E+00
 7.800E+02, 4.404E+02, 5.208E+01, 5.642E+02, 1.529E+01, 6.524E+02, 1.264E+01, 7.217E+02, 0.000E+00
 7.900E+02, 4.405E+02, 6.085E+01, 5.643E+02, 1.436E+01, 6.524E+02, 1.251E+01, 7.218E+02, 0.000E+00
 8.000E+02, 4.406E+02, 6.974E+01, 5.643E+02, 1.357E+01, 6.525E+02, 1.237E+01, 7.218E+02, 0.000E+00
 8.100E+02, 4.407E+02, 7.493E+01, 5.643E+02, 1.303E+01, 6.525E+02, 1.224E+01, 7.218E+02, 0.000E+00
 8.200E+02, 4.408E+02, 7.626E+01, 5.644E+02, 1.249E+01, 6.525E+02, 1.210E+01, 7.218E+02, 0.000E+00
 8.300E+02, 4.408E+02, 7.614E+01, 5.644E+02, 1.198E+01, 6.525E+02, 1.197E+01, 7.218E+02, 0.000E+00
 8.400E+02, 4.409E+02, 7.306E+01, 5.644E+02, 1.171E+01, 6.525E+02, 1.187E+01, 7.218E+02, 0.000E+00
 8.500E+02, 4.410E+02, 6.987E+01, 5.645E+02, 1.148E+01, 6.526E+02, 1.177E+01, 7.218E+02, 0.000E+00
 8.600E+02, 4.410E+02, 6.636E+01, 5.645E+02, 1.126E+01, 6.526E+02, 1.168E+01, 7.218E+02, 0.000E+00
 8.700E+02, 4.411E+02, 6.199E+01, 5.645E+02, 1.103E+01, 6.526E+02, 1.159E+01, 7.219E+02, 0.000E+00
 8.800E+02, 4.411E+02, 5.772E+01, 5.645E+02, 1.080E+01, 6.526E+02, 1.137E+01, 7.219E+02, 0.000E+00
 8.900E+02, 4.412E+02, 5.295E+01, 5.645E+02, 1.058E+01, 6.526E+02, 1.018E+01, 7.219E+02, 0.000E+00
 9.000E+02, 4.412E+02, 4.852E+01, 5.646E+02, 1.036E+01, 6.526E+02, 8.776E+00, 7.219E+02, 0.000E+00
 9.100E+02, 4.413E+02, 4.438E+01, 5.646E+02, 1.022E+01, 6.526E+02, 7.350E+00, 7.219E+02, 0.000E+00
 9.200E+02, 4.413E+02, 4.025E+01, 5.646E+02, 1.010E+01, 6.526E+02, 3.118E+00, 7.219E+02, 0.000E+00
 9.300E+02, 4.414E+02, 3.635E+01, 5.646E+02, 9.982E+00, 6.526E+02, 0.000E+00, 7.219E+02, 0.000E+00
 9.400E+02, 4.414E+02, 3.344E+01, 5.646E+02, 9.861E+00, 6.527E+02, 0.000E+00, 7.219E+02, 0.000E+00
 9.500E+02, 4.414E+02, 3.081E+01, 5.646E+02, 9.741E+00, 6.527E+02, 0.000E+00, 7.219E+02, 0.000E+00
 9.600E+02, 4.415E+02, 2.899E+01, 5.646E+02, 9.620E+00, 6.527E+02, 0.000E+00, 7.219E+02, 0.000E+00
 9.700E+02, 4.415E+02, 2.729E+01, 5.647E+02, 9.498E+00, 6.527E+02, 0.000E+00, 7.219E+02, 0.000E+00
 9.800E+02, 4.415E+02, 2.567E+01, 5.647E+02, 9.377E+00, 6.527E+02, 0.000E+00, 7.219E+02, 0.000E+00
 9.900E+02, 4.415E+02, 2.458E+01, 5.647E+02, 9.255E+00, 6.527E+02, 0.000E+00, 7.219E+02, 0.000E+00
 1.000E+03, 4.416E+02, 2.360E+01, 5.647E+02, 9.133E+00, 6.527E+02, 0.000E+00, 7.219E+02, 0.000E+00
 1.010E+03, 4.416E+02, 2.262E+01, 5.647E+02, 9.027E+00, 6.527E+02, 0.000E+00, 7.219E+02, 0.000E+00
 1.020E+03, 4.416E+02, 2.164E+01, 5.647E+02, 8.913E+00, 6.527E+02, 0.000E+00, 7.219E+02, 0.000E+00
 1.030E+03, 4.416E+02, 2.067E+01, 5.647E+02, 8.358E+00, 6.527E+02, 0.000E+00, 7.219E+02, 0.000E+00
 1.040E+03, 4.416E+02, 1.992E+01, 5.647E+02, 7.600E+00, 6.527E+02, 0.000E+00, 7.219E+02, 0.000E+00
 1.050E+03, 4.417E+02, 1.935E+01, 5.647E+02, 6.517E+00, 6.527E+02, 0.000E+00, 7.219E+02, 0.000E+00
 1.060E+03, 4.417E+02, 1.877E+01, 5.647E+02, 5.206E+00, 6.527E+02, 0.000E+00, 7.219E+02, 0.000E+00
 1.070E+03, 4.417E+02, 1.820E+01, 5.647E+02, 4.551E+00, 6.527E+02, 0.000E+00, 7.219E+02, 0.000E+00
 1.080E+03, 4.417E+02, 1.762E+01, 5.647E+02, 4.551E+00, 6.527E+02, 0.000E+00, 7.219E+02, 0.000E+00
 1.090E+03, 4.417E+02, 1.705E+01, 5.647E+02, 4.551E+00, 6.527E+02, 0.000E+00, 7.219E+02, 0.000E+00
 1.100E+03, 4.417E+02, 1.647E+01, 5.647E+02, 4.551E+00, 6.527E+02, 0.000E+00, 7.219E+02, 0.000E+00
 1.110E+03, 4.418E+02, 1.608E+01, 5.648E+02, 1.201E+00, 6.527E+02, 0.000E+00, 7.219E+02, 0.000E+00
 1.120E+03, 4.418E+02, 1.583E+01, 5.648E+02, 0.000E+00, 6.527E+02, 0.000E+00, 7.219E+02, 0.000E+00
 1.130E+03, 4.418E+02, 1.557E+01, 5.648E+02, 0.000E+00, 6.527E+02, 0.000E+00, 7.219E+02, 0.000E+00
 1.140E+03, 4.418E+02, 1.531E+01, 5.648E+02, 0.000E+00, 6.527E+02, 0.000E+00, 7.220E+02, 0.000E+00
 1.150E+03, 4.418E+02, 1.505E+01, 5.648E+02, 0.000E+00, 6.527E+02, 0.000E+00, 7.220E+02, 0.000E+00
 1.160E+03, 4.418E+02, 1.480E+01, 5.648E+02, 0.000E+00, 6.527E+02, 0.000E+00, 7.220E+02, 0.000E+00
 1.170E+03, 4.418E+02, 1.454E+01, 5.648E+02, 0.000E+00, 6.527E+02, 0.000E+00, 7.220E+02, 0.000E+00
 1.180E+03, 4.418E+02, 1.436E+01, 5.648E+02, 0.000E+00, 6.527E+02, 0.000E+00, 7.220E+02, 0.000E+00
 1.190E+03, 4.418E+02, 1.425E+01, 5.648E+02, 0.000E+00, 6.527E+02, 0.000E+00, 7.220E+02, 0.000E+00
 1.200E+03, 4.418E+02, 1.413E+01, 5.648E+02, 0.000E+00, 6.527E+02, 0.000E+00, 7.220E+02, 0.000E+00
 1.210E+03, 4.418E+02, 1.402E+01, 5.648E+02, 0.000E+00, 6.527E+02, 0.000E+00, 7.220E+02, 0.000E+00
 1.220E+03, 4.418E+02, 1.390E+01, 5.648E+02, 0.000E+00, 6.527E+02, 0.000E+00, 7.220E+02, 0.000E+00
 1.230E+03, 4.418E+02, 1.379E+01, 5.648E+02, 0.000E+00, 6.527E+02, 0.000E+00, 7.220E+02, 0.000E+00
 1.240E+03, 4.419E+02, 1.367E+01, 5.648E+02, 0.000E+00, 6.527E+02, 0.000E+00, 7.220E+02, 0.000E+00
 1.250E+03, 4.419E+02, 1.356E+01, 5.648E+02, 0.000E+00, 6.527E+02, 0.000E+00, 7.220E+02, 0.000E+00
 1.260E+03, 4.419E+02, 1.344E+01, 5.648E+02, 0.000E+00, 6.527E+02, 0.000E+00, 7.220E+02, 0.000E+00
 1.270E+03, 4.419E+02, 1.333E+01, 5.648E+02, 0.000E+00, 6.527E+02, 0.000E+00, 7.220E+02, 0.000E+00
 1.280E+03, 4.419E+02, 1.321E+01, 5.648E+02, 0.000E+00, 6.527E+02, 0.000E+00, 7.220E+02, 0.000E+00
 1.290E+03, 4.419E+02, 1.310E+01, 5.648E+02, 0.000E+00, 6.527E+02, 0.000E+00, 7.220E+02, 0.000E+00
 1.300E+03, 4.419E+02, 1.280E+01, 5.648E+02, 0.000E+00, 6.527E+02, 0.000E+00, 7.220E+02, 0.000E+00
 1.310E+03, 4.419E+02, 1.133E+01, 5.648E+02, 0.000E+00, 6.527E+02, 0.000E+00, 7.220E+02, 0.000E+00
 1.320E+03, 4.419E+02, 9.991E+00, 5.648E+02, 0.000E+00, 6.527E+02, 0.000E+00, 7.220E+02, 0.000E+00
 1.330E+03, 4.419E+02, 8.921E+00, 5.648E+02, 0.000E+00, 6.527E+02, 0.000E+00, 7.220E+02, 0.000E+00
 1.340E+03, 4.419E+02, 7.851E+00, 5.648E+02, 0.000E+00, 6.527E+02, 0.000E+00, 7.220E+02, 0.000E+00
 1.350E+03, 4.419E+02, 6.844E+00, 5.648E+02, 0.000E+00, 6.527E+02, 0.000E+00, 7.220E+02, 0.000E+00
 1.360E+03, 4.419E+02, 6.611E+00, 5.648E+02, 0.000E+00, 6.527E+02, 0.000E+00, 7.220E+02, 0.000E+00
 1.370E+03, 4.419E+02, 6.611E+00, 5.648E+02, 0.000E+00, 6.527E+02, 0.000E+00, 7.220E+02, 0.000E+00
 1.380E+03, 4.419E+02, 6.611E+00, 5.648E+02, 0.000E+00, 6.527E+02, 0.000E+00, 7.220E+02, 0.000E+00
 1.390E+03, 4.419E+02, 6.611E+00, 5.648E+02, 0.000E+00, 6.527E+02, 0.000E+00, 7.220E+02, 0.000E+00
 1.400E+03, 4.419E+02, 6.611E+00, 5.648E+02, 0.000E+00, 6.527E+02, 0.000E+00, 7.220E+02, 0.000E+00
 1.410E+03, 4.419E+02, 6.611E+00, 5.648E+02, 0.000E+00, 6.527E+02, 0.000E+00, 7.220E+02, 0.000E+00
 1.420E+03, 4.419E+02, 6.611E+00, 5.648E+02, 0.000E+00, 6.527E+02, 0.000E+00, 7.220E+02, 0.000E+00
 1.430E+03, 4.419E+02, 6.611E+00, 5.648E+02, 0.000E+00, 6.527E+02, 0.000E+00, 7.220E+02, 0.000E+00
 1.440E+03, 4.419E+02, 6.611E+00, 5.648E+02, 0.000E+00, 6.527E+02, 0.000E+00, 7.220E+02, 0.000E+00
 1.450E+03, 4.419E+02, 6.591E+00, 5.648E+02, 0.000E+00, 6.527E+02, 0.000E+00, 7.220E+02, 0.000E+00
 1.460E+03, 4.419E+02, 3.448E-01, 5.648E+02, 0.000E+00, 6.527E+02, 0.000E+00, 7.220E+02, 0.000E+00
 1.470E+03, 4.419E+02, 0.000E+00, 5.648E+02, 0.000E+00, 6.527E+02, 0.000E+00, 7.220E+02, 0.000E+00
 1.480E+03, 4.419E+02, 0.000E+00, 5.648E+02, 0.000E+00, 6.527E+02, 0.000E+00, 7.220E+02, 0.000E+00
 1.490E+03, 4.419E+02, 0.000E+00, 5.648E+02, 0.000E+00, 6.527E+02, 0.000E+00, 7.220E+02, 0.000E+00
 1.500E+03, 4.419E+02, 0.000E+00, 5.648E+02, 0.000E+00, 6.527E+02, 0.000E+00, 7.220E+02, 0.000E+00
 1.510E+03, 4.419E+02, 0.000E+00, 5.648E+02, 0.000E+00, 6.527E+02, 0.000E+00, 7.220E+02, 0.000E+00
 1.520E+03, 4.419E+02, 0.000E+00, 5.648E+02, 0.000E+00, 6.527E+02, 0.000E+00, 7.220E+02, 0.000E+00
 1.530E+03, 4.419E+02, 0.000E+00, 5.648E+02, 0.000E+00, 6.527E+02, 0.000E+00, 7.220E+02, 0.000E+00
 1.540E+03, 4.419E+02, 0.000E+00, 5.648E+02, 0.000E+00, 6.527E+02, 0.000E+00, 7.220E+02, 0.000E+00
 1.550E+03, 4.419E+02, 0.000E+00, 5.648E+02, 0.000E+00, 6.527E+02, 0.000E+00, 7.220E+02, 0.000E+00
 1.560E+03, 4.419E+02, 0.000E+00, 5.648E+02, 0.000E+00, 6.527E+02, 0.000E+00, 7.220E+02, 0.000E+00
 1.570E+03, 4.419E+02, 0.000E+00, 5.648E+02, 0.000E+00, 6.527E+02, 0.000E+00, 7.220E+02, 0.000E+00
 1.580E+03, 4.419E+02, 0.000E+00, 5.648E+02, 0.000E+00, 6.527E+02, 0.000E+00, 7.220E+02, 0.000E+00
 1.590E+03, 4.419E+02, 0.000E+00, 5.648E+02, 0.000E+00, 6.527E+02, 0.000E+00, 7.220E+02, 0.000E+00
 1.600E+03, 4.419E+02, 0.000E+00, 5.648E+02, 0.000E+00, 6.527E+02, 0.000E+00, 7.220E+02, 0.000E+00
 1.610E+03, 4.419E+02, 0.000E+00, 5.648E+02, 0.000E+00, 6.527E+02, 0.000E+00, 7.220E+02, 0.000E+00
 1.620E+03, 4.419E+02, 0.000E+00, 5.648E+02, 0.000E+00, 6.527E+02, 0.000E+00, 7.220E+02, 0.000E+00
 1.630E+03, 4.419E+02, 0.000E+00, 5.648E+02, 0.000E+00, 6.527E+02, 0.000E+00, 7.220E+02, 0.000E+00
 1.640E+03, 4.419E+02, 0.000E+00, 5.648E+02, 0.000E+00, 6.527E+02, 0.000E+00, 7.220E+02, 0.000E+00
 1.650E+03, 4.419E+02, 0.000E+00, 5.648E+02, 0.000E+00, 6.527E+02, 0.000E+00, 7.220E+02, 0.000E+00
 1.660E+03, 4.419E+02, 0.000E+00, 5.648E+02, 0.000E+00, 6.527E+02, 0.000E+00, 7.220E+02, 0.000E+00
 1.670E+03, 4.419E+02, 0.000E+00, 5.648E+02, 0.000E+00, 6.527E+02, 0.000E+00, 7.220E+02, 0.000E+00
 1.680E+03, 4.419E+02, 0.000E+00, 5.648E+02, 0.000E+00, 6.527E+02, 0.000E+00, 7.220E+02, 0.000E+00
 1.690E+03, 4.419E+02, 0.000E+00, 5.648E+02, 0.000E+00, 6.527E+02, 0.000E+00, 7.220E+02, 0.000E+00
 1.700E+03, 4.419E+02, 0.000E+00, 5.648E+02, 0.000E+00, 6.527E+02, 0.000E+00, 7.220E+02, 0.000E+00
 1.710E+03, 4.419E+02, 0.000E+00, 5.648E+02, 0.000E+00, 6.527E+02, 0.000E+00, 7.220E+02, 0.000E+00
 1.720E+03, 4.419E+02, 0.000E+00, 5.648E+02, 0.000E+00, 6.527E+02, 0.000E+00, 7.220E+02, 0.000E+00
 1.730E+03, 4.419E+02, 0.000E+00, 5.648E+02, 0.000E+00, 6.527E+02, 0.000E+00, 7.220E+02, 0.000E+00
 1.740E+03, 4.419E+02, 0.000E+00, 5.648E+02, 0.000E+00, 6.527E+02, 0.000E+00, 7.220E+02, 0.000E+00
 1.750E+03, 4.419E+02, 0.000E+00, 5.648E+02, 0.000E+00, 6.527E+02, 0.000E+00, 7.220E+02, 0.000E+00
 1.760E+03, 4.419E+02, 0.000E+00, 5.648E+02, 0.000E+00, 6.527E+02, 0.000E+00, 7.220E+02, 0.000E+00
 1.770E+03, 4.419E+02, 0.000E+00, 5.648E+02, 0.000E+00, 6.527E+02, 0.000E+00, 7.220E+02, 0.000E+00
 1.780E+03, 4.419E+02, 0.000E+00, 5.648E+02, 0.000E+00, 6.527E+02, 0.000E+00, 7.220E+02, 0.000E+00
 1.790E+03, 4.419E+02, 0.000E+00, 5.648E+02, 0.000E+00, 6.527E+02, 0.000E+00, 7.220E+02, 0.000E+00
 1.800E+03, 4.419E+02, 0.000E+00, 5.648E+02, 0.000E+00, 6.527E+02, 0.000E+00, 7.220E+02, 0.000E+00
 1.810E+03, 4.419E+02, 0.000E+00, 5.648E+02, 0.000E+00, 6.527E+02, 0.000E+00, 7.220E+02, 0.000E+00
 1.820E+03, 4.419E+02, 0.000E+00, 5.648E+02, 0.000E+00, 6.527E+02, 0.000E+00, 7.220E+02, 0.000E+00
 1.830E+03, 4.419E+02, 0.000E+00, 5.648E+02, 0.000E+00, 6.527E+02, 0.000E+00, 7.220E+02, 0.000E+00
 1.840E+03, 4.419E+02, 0.000E+00, 5.648E+02, 0.000E+00, 6.527E+02, 0.000E+00, 7.220E+02, 0.000E+00
 1.850E+03, 4.419E+02, 0.000E+00, 5.648E+02, 0.000E+00, 6.527E+02, 0.000E+00, 7.220E+02, 0.000E+00
 1.860E+03, 4.419E+02, 0.000E+00, 5.648E+02, 0.000E+00, 6.527E+02, 0.000E+00, 7.220E+02, 0.000E+00
 1.870E+03, 4.419E+02, 0.000E+00, 5.648E+02, 0.000E+00, 6.527E+02, 0.000E+00, 7.220E+02, 0.000E+00
 1.880E+03, 4.419E+02, 0.000E+00, 5.648E+02, 0.000E+00, 6.527E+02, 0.000E+00, 7.220E+02, 0.000E+00
 1.890E+03, 4.419E+02, 0.000E+00, 5.648E+02, 0.000E+00, 6.527E+02, 0.000E+00, 7.220E+02, 0.000E+00
 1.900E+03, 4.419E+02, 0.000E+00, 5.648E+02, 0.000E+00, 6.527E+02, 0.000E+00, 7.220E+02, 0.000E+00
 1.910E+03, 4.419E+02, 0.000E+00, 5.648E+02, 0.000E+00, 6.527E+02, 0.000E+00, 7.220E+02, 0.000E+00
 1.920E+03, 4.419E+02, 0.000E+00, 5.648E+02, 0.000E+00, 6.527E+02, 0.000E+00, 7.220E+02, 0.000E+00
 1.930E+03, 4.419E+02, 0.000E+00, 5.648E+02, 0.000E+00, 6.527E+02, 0.000E+00, 7.220E+02, 0.000E+00
 1.940E+03, 4.419E+02, 0.000E+00, 5.648E+02, 0.000E+00, 6.527E+02, 0.000E+00, 7.220E+02, 0.000E+00
 1.950E+03, 4.419E+02, 0.000E+00, 5.648E+02, 0.000E+00, 6.527E+02, 0.000E+00, 7.220E+02, 0.000E+00
 1.960E+03, 4.419E+02, 0.000E+00, 5.648E+02, 0.000E+00, 6.527E+02, 0.000E+00, 7.220E+02, 0.000E+00
 1.970E+03, 4.419E+02, 0.000E+00, 5.648E+02, 0.000E+00, 6.527E+02, 0.000E+00, 7.220E+02, 0.000E+00
 1.980E+03, 4.419E+02, 0.000E+00, 5.648E+02, 0.000E+00, 6.527E+02, 0.000E+00, 7.220E+02, 0.000E+00
