s,C,kW/m2,C,kW/m2,C,kW/m2
Time,"WALL TEMPERATURE-CONE_4p21_025","HRRPUA-CONE_4p21_025","WALL TEMPERATURE-CONE_4p21_050","HRRPUA-CONE_4p21_050","WALL TEMPERATURE-CONE_4p21_075","HRRPUA-CONE_4p21_075"
 0.000E+00, 2.700E+01, 0.000E+00, 2.700E+01, 0.000E+00, 2.700E+01, 0.000E+00
 1.000E+01, 2.138E+02, 0.000E+00, 3.671E+02, 0.000E+00, 4.898E+02, 0.000E+00
 2.000E+01, 3.362E+02, 0.000E+00, 5.300E+02, 2.960E+01, 6.602E+02, 1.002E+02
 3.000E+01, 3.754E+02, 0.000E+00, 5.653E+02, 1.775E+02, 6.897E+02, 2.792E+02
 4.000E+01, 3.985E+02, 0.000E+00, 5.850E+02, 2.687E+02, 7.063E+02, 4.367E+02
 5.000E+01, 4.148E+02, 0.000E+00, 5.985E+02, 3.764E+02, 7.178E+02, 8.698E+02
 6.000E+01, 4.273E+02, 0.000E+00, 6.086E+02, 5.375E+02, 7.263E+02, 9.746E+02
 7.000E+01, 4.371E+02, 2.600E+01, 6.164E+02, 6.415E+02, 7.329E+02, 7.012E+02
 8.000E+01, 4.452E+02, 6.715E+01, 6.227E+02, 6.166E+02, 7.381E+02, 3.460E+02
 9.000E+01, 4.518E+02, 1.050E+02, 6.278E+02, 5.032E+02, 7.424E+02, 1.049E+02
 1.000E+02, 4.574E+02, 1.171E+02, 6.320E+02, 2.968E+02, 7.458E+02, 8.097E+01
 1.100E+02, 4.620E+02, 1.253E+02, 6.355E+02, 1.351E+02, 7.487E+02, 3.661E+01
 1.200E+02, 4.660E+02, 1.634E+02, 6.384E+02, 5.285E+01, 7.510E+02, 3.533E+01
 1.300E+02, 4.693E+02, 2.563E+02, 6.408E+02, 2.565E+01, 7.530E+02, 3.570E+01
 1.400E+02, 4.722E+02, 3.777E+02, 6.428E+02, 1.754E+01, 7.546E+02, 3.696E+01
 1.500E+02, 4.746E+02, 4.568E+02, 6.445E+02, 1.337E+01, 7.560E+02, 3.825E+01
 1.600E+02, 4.767E+02, 4.764E+02, 6.460E+02, 1.214E+01, 7.571E+02, 3.361E+01
 1.700E+02, 4.785E+02, 4.530E+02, 6.472E+02, 1.189E+01, 7.581E+02, 3.697E+00
 1.800E+02, 4.801E+02, 3.842E+02, 6.482E+02, 1.107E+01, 7.589E+02, 1.809E-01
 1.900E+02, 4.814E+02, 2.919E+02, 6.491E+02, 9.814E+00, 7.596E+02, 0.000E+00
 2.000E+02, 4.825E+02, 2.119E+02, 6.498E+02, 9.419E+00, 7.601E+02, 0.000E+00
 2.100E+02, 4.835E+02, 1.389E+02, 6.504E+02, 9.175E+00, 7.606E+02, 0.000E+00
 2.200E+02, 4.843E+02, 7.653E+01, 6.509E+02, 8.930E+00, 7.610E+02, 0.000E+00
 2.300E+02, 4.850E+02, 3.848E+01, 6.514E+02, 8.684E+00, 7.613E+02, 0.000E+00
 2.400E+02, 4.857E+02, 2.792E+01, 6.517E+02, 8.411E+00, 7.616E+02, 0.000E+00
 2.500E+02, 4.862E+02, 3.488E+01, 6.520E+02, 7.328E+00, 7.618E+02, 0.000E+00
 2.600E+02, 4.866E+02, 3.622E+01, 6.523E+02, 5.834E+00, 7.620E+02, 0.000E+00
 2.700E+02, 4.870E+02, 2.094E+01, 6.525E+02, 4.322E+00, 7.621E+02, 0.000E+00
 2.800E+02, 4.874E+02, 1.393E+01, 6.527E+02, 2.895E+00, 7.623E+02, 0.000E+00
 2.900E+02, 4.877E+02, 1.254E+01, 6.528E+02, 1.481E+00, 7.624E+02, 0.000E+00
 3.000E+02, 4.879E+02, 1.233E+01, 6.530E+02, 2.038E-01, 7.625E+02, 0.000E+00
 3.100E+02, 4.881E+02, 1.212E+01, 6.531E+02, 0.000E+00, 7.626E+02, 0.000E+00
 3.200E+02, 4.883E+02, 1.202E+01, 6.532E+02, 0.000E+00, 7.626E+02, 0.000E+00
 3.300E+02, 4.885E+02, 1.206E+01, 6.533E+02, 0.000E+00, 7.627E+02, 0.000E+00
 3.400E+02, 4.886E+02, 1.211E+01, 6.533E+02, 0.000E+00, 7.627E+02, 0.000E+00
 3.500E+02, 4.887E+02, 1.215E+01, 6.534E+02, 0.000E+00, 7.628E+02, 0.000E+00
 3.600E+02, 4.888E+02, 1.221E+01, 6.534E+02, 0.000E+00, 7.628E+02, 0.000E+00
 3.700E+02, 4.889E+02, 1.237E+01, 6.535E+02, 0.000E+00, 7.628E+02, 0.000E+00
 3.800E+02, 4.890E+02, 1.256E+01, 6.535E+02, 0.000E+00, 7.628E+02, 0.000E+00
 3.900E+02, 4.890E+02, 1.275E+01, 6.535E+02, 0.000E+00, 7.629E+02, 0.000E+00
 4.000E+02, 4.891E+02, 1.294E+01, 6.536E+02, 0.000E+00, 7.629E+02, 0.000E+00
 4.100E+02, 4.891E+02, 1.308E+01, 6.536E+02, 0.000E+00, 7.629E+02, 0.000E+00
 4.200E+02, 4.892E+02, 1.307E+01, 6.536E+02, 0.000E+00, 7.629E+02, 0.000E+00
 4.300E+02, 4.892E+02, 1.305E+01, 6.536E+02, 0.000E+00, 7.629E+02, 0.000E+00
 4.400E+02, 4.892E+02, 1.289E+01, 6.536E+02, 0.000E+00, 7.629E+02, 0.000E+00
 4.500E+02, 4.893E+02, 9.195E+00, 6.536E+02, 0.000E+00, 7.629E+02, 0.000E+00
 4.600E+02, 4.893E+02, 3.393E+00, 6.536E+02, 0.000E+00, 7.629E+02, 0.000E+00
 4.700E+02, 4.893E+02, 5.664E-01, 6.536E+02, 0.000E+00, 7.629E+02, 0.000E+00
 4.800E+02, 4.893E+02, 3.720E-01, 6.537E+02, 0.000E+00, 7.629E+02, 0.000E+00
 4.900E+02, 4.893E+02, 1.778E-01, 6.537E+02, 0.000E+00, 7.629E+02, 0.000E+00
 5.000E+02, 4.893E+02, 1.674E-02, 6.537E+02, 0.000E+00, 7.629E+02, 0.000E+00
 5.100E+02, 4.894E+02, 0.000E+00, 6.537E+02, 0.000E+00, 7.629E+02, 0.000E+00
 5.200E+02, 4.894E+02, 0.000E+00, 6.537E+02, 0.000E+00, 7.629E+02, 0.000E+00
 5.300E+02, 4.894E+02, 0.000E+00, 6.537E+02, 0.000E+00, 7.629E+02, 0.000E+00
 5.400E+02, 4.894E+02, 0.000E+00, 6.537E+02, 0.000E+00, 7.629E+02, 0.000E+00
 5.500E+02, 4.894E+02, 0.000E+00, 6.537E+02, 0.000E+00, 7.629E+02, 0.000E+00
 5.600E+02, 4.894E+02, 0.000E+00, 6.537E+02, 0.000E+00, 7.629E+02, 0.000E+00
 5.700E+02, 4.894E+02, 0.000E+00, 6.537E+02, 0.000E+00, 7.629E+02, 0.000E+00
 5.800E+02, 4.894E+02, 0.000E+00, 6.537E+02, 0.000E+00, 7.629E+02, 0.000E+00
 5.900E+02, 4.894E+02, 0.000E+00, 6.537E+02, 0.000E+00, 7.629E+02, 0.000E+00
 6.000E+02, 4.894E+02, 0.000E+00, 6.537E+02, 0.000E+00, 7.629E+02, 0.000E+00
 6.100E+02, 4.894E+02, 0.000E+00, 6.537E+02, 0.000E+00, 7.629E+02, 0.000E+00
 6.200E+02, 4.894E+02, 0.000E+00, 6.537E+02, 0.000E+00, 7.629E+02, 0.000E+00
 6.300E+02, 4.894E+02, 0.000E+00, 6.537E+02, 0.000E+00, 7.629E+02, 0.000E+00
 6.400E+02, 4.894E+02, 0.000E+00, 6.537E+02, 0.000E+00, 7.629E+02, 0.000E+00
 6.500E+02, 4.894E+02, 0.000E+00, 6.537E+02, 0.000E+00, 7.629E+02, 0.000E+00
 6.600E+02, 4.894E+02, 0.000E+00, 6.537E+02, 0.000E+00, 7.629E+02, 0.000E+00
 6.700E+02, 4.894E+02, 0.000E+00, 6.537E+02, 0.000E+00, 7.629E+02, 0.000E+00
 6.800E+02, 4.894E+02, 0.000E+00, 6.537E+02, 0.000E+00, 7.629E+02, 0.000E+00
 6.900E+02, 4.894E+02, 0.000E+00, 6.537E+02, 0.000E+00, 7.629E+02, 0.000E+00
 7.000E+02, 4.894E+02, 0.000E+00, 6.537E+02, 0.000E+00, 7.629E+02, 0.000E+00
 7.100E+02, 4.894E+02, 0.000E+00, 6.537E+02, 0.000E+00, 7.629E+02, 0.000E+00
 7.200E+02, 4.894E+02, 0.000E+00, 6.537E+02, 0.000E+00, 7.629E+02, 0.000E+00
 7.300E+02, 4.894E+02, 0.000E+00, 6.537E+02, 0.000E+00, 7.629E+02, 0.000E+00
 7.400E+02, 4.894E+02, 0.000E+00, 6.537E+02, 0.000E+00, 7.629E+02, 0.000E+00
 7.482E+02, 4.894E+02, 0.000E+00, 6.537E+02, 0.000E+00, 7.629E+02, 0.000E+00
