s,C,kW/m2,C,kW/m2,C,kW/m2
Time,"WALL TEMPERATURE-CONE_2p82_025","HRRPUA-CONE_2p82_025","WALL TEMPERATURE-CONE_2p82_050","HRRPUA-CONE_2p82_050","WALL TEMPERATURE-CONE_2p82_075","HRRPUA-CONE_2p82_075"
 0.000E+00, 2.700E+01, 0.000E+00, 2.700E+01, 0.000E+00, 2.700E+01, 0.000E+00
 2.000E+00, 5.364E+01, 0.000E+00, 8.028E+01, 0.000E+00, 1.069E+02, 0.000E+00
 4.000E+00, 1.016E+02, 0.000E+00, 1.755E+02, 0.000E+00, 2.484E+02, 0.000E+00
 6.000E+00, 1.341E+02, 0.000E+00, 2.383E+02, 0.000E+00, 3.386E+02, 0.000E+00
 8.000E+00, 1.547E+02, 0.000E+00, 2.764E+02, 0.000E+00, 3.897E+02, 0.000E+00
 1.000E+01, 1.718E+02, 0.000E+00, 3.071E+02, 0.000E+00, 4.294E+02, 0.000E+00
 1.200E+01, 1.861E+02, 0.000E+00, 3.317E+02, 0.000E+00, 4.599E+02, 0.000E+00
 1.400E+01, 1.984E+02, 0.000E+00, 3.521E+02, 0.000E+00, 4.841E+02, 0.000E+00
 1.600E+01, 2.091E+02, 0.000E+00, 3.695E+02, 0.000E+00, 5.039E+02, 0.000E+00
 1.800E+01, 2.188E+02, 0.000E+00, 3.844E+02, 0.000E+00, 5.205E+02, 1.628E-01
 2.000E+01, 2.275E+02, 0.000E+00, 3.977E+02, 0.000E+00, 5.347E+02, 5.594E+01
 2.200E+01, 2.356E+02, 0.000E+00, 4.095E+02, 0.000E+00, 5.473E+02, 1.388E+02
 2.400E+01, 2.431E+02, 0.000E+00, 4.203E+02, 0.000E+00, 5.584E+02, 2.366E+02
 2.600E+01, 2.501E+02, 0.000E+00, 4.301E+02, 0.000E+00, 5.684E+02, 3.457E+02
 2.800E+01, 2.568E+02, 0.000E+00, 4.392E+02, 0.000E+00, 5.776E+02, 4.534E+02
 3.000E+01, 2.631E+02, 0.000E+00, 4.477E+02, 0.000E+00, 5.861E+02, 5.515E+02
 3.200E+01, 2.691E+02, 0.000E+00, 4.557E+02, 0.000E+00, 5.939E+02, 6.242E+02
 3.400E+01, 2.750E+02, 0.000E+00, 4.632E+02, 8.222E+00, 6.012E+02, 6.935E+02
 3.600E+01, 2.805E+02, 0.000E+00, 4.702E+02, 4.575E+01, 6.081E+02, 7.626E+02
 3.800E+01, 2.859E+02, 0.000E+00, 4.769E+02, 9.583E+01, 6.145E+02, 8.317E+02
 4.000E+01, 2.911E+02, 0.000E+00, 4.833E+02, 1.545E+02, 6.206E+02, 8.933E+02
 4.200E+01, 2.962E+02, 0.000E+00, 4.894E+02, 2.200E+02, 6.264E+02, 9.471E+02
 4.400E+01, 3.010E+02, 0.000E+00, 4.952E+02, 2.883E+02, 6.318E+02, 1.001E+03
 4.600E+01, 3.058E+02, 0.000E+00, 5.008E+02, 3.517E+02, 6.370E+02, 1.055E+03
 4.800E+01, 3.104E+02, 0.000E+00, 5.061E+02, 4.108E+02, 6.419E+02, 1.110E+03
 5.000E+01, 3.148E+02, 0.000E+00, 5.111E+02, 4.592E+02, 6.466E+02, 1.165E+03
 5.200E+01, 3.192E+02, 0.000E+00, 5.160E+02, 5.025E+02, 6.510E+02, 1.209E+03
 5.400E+01, 3.234E+02, 0.000E+00, 5.207E+02, 5.429E+02, 6.553E+02, 1.249E+03
 5.600E+01, 3.275E+02, 0.000E+00, 5.252E+02, 5.793E+02, 6.594E+02, 1.289E+03
 5.800E+01, 3.315E+02, 0.000E+00, 5.295E+02, 6.116E+02, 6.633E+02, 1.329E+03
 6.000E+01, 3.354E+02, 0.000E+00, 5.337E+02, 6.436E+02, 6.670E+02, 1.374E+03
 6.200E+01, 3.392E+02, 0.000E+00, 5.376E+02, 6.755E+02, 6.705E+02, 1.420E+03
 6.400E+01, 3.429E+02, 0.000E+00, 5.415E+02, 7.074E+02, 6.739E+02, 1.466E+03
 6.600E+01, 3.465E+02, 0.000E+00, 5.452E+02, 7.394E+02, 6.772E+02, 1.512E+03
 6.800E+01, 3.500E+02, 0.000E+00, 5.487E+02, 7.700E+02, 6.803E+02, 1.558E+03
 7.000E+01, 3.534E+02, 0.000E+00, 5.522E+02, 7.979E+02, 6.833E+02, 1.595E+03
 7.200E+01, 3.567E+02, 0.000E+00, 5.555E+02, 8.250E+02, 6.862E+02, 1.608E+03
 7.400E+01, 3.599E+02, 0.000E+00, 5.587E+02, 8.519E+02, 6.889E+02, 1.619E+03
 7.600E+01, 3.631E+02, 0.000E+00, 5.617E+02, 8.787E+02, 6.916E+02, 1.621E+03
 7.800E+01, 3.662E+02, 0.000E+00, 5.647E+02, 9.049E+02, 6.941E+02, 1.608E+03
 8.000E+01, 3.692E+02, 0.000E+00, 5.675E+02, 9.279E+02, 6.966E+02, 1.593E+03
 8.200E+01, 3.721E+02, 0.000E+00, 5.703E+02, 9.505E+02, 6.989E+02, 1.577E+03
 8.400E+01, 3.749E+02, 0.000E+00, 5.730E+02, 9.731E+02, 7.012E+02, 1.548E+03
 8.600E+01, 3.777E+02, 0.000E+00, 5.755E+02, 9.942E+02, 7.033E+02, 1.516E+03
 8.800E+01, 3.804E+02, 0.000E+00, 5.780E+02, 1.009E+03, 7.054E+02, 1.481E+03
 9.000E+01, 3.831E+02, 0.000E+00, 5.804E+02, 1.024E+03, 7.074E+02, 1.427E+03
 9.200E+01, 3.857E+02, 0.000E+00, 5.827E+02, 1.038E+03, 7.094E+02, 1.370E+03
 9.400E+01, 3.882E+02, 0.000E+00, 5.849E+02, 1.053E+03, 7.112E+02, 1.300E+03
 9.600E+01, 3.906E+02, 0.000E+00, 5.871E+02, 1.068E+03, 7.130E+02, 1.226E+03
 9.800E+01, 3.930E+02, 2.061E+01, 5.892E+02, 1.082E+03, 7.147E+02, 1.144E+03
 1.000E+02, 3.953E+02, 3.182E+01, 5.912E+02, 1.094E+03, 7.164E+02, 1.046E+03
 1.020E+02, 3.976E+02, 4.270E+01, 5.931E+02, 1.108E+03, 7.180E+02, 9.482E+02
 1.040E+02, 3.998E+02, 5.528E+01, 5.950E+02, 1.122E+03, 7.195E+02, 8.458E+02
 1.060E+02, 4.020E+02, 7.138E+01, 5.968E+02, 1.135E+03, 7.210E+02, 7.231E+02
 1.080E+02, 4.041E+02, 9.457E+01, 5.986E+02, 1.140E+03, 7.224E+02, 5.980E+02
 1.100E+02, 4.061E+02, 1.246E+02, 6.003E+02, 1.144E+03, 7.238E+02, 4.749E+02
 1.120E+02, 4.081E+02, 1.547E+02, 6.019E+02, 1.149E+03, 7.251E+02, 3.513E+02
 1.140E+02, 4.101E+02, 1.863E+02, 6.035E+02, 1.154E+03, 7.264E+02, 2.479E+02
 1.160E+02, 4.120E+02, 2.198E+02, 6.050E+02, 1.158E+03, 7.276E+02, 1.635E+02
 1.180E+02, 4.139E+02, 2.508E+02, 6.065E+02, 1.162E+03, 7.288E+02, 1.005E+02
 1.200E+02, 4.157E+02, 2.806E+02, 6.080E+02, 1.161E+03, 7.299E+02, 5.515E+01
 1.220E+02, 4.174E+02, 3.045E+02, 6.093E+02, 1.160E+03, 7.310E+02, 2.764E+01
 1.240E+02, 4.192E+02, 3.259E+02, 6.107E+02, 1.158E+03, 7.321E+02, 2.053E+01
 1.260E+02, 4.208E+02, 3.476E+02, 6.120E+02, 1.155E+03, 7.331E+02, 1.613E+01
 1.280E+02, 4.225E+02, 3.697E+02, 6.132E+02, 1.149E+03, 7.341E+02, 1.189E+01
 1.300E+02, 4.241E+02, 3.921E+02, 6.145E+02, 1.135E+03, 7.350E+02, 7.656E+00
 1.320E+02, 4.256E+02, 4.146E+02, 6.156E+02, 1.120E+03, 7.359E+02, 3.428E+00
 1.340E+02, 4.272E+02, 4.359E+02, 6.168E+02, 1.103E+03, 7.368E+02, 1.455E+00
 1.360E+02, 4.286E+02, 4.569E+02, 6.179E+02, 1.077E+03, 7.377E+02, 1.322E+00
 1.380E+02, 4.301E+02, 4.766E+02, 6.190E+02, 1.047E+03, 7.385E+02, 1.194E+00
 1.400E+02, 4.315E+02, 4.932E+02, 6.200E+02, 1.014E+03, 7.393E+02, 1.066E+00
 1.420E+02, 4.329E+02, 5.096E+02, 6.210E+02, 9.768E+02, 7.401E+02, 9.388E-01
 1.440E+02, 4.342E+02, 5.260E+02, 6.220E+02, 9.314E+02, 7.408E+02, 8.110E-01
 1.460E+02, 4.355E+02, 5.424E+02, 6.229E+02, 8.778E+02, 7.415E+02, 6.833E-01
 1.480E+02, 4.368E+02, 5.588E+02, 6.238E+02, 8.166E+02, 7.422E+02, 5.555E-01
 1.500E+02, 4.380E+02, 5.754E+02, 6.247E+02, 7.470E+02, 7.428E+02, 4.660E-01
 1.520E+02, 4.393E+02, 5.922E+02, 6.255E+02, 6.698E+02, 7.435E+02, 4.787E-01
 1.540E+02, 4.404E+02, 6.091E+02, 6.264E+02, 5.905E+02, 7.441E+02, 4.970E-01
 1.560E+02, 4.416E+02, 6.260E+02, 6.272E+02, 5.063E+02, 7.447E+02, 5.152E-01
 1.580E+02, 4.427E+02, 6.426E+02, 6.279E+02, 4.218E+02, 7.453E+02, 5.335E-01
 1.600E+02, 4.438E+02, 6.559E+02, 6.287E+02, 3.401E+02, 7.458E+02, 5.518E-01
 1.620E+02, 4.449E+02, 6.684E+02, 6.294E+02, 2.610E+02, 7.464E+02, 5.701E-01
 1.640E+02, 4.459E+02, 6.810E+02, 6.301E+02, 1.872E+02, 7.469E+02, 5.884E-01
 1.660E+02, 4.470E+02, 6.936E+02, 6.308E+02, 1.328E+02, 7.474E+02, 6.010E-01
 1.680E+02, 4.479E+02, 7.062E+02, 6.314E+02, 8.742E+01, 7.479E+02, 5.598E-01
 1.700E+02, 4.489E+02, 7.189E+02, 6.321E+02, 5.145E+01, 7.483E+02, 5.050E-01
 1.720E+02, 4.499E+02, 7.316E+02, 6.327E+02, 3.493E+01, 7.488E+02, 4.502E-01
 1.740E+02, 4.508E+02, 7.452E+02, 6.333E+02, 2.658E+01, 7.492E+02, 3.954E-01
 1.760E+02, 4.517E+02, 7.598E+02, 6.339E+02, 1.950E+01, 7.496E+02, 3.406E-01
 1.780E+02, 4.526E+02, 7.745E+02, 6.344E+02, 1.453E+01, 7.500E+02, 2.858E-01
 1.800E+02, 4.534E+02, 7.892E+02, 6.350E+02, 1.146E+01, 7.504E+02, 2.309E-01
 1.820E+02, 4.542E+02, 8.040E+02, 6.355E+02, 9.558E+00, 7.508E+02, 1.762E-01
 1.840E+02, 4.551E+02, 8.183E+02, 6.360E+02, 8.457E+00, 7.511E+02, 1.419E-01
 1.860E+02, 4.559E+02, 8.323E+02, 6.365E+02, 7.379E+00, 7.515E+02, 1.236E-01
 1.880E+02, 4.566E+02, 8.463E+02, 6.370E+02, 6.282E+00, 7.518E+02, 1.053E-01
 1.900E+02, 4.574E+02, 8.602E+02, 6.374E+02, 5.159E+00, 7.521E+02, 8.706E-02
 1.920E+02, 4.581E+02, 8.742E+02, 6.379E+02, 4.013E+00, 7.525E+02, 6.878E-02
 1.940E+02, 4.588E+02, 8.839E+02, 6.383E+02, 3.477E+00, 7.528E+02, 5.049E-02
 1.960E+02, 4.595E+02, 8.871E+02, 6.387E+02, 3.378E+00, 7.531E+02, 3.221E-02
 1.980E+02, 4.602E+02, 8.904E+02, 6.391E+02, 3.267E+00, 7.533E+02, 1.392E-02
 2.000E+02, 4.609E+02, 8.938E+02, 6.395E+02, 3.152E+00, 7.536E+02, 6.241E-04
 2.020E+02, 4.615E+02, 8.971E+02, 6.399E+02, 3.037E+00, 7.539E+02, 0.000E+00
 2.040E+02, 4.622E+02, 8.984E+02, 6.403E+02, 2.922E+00, 7.541E+02, 0.000E+00
 2.060E+02, 4.628E+02, 8.948E+02, 6.406E+02, 2.807E+00, 7.544E+02, 0.000E+00
 2.080E+02, 4.634E+02, 8.909E+02, 6.410E+02, 2.692E+00, 7.546E+02, 0.000E+00
 2.100E+02, 4.640E+02, 8.863E+02, 6.413E+02, 2.576E+00, 7.548E+02, 0.000E+00
 2.120E+02, 4.645E+02, 8.817E+02, 6.416E+02, 2.435E+00, 7.551E+02, 0.000E+00
 2.140E+02, 4.651E+02, 8.770E+02, 6.420E+02, 2.223E+00, 7.553E+02, 0.000E+00
 2.160E+02, 4.656E+02, 8.715E+02, 6.423E+02, 2.005E+00, 7.555E+02, 0.000E+00
 2.180E+02, 4.662E+02, 8.622E+02, 6.426E+02, 1.788E+00, 7.557E+02, 0.000E+00
 2.200E+02, 4.667E+02, 8.526E+02, 6.428E+02, 1.570E+00, 7.559E+02, 0.000E+00
 2.220E+02, 4.672E+02, 8.430E+02, 6.431E+02, 1.352E+00, 7.561E+02, 0.000E+00
 2.240E+02, 4.677E+02, 8.334E+02, 6.434E+02, 1.134E+00, 7.562E+02, 0.000E+00
 2.260E+02, 4.682E+02, 8.232E+02, 6.437E+02, 9.166E-01, 7.564E+02, 0.000E+00
 2.280E+02, 4.686E+02, 8.072E+02, 6.439E+02, 7.569E-01, 7.566E+02, 0.000E+00
 2.300E+02, 4.691E+02, 7.900E+02, 6.441E+02, 7.284E-01, 7.567E+02, 0.000E+00
 2.320E+02, 4.695E+02, 7.721E+02, 6.444E+02, 7.164E-01, 7.569E+02, 0.000E+00
 2.340E+02, 4.700E+02, 7.539E+02, 6.446E+02, 7.046E-01, 7.570E+02, 0.000E+00
 2.360E+02, 4.704E+02, 7.317E+02, 6.448E+02, 6.928E-01, 7.572E+02, 0.000E+00
 2.380E+02, 4.708E+02, 7.082E+02, 6.451E+02, 6.809E-01, 7.573E+02, 0.000E+00
 2.400E+02, 4.712E+02, 6.847E+02, 6.453E+02, 6.691E-01, 7.575E+02, 0.000E+00
 2.420E+02, 4.716E+02, 6.613E+02, 6.455E+02, 6.573E-01, 7.576E+02, 0.000E+00
 2.440E+02, 4.720E+02, 6.360E+02, 6.457E+02, 6.454E-01, 7.577E+02, 0.000E+00
 2.460E+02, 4.724E+02, 6.056E+02, 6.458E+02, 6.336E-01, 7.578E+02, 0.000E+00
 2.480E+02, 4.727E+02, 5.751E+02, 6.460E+02, 6.217E-01, 7.579E+02, 0.000E+00
 2.500E+02, 4.731E+02, 5.452E+02, 6.462E+02, 6.098E-01, 7.581E+02, 0.000E+00
 2.520E+02, 4.734E+02, 5.155E+02, 6.464E+02, 5.979E-01, 7.582E+02, 0.000E+00
 2.540E+02, 4.738E+02, 4.857E+02, 6.465E+02, 5.861E-01, 7.583E+02, 0.000E+00
 2.560E+02, 4.741E+02, 4.526E+02, 6.467E+02, 5.742E-01, 7.584E+02, 0.000E+00
 2.580E+02, 4.744E+02, 4.149E+02, 6.469E+02, 5.623E-01, 7.585E+02, 0.000E+00
 2.600E+02, 4.747E+02, 3.768E+02, 6.470E+02, 5.504E-01, 7.586E+02, 0.000E+00
 2.620E+02, 4.750E+02, 3.371E+02, 6.472E+02, 5.385E-01, 7.587E+02, 0.000E+00
 2.640E+02, 4.753E+02, 2.977E+02, 6.473E+02, 5.287E-01, 7.587E+02, 0.000E+00
 2.660E+02, 4.756E+02, 2.602E+02, 6.474E+02, 5.244E-01, 7.588E+02, 0.000E+00
 2.680E+02, 4.759E+02, 2.243E+02, 6.476E+02, 5.205E-01, 7.589E+02, 0.000E+00
 2.700E+02, 4.762E+02, 1.886E+02, 6.477E+02, 5.165E-01, 7.590E+02, 0.000E+00
 2.720E+02, 4.765E+02, 1.514E+02, 6.478E+02, 5.126E-01, 7.591E+02, 0.000E+00
 2.740E+02, 4.767E+02, 1.241E+02, 6.479E+02, 5.086E-01, 7.591E+02, 0.000E+00
 2.760E+02, 4.770E+02, 1.024E+02, 6.481E+02, 5.047E-01, 7.592E+02, 0.000E+00
 2.780E+02, 4.772E+02, 8.009E+01, 6.482E+02, 5.007E-01, 7.593E+02, 0.000E+00
 2.800E+02, 4.775E+02, 5.751E+01, 6.483E+02, 4.967E-01, 7.593E+02, 0.000E+00
 2.820E+02, 4.777E+02, 4.449E+01, 6.484E+02, 4.928E-01, 7.594E+02, 0.000E+00
 2.840E+02, 4.779E+02, 3.535E+01, 6.485E+02, 4.888E-01, 7.595E+02, 0.000E+00
 2.860E+02, 4.782E+02, 2.714E+01, 6.486E+02, 4.848E-01, 7.595E+02, 0.000E+00
 2.880E+02, 4.784E+02, 2.140E+01, 6.487E+02, 4.809E-01, 7.596E+02, 0.000E+00
 2.900E+02, 4.786E+02, 1.769E+01, 6.488E+02, 4.769E-01, 7.596E+02, 0.000E+00
 2.920E+02, 4.788E+02, 1.419E+01, 6.489E+02, 4.729E-01, 7.597E+02, 0.000E+00
 2.940E+02, 4.790E+02, 1.073E+01, 6.490E+02, 4.690E-01, 7.598E+02, 0.000E+00
 2.960E+02, 4.792E+02, 8.475E+00, 6.491E+02, 4.650E-01, 7.598E+02, 0.000E+00
 2.980E+02, 4.794E+02, 7.902E+00, 6.491E+02, 4.610E-01, 7.599E+02, 0.000E+00
 3.000E+02, 4.796E+02, 7.403E+00, 6.492E+02, 4.448E-01, 7.599E+02, 0.000E+00
 3.020E+02, 4.798E+02, 6.912E+00, 6.493E+02, 4.189E-01, 7.599E+02, 0.000E+00
 3.040E+02, 4.800E+02, 6.423E+00, 6.494E+02, 3.930E-01, 7.600E+02, 0.000E+00
 3.060E+02, 4.801E+02, 5.934E+00, 6.494E+02, 3.670E-01, 7.600E+02, 0.000E+00
 3.080E+02, 4.803E+02, 5.446E+00, 6.495E+02, 3.410E-01, 7.601E+02, 0.000E+00
 3.100E+02, 4.805E+02, 4.957E+00, 6.496E+02, 3.150E-01, 7.601E+02, 0.000E+00
 3.120E+02, 4.806E+02, 4.468E+00, 6.497E+02, 2.890E-01, 7.601E+02, 0.000E+00
 3.140E+02, 4.808E+02, 3.980E+00, 6.497E+02, 2.630E-01, 7.602E+02, 0.000E+00
 3.160E+02, 4.810E+02, 3.491E+00, 6.498E+02, 2.370E-01, 7.602E+02, 0.000E+00
 3.180E+02, 4.811E+02, 3.003E+00, 6.498E+02, 2.110E-01, 7.603E+02, 0.000E+00
 3.200E+02, 4.813E+02, 2.514E+00, 6.499E+02, 1.849E-01, 7.603E+02, 0.000E+00
 3.220E+02, 4.814E+02, 2.026E+00, 6.500E+02, 1.588E-01, 7.603E+02, 0.000E+00
 3.240E+02, 4.815E+02, 1.538E+00, 6.500E+02, 1.327E-01, 7.604E+02, 0.000E+00
 3.260E+02, 4.817E+02, 1.050E+00, 6.501E+02, 1.066E-01, 7.604E+02, 0.000E+00
 3.280E+02, 4.818E+02, 6.024E-01, 6.501E+02, 8.053E-02, 7.604E+02, 0.000E+00
 3.300E+02, 4.819E+02, 5.055E-01, 6.502E+02, 5.440E-02, 7.604E+02, 0.000E+00
 3.320E+02, 4.821E+02, 4.904E-01, 6.502E+02, 2.826E-02, 7.605E+02, 0.000E+00
 3.340E+02, 4.822E+02, 4.755E-01, 6.503E+02, 4.414E-03, 7.605E+02, 0.000E+00
 3.360E+02, 4.823E+02, 4.606E-01, 6.503E+02, 0.000E+00, 7.605E+02, 0.000E+00
 3.380E+02, 4.824E+02, 4.458E-01, 6.503E+02, 0.000E+00, 7.605E+02, 0.000E+00
 3.400E+02, 4.825E+02, 4.309E-01, 6.504E+02, 0.000E+00, 7.606E+02, 0.000E+00
 3.420E+02, 4.827E+02, 4.160E-01, 6.504E+02, 0.000E+00, 7.606E+02, 0.000E+00
 3.440E+02, 4.828E+02, 4.012E-01, 6.505E+02, 0.000E+00, 7.606E+02, 0.000E+00
 3.460E+02, 4.829E+02, 3.863E-01, 6.505E+02, 0.000E+00, 7.606E+02, 0.000E+00
 3.480E+02, 4.830E+02, 3.714E-01, 6.505E+02, 0.000E+00, 7.606E+02, 0.000E+00
 3.500E+02, 4.831E+02, 3.566E-01, 6.506E+02, 0.000E+00, 7.607E+02, 0.000E+00
 3.520E+02, 4.832E+02, 3.417E-01, 6.506E+02, 0.000E+00, 7.607E+02, 0.000E+00
 3.540E+02, 4.833E+02, 3.269E-01, 6.507E+02, 0.000E+00, 7.607E+02, 0.000E+00
 3.560E+02, 4.834E+02, 3.120E-01, 6.507E+02, 0.000E+00, 7.607E+02, 0.000E+00
 3.580E+02, 4.835E+02, 2.971E-01, 6.507E+02, 0.000E+00, 7.607E+02, 0.000E+00
 3.600E+02, 4.835E+02, 2.823E-01, 6.507E+02, 0.000E+00, 7.608E+02, 0.000E+00
 3.620E+02, 4.836E+02, 2.674E-01, 6.508E+02, 0.000E+00, 7.608E+02, 0.000E+00
 3.640E+02, 4.837E+02, 2.525E-01, 6.508E+02, 0.000E+00, 7.608E+02, 0.000E+00
 3.660E+02, 4.838E+02, 2.376E-01, 6.508E+02, 0.000E+00, 7.608E+02, 0.000E+00
 3.680E+02, 4.839E+02, 2.228E-01, 6.509E+02, 0.000E+00, 7.608E+02, 0.000E+00
 3.700E+02, 4.840E+02, 2.079E-01, 6.509E+02, 0.000E+00, 7.608E+02, 0.000E+00
 3.720E+02, 4.840E+02, 1.930E-01, 6.509E+02, 0.000E+00, 7.608E+02, 0.000E+00
 3.740E+02, 4.841E+02, 1.782E-01, 6.509E+02, 0.000E+00, 7.609E+02, 0.000E+00
 3.760E+02, 4.842E+02, 1.633E-01, 6.510E+02, 0.000E+00, 7.609E+02, 0.000E+00
 3.780E+02, 4.843E+02, 1.567E-01, 6.510E+02, 0.000E+00, 7.609E+02, 0.000E+00
 3.800E+02, 4.843E+02, 1.589E-01, 6.510E+02, 0.000E+00, 7.609E+02, 0.000E+00
 3.820E+02, 4.844E+02, 1.610E-01, 6.510E+02, 0.000E+00, 7.609E+02, 0.000E+00
 3.840E+02, 4.845E+02, 1.631E-01, 6.511E+02, 0.000E+00, 7.609E+02, 0.000E+00
 3.860E+02, 4.845E+02, 1.652E-01, 6.511E+02, 0.000E+00, 7.609E+02, 0.000E+00
 3.880E+02, 4.846E+02, 1.674E-01, 6.511E+02, 0.000E+00, 7.609E+02, 0.000E+00
 3.900E+02, 4.847E+02, 1.695E-01, 6.511E+02, 0.000E+00, 7.609E+02, 0.000E+00
 3.920E+02, 4.847E+02, 1.716E-01, 6.511E+02, 0.000E+00, 7.610E+02, 0.000E+00
 3.940E+02, 4.848E+02, 1.737E-01, 6.511E+02, 0.000E+00, 7.610E+02, 0.000E+00
 3.960E+02, 4.848E+02, 1.759E-01, 6.512E+02, 0.000E+00, 7.610E+02, 0.000E+00
 3.980E+02, 4.849E+02, 1.780E-01, 6.512E+02, 0.000E+00, 7.610E+02, 0.000E+00
 4.000E+02, 4.849E+02, 1.801E-01, 6.512E+02, 0.000E+00, 7.610E+02, 0.000E+00
 4.020E+02, 4.850E+02, 1.822E-01, 6.512E+02, 0.000E+00, 7.610E+02, 0.000E+00
 4.040E+02, 4.850E+02, 1.844E-01, 6.512E+02, 0.000E+00, 7.610E+02, 0.000E+00
 4.060E+02, 4.851E+02, 1.865E-01, 6.512E+02, 0.000E+00, 7.610E+02, 0.000E+00
 4.080E+02, 4.851E+02, 1.886E-01, 6.513E+02, 0.000E+00, 7.610E+02, 0.000E+00
 4.100E+02, 4.852E+02, 1.907E-01, 6.513E+02, 0.000E+00, 7.610E+02, 0.000E+00
 4.120E+02, 4.852E+02, 1.929E-01, 6.513E+02, 0.000E+00, 7.610E+02, 0.000E+00
 4.140E+02, 4.853E+02, 1.950E-01, 6.513E+02, 0.000E+00, 7.610E+02, 0.000E+00
 4.160E+02, 4.853E+02, 1.971E-01, 6.513E+02, 0.000E+00, 7.610E+02, 0.000E+00
 4.180E+02, 4.854E+02, 1.993E-01, 6.513E+02, 0.000E+00, 7.610E+02, 0.000E+00
 4.200E+02, 4.854E+02, 2.014E-01, 6.513E+02, 0.000E+00, 7.611E+02, 0.000E+00
 4.220E+02, 4.854E+02, 2.035E-01, 6.514E+02, 0.000E+00, 7.611E+02, 0.000E+00
 4.240E+02, 4.855E+02, 2.056E-01, 6.514E+02, 0.000E+00, 7.611E+02, 0.000E+00
 4.260E+02, 4.855E+02, 2.064E-01, 6.514E+02, 0.000E+00, 7.611E+02, 0.000E+00
 4.280E+02, 4.856E+02, 2.008E-01, 6.514E+02, 0.000E+00, 7.611E+02, 0.000E+00
 4.300E+02, 4.856E+02, 1.945E-01, 6.514E+02, 0.000E+00, 7.611E+02, 0.000E+00
 4.320E+02, 4.856E+02, 1.881E-01, 6.514E+02, 0.000E+00, 7.611E+02, 0.000E+00
 4.340E+02, 4.857E+02, 1.817E-01, 6.514E+02, 0.000E+00, 7.611E+02, 0.000E+00
 4.360E+02, 4.857E+02, 1.753E-01, 6.514E+02, 0.000E+00, 7.611E+02, 0.000E+00
 4.380E+02, 4.857E+02, 1.690E-01, 6.514E+02, 0.000E+00, 7.611E+02, 0.000E+00
 4.400E+02, 4.858E+02, 1.626E-01, 6.514E+02, 0.000E+00, 7.611E+02, 0.000E+00
 4.420E+02, 4.858E+02, 1.562E-01, 6.514E+02, 0.000E+00, 7.611E+02, 0.000E+00
 4.440E+02, 4.858E+02, 1.498E-01, 6.515E+02, 0.000E+00, 7.611E+02, 0.000E+00
 4.460E+02, 4.859E+02, 1.434E-01, 6.515E+02, 0.000E+00, 7.611E+02, 0.000E+00
 4.480E+02, 4.859E+02, 1.371E-01, 6.515E+02, 0.000E+00, 7.611E+02, 0.000E+00
 4.500E+02, 4.859E+02, 1.307E-01, 6.515E+02, 0.000E+00, 7.611E+02, 0.000E+00
 4.520E+02, 4.860E+02, 1.243E-01, 6.515E+02, 0.000E+00, 7.611E+02, 0.000E+00
 4.540E+02, 4.860E+02, 1.179E-01, 6.515E+02, 0.000E+00, 7.611E+02, 0.000E+00
 4.560E+02, 4.860E+02, 1.116E-01, 6.515E+02, 0.000E+00, 7.611E+02, 0.000E+00
 4.580E+02, 4.860E+02, 1.052E-01, 6.515E+02, 0.000E+00, 7.611E+02, 0.000E+00
 4.600E+02, 4.861E+02, 9.880E-02, 6.515E+02, 0.000E+00, 7.611E+02, 0.000E+00
 4.620E+02, 4.861E+02, 9.243E-02, 6.515E+02, 0.000E+00, 7.611E+02, 0.000E+00
 4.640E+02, 4.861E+02, 8.605E-02, 6.515E+02, 0.000E+00, 7.611E+02, 0.000E+00
 4.660E+02, 4.861E+02, 7.967E-02, 6.515E+02, 0.000E+00, 7.611E+02, 0.000E+00
 4.680E+02, 4.862E+02, 7.329E-02, 6.515E+02, 0.000E+00, 7.611E+02, 0.000E+00
 4.700E+02, 4.862E+02, 6.691E-02, 6.515E+02, 0.000E+00, 7.611E+02, 0.000E+00
 4.720E+02, 4.862E+02, 6.054E-02, 6.515E+02, 0.000E+00, 7.611E+02, 0.000E+00
 4.740E+02, 4.862E+02, 5.421E-02, 6.516E+02, 0.000E+00, 7.611E+02, 0.000E+00
 4.760E+02, 4.862E+02, 5.053E-02, 6.516E+02, 0.000E+00, 7.612E+02, 0.000E+00
 4.780E+02, 4.863E+02, 4.841E-02, 6.516E+02, 0.000E+00, 7.612E+02, 0.000E+00
 4.800E+02, 4.863E+02, 4.628E-02, 6.516E+02, 0.000E+00, 7.612E+02, 0.000E+00
 4.820E+02, 4.863E+02, 4.416E-02, 6.516E+02, 0.000E+00, 7.612E+02, 0.000E+00
 4.840E+02, 4.863E+02, 4.203E-02, 6.516E+02, 0.000E+00, 7.612E+02, 0.000E+00
 4.860E+02, 4.863E+02, 3.991E-02, 6.516E+02, 0.000E+00, 7.612E+02, 0.000E+00
 4.880E+02, 4.864E+02, 3.778E-02, 6.516E+02, 0.000E+00, 7.612E+02, 0.000E+00
 4.900E+02, 4.864E+02, 3.565E-02, 6.516E+02, 0.000E+00, 7.612E+02, 0.000E+00
 4.920E+02, 4.864E+02, 3.353E-02, 6.516E+02, 0.000E+00, 7.612E+02, 0.000E+00
 4.940E+02, 4.864E+02, 3.140E-02, 6.516E+02, 0.000E+00, 7.612E+02, 0.000E+00
 4.960E+02, 4.864E+02, 2.928E-02, 6.516E+02, 0.000E+00, 7.612E+02, 0.000E+00
 4.980E+02, 4.864E+02, 2.715E-02, 6.516E+02, 0.000E+00, 7.612E+02, 0.000E+00
 5.000E+02, 4.864E+02, 2.502E-02, 6.516E+02, 0.000E+00, 7.612E+02, 0.000E+00
 5.020E+02, 4.865E+02, 2.290E-02, 6.516E+02, 0.000E+00, 7.612E+02, 0.000E+00
 5.040E+02, 4.865E+02, 2.077E-02, 6.516E+02, 0.000E+00, 7.612E+02, 0.000E+00
 5.060E+02, 4.865E+02, 1.865E-02, 6.516E+02, 0.000E+00, 7.612E+02, 0.000E+00
 5.080E+02, 4.865E+02, 1.652E-02, 6.516E+02, 0.000E+00, 7.612E+02, 0.000E+00
 5.100E+02, 4.865E+02, 1.439E-02, 6.516E+02, 0.000E+00, 7.612E+02, 0.000E+00
 5.120E+02, 4.865E+02, 1.227E-02, 6.516E+02, 0.000E+00, 7.612E+02, 0.000E+00
