s,C,kW/m2,C,kW/m2,C,kW/m2
Time,WALL TEMPERATURE-CONE_14p29_025,HRRPUA-CONE_14p29_025,WALL TEMPERATURE-CONE_14p29_050,HRRPUA-CONE_14p29_050,WALL TEMPERATURE-CONE_14p29_075,HRRPUA-CONE_14p29_075
 0.000E+00, 2.700E+01, 0.000E+00, 2.700E+01, 0.000E+00, 2.700E+01, 0.000E+00
 2.000E+00, 1.822E+02, 0.000E+00, 3.373E+02, 0.000E+00, 4.925E+02, 0.000E+00
 4.000E+00, 3.674E+02, 0.000E+00, 6.173E+02, 0.000E+00, 8.344E+02, 0.000E+00
 6.000E+00, 4.103E+02, 0.000E+00, 5.961E+02, 2.594E+01, 7.174E+02, 3.379E+01
 8.000E+00, 4.298E+02, 0.000E+00, 6.101E+02, 4.690E+01, 7.277E+02, 5.909E+01
 1.000E+01, 4.408E+02, 0.000E+00, 6.180E+02, 6.565E+01, 7.337E+02, 8.423E+01
 1.200E+01, 4.480E+02, 0.000E+00, 6.232E+02, 8.128E+01, 7.378E+02, 1.099E+02
 1.400E+01, 4.533E+02, 0.000E+00, 6.271E+02, 1.024E+02, 7.410E+02, 1.546E+02
 1.600E+01, 4.575E+02, 0.000E+00, 6.303E+02, 1.376E+02, 7.436E+02, 2.205E+02
 1.800E+01, 4.610E+02, 0.000E+00, 6.329E+02, 1.859E+02, 7.457E+02, 2.930E+02
 2.000E+01, 4.639E+02, 0.000E+00, 6.350E+02, 2.409E+02, 7.475E+02, 3.801E+02
 2.200E+01, 4.666E+02, 0.000E+00, 6.371E+02, 2.993E+02, 7.493E+02, 4.692E+02
 2.400E+01, 4.689E+02, 0.000E+00, 6.388E+02, 3.614E+02, 7.507E+02, 5.460E+02
 2.600E+01, 4.708E+02, 0.000E+00, 6.402E+02, 4.199E+02, 7.518E+02, 6.193E+02
 2.800E+01, 4.726E+02, 0.000E+00, 6.416E+02, 4.700E+02, 7.530E+02, 6.689E+02
 3.000E+01, 4.741E+02, 0.000E+00, 6.427E+02, 5.107E+02, 7.540E+02, 7.094E+02
 3.200E+01, 4.754E+02, 0.000E+00, 6.436E+02, 5.443E+02, 7.547E+02, 7.300E+02
 3.400E+01, 4.766E+02, 0.000E+00, 6.445E+02, 5.666E+02, 7.555E+02, 7.428E+02
 3.600E+01, 4.776E+02, 0.000E+00, 6.453E+02, 5.784E+02, 7.561E+02, 7.406E+02
 3.800E+01, 4.785E+02, 8.894E+00, 6.459E+02, 5.834E+02, 7.566E+02, 7.321E+02
 4.000E+01, 4.793E+02, 1.211E+01, 6.465E+02, 5.781E+02, 7.571E+02, 7.130E+02
 4.200E+01, 4.800E+02, 1.523E+01, 6.470E+02, 5.712E+02, 7.576E+02, 6.859E+02
 4.400E+01, 4.807E+02, 1.834E+01, 6.475E+02, 5.620E+02, 7.580E+02, 6.526E+02
 4.600E+01, 4.813E+02, 2.145E+01, 6.480E+02, 5.504E+02, 7.584E+02, 5.883E+02
 4.800E+01, 4.819E+02, 2.456E+01, 6.484E+02, 5.383E+02, 7.587E+02, 4.969E+02
 5.000E+01, 4.824E+02, 2.768E+01, 6.488E+02, 5.225E+02, 7.591E+02, 3.892E+02
 5.200E+01, 4.829E+02, 3.081E+01, 6.492E+02, 5.041E+02, 7.594E+02, 2.768E+02
 5.400E+01, 4.834E+02, 3.395E+01, 6.496E+02, 4.759E+02, 7.597E+02, 1.951E+02
 5.600E+01, 4.839E+02, 3.711E+01, 6.499E+02, 4.381E+02, 7.600E+02, 1.254E+02
 5.800E+01, 4.843E+02, 4.035E+01, 6.502E+02, 3.879E+02, 7.603E+02, 6.797E+01
 6.000E+01, 4.847E+02, 4.615E+01, 6.505E+02, 3.390E+02, 7.605E+02, 3.558E+01
 6.200E+01, 4.851E+02, 5.352E+01, 6.508E+02, 2.810E+02, 7.607E+02, 1.781E+01
 6.400E+01, 4.854E+02, 6.107E+01, 6.511E+02, 2.173E+02, 7.610E+02, 9.561E+00
 6.600E+01, 4.858E+02, 7.002E+01, 6.514E+02, 1.540E+02, 7.612E+02, 4.353E+00
 6.800E+01, 4.861E+02, 8.097E+01, 6.516E+02, 9.034E+01, 7.614E+02, 3.234E+00
 7.000E+01, 4.864E+02, 9.226E+01, 6.519E+02, 5.722E+01, 7.616E+02, 2.169E+00
 7.200E+01, 4.867E+02, 1.050E+02, 6.521E+02, 4.026E+01, 7.618E+02, 1.106E+00
 7.400E+01, 4.870E+02, 1.223E+02, 6.523E+02, 2.978E+01, 7.620E+02, 3.257E-01
 7.600E+01, 4.873E+02, 1.445E+02, 6.525E+02, 2.235E+01, 7.622E+02, 2.447E-01
 7.800E+01, 4.876E+02, 1.733E+02, 6.527E+02, 1.668E+01, 7.624E+02, 1.965E-01
 8.000E+01, 4.878E+02, 2.097E+02, 6.529E+02, 1.363E+01, 7.625E+02, 1.483E-01
 8.200E+01, 4.881E+02, 2.428E+02, 6.531E+02, 1.089E+01, 7.627E+02, 1.001E-01
 8.400E+01, 4.883E+02, 2.672E+02, 6.533E+02, 8.093E+00, 7.628E+02, 5.195E-02
 8.600E+01, 4.885E+02, 2.898E+02, 6.535E+02, 5.489E+00, 7.630E+02, 1.020E-02
 8.800E+01, 4.888E+02, 3.133E+02, 6.537E+02, 4.622E+00, 7.631E+02, 2.221E-02
 9.000E+01, 4.890E+02, 3.360E+02, 6.538E+02, 4.097E+00, 7.633E+02, 4.631E-02
 9.200E+01, 4.892E+02, 3.520E+02, 6.540E+02, 3.594E+00, 7.634E+02, 7.040E-02
 9.400E+01, 4.894E+02, 3.665E+02, 6.541E+02, 3.128E+00, 7.636E+02, 9.449E-02
 9.600E+01, 4.896E+02, 3.810E+02, 6.543E+02, 2.662E+00, 7.637E+02, 1.186E-01
 9.800E+01, 4.898E+02, 3.917E+02, 6.544E+02, 2.194E+00, 7.638E+02, 1.428E-01
 1.000E+02, 4.900E+02, 3.979E+02, 6.546E+02, 1.722E+00, 7.639E+02, 1.811E-01
 1.020E+02, 4.901E+02, 4.037E+02, 6.547E+02, 1.248E+00, 7.640E+02, 2.293E-01
 1.040E+02, 4.903E+02, 4.074E+02, 6.549E+02, 8.138E-01, 7.642E+02, 2.775E-01
 1.060E+02, 4.905E+02, 4.082E+02, 6.550E+02, 7.002E-01, 7.643E+02, 3.257E-01
 1.080E+02, 4.907E+02, 4.063E+02, 6.551E+02, 6.544E-01, 7.644E+02, 3.739E-01
 1.100E+02, 4.908E+02, 4.036E+02, 6.552E+02, 6.089E-01, 7.645E+02, 4.221E-01
 1.120E+02, 4.910E+02, 4.010E+02, 6.554E+02, 5.633E-01, 7.646E+02, 4.345E-01
 1.140E+02, 4.911E+02, 3.961E+02, 6.555E+02, 5.177E-01, 7.647E+02, 3.654E-01
 1.160E+02, 4.913E+02, 3.873E+02, 6.556E+02, 4.720E-01, 7.648E+02, 2.931E-01
 1.180E+02, 4.914E+02, 3.782E+02, 6.557E+02, 4.264E-01, 7.649E+02, 2.208E-01
 1.200E+02, 4.916E+02, 3.692E+02, 6.558E+02, 3.807E-01, 7.650E+02, 1.485E-01
 1.220E+02, 4.917E+02, 3.596E+02, 6.559E+02, 3.350E-01, 7.651E+02, 7.617E-02
 1.240E+02, 4.918E+02, 3.418E+02, 6.560E+02, 2.892E-01, 7.651E+02, 1.107E-02
 1.260E+02, 4.920E+02, 3.205E+02, 6.561E+02, 2.434E-01, 7.652E+02, 0.000E+00
 1.280E+02, 4.921E+02, 2.949E+02, 6.562E+02, 1.976E-01, 7.653E+02, 0.000E+00
 1.300E+02, 4.922E+02, 2.649E+02, 6.563E+02, 1.542E-01, 7.654E+02, 0.000E+00
 1.320E+02, 4.923E+02, 2.334E+02, 6.564E+02, 1.525E-01, 7.655E+02, 0.000E+00
 1.340E+02, 4.924E+02, 2.010E+02, 6.565E+02, 1.660E-01, 7.655E+02, 0.000E+00
 1.360E+02, 4.926E+02, 1.645E+02, 6.566E+02, 1.795E-01, 7.656E+02, 0.000E+00
 1.380E+02, 4.927E+02, 1.243E+02, 6.567E+02, 1.929E-01, 7.657E+02, 0.000E+00
 1.400E+02, 4.928E+02, 9.643E+01, 6.567E+02, 2.064E-01, 7.658E+02, 0.000E+00
 1.420E+02, 4.929E+02, 7.841E+01, 6.568E+02, 2.199E-01, 7.658E+02, 0.000E+00
 1.440E+02, 4.930E+02, 6.335E+01, 6.569E+02, 2.334E-01, 7.659E+02, 0.000E+00
 1.460E+02, 4.931E+02, 5.157E+01, 6.570E+02, 2.468E-01, 7.660E+02, 0.000E+00
 1.480E+02, 4.932E+02, 4.387E+01, 6.571E+02, 2.603E-01, 7.660E+02, 0.000E+00
 1.500E+02, 4.933E+02, 3.686E+01, 6.571E+02, 2.738E-01, 7.661E+02, 0.000E+00
 1.520E+02, 4.934E+02, 3.002E+01, 6.572E+02, 2.872E-01, 7.662E+02, 0.000E+00
 1.540E+02, 4.935E+02, 2.342E+01, 6.573E+02, 3.007E-01, 7.662E+02, 0.000E+00
 1.560E+02, 4.936E+02, 1.934E+01, 6.574E+02, 3.141E-01, 7.663E+02, 0.000E+00
 1.580E+02, 4.936E+02, 1.625E+01, 6.574E+02, 3.259E-01, 7.663E+02, 0.000E+00
 1.600E+02, 4.937E+02, 1.322E+01, 6.575E+02, 3.367E-01, 7.664E+02, 0.000E+00
 1.620E+02, 4.938E+02, 1.021E+01, 6.576E+02, 3.474E-01, 7.664E+02, 0.000E+00
 1.640E+02, 4.939E+02, 7.548E+00, 6.576E+02, 3.582E-01, 7.665E+02, 0.000E+00
 1.660E+02, 4.940E+02, 6.410E+00, 6.577E+02, 3.690E-01, 7.666E+02, 0.000E+00
 1.680E+02, 4.941E+02, 5.483E+00, 6.578E+02, 3.797E-01, 7.666E+02, 0.000E+00
 1.700E+02, 4.941E+02, 4.563E+00, 6.578E+02, 3.905E-01, 7.667E+02, 0.000E+00
 1.720E+02, 4.942E+02, 3.645E+00, 6.579E+02, 4.013E-01, 7.667E+02, 0.000E+00
 1.740E+02, 4.943E+02, 2.726E+00, 6.579E+02, 4.120E-01, 7.668E+02, 0.000E+00
 1.760E+02, 4.944E+02, 1.842E+00, 6.580E+02, 4.228E-01, 7.668E+02, 0.000E+00
 1.780E+02, 4.944E+02, 1.515E+00, 6.580E+02, 4.335E-01, 7.669E+02, 0.000E+00
 1.800E+02, 4.945E+02, 1.390E+00, 6.581E+02, 4.443E-01, 7.669E+02, 0.000E+00
 1.820E+02, 4.946E+02, 1.267E+00, 6.582E+02, 4.550E-01, 7.669E+02, 0.000E+00
 1.840E+02, 4.947E+02, 1.143E+00, 6.582E+02, 4.633E-01, 7.670E+02, 0.000E+00
 1.860E+02, 4.947E+02, 1.020E+00, 6.583E+02, 4.686E-01, 7.670E+02, 0.000E+00
 1.880E+02, 4.948E+02, 8.965E-01, 6.583E+02, 4.740E-01, 7.671E+02, 0.000E+00
 1.900E+02, 4.949E+02, 7.731E-01, 6.584E+02, 4.794E-01, 7.671E+02, 0.000E+00
 1.920E+02, 4.949E+02, 6.497E-01, 6.584E+02, 4.848E-01, 7.672E+02, 0.000E+00
 1.940E+02, 4.950E+02, 5.264E-01, 6.585E+02, 4.902E-01, 7.672E+02, 0.000E+00
 1.960E+02, 4.950E+02, 4.030E-01, 6.585E+02, 4.955E-01, 7.672E+02, 0.000E+00
 1.980E+02, 4.951E+02, 2.797E-01, 6.585E+02, 5.009E-01, 7.673E+02, 0.000E+00
 2.000E+02, 4.952E+02, 1.567E-01, 6.586E+02, 5.063E-01, 7.673E+02, 0.000E+00
 2.020E+02, 4.952E+02, 1.007E-01, 6.586E+02, 5.117E-01, 7.674E+02, 0.000E+00
 2.040E+02, 4.953E+02, 9.507E-02, 6.587E+02, 5.170E-01, 7.674E+02, 0.000E+00
 2.060E+02, 4.953E+02, 8.947E-02, 6.587E+02, 5.224E-01, 7.674E+02, 0.000E+00
 2.080E+02, 4.954E+02, 8.387E-02, 6.588E+02, 5.278E-01, 7.675E+02, 0.000E+00
 2.100E+02, 4.954E+02, 7.828E-02, 6.588E+02, 5.182E-01, 7.675E+02, 0.000E+00
 2.120E+02, 4.955E+02, 7.268E-02, 6.588E+02, 4.788E-01, 7.675E+02, 0.000E+00
 2.140E+02, 4.955E+02, 6.708E-02, 6.589E+02, 4.385E-01, 7.676E+02, 0.000E+00
 2.160E+02, 4.956E+02, 6.148E-02, 6.589E+02, 3.981E-01, 7.676E+02, 0.000E+00
 2.180E+02, 4.956E+02, 5.588E-02, 6.590E+02, 3.578E-01, 7.676E+02, 0.000E+00
 2.200E+02, 4.957E+02, 5.028E-02, 6.590E+02, 3.174E-01, 7.677E+02, 0.000E+00
 2.220E+02, 4.957E+02, 4.469E-02, 6.590E+02, 2.770E-01, 7.677E+02, 0.000E+00
 2.240E+02, 4.958E+02, 3.909E-02, 6.591E+02, 2.365E-01, 7.677E+02, 0.000E+00
 2.260E+02, 4.958E+02, 3.349E-02, 6.591E+02, 1.961E-01, 7.678E+02, 0.000E+00
 2.280E+02, 4.959E+02, 2.789E-02, 6.591E+02, 1.556E-01, 7.678E+02, 0.000E+00
 2.300E+02, 4.959E+02, 2.229E-02, 6.592E+02, 1.151E-01, 7.678E+02, 0.000E+00
 2.320E+02, 4.960E+02, 1.669E-02, 6.592E+02, 7.460E-02, 7.678E+02, 0.000E+00
 2.340E+02, 4.960E+02, 1.109E-02, 6.592E+02, 3.407E-02, 7.679E+02, 0.000E+00
 2.360E+02, 4.961E+02, 5.494E-03, 6.593E+02, 2.347E-03, 7.679E+02, 0.000E+00
 2.380E+02, 4.961E+02, 1.028E-03, 6.593E+02, 0.000E+00, 7.679E+02, 0.000E+00
 2.400E+02, 4.961E+02, 2.852E-03, 6.593E+02, 0.000E+00, 7.679E+02, 0.000E+00
 2.420E+02, 4.962E+02, 5.651E-03, 6.594E+02, 0.000E+00, 7.680E+02, 0.000E+00
 2.440E+02, 4.962E+02, 8.451E-03, 6.594E+02, 0.000E+00, 7.680E+02, 0.000E+00
 2.460E+02, 4.963E+02, 1.125E-02, 6.594E+02, 0.000E+00, 7.680E+02, 0.000E+00
 2.480E+02, 4.963E+02, 1.405E-02, 6.595E+02, 0.000E+00, 7.680E+02, 0.000E+00
 2.500E+02, 4.963E+02, 1.685E-02, 6.595E+02, 0.000E+00, 7.681E+02, 0.000E+00
 2.520E+02, 4.964E+02, 1.965E-02, 6.595E+02, 0.000E+00, 7.681E+02, 0.000E+00
 2.540E+02, 4.964E+02, 2.245E-02, 6.595E+02, 0.000E+00, 7.681E+02, 0.000E+00
 2.560E+02, 4.964E+02, 2.525E-02, 6.596E+02, 0.000E+00, 7.681E+02, 0.000E+00
 2.580E+02, 4.965E+02, 2.805E-02, 6.596E+02, 0.000E+00, 7.682E+02, 0.000E+00
 2.600E+02, 4.965E+02, 3.085E-02, 6.596E+02, 0.000E+00, 7.682E+02, 0.000E+00
 2.620E+02, 4.965E+02, 3.365E-02, 6.596E+02, 0.000E+00, 7.682E+02, 0.000E+00
 2.640E+02, 4.966E+02, 3.645E-02, 6.597E+02, 0.000E+00, 7.682E+02, 0.000E+00
 2.660E+02, 4.966E+02, 3.925E-02, 6.597E+02, 0.000E+00, 7.682E+02, 0.000E+00
 2.680E+02, 4.966E+02, 4.205E-02, 6.597E+02, 0.000E+00, 7.683E+02, 0.000E+00
 2.700E+02, 4.967E+02, 4.485E-02, 6.597E+02, 0.000E+00, 7.683E+02, 0.000E+00
 2.720E+02, 4.967E+02, 4.765E-02, 6.598E+02, 0.000E+00, 7.683E+02, 0.000E+00
 2.740E+02, 4.967E+02, 5.045E-02, 6.598E+02, 0.000E+00, 7.683E+02, 0.000E+00
 2.760E+02, 4.968E+02, 5.454E-02, 6.598E+02, 0.000E+00, 7.683E+02, 0.000E+00
 2.780E+02, 4.968E+02, 6.014E-02, 6.598E+02, 0.000E+00, 7.684E+02, 0.000E+00
 2.800E+02, 4.968E+02, 6.574E-02, 6.599E+02, 0.000E+00, 7.684E+02, 0.000E+00
 2.820E+02, 4.968E+02, 7.134E-02, 6.599E+02, 0.000E+00, 7.684E+02, 0.000E+00
 2.840E+02, 4.969E+02, 7.694E-02, 6.599E+02, 0.000E+00, 7.684E+02, 0.000E+00
 2.860E+02, 4.969E+02, 8.254E-02, 6.599E+02, 0.000E+00, 7.684E+02, 0.000E+00
 2.880E+02, 4.969E+02, 8.814E-02, 6.599E+02, 0.000E+00, 7.685E+02, 0.000E+00
 2.900E+02, 4.970E+02, 9.374E-02, 6.600E+02, 0.000E+00, 7.685E+02, 0.000E+00
 2.920E+02, 4.970E+02, 9.934E-02, 6.600E+02, 0.000E+00, 7.685E+02, 0.000E+00
 2.940E+02, 4.970E+02, 1.049E-01, 6.600E+02, 0.000E+00, 7.685E+02, 0.000E+00
 2.960E+02, 4.970E+02, 1.105E-01, 6.600E+02, 0.000E+00, 7.685E+02, 0.000E+00
 2.980E+02, 4.971E+02, 1.161E-01, 6.600E+02, 0.000E+00, 7.685E+02, 0.000E+00
 3.000E+02, 4.971E+02, 1.217E-01, 6.601E+02, 0.000E+00, 7.685E+02, 0.000E+00
 3.020E+02, 4.971E+02, 1.273E-01, 6.601E+02, 0.000E+00, 7.686E+02, 0.000E+00
 3.040E+02, 4.971E+02, 1.329E-01, 6.601E+02, 0.000E+00, 7.686E+02, 0.000E+00
 3.060E+02, 4.971E+02, 1.385E-01, 6.601E+02, 0.000E+00, 7.686E+02, 0.000E+00
 3.080E+02, 4.972E+02, 1.441E-01, 6.601E+02, 0.000E+00, 7.686E+02, 0.000E+00
 3.100E+02, 4.972E+02, 1.497E-01, 6.601E+02, 0.000E+00, 7.686E+02, 0.000E+00
 3.120E+02, 4.972E+02, 1.542E-01, 6.602E+02, 0.000E+00, 7.686E+02, 0.000E+00
 3.140E+02, 4.972E+02, 1.483E-01, 6.602E+02, 0.000E+00, 7.686E+02, 0.000E+00
 3.160E+02, 4.973E+02, 1.399E-01, 6.602E+02, 0.000E+00, 7.687E+02, 0.000E+00
 3.180E+02, 4.973E+02, 1.315E-01, 6.602E+02, 0.000E+00, 7.687E+02, 0.000E+00
 3.200E+02, 4.973E+02, 1.230E-01, 6.602E+02, 0.000E+00, 7.687E+02, 0.000E+00
 3.220E+02, 4.973E+02, 1.146E-01, 6.602E+02, 0.000E+00, 7.687E+02, 0.000E+00
 3.240E+02, 4.973E+02, 1.062E-01, 6.602E+02, 0.000E+00, 7.687E+02, 0.000E+00
 3.260E+02, 4.974E+02, 9.785E-02, 6.603E+02, 0.000E+00, 7.687E+02, 0.000E+00
 3.280E+02, 4.974E+02, 8.944E-02, 6.603E+02, 0.000E+00, 7.687E+02, 0.000E+00
 3.300E+02, 4.974E+02, 8.104E-02, 6.603E+02, 0.000E+00, 7.687E+02, 0.000E+00
 3.320E+02, 4.974E+02, 7.264E-02, 6.603E+02, 0.000E+00, 7.688E+02, 0.000E+00
 3.340E+02, 4.974E+02, 6.424E-02, 6.603E+02, 0.000E+00, 7.688E+02, 0.000E+00
 3.360E+02, 4.974E+02, 5.584E-02, 6.603E+02, 0.000E+00, 7.688E+02, 0.000E+00
 3.380E+02, 4.975E+02, 4.744E-02, 6.603E+02, 0.000E+00, 7.688E+02, 0.000E+00
 3.400E+02, 4.975E+02, 3.904E-02, 6.604E+02, 0.000E+00, 7.688E+02, 0.000E+00
 3.420E+02, 4.975E+02, 3.064E-02, 6.604E+02, 0.000E+00, 7.688E+02, 0.000E+00
 3.440E+02, 4.975E+02, 2.224E-02, 6.604E+02, 0.000E+00, 7.688E+02, 0.000E+00
 3.460E+02, 4.975E+02, 1.384E-02, 6.604E+02, 0.000E+00, 7.688E+02, 0.000E+00
 3.480E+02, 4.975E+02, 5.433E-03, 6.604E+02, 0.000E+00, 7.688E+02, 0.000E+00
 3.500E+02, 4.976E+02, 9.223E-05, 6.604E+02, 0.000E+00, 7.688E+02, 0.000E+00
 3.520E+02, 4.976E+02, 0.000E+00, 6.604E+02, 0.000E+00, 7.689E+02, 0.000E+00
 3.540E+02, 4.976E+02, 0.000E+00, 6.604E+02, 0.000E+00, 7.689E+02, 0.000E+00
 3.560E+02, 4.976E+02, 0.000E+00, 6.604E+02, 0.000E+00, 7.689E+02, 0.000E+00
 3.580E+02, 4.976E+02, 0.000E+00, 6.605E+02, 0.000E+00, 7.689E+02, 0.000E+00
 3.600E+02, 4.976E+02, 0.000E+00, 6.605E+02, 0.000E+00, 7.689E+02, 0.000E+00
 3.620E+02, 4.976E+02, 0.000E+00, 6.605E+02, 0.000E+00, 7.689E+02, 0.000E+00
 3.640E+02, 4.977E+02, 0.000E+00, 6.605E+02, 0.000E+00, 7.689E+02, 0.000E+00
 3.660E+02, 4.977E+02, 0.000E+00, 6.605E+02, 0.000E+00, 7.689E+02, 0.000E+00
 3.680E+02, 4.977E+02, 0.000E+00, 6.605E+02, 0.000E+00, 7.689E+02, 0.000E+00
 3.700E+02, 4.977E+02, 0.000E+00, 6.605E+02, 0.000E+00, 7.689E+02, 0.000E+00
 3.720E+02, 4.977E+02, 0.000E+00, 6.605E+02, 0.000E+00, 7.689E+02, 0.000E+00
 3.740E+02, 4.977E+02, 0.000E+00, 6.605E+02, 0.000E+00, 7.689E+02, 0.000E+00
 3.760E+02, 4.977E+02, 0.000E+00, 6.605E+02, 0.000E+00, 7.690E+02, 0.000E+00
 3.780E+02, 4.977E+02, 0.000E+00, 6.606E+02, 0.000E+00, 7.690E+02, 0.000E+00
 3.800E+02, 4.978E+02, 0.000E+00, 6.606E+02, 0.000E+00, 7.690E+02, 0.000E+00
 3.820E+02, 4.978E+02, 0.000E+00, 6.606E+02, 0.000E+00, 7.690E+02, 0.000E+00
 3.840E+02, 4.978E+02, 0.000E+00, 6.606E+02, 0.000E+00, 7.690E+02, 0.000E+00
 3.860E+02, 4.978E+02, 0.000E+00, 6.606E+02, 0.000E+00, 7.690E+02, 0.000E+00
 3.880E+02, 4.978E+02, 0.000E+00, 6.606E+02, 0.000E+00, 7.690E+02, 0.000E+00
 3.900E+02, 4.978E+02, 0.000E+00, 6.606E+02, 0.000E+00, 7.690E+02, 0.000E+00
 3.920E+02, 4.978E+02, 0.000E+00, 6.606E+02, 0.000E+00, 7.690E+02, 0.000E+00
 3.940E+02, 4.978E+02, 0.000E+00, 6.606E+02, 0.000E+00, 7.690E+02, 0.000E+00
 3.960E+02, 4.978E+02, 0.000E+00, 6.606E+02, 0.000E+00, 7.690E+02, 0.000E+00
 3.980E+02, 4.979E+02, 0.000E+00, 6.606E+02, 0.000E+00, 7.690E+02, 0.000E+00
 4.000E+02, 4.979E+02, 0.000E+00, 6.606E+02, 0.000E+00, 7.690E+02, 0.000E+00
 4.020E+02, 4.979E+02, 0.000E+00, 6.607E+02, 0.000E+00, 7.690E+02, 0.000E+00
 4.040E+02, 4.979E+02, 0.000E+00, 6.607E+02, 0.000E+00, 7.690E+02, 0.000E+00
 4.060E+02, 4.979E+02, 0.000E+00, 6.607E+02, 0.000E+00, 7.691E+02, 0.000E+00
 4.080E+02, 4.979E+02, 0.000E+00, 6.607E+02, 0.000E+00, 7.691E+02, 0.000E+00
 4.100E+02, 4.979E+02, 0.000E+00, 6.607E+02, 0.000E+00, 7.691E+02, 0.000E+00
 4.120E+02, 4.979E+02, 0.000E+00, 6.607E+02, 0.000E+00, 7.691E+02, 0.000E+00
 4.140E+02, 4.979E+02, 0.000E+00, 6.607E+02, 0.000E+00, 7.691E+02, 0.000E+00
 4.160E+02, 4.979E+02, 0.000E+00, 6.607E+02, 0.000E+00, 7.691E+02, 0.000E+00
 4.180E+02, 4.980E+02, 0.000E+00, 6.607E+02, 0.000E+00, 7.691E+02, 0.000E+00
 4.200E+02, 4.980E+02, 0.000E+00, 6.607E+02, 0.000E+00, 7.691E+02, 0.000E+00
 4.220E+02, 4.980E+02, 0.000E+00, 6.607E+02, 0.000E+00, 7.691E+02, 0.000E+00
 4.240E+02, 4.980E+02, 0.000E+00, 6.607E+02, 0.000E+00, 7.691E+02, 0.000E+00
 4.260E+02, 4.980E+02, 0.000E+00, 6.607E+02, 0.000E+00, 7.691E+02, 0.000E+00
 4.280E+02, 4.980E+02, 0.000E+00, 6.607E+02, 0.000E+00, 7.691E+02, 0.000E+00
 4.300E+02, 4.980E+02, 0.000E+00, 6.607E+02, 0.000E+00, 7.691E+02, 0.000E+00
 4.320E+02, 4.980E+02, 0.000E+00, 6.607E+02, 0.000E+00, 7.691E+02, 0.000E+00
 4.340E+02, 4.980E+02, 0.000E+00, 6.608E+02, 0.000E+00, 7.691E+02, 0.000E+00
 4.360E+02, 4.980E+02, 0.000E+00, 6.608E+02, 0.000E+00, 7.691E+02, 0.000E+00
 4.380E+02, 4.980E+02, 0.000E+00, 6.608E+02, 0.000E+00, 7.691E+02, 0.000E+00
 4.400E+02, 4.980E+02, 0.000E+00, 6.608E+02, 0.000E+00, 7.691E+02, 0.000E+00
 4.420E+02, 4.980E+02, 0.000E+00, 6.608E+02, 0.000E+00, 7.691E+02, 0.000E+00
 4.440E+02, 4.980E+02, 0.000E+00, 6.608E+02, 0.000E+00, 7.691E+02, 0.000E+00
 4.460E+02, 4.981E+02, 0.000E+00, 6.608E+02, 0.000E+00, 7.692E+02, 0.000E+00
 4.480E+02, 4.981E+02, 0.000E+00, 6.608E+02, 0.000E+00, 7.692E+02, 0.000E+00
 4.500E+02, 4.981E+02, 0.000E+00, 6.608E+02, 0.000E+00, 7.692E+02, 0.000E+00
 4.520E+02, 4.981E+02, 0.000E+00, 6.608E+02, 0.000E+00, 7.692E+02, 0.000E+00
 4.540E+02, 4.981E+02, 0.000E+00, 6.608E+02, 0.000E+00, 7.692E+02, 0.000E+00
 4.560E+02, 4.981E+02, 0.000E+00, 6.608E+02, 0.000E+00, 7.692E+02, 0.000E+00
 4.580E+02, 4.981E+02, 0.000E+00, 6.608E+02, 0.000E+00, 7.692E+02, 0.000E+00
 4.600E+02, 4.981E+02, 0.000E+00, 6.608E+02, 0.000E+00, 7.692E+02, 0.000E+00
 4.620E+02, 4.981E+02, 0.000E+00, 6.608E+02, 0.000E+00, 7.692E+02, 0.000E+00
 4.640E+02, 4.981E+02, 0.000E+00, 6.608E+02, 0.000E+00, 7.692E+02, 0.000E+00
 4.660E+02, 4.981E+02, 0.000E+00, 6.608E+02, 0.000E+00, 7.692E+02, 0.000E+00
 4.680E+02, 4.981E+02, 0.000E+00, 6.608E+02, 0.000E+00, 7.692E+02, 0.000E+00
 4.700E+02, 4.981E+02, 0.000E+00, 6.608E+02, 0.000E+00, 7.692E+02, 0.000E+00
 4.720E+02, 4.981E+02, 0.000E+00, 6.608E+02, 0.000E+00, 7.692E+02, 0.000E+00
 4.740E+02, 4.981E+02, 0.000E+00, 6.608E+02, 0.000E+00, 7.692E+02, 0.000E+00
 4.760E+02, 4.981E+02, 0.000E+00, 6.608E+02, 0.000E+00, 7.692E+02, 0.000E+00
 4.780E+02, 4.981E+02, 0.000E+00, 6.608E+02, 0.000E+00, 7.692E+02, 0.000E+00
 4.800E+02, 4.982E+02, 0.000E+00, 6.609E+02, 0.000E+00, 7.692E+02, 0.000E+00
 4.820E+02, 4.982E+02, 0.000E+00, 6.609E+02, 0.000E+00, 7.692E+02, 0.000E+00
 4.840E+02, 4.982E+02, 0.000E+00, 6.609E+02, 0.000E+00, 7.692E+02, 0.000E+00
 4.860E+02, 4.982E+02, 0.000E+00, 6.609E+02, 0.000E+00, 7.692E+02, 0.000E+00
 4.880E+02, 4.982E+02, 0.000E+00, 6.609E+02, 0.000E+00, 7.692E+02, 0.000E+00
 4.900E+02, 4.982E+02, 0.000E+00, 6.609E+02, 0.000E+00, 7.692E+02, 0.000E+00
 4.920E+02, 4.982E+02, 0.000E+00, 6.609E+02, 0.000E+00, 7.692E+02, 0.000E+00
 4.940E+02, 4.982E+02, 0.000E+00, 6.609E+02, 0.000E+00, 7.692E+02, 0.000E+00
 4.960E+02, 4.982E+02, 0.000E+00, 6.609E+02, 0.000E+00, 7.692E+02, 0.000E+00
 4.980E+02, 4.982E+02, 0.000E+00, 6.609E+02, 0.000E+00, 7.692E+02, 0.000E+00
 5.000E+02, 4.982E+02, 0.000E+00, 6.609E+02, 0.000E+00, 7.692E+02, 0.000E+00
 5.020E+02, 4.982E+02, 0.000E+00, 6.609E+02, 0.000E+00, 7.692E+02, 0.000E+00
 5.040E+02, 4.982E+02, 0.000E+00, 6.609E+02, 0.000E+00, 7.692E+02, 0.000E+00
 5.060E+02, 4.982E+02, 0.000E+00, 6.609E+02, 0.000E+00, 7.692E+02, 0.000E+00
 5.080E+02, 4.982E+02, 0.000E+00, 6.609E+02, 0.000E+00, 7.692E+02, 0.000E+00
 5.100E+02, 4.982E+02, 0.000E+00, 6.609E+02, 0.000E+00, 7.692E+02, 0.000E+00
 5.120E+02, 4.982E+02, 0.000E+00, 6.609E+02, 0.000E+00, 7.692E+02, 0.000E+00
