s,C,kW/m2,C,kW/m2,C,kW/m2
Time,"WALL TEMPERATURE-CONE_5p87_025","HRRPUA-CONE_5p87_025","WALL TEMPERATURE-CONE_5p87_050","HRRPUA-CONE_5p87_050","WALL TEMPERATURE-CONE_5p87_075","HRRPUA-CONE_5p87_075"
 0.000E+00, 2.700E+01, 0.000E+00, 2.700E+01, 0.000E+00, 2.700E+01, 0.000E+00
 1.000E+01, 2.330E+02, 0.000E+00, 3.903E+02, 0.000E+00, 5.115E+02, 2.905E+01
 2.000E+01, 3.614E+02, 0.000E+00, 5.533E+02, 2.178E+01, 6.799E+02, 2.977E+02
 3.000E+01, 3.981E+02, 0.000E+00, 5.844E+02, 1.917E+02, 7.056E+02, 2.813E+02
 4.000E+01, 4.170E+02, 0.000E+00, 5.991E+02, 2.420E+02, 7.176E+02, 2.422E+02
 5.000E+01, 4.286E+02, 0.000E+00, 6.079E+02, 2.164E+02, 7.249E+02, 2.807E+02
 6.000E+01, 4.368E+02, 0.000E+00, 6.142E+02, 1.956E+02, 7.301E+02, 3.052E+02
 7.000E+01, 4.431E+02, 0.000E+00, 6.190E+02, 2.021E+02, 7.341E+02, 3.097E+02
 8.000E+01, 4.483E+02, 1.685E+00, 6.230E+02, 2.054E+02, 7.375E+02, 2.953E+02
 9.000E+01, 4.526E+02, 3.026E+01, 6.263E+02, 2.249E+02, 7.403E+02, 2.262E+02
 1.000E+02, 4.563E+02, 8.981E+01, 6.292E+02, 2.062E+02, 7.428E+02, 1.134E+02
 1.100E+02, 4.596E+02, 1.409E+02, 6.318E+02, 1.261E+02, 7.449E+02, 7.422E+01
 1.200E+02, 4.625E+02, 1.395E+02, 6.341E+02, 1.063E+02, 7.468E+02, 6.838E+01
 1.300E+02, 4.651E+02, 1.155E+02, 6.361E+02, 1.045E+02, 7.485E+02, 6.488E+01
 1.400E+02, 4.674E+02, 9.696E+01, 6.379E+02, 1.017E+02, 7.501E+02, 6.303E+01
 1.500E+02, 4.695E+02, 9.031E+01, 6.395E+02, 8.850E+01, 7.514E+02, 6.116E+01
 1.600E+02, 4.715E+02, 9.651E+01, 6.410E+02, 5.472E+01, 7.527E+02, 5.706E+01
 1.700E+02, 4.732E+02, 1.044E+02, 6.423E+02, 2.375E+01, 7.538E+02, 4.037E+01
 1.800E+02, 4.748E+02, 1.115E+02, 6.436E+02, 1.685E+01, 7.548E+02, 2.823E+01
 1.900E+02, 4.763E+02, 1.175E+02, 6.447E+02, 1.526E+01, 7.558E+02, 7.692E+00
 2.000E+02, 4.776E+02, 1.223E+02, 6.457E+02, 1.472E+01, 7.566E+02, 3.669E-01
 2.100E+02, 4.788E+02, 1.242E+02, 6.466E+02, 1.417E+01, 7.574E+02, 0.000E+00
 2.200E+02, 4.799E+02, 1.250E+02, 6.474E+02, 1.361E+01, 7.581E+02, 0.000E+00
 2.300E+02, 4.809E+02, 1.257E+02, 6.482E+02, 1.320E+01, 7.587E+02, 0.000E+00
 2.400E+02, 4.819E+02, 1.252E+02, 6.489E+02, 1.300E+01, 7.593E+02, 0.000E+00
 2.500E+02, 4.827E+02, 1.231E+02, 6.495E+02, 1.280E+01, 7.598E+02, 0.000E+00
 2.600E+02, 4.835E+02, 1.175E+02, 6.501E+02, 1.261E+01, 7.603E+02, 0.000E+00
 2.700E+02, 4.842E+02, 1.079E+02, 6.506E+02, 1.243E+01, 7.607E+02, 0.000E+00
 2.800E+02, 4.849E+02, 9.208E+01, 6.511E+02, 1.236E+01, 7.611E+02, 0.000E+00
 2.900E+02, 4.855E+02, 7.060E+01, 6.515E+02, 1.229E+01, 7.614E+02, 0.000E+00
 3.000E+02, 4.861E+02, 5.018E+01, 6.519E+02, 1.222E+01, 7.618E+02, 0.000E+00
 3.100E+02, 4.866E+02, 3.642E+01, 6.523E+02, 1.216E+01, 7.620E+02, 0.000E+00
 3.200E+02, 4.870E+02, 2.921E+01, 6.526E+02, 1.209E+01, 7.623E+02, 0.000E+00
 3.300E+02, 4.875E+02, 2.647E+01, 6.529E+02, 1.202E+01, 7.626E+02, 0.000E+00
 3.400E+02, 4.879E+02, 2.469E+01, 6.532E+02, 1.196E+01, 7.628E+02, 0.000E+00
 3.500E+02, 4.882E+02, 2.416E+01, 6.534E+02, 1.189E+01, 7.630E+02, 0.000E+00
 3.600E+02, 4.885E+02, 2.369E+01, 6.537E+02, 1.186E+01, 7.632E+02, 0.000E+00
 3.700E+02, 4.888E+02, 2.323E+01, 6.539E+02, 1.186E+01, 7.633E+02, 0.000E+00
 3.800E+02, 4.891E+02, 2.276E+01, 6.541E+02, 1.176E+01, 7.635E+02, 0.000E+00
 3.900E+02, 4.894E+02, 2.231E+01, 6.542E+02, 9.549E+00, 7.636E+02, 0.000E+00
 4.000E+02, 4.896E+02, 2.203E+01, 6.544E+02, 6.764E+00, 7.637E+02, 0.000E+00
 4.100E+02, 4.898E+02, 2.183E+01, 6.545E+02, 4.504E+00, 7.639E+02, 0.000E+00
 4.200E+02, 4.900E+02, 2.163E+01, 6.547E+02, 2.205E+00, 7.640E+02, 0.000E+00
 4.300E+02, 4.902E+02, 2.144E+01, 6.548E+02, 3.122E-01, 7.641E+02, 0.000E+00
 4.400E+02, 4.904E+02, 2.124E+01, 6.549E+02, 1.313E-02, 7.641E+02, 0.000E+00
 4.500E+02, 4.905E+02, 2.102E+01, 6.550E+02, 0.000E+00, 7.642E+02, 0.000E+00
 4.600E+02, 4.907E+02, 2.076E+01, 6.551E+02, 0.000E+00, 7.643E+02, 0.000E+00
 4.700E+02, 4.908E+02, 2.050E+01, 6.552E+02, 0.000E+00, 7.644E+02, 0.000E+00
 4.800E+02, 4.909E+02, 2.023E+01, 6.552E+02, 0.000E+00, 7.644E+02, 0.000E+00
 4.900E+02, 4.910E+02, 1.935E+01, 6.553E+02, 0.000E+00, 7.645E+02, 0.000E+00
 5.000E+02, 4.911E+02, 1.615E+01, 6.554E+02, 0.000E+00, 7.645E+02, 0.000E+00
 5.100E+02, 4.912E+02, 1.364E+01, 6.554E+02, 0.000E+00, 7.646E+02, 0.000E+00
 5.200E+02, 4.913E+02, 1.323E+01, 6.555E+02, 0.000E+00, 7.646E+02, 0.000E+00
 5.300E+02, 4.914E+02, 1.299E+01, 6.555E+02, 0.000E+00, 7.646E+02, 0.000E+00
 5.400E+02, 4.914E+02, 1.071E+01, 6.556E+02, 0.000E+00, 7.647E+02, 0.000E+00
 5.500E+02, 4.915E+02, 7.832E+00, 6.556E+02, 0.000E+00, 7.647E+02, 0.000E+00
 5.600E+02, 4.916E+02, 5.250E+00, 6.556E+02, 0.000E+00, 7.647E+02, 0.000E+00
 5.700E+02, 4.916E+02, 3.211E+00, 6.557E+02, 0.000E+00, 7.647E+02, 0.000E+00
 5.800E+02, 4.917E+02, 1.193E+00, 6.557E+02, 0.000E+00, 7.648E+02, 0.000E+00
 5.900E+02, 4.917E+02, 2.842E-01, 6.557E+02, 0.000E+00, 7.648E+02, 0.000E+00
 6.000E+02, 4.918E+02, 1.510E-01, 6.558E+02, 0.000E+00, 7.648E+02, 0.000E+00
 6.100E+02, 4.918E+02, 2.675E-02, 6.558E+02, 0.000E+00, 7.648E+02, 0.000E+00
 6.200E+02, 4.918E+02, 0.000E+00, 6.558E+02, 0.000E+00, 7.648E+02, 0.000E+00
 6.300E+02, 4.919E+02, 0.000E+00, 6.558E+02, 0.000E+00, 7.649E+02, 0.000E+00
 6.400E+02, 4.919E+02, 0.000E+00, 6.558E+02, 0.000E+00, 7.649E+02, 0.000E+00
 6.500E+02, 4.919E+02, 0.000E+00, 6.559E+02, 0.000E+00, 7.649E+02, 0.000E+00
 6.600E+02, 4.920E+02, 0.000E+00, 6.559E+02, 0.000E+00, 7.649E+02, 0.000E+00
 6.700E+02, 4.920E+02, 0.000E+00, 6.559E+02, 0.000E+00, 7.649E+02, 0.000E+00
 6.800E+02, 4.920E+02, 0.000E+00, 6.559E+02, 0.000E+00, 7.649E+02, 0.000E+00
 6.900E+02, 4.920E+02, 0.000E+00, 6.559E+02, 0.000E+00, 7.649E+02, 0.000E+00
 7.000E+02, 4.920E+02, 0.000E+00, 6.559E+02, 0.000E+00, 7.649E+02, 0.000E+00
 7.100E+02, 4.921E+02, 0.000E+00, 6.559E+02, 0.000E+00, 7.649E+02, 0.000E+00
 7.200E+02, 4.921E+02, 0.000E+00, 6.559E+02, 0.000E+00, 7.649E+02, 0.000E+00
 7.300E+02, 4.921E+02, 0.000E+00, 6.559E+02, 0.000E+00, 7.649E+02, 0.000E+00
 7.400E+02, 4.921E+02, 0.000E+00, 6.559E+02, 0.000E+00, 7.649E+02, 0.000E+00
 7.500E+02, 4.921E+02, 0.000E+00, 6.560E+02, 0.000E+00, 7.649E+02, 0.000E+00
 7.547E+02, 4.921E+02, 0.000E+00, 6.560E+02, 0.000E+00, 7.650E+02, 0.000E+00
