s,C,kW/m2,C,kW/m2,C,kW/m2
Time,"WALL TEMPERATURE-CONE_6p38_025","HRRPUA-CONE_6p38_025","WALL TEMPERATURE-CONE_6p38_050","HRRPUA-CONE_6p38_050","WALL TEMPERATURE-CONE_6p38_075","HRRPUA-CONE_6p38_075"
 0.000E+00, 2.700E+01, 0.000E+00, 2.700E+01, 0.000E+00, 2.700E+01, 0.000E+00
 1.000E+01, 1.716E+02, 0.000E+00, 3.012E+02, 0.000E+00, 4.135E+02, 0.000E+00
 2.000E+01, 2.846E+02, 0.000E+00, 4.745E+02, 0.000E+00, 6.113E+02, 8.420E+00
 3.000E+01, 3.303E+02, 0.000E+00, 5.245E+02, 0.000E+00, 6.557E+02, 3.748E+02
 4.000E+01, 3.573E+02, 0.000E+00, 5.499E+02, 1.087E+02, 6.770E+02, 9.062E+02
 5.000E+01, 3.754E+02, 0.000E+00, 5.654E+02, 5.421E+02, 6.898E+02, 1.053E+03
 6.000E+01, 3.884E+02, 0.000E+00, 5.761E+02, 8.118E+02, 6.987E+02, 9.948E+02
 7.000E+01, 3.985E+02, 0.000E+00, 5.844E+02, 8.344E+02, 7.055E+02, 6.409E+02
 8.000E+01, 4.068E+02, 1.684E+00, 5.911E+02, 7.324E+02, 7.111E+02, 2.455E+02
 9.000E+01, 4.137E+02, 3.130E+01, 5.967E+02, 5.471E+02, 7.159E+02, 9.010E+01
 1.000E+02, 4.198E+02, 1.246E+02, 6.017E+02, 3.464E+02, 7.200E+02, 6.081E+01
 1.100E+02, 4.252E+02, 2.890E+02, 6.060E+02, 1.726E+02, 7.237E+02, 5.270E+01
 1.200E+02, 4.301E+02, 4.190E+02, 6.099E+02, 7.637E+01, 7.270E+02, 4.773E+01
 1.300E+02, 4.344E+02, 4.714E+02, 6.134E+02, 4.784E+01, 7.300E+02, 4.289E+01
 1.400E+02, 4.384E+02, 5.062E+02, 6.166E+02, 3.884E+01, 7.327E+02, 3.788E+01
 1.500E+02, 4.421E+02, 5.234E+02, 6.195E+02, 2.584E+01, 7.352E+02, 3.034E+01
 1.600E+02, 4.455E+02, 5.092E+02, 6.222E+02, 1.425E+01, 7.374E+02, 1.706E+01
 1.700E+02, 4.486E+02, 4.555E+02, 6.247E+02, 1.361E+01, 7.395E+02, 6.801E+00
 1.800E+02, 4.515E+02, 3.622E+02, 6.269E+02, 1.300E+01, 7.414E+02, 2.990E+00
 1.900E+02, 4.541E+02, 2.486E+02, 6.290E+02, 1.236E+01, 7.431E+02, 5.422E-01
 2.000E+02, 4.566E+02, 1.538E+02, 6.309E+02, 1.171E+01, 7.447E+02, 1.932E-01
 2.100E+02, 4.589E+02, 8.770E+01, 6.327E+02, 1.104E+01, 7.462E+02, 2.421E-03
 2.200E+02, 4.611E+02, 5.117E+01, 6.343E+02, 1.036E+01, 7.476E+02, 0.000E+00
 2.300E+02, 4.630E+02, 3.521E+01, 6.358E+02, 9.679E+00, 7.488E+02, 0.000E+00
 2.400E+02, 4.649E+02, 2.758E+01, 6.372E+02, 9.006E+00, 7.500E+02, 0.000E+00
 2.500E+02, 4.666E+02, 2.302E+01, 6.385E+02, 8.330E+00, 7.510E+02, 0.000E+00
 2.600E+02, 4.682E+02, 2.140E+01, 6.397E+02, 7.512E+00, 7.520E+02, 0.000E+00
 2.700E+02, 4.697E+02, 2.033E+01, 6.408E+02, 5.677E+00, 7.529E+02, 0.000E+00
 2.800E+02, 4.711E+02, 1.927E+01, 6.418E+02, 3.587E+00, 7.537E+02, 0.000E+00
 2.900E+02, 4.724E+02, 1.828E+01, 6.427E+02, 1.702E+00, 7.545E+02, 0.000E+00
 3.000E+02, 4.736E+02, 1.767E+01, 6.436E+02, 9.992E-01, 7.552E+02, 0.000E+00
 3.100E+02, 4.747E+02, 1.712E+01, 6.444E+02, 4.470E-01, 7.559E+02, 0.000E+00
 3.200E+02, 4.758E+02, 1.656E+01, 6.452E+02, 2.591E-02, 7.565E+02, 0.000E+00
 3.300E+02, 4.767E+02, 1.601E+01, 6.459E+02, 0.000E+00, 7.570E+02, 0.000E+00
 3.400E+02, 4.776E+02, 1.545E+01, 6.465E+02, 0.000E+00, 7.575E+02, 0.000E+00
 3.500E+02, 4.785E+02, 1.489E+01, 6.471E+02, 0.000E+00, 7.580E+02, 0.000E+00
 3.600E+02, 4.793E+02, 1.431E+01, 6.476E+02, 0.000E+00, 7.584E+02, 0.000E+00
 3.700E+02, 4.800E+02, 1.372E+01, 6.481E+02, 0.000E+00, 7.588E+02, 0.000E+00
 3.800E+02, 4.807E+02, 1.314E+01, 6.486E+02, 0.000E+00, 7.592E+02, 0.000E+00
 3.900E+02, 4.814E+02, 1.256E+01, 6.490E+02, 0.000E+00, 7.595E+02, 0.000E+00
 4.000E+02, 4.820E+02, 1.198E+01, 6.494E+02, 0.000E+00, 7.598E+02, 0.000E+00
 4.100E+02, 4.825E+02, 1.091E+01, 6.498E+02, 0.000E+00, 7.601E+02, 0.000E+00
 4.200E+02, 4.830E+02, 9.349E+00, 6.501E+02, 0.000E+00, 7.604E+02, 0.000E+00
 4.300E+02, 4.835E+02, 7.784E+00, 6.505E+02, 0.000E+00, 7.607E+02, 0.000E+00
 4.400E+02, 4.840E+02, 6.218E+00, 6.508E+02, 0.000E+00, 7.609E+02, 0.000E+00
 4.500E+02, 4.844E+02, 4.653E+00, 6.510E+02, 0.000E+00, 7.611E+02, 0.000E+00
 4.600E+02, 4.848E+02, 3.114E+00, 6.513E+02, 0.000E+00, 7.613E+02, 0.000E+00
 4.700E+02, 4.852E+02, 2.343E+00, 6.515E+02, 0.000E+00, 7.615E+02, 0.000E+00
 4.800E+02, 4.855E+02, 1.921E+00, 6.517E+02, 0.000E+00, 7.616E+02, 0.000E+00
 4.900E+02, 4.858E+02, 1.499E+00, 6.519E+02, 0.000E+00, 7.618E+02, 0.000E+00
 5.000E+02, 4.861E+02, 1.076E+00, 6.521E+02, 0.000E+00, 7.619E+02, 0.000E+00
 5.100E+02, 4.864E+02, 6.540E-01, 6.523E+02, 0.000E+00, 7.621E+02, 0.000E+00
 5.200E+02, 4.867E+02, 2.696E-01, 6.524E+02, 0.000E+00, 7.622E+02, 0.000E+00
 5.300E+02, 4.869E+02, 1.738E-01, 6.526E+02, 0.000E+00, 7.623E+02, 0.000E+00
 5.400E+02, 4.871E+02, 1.378E-01, 6.527E+02, 0.000E+00, 7.624E+02, 0.000E+00
 5.500E+02, 4.873E+02, 1.019E-01, 6.528E+02, 0.000E+00, 7.625E+02, 0.000E+00
 5.600E+02, 4.875E+02, 6.595E-02, 6.530E+02, 0.000E+00, 7.626E+02, 0.000E+00
 5.700E+02, 4.877E+02, 3.002E-02, 6.531E+02, 0.000E+00, 7.626E+02, 0.000E+00
 5.800E+02, 4.879E+02, 2.019E-03, 6.532E+02, 0.000E+00, 7.627E+02, 0.000E+00
 5.900E+02, 4.881E+02, 0.000E+00, 6.533E+02, 0.000E+00, 7.628E+02, 0.000E+00
 6.000E+02, 4.882E+02, 0.000E+00, 6.533E+02, 0.000E+00, 7.628E+02, 0.000E+00
 6.100E+02, 4.883E+02, 0.000E+00, 6.534E+02, 0.000E+00, 7.629E+02, 0.000E+00
 6.200E+02, 4.885E+02, 0.000E+00, 6.535E+02, 0.000E+00, 7.630E+02, 0.000E+00
 6.300E+02, 4.886E+02, 0.000E+00, 6.536E+02, 0.000E+00, 7.630E+02, 0.000E+00
 6.400E+02, 4.887E+02, 0.000E+00, 6.536E+02, 0.000E+00, 7.631E+02, 0.000E+00
 6.500E+02, 4.888E+02, 0.000E+00, 6.537E+02, 0.000E+00, 7.631E+02, 0.000E+00
 6.576E+02, 4.889E+02, 0.000E+00, 6.537E+02, 0.000E+00, 7.631E+02, 0.000E+00
