s,C,kW/m2,C,kW/m2,C,kW/m2
Time,"WALL TEMPERATURE-CONE_13p27_025","HRRPUA-CONE_13p27_025","WALL TEMPERATURE-CONE_13p27_050","HRRPUA-CONE_13p27_050","WALL TEMPERATURE-CONE_13p27_075","HRRPUA-CONE_13p27_075"
 0.000E+00, 2.700E+01, 0.000E+00, 2.700E+01, 0.000E+00, 2.700E+01, 0.000E+00
 1.000E+01, 2.171E+02, 0.000E+00, 3.719E+02, 0.000E+00, 4.952E+02, 0.000E+00
 2.000E+01, 3.414E+02, 0.000E+00, 5.354E+02, 6.674E+00, 6.650E+02, 2.448E+01
 3.000E+01, 3.814E+02, 0.000E+00, 5.710E+02, 1.289E+02, 6.947E+02, 2.388E+02
 4.000E+01, 4.034E+02, 0.000E+00, 5.889E+02, 2.134E+02, 7.094E+02, 2.753E+02
 5.000E+01, 4.174E+02, 0.000E+00, 5.996E+02, 2.048E+02, 7.182E+02, 2.332E+02
 6.000E+01, 4.270E+02, 0.000E+00, 6.070E+02, 1.792E+02, 7.243E+02, 2.008E+02
 7.000E+01, 4.343E+02, 3.276E+00, 6.125E+02, 1.563E+02, 7.288E+02, 1.788E+02
 8.000E+01, 4.400E+02, 2.492E+01, 6.168E+02, 1.410E+02, 7.324E+02, 1.648E+02
 9.000E+01, 4.446E+02, 6.830E+01, 6.203E+02, 1.303E+02, 7.352E+02, 1.527E+02
 1.000E+02, 4.484E+02, 1.098E+02, 6.232E+02, 1.190E+02, 7.376E+02, 1.427E+02
 1.100E+02, 4.517E+02, 1.176E+02, 6.256E+02, 1.078E+02, 7.396E+02, 1.364E+02
 1.200E+02, 4.544E+02, 1.126E+02, 6.276E+02, 1.017E+02, 7.413E+02, 1.318E+02
 1.300E+02, 4.568E+02, 1.052E+02, 6.294E+02, 9.644E+01, 7.428E+02, 1.295E+02
 1.400E+02, 4.589E+02, 9.721E+01, 6.309E+02, 9.489E+01, 7.441E+02, 1.279E+02
 1.500E+02, 4.607E+02, 8.836E+01, 6.323E+02, 9.461E+01, 7.452E+02, 1.264E+02
 1.600E+02, 4.623E+02, 8.185E+01, 6.335E+02, 9.430E+01, 7.462E+02, 1.276E+02
 1.700E+02, 4.637E+02, 7.643E+01, 6.346E+02, 9.397E+01, 7.471E+02, 1.301E+02
 1.800E+02, 4.650E+02, 7.218E+01, 6.356E+02, 9.428E+01, 7.479E+02, 1.335E+02
 1.900E+02, 4.662E+02, 6.855E+01, 6.364E+02, 9.623E+01, 7.486E+02, 1.395E+02
 2.000E+02, 4.673E+02, 6.516E+01, 6.373E+02, 9.909E+01, 7.493E+02, 1.457E+02
 2.100E+02, 4.683E+02, 6.296E+01, 6.380E+02, 1.034E+02, 7.499E+02, 1.523E+02
 2.200E+02, 4.693E+02, 6.104E+01, 6.387E+02, 1.117E+02, 7.505E+02, 1.596E+02
 2.300E+02, 4.701E+02, 5.915E+01, 6.394E+02, 1.208E+02, 7.511E+02, 1.681E+02
 2.400E+02, 4.709E+02, 5.728E+01, 6.400E+02, 1.260E+02, 7.516E+02, 1.740E+02
 2.500E+02, 4.717E+02, 5.547E+01, 6.405E+02, 1.309E+02, 7.521E+02, 1.785E+02
 2.600E+02, 4.724E+02, 5.391E+01, 6.411E+02, 1.357E+02, 7.525E+02, 1.811E+02
 2.700E+02, 4.731E+02, 5.240E+01, 6.416E+02, 1.360E+02, 7.530E+02, 1.832E+02
 2.800E+02, 4.737E+02, 5.100E+01, 6.421E+02, 1.351E+02, 7.534E+02, 1.853E+02
 2.900E+02, 4.743E+02, 4.969E+01, 6.426E+02, 1.341E+02, 7.538E+02, 1.861E+02
 3.000E+02, 4.749E+02, 4.887E+01, 6.430E+02, 1.306E+02, 7.541E+02, 1.855E+02
 3.100E+02, 4.755E+02, 4.820E+01, 6.434E+02, 1.268E+02, 7.545E+02, 1.817E+02
 3.200E+02, 4.760E+02, 4.752E+01, 6.439E+02, 1.213E+02, 7.548E+02, 1.760E+02
 3.300E+02, 4.765E+02, 4.685E+01, 6.442E+02, 1.136E+02, 7.552E+02, 1.647E+02
 3.400E+02, 4.770E+02, 4.618E+01, 6.446E+02, 1.041E+02, 7.555E+02, 1.488E+02
 3.500E+02, 4.775E+02, 4.571E+01, 6.450E+02, 9.459E+01, 7.558E+02, 1.321E+02
 3.600E+02, 4.780E+02, 4.549E+01, 6.454E+02, 8.934E+01, 7.561E+02, 1.123E+02
 3.700E+02, 4.784E+02, 4.528E+01, 6.457E+02, 8.665E+01, 7.564E+02, 9.443E+01
 3.800E+02, 4.788E+02, 4.507E+01, 6.460E+02, 8.657E+01, 7.567E+02, 8.266E+01
 3.900E+02, 4.792E+02, 4.485E+01, 6.463E+02, 8.653E+01, 7.570E+02, 7.862E+01
 4.000E+02, 4.796E+02, 4.464E+01, 6.467E+02, 8.588E+01, 7.572E+02, 7.469E+01
 4.100E+02, 4.800E+02, 4.443E+01, 6.470E+02, 8.404E+01, 7.575E+02, 7.077E+01
 4.200E+02, 4.804E+02, 4.421E+01, 6.473E+02, 8.301E+01, 7.577E+02, 6.807E+01
 4.300E+02, 4.808E+02, 4.400E+01, 6.475E+02, 8.303E+01, 7.580E+02, 6.625E+01
 4.400E+02, 4.811E+02, 4.405E+01, 6.478E+02, 8.307E+01, 7.582E+02, 6.442E+01
 4.500E+02, 4.815E+02, 4.438E+01, 6.481E+02, 8.277E+01, 7.584E+02, 6.260E+01
 4.600E+02, 4.818E+02, 4.472E+01, 6.484E+02, 8.203E+01, 7.587E+02, 6.078E+01
 4.700E+02, 4.821E+02, 4.506E+01, 6.486E+02, 8.127E+01, 7.589E+02, 5.895E+01
 4.800E+02, 4.825E+02, 4.540E+01, 6.489E+02, 8.051E+01, 7.591E+02, 5.734E+01
 4.900E+02, 4.828E+02, 4.574E+01, 6.491E+02, 7.973E+01, 7.593E+02, 5.623E+01
 5.000E+02, 4.831E+02, 4.608E+01, 6.493E+02, 7.906E+01, 7.595E+02, 5.515E+01
 5.100E+02, 4.834E+02, 4.655E+01, 6.496E+02, 7.847E+01, 7.597E+02, 5.407E+01
 5.200E+02, 4.837E+02, 4.739E+01, 6.498E+02, 7.729E+01, 7.599E+02, 5.299E+01
 5.300E+02, 4.839E+02, 4.825E+01, 6.500E+02, 7.564E+01, 7.601E+02, 5.192E+01
 5.400E+02, 4.842E+02, 4.911E+01, 6.502E+02, 5.899E+01, 7.602E+02, 5.089E+01
 5.500E+02, 4.845E+02, 4.997E+01, 6.504E+02, 3.949E+01, 7.604E+02, 5.040E+01
 5.600E+02, 4.848E+02, 5.083E+01, 6.506E+02, 3.753E+01, 7.606E+02, 5.004E+01
 5.700E+02, 4.850E+02, 5.169E+01, 6.508E+02, 3.557E+01, 7.608E+02, 4.968E+01
 5.800E+02, 4.853E+02, 5.263E+01, 6.510E+02, 3.363E+01, 7.609E+02, 4.932E+01
 5.900E+02, 4.855E+02, 5.360E+01, 6.512E+02, 3.170E+01, 7.611E+02, 4.897E+01
 6.000E+02, 4.857E+02, 5.458E+01, 6.514E+02, 2.975E+01, 7.612E+02, 4.861E+01
 6.100E+02, 4.860E+02, 5.557E+01, 6.516E+02, 2.769E+01, 7.614E+02, 4.828E+01
 6.200E+02, 4.862E+02, 5.658E+01, 6.518E+02, 2.556E+01, 7.615E+02, 4.798E+01
 6.300E+02, 4.864E+02, 5.781E+01, 6.519E+02, 2.335E+01, 7.617E+02, 4.769E+01
 6.400E+02, 4.866E+02, 5.910E+01, 6.521E+02, 2.108E+01, 7.618E+02, 4.739E+01
 6.500E+02, 4.869E+02, 6.041E+01, 6.523E+02, 1.896E+01, 7.620E+02, 4.709E+01
 6.600E+02, 4.871E+02, 6.168E+01, 6.524E+02, 1.779E+01, 7.621E+02, 4.177E+01
 6.700E+02, 4.873E+02, 6.250E+01, 6.526E+02, 1.683E+01, 7.622E+02, 7.203E+00
 6.800E+02, 4.875E+02, 6.321E+01, 6.527E+02, 1.646E+01, 7.624E+02, 0.000E+00
 6.900E+02, 4.877E+02, 6.392E+01, 6.529E+02, 1.617E+01, 7.625E+02, 0.000E+00
 7.000E+02, 4.878E+02, 6.463E+01, 6.530E+02, 1.593E+01, 7.626E+02, 0.000E+00
 7.100E+02, 4.880E+02, 6.533E+01, 6.532E+02, 1.580E+01, 7.628E+02, 0.000E+00
 7.200E+02, 4.882E+02, 6.575E+01, 6.533E+02, 1.569E+01, 7.629E+02, 0.000E+00
 7.300E+02, 4.884E+02, 6.608E+01, 6.535E+02, 1.557E+01, 7.630E+02, 0.000E+00
 7.400E+02, 4.886E+02, 6.640E+01, 6.536E+02, 1.546E+01, 7.631E+02, 0.000E+00
 7.500E+02, 4.887E+02, 6.672E+01, 6.537E+02, 1.534E+01, 7.632E+02, 0.000E+00
 7.600E+02, 4.889E+02, 6.705E+01, 6.538E+02, 1.522E+01, 7.633E+02, 0.000E+00
 7.700E+02, 4.891E+02, 6.737E+01, 6.540E+02, 1.511E+01, 7.634E+02, 0.000E+00
 7.800E+02, 4.892E+02, 6.770E+01, 6.541E+02, 1.499E+01, 7.635E+02, 0.000E+00
 7.900E+02, 4.894E+02, 6.802E+01, 6.542E+02, 1.487E+01, 7.636E+02, 0.000E+00
 8.000E+02, 4.895E+02, 6.834E+01, 6.543E+02, 1.476E+01, 7.637E+02, 0.000E+00
 8.100E+02, 4.897E+02, 6.842E+01, 6.544E+02, 1.466E+01, 7.638E+02, 0.000E+00
 8.200E+02, 4.898E+02, 6.839E+01, 6.546E+02, 1.455E+01, 7.639E+02, 0.000E+00
 8.300E+02, 4.900E+02, 6.836E+01, 6.547E+02, 1.445E+01, 7.640E+02, 0.000E+00
 8.400E+02, 4.901E+02, 6.833E+01, 6.548E+02, 1.435E+01, 7.641E+02, 0.000E+00
 8.500E+02, 4.902E+02, 6.803E+01, 6.549E+02, 1.425E+01, 7.642E+02, 0.000E+00
 8.600E+02, 4.904E+02, 6.735E+01, 6.550E+02, 1.414E+01, 7.643E+02, 0.000E+00
 8.700E+02, 4.905E+02, 6.666E+01, 6.551E+02, 1.404E+01, 7.644E+02, 0.000E+00
 8.800E+02, 4.906E+02, 6.598E+01, 6.552E+02, 1.394E+01, 7.644E+02, 0.000E+00
 8.900E+02, 4.908E+02, 6.530E+01, 6.553E+02, 1.384E+01, 7.645E+02, 0.000E+00
 9.000E+02, 4.909E+02, 6.422E+01, 6.554E+02, 1.374E+01, 7.646E+02, 0.000E+00
 9.100E+02, 4.910E+02, 6.245E+01, 6.555E+02, 1.366E+01, 7.647E+02, 0.000E+00
 9.200E+02, 4.911E+02, 6.067E+01, 6.555E+02, 1.359E+01, 7.648E+02, 0.000E+00
 9.300E+02, 4.912E+02, 5.890E+01, 6.556E+02, 1.352E+01, 7.648E+02, 0.000E+00
 9.400E+02, 4.914E+02, 5.665E+01, 6.557E+02, 1.344E+01, 7.649E+02, 0.000E+00
 9.500E+02, 4.915E+02, 5.409E+01, 6.558E+02, 1.337E+01, 7.650E+02, 0.000E+00
 9.600E+02, 4.916E+02, 5.163E+01, 6.559E+02, 1.330E+01, 7.650E+02, 0.000E+00
 9.700E+02, 4.917E+02, 4.938E+01, 6.560E+02, 1.322E+01, 7.651E+02, 0.000E+00
 9.800E+02, 4.918E+02, 4.715E+01, 6.560E+02, 1.315E+01, 7.652E+02, 0.000E+00
 9.900E+02, 4.919E+02, 4.465E+01, 6.561E+02, 1.223E+01, 7.652E+02, 0.000E+00
 1.000E+03, 4.920E+02, 4.194E+01, 6.562E+02, 4.472E+00, 7.653E+02, 0.000E+00
 1.010E+03, 4.921E+02, 3.923E+01, 6.563E+02, 0.000E+00, 7.654E+02, 0.000E+00
 1.020E+03, 4.922E+02, 3.654E+01, 6.563E+02, 0.000E+00, 7.654E+02, 0.000E+00
 1.030E+03, 4.923E+02, 3.437E+01, 6.564E+02, 0.000E+00, 7.655E+02, 0.000E+00
 1.040E+03, 4.923E+02, 3.240E+01, 6.565E+02, 0.000E+00, 7.655E+02, 0.000E+00
 1.050E+03, 4.924E+02, 3.043E+01, 6.565E+02, 0.000E+00, 7.656E+02, 0.000E+00
 1.060E+03, 4.925E+02, 2.875E+01, 6.566E+02, 0.000E+00, 7.656E+02, 0.000E+00
 1.070E+03, 4.926E+02, 2.818E+01, 6.567E+02, 0.000E+00, 7.657E+02, 0.000E+00
 1.080E+03, 4.927E+02, 2.772E+01, 6.567E+02, 0.000E+00, 7.657E+02, 0.000E+00
 1.090E+03, 4.928E+02, 2.726E+01, 6.568E+02, 0.000E+00, 7.658E+02, 0.000E+00
 1.100E+03, 4.929E+02, 2.680E+01, 6.569E+02, 0.000E+00, 7.658E+02, 0.000E+00
 1.110E+03, 4.929E+02, 2.635E+01, 6.569E+02, 0.000E+00, 7.659E+02, 0.000E+00
 1.120E+03, 4.930E+02, 2.589E+01, 6.570E+02, 0.000E+00, 7.659E+02, 0.000E+00
 1.130E+03, 4.931E+02, 2.543E+01, 6.570E+02, 0.000E+00, 7.660E+02, 0.000E+00
 1.140E+03, 4.932E+02, 2.497E+01, 6.571E+02, 0.000E+00, 7.660E+02, 0.000E+00
 1.150E+03, 4.932E+02, 2.452E+01, 6.571E+02, 0.000E+00, 7.661E+02, 0.000E+00
 1.160E+03, 4.933E+02, 2.406E+01, 6.572E+02, 0.000E+00, 7.661E+02, 0.000E+00
 1.170E+03, 4.934E+02, 2.363E+01, 6.572E+02, 0.000E+00, 7.662E+02, 0.000E+00
 1.180E+03, 4.934E+02, 2.338E+01, 6.573E+02, 0.000E+00, 7.662E+02, 0.000E+00
 1.190E+03, 4.935E+02, 2.317E+01, 6.573E+02, 0.000E+00, 7.663E+02, 0.000E+00
 1.200E+03, 4.936E+02, 2.296E+01, 6.574E+02, 0.000E+00, 7.663E+02, 0.000E+00
 1.210E+03, 4.936E+02, 2.275E+01, 6.574E+02, 0.000E+00, 7.663E+02, 0.000E+00
 1.220E+03, 4.937E+02, 2.254E+01, 6.575E+02, 0.000E+00, 7.664E+02, 0.000E+00
 1.230E+03, 4.937E+02, 2.232E+01, 6.575E+02, 0.000E+00, 7.664E+02, 0.000E+00
 1.240E+03, 4.938E+02, 2.211E+01, 6.576E+02, 0.000E+00, 7.664E+02, 0.000E+00
 1.250E+03, 4.939E+02, 2.190E+01, 6.576E+02, 0.000E+00, 7.665E+02, 0.000E+00
 1.260E+03, 4.939E+02, 2.169E+01, 6.576E+02, 0.000E+00, 7.665E+02, 0.000E+00
 1.270E+03, 4.940E+02, 2.147E+01, 6.577E+02, 0.000E+00, 7.665E+02, 0.000E+00
 1.280E+03, 4.940E+02, 2.126E+01, 6.577E+02, 0.000E+00, 7.666E+02, 0.000E+00
 1.290E+03, 4.941E+02, 2.105E+01, 6.578E+02, 0.000E+00, 7.666E+02, 0.000E+00
 1.300E+03, 4.941E+02, 2.084E+01, 6.578E+02, 0.000E+00, 7.666E+02, 0.000E+00
 1.310E+03, 4.942E+02, 2.062E+01, 6.578E+02, 0.000E+00, 7.667E+02, 0.000E+00
 1.320E+03, 4.942E+02, 2.041E+01, 6.579E+02, 0.000E+00, 7.667E+02, 0.000E+00
 1.330E+03, 4.943E+02, 2.020E+01, 6.579E+02, 0.000E+00, 7.667E+02, 0.000E+00
 1.340E+03, 4.943E+02, 1.999E+01, 6.579E+02, 0.000E+00, 7.668E+02, 0.000E+00
 1.350E+03, 4.944E+02, 1.978E+01, 6.580E+02, 0.000E+00, 7.668E+02, 0.000E+00
 1.360E+03, 4.944E+02, 1.960E+01, 6.580E+02, 0.000E+00, 7.668E+02, 0.000E+00
 1.370E+03, 4.945E+02, 1.947E+01, 6.580E+02, 0.000E+00, 7.668E+02, 0.000E+00
 1.380E+03, 4.945E+02, 1.934E+01, 6.581E+02, 0.000E+00, 7.669E+02, 0.000E+00
 1.390E+03, 4.945E+02, 1.922E+01, 6.581E+02, 0.000E+00, 7.669E+02, 0.000E+00
 1.400E+03, 4.946E+02, 1.909E+01, 6.581E+02, 0.000E+00, 7.669E+02, 0.000E+00
 1.410E+03, 4.946E+02, 1.897E+01, 6.582E+02, 0.000E+00, 7.669E+02, 0.000E+00
 1.420E+03, 4.947E+02, 1.884E+01, 6.582E+02, 0.000E+00, 7.670E+02, 0.000E+00
 1.430E+03, 4.947E+02, 1.872E+01, 6.582E+02, 0.000E+00, 7.670E+02, 0.000E+00
 1.440E+03, 4.947E+02, 1.859E+01, 6.583E+02, 0.000E+00, 7.670E+02, 0.000E+00
 1.450E+03, 4.948E+02, 1.846E+01, 6.583E+02, 0.000E+00, 7.670E+02, 0.000E+00
 1.460E+03, 4.948E+02, 1.834E+01, 6.583E+02, 0.000E+00, 7.671E+02, 0.000E+00
 1.470E+03, 4.949E+02, 1.821E+01, 6.583E+02, 0.000E+00, 7.671E+02, 0.000E+00
 1.480E+03, 4.949E+02, 1.809E+01, 6.584E+02, 0.000E+00, 7.671E+02, 0.000E+00
 1.490E+03, 4.949E+02, 1.796E+01, 6.584E+02, 0.000E+00, 7.671E+02, 0.000E+00
 1.500E+03, 4.950E+02, 1.784E+01, 6.584E+02, 0.000E+00, 7.671E+02, 0.000E+00
 1.510E+03, 4.950E+02, 1.771E+01, 6.584E+02, 0.000E+00, 7.672E+02, 0.000E+00
 1.520E+03, 4.950E+02, 1.758E+01, 6.585E+02, 0.000E+00, 7.672E+02, 0.000E+00
 1.530E+03, 4.951E+02, 1.746E+01, 6.585E+02, 0.000E+00, 7.672E+02, 0.000E+00
 1.540E+03, 4.951E+02, 1.734E+01, 6.585E+02, 0.000E+00, 7.672E+02, 0.000E+00
 1.550E+03, 4.951E+02, 1.727E+01, 6.585E+02, 0.000E+00, 7.672E+02, 0.000E+00
 1.560E+03, 4.951E+02, 1.723E+01, 6.585E+02, 0.000E+00, 7.673E+02, 0.000E+00
 1.570E+03, 4.952E+02, 1.719E+01, 6.586E+02, 0.000E+00, 7.673E+02, 0.000E+00
 1.580E+03, 4.952E+02, 1.715E+01, 6.586E+02, 0.000E+00, 7.673E+02, 0.000E+00
 1.590E+03, 4.952E+02, 1.710E+01, 6.586E+02, 0.000E+00, 7.673E+02, 0.000E+00
 1.600E+03, 4.953E+02, 1.706E+01, 6.586E+02, 0.000E+00, 7.673E+02, 0.000E+00
 1.610E+03, 4.953E+02, 1.702E+01, 6.586E+02, 0.000E+00, 7.673E+02, 0.000E+00
 1.620E+03, 4.953E+02, 1.698E+01, 6.587E+02, 0.000E+00, 7.674E+02, 0.000E+00
 1.630E+03, 4.953E+02, 1.694E+01, 6.587E+02, 0.000E+00, 7.674E+02, 0.000E+00
 1.640E+03, 4.954E+02, 1.690E+01, 6.587E+02, 0.000E+00, 7.674E+02, 0.000E+00
 1.650E+03, 4.954E+02, 1.685E+01, 6.587E+02, 0.000E+00, 7.674E+02, 0.000E+00
 1.660E+03, 4.954E+02, 1.681E+01, 6.587E+02, 0.000E+00, 7.674E+02, 0.000E+00
 1.670E+03, 4.954E+02, 1.677E+01, 6.588E+02, 0.000E+00, 7.674E+02, 0.000E+00
 1.680E+03, 4.955E+02, 1.673E+01, 6.588E+02, 0.000E+00, 7.674E+02, 0.000E+00
 1.690E+03, 4.955E+02, 1.669E+01, 6.588E+02, 0.000E+00, 7.674E+02, 0.000E+00
 1.700E+03, 4.955E+02, 1.664E+01, 6.588E+02, 0.000E+00, 7.675E+02, 0.000E+00
 1.710E+03, 4.955E+02, 1.660E+01, 6.588E+02, 0.000E+00, 7.675E+02, 0.000E+00
 1.720E+03, 4.955E+02, 1.656E+01, 6.588E+02, 0.000E+00, 7.675E+02, 0.000E+00
 1.730E+03, 4.956E+02, 1.652E+01, 6.588E+02, 0.000E+00, 7.675E+02, 0.000E+00
 1.740E+03, 4.956E+02, 1.649E+01, 6.589E+02, 0.000E+00, 7.675E+02, 0.000E+00
 1.750E+03, 4.956E+02, 1.645E+01, 6.589E+02, 0.000E+00, 7.675E+02, 0.000E+00
 1.760E+03, 4.956E+02, 1.642E+01, 6.589E+02, 0.000E+00, 7.675E+02, 0.000E+00
 1.770E+03, 4.956E+02, 1.638E+01, 6.589E+02, 0.000E+00, 7.675E+02, 0.000E+00
 1.780E+03, 4.957E+02, 1.635E+01, 6.589E+02, 0.000E+00, 7.676E+02, 0.000E+00
 1.790E+03, 4.957E+02, 1.631E+01, 6.589E+02, 0.000E+00, 7.676E+02, 0.000E+00
 1.800E+03, 4.957E+02, 1.628E+01, 6.589E+02, 0.000E+00, 7.676E+02, 0.000E+00
 1.810E+03, 4.957E+02, 1.624E+01, 6.589E+02, 0.000E+00, 7.676E+02, 0.000E+00
 1.820E+03, 4.957E+02, 1.621E+01, 6.590E+02, 0.000E+00, 7.676E+02, 0.000E+00
 1.830E+03, 4.957E+02, 1.617E+01, 6.590E+02, 0.000E+00, 7.676E+02, 0.000E+00
 1.840E+03, 4.958E+02, 1.614E+01, 6.590E+02, 0.000E+00, 7.676E+02, 0.000E+00
 1.850E+03, 4.958E+02, 1.611E+01, 6.590E+02, 0.000E+00, 7.676E+02, 0.000E+00
 1.860E+03, 4.958E+02, 1.607E+01, 6.590E+02, 0.000E+00, 7.676E+02, 0.000E+00
 1.870E+03, 4.958E+02, 1.604E+01, 6.590E+02, 0.000E+00, 7.676E+02, 0.000E+00
 1.880E+03, 4.958E+02, 1.600E+01, 6.590E+02, 0.000E+00, 7.676E+02, 0.000E+00
 1.890E+03, 4.958E+02, 1.590E+01, 6.590E+02, 0.000E+00, 7.677E+02, 0.000E+00
 1.900E+03, 4.958E+02, 1.163E+01, 6.590E+02, 0.000E+00, 7.677E+02, 0.000E+00
 1.910E+03, 4.959E+02, 8.147E+00, 6.591E+02, 0.000E+00, 7.677E+02, 0.000E+00
 1.920E+03, 4.959E+02, 2.626E-01, 6.591E+02, 0.000E+00, 7.677E+02, 0.000E+00
 1.930E+03, 4.959E+02, 0.000E+00, 6.591E+02, 0.000E+00, 7.677E+02, 0.000E+00
 1.940E+03, 4.959E+02, 0.000E+00, 6.591E+02, 0.000E+00, 7.677E+02, 0.000E+00
 1.950E+03, 4.959E+02, 0.000E+00, 6.591E+02, 0.000E+00, 7.677E+02, 0.000E+00
 1.960E+03, 4.959E+02, 0.000E+00, 6.591E+02, 0.000E+00, 7.677E+02, 0.000E+00
 1.970E+03, 4.959E+02, 0.000E+00, 6.591E+02, 0.000E+00, 7.677E+02, 0.000E+00
 1.980E+03, 4.959E+02, 0.000E+00, 6.591E+02, 0.000E+00, 7.677E+02, 0.000E+00
 1.990E+03, 4.960E+02, 0.000E+00, 6.591E+02, 0.000E+00, 7.677E+02, 0.000E+00
 2.000E+03, 4.960E+02, 0.000E+00, 6.591E+02, 0.000E+00, 7.677E+02, 0.000E+00
 2.010E+03, 4.960E+02, 0.000E+00, 6.591E+02, 0.000E+00, 7.677E+02, 0.000E+00
 2.020E+03, 4.960E+02, 0.000E+00, 6.592E+02, 0.000E+00, 7.677E+02, 0.000E+00
 2.030E+03, 4.960E+02, 0.000E+00, 6.592E+02, 0.000E+00, 7.678E+02, 0.000E+00
 2.040E+03, 4.960E+02, 0.000E+00, 6.592E+02, 0.000E+00, 7.678E+02, 0.000E+00
 2.050E+03, 4.960E+02, 0.000E+00, 6.592E+02, 0.000E+00, 7.678E+02, 0.000E+00
 2.060E+03, 4.960E+02, 0.000E+00, 6.592E+02, 0.000E+00, 7.678E+02, 0.000E+00
 2.070E+03, 4.960E+02, 0.000E+00, 6.592E+02, 0.000E+00, 7.678E+02, 0.000E+00
 2.080E+03, 4.961E+02, 0.000E+00, 6.592E+02, 0.000E+00, 7.678E+02, 0.000E+00
 2.090E+03, 4.961E+02, 0.000E+00, 6.592E+02, 0.000E+00, 7.678E+02, 0.000E+00
 2.100E+03, 4.961E+02, 0.000E+00, 6.592E+02, 0.000E+00, 7.678E+02, 0.000E+00
 2.110E+03, 4.961E+02, 0.000E+00, 6.592E+02, 0.000E+00, 7.678E+02, 0.000E+00
 2.120E+03, 4.961E+02, 0.000E+00, 6.592E+02, 0.000E+00, 7.678E+02, 0.000E+00
 2.130E+03, 4.961E+02, 0.000E+00, 6.592E+02, 0.000E+00, 7.678E+02, 0.000E+00
 2.140E+03, 4.961E+02, 0.000E+00, 6.592E+02, 0.000E+00, 7.678E+02, 0.000E+00
 2.150E+03, 4.961E+02, 0.000E+00, 6.592E+02, 0.000E+00, 7.678E+02, 0.000E+00
 2.160E+03, 4.961E+02, 0.000E+00, 6.592E+02, 0.000E+00, 7.678E+02, 0.000E+00
 2.164E+03, 4.961E+02, 0.000E+00, 6.592E+02, 0.000E+00, 7.678E+02, 0.000E+00
