s,C,kW/m2,C,kW/m2,C,kW/m2
Time,WALL TEMPERATURE-CONE_4p06_025,HRRPUA-CONE_4p06_025,WALL TEMPERATURE-CONE_4p06_050,HRRPUA-CONE_4p06_050,WALL TEMPERATURE-CONE_4p06_075,HRRPUA-CONE_4p06_075
 0.000E+00, 2.700E+01, 0.000E+00, 2.700E+01, 0.000E+00, 2.700E+01, 0.000E+00
 2.000E+00, 1.473E+02, 0.000E+00, 2.677E+02, 0.000E+00, 3.880E+02, 0.000E+00
 4.000E+00, 3.117E+02, 0.000E+00, 5.299E+02, 0.000E+00, 7.148E+02, 0.000E+00
 6.000E+00, 3.729E+02, 0.000E+00, 5.653E+02, 0.000E+00, 6.913E+02, 3.379E+01
 8.000E+00, 3.992E+02, 0.000E+00, 5.861E+02, 2.264E+01, 7.075E+02, 8.662E+01
 1.000E+01, 4.142E+02, 0.000E+00, 5.974E+02, 5.752E+01, 7.164E+02, 1.579E+02
 1.200E+01, 4.241E+02, 0.000E+00, 6.046E+02, 1.012E+02, 7.222E+02, 2.351E+02
 1.400E+01, 4.311E+02, 0.000E+00, 6.099E+02, 1.425E+02, 7.265E+02, 3.104E+02
 1.600E+01, 4.367E+02, 0.000E+00, 6.142E+02, 1.818E+02, 7.300E+02, 3.811E+02
 1.800E+01, 4.414E+02, 0.000E+00, 6.177E+02, 2.173E+02, 7.330E+02, 4.375E+02
 2.000E+01, 4.453E+02, 0.000E+00, 6.208E+02, 2.473E+02, 7.355E+02, 4.685E+02
 2.200E+01, 4.489E+02, 0.000E+00, 6.236E+02, 2.765E+02, 7.379E+02, 4.702E+02
 2.400E+01, 4.521E+02, 0.000E+00, 6.260E+02, 2.990E+02, 7.399E+02, 4.407E+02
 2.600E+01, 4.548E+02, 0.000E+00, 6.281E+02, 3.147E+02, 7.417E+02, 3.903E+02
 2.800E+01, 4.573E+02, 0.000E+00, 6.300E+02, 3.214E+02, 7.434E+02, 3.291E+02
 3.000E+01, 4.596E+02, 0.000E+00, 6.317E+02, 3.199E+02, 7.448E+02, 2.692E+02
 3.200E+01, 4.615E+02, 0.000E+00, 6.332E+02, 3.165E+02, 7.460E+02, 2.291E+02
 3.400E+01, 4.634E+02, 0.000E+00, 6.346E+02, 3.060E+02, 7.472E+02, 1.914E+02
 3.600E+01, 4.650E+02, 0.000E+00, 6.358E+02, 2.879E+02, 7.483E+02, 1.582E+02
 3.800E+01, 4.665E+02, 7.259E+00, 6.369E+02, 2.632E+02, 7.492E+02, 1.301E+02
 4.000E+01, 4.678E+02, 1.207E+01, 6.379E+02, 2.330E+02, 7.500E+02, 1.120E+02
 4.200E+01, 4.691E+02, 1.745E+01, 6.389E+02, 2.008E+02, 7.508E+02, 9.826E+01
 4.400E+01, 4.702E+02, 2.506E+01, 6.397E+02, 1.661E+02, 7.515E+02, 9.122E+01
 4.600E+01, 4.712E+02, 3.298E+01, 6.405E+02, 1.290E+02, 7.521E+02, 8.490E+01
 4.800E+01, 4.722E+02, 4.150E+01, 6.412E+02, 9.989E+01, 7.528E+02, 7.883E+01
 5.000E+01, 4.731E+02, 5.217E+01, 6.419E+02, 8.129E+01, 7.533E+02, 7.483E+01
 5.200E+01, 4.740E+02, 6.328E+01, 6.426E+02, 6.854E+01, 7.539E+02, 7.166E+01
 5.400E+01, 4.748E+02, 7.452E+01, 6.432E+02, 5.921E+01, 7.544E+02, 6.856E+01
 5.600E+01, 4.755E+02, 8.584E+01, 6.437E+02, 5.296E+01, 7.548E+02, 6.546E+01
 5.800E+01, 4.762E+02, 9.735E+01, 6.442E+02, 4.807E+01, 7.553E+02, 6.237E+01
 6.000E+01, 4.769E+02, 1.121E+02, 6.447E+02, 4.450E+01, 7.557E+02, 5.978E+01
 6.200E+01, 4.775E+02, 1.308E+02, 6.452E+02, 4.109E+01, 7.561E+02, 5.776E+01
 6.400E+01, 4.781E+02, 1.516E+02, 6.457E+02, 3.789E+01, 7.565E+02, 5.578E+01
 6.600E+01, 4.786E+02, 1.751E+02, 6.461E+02, 3.504E+01, 7.568E+02, 5.380E+01
 6.800E+01, 4.792E+02, 2.023E+02, 6.465E+02, 3.324E+01, 7.571E+02, 5.181E+01
 7.000E+01, 4.797E+02, 2.239E+02, 6.469E+02, 3.170E+01, 7.575E+02, 4.983E+01
 7.200E+01, 4.802E+02, 2.376E+02, 6.472E+02, 3.018E+01, 7.578E+02, 4.785E+01
 7.400E+01, 4.806E+02, 2.442E+02, 6.476E+02, 2.884E+01, 7.581E+02, 4.586E+01
 7.600E+01, 4.811E+02, 2.482E+02, 6.479E+02, 2.763E+01, 7.583E+02, 4.387E+01
 7.800E+01, 4.815E+02, 2.458E+02, 6.482E+02, 2.644E+01, 7.586E+02, 4.188E+01
 8.000E+01, 4.819E+02, 2.391E+02, 6.485E+02, 2.524E+01, 7.589E+02, 3.990E+01
 8.200E+01, 4.823E+02, 2.286E+02, 6.488E+02, 2.405E+01, 7.591E+02, 3.790E+01
 8.400E+01, 4.827E+02, 2.148E+02, 6.491E+02, 2.313E+01, 7.593E+02, 3.593E+01
 8.600E+01, 4.830E+02, 1.988E+02, 6.494E+02, 2.240E+01, 7.596E+02, 3.449E+01
 8.800E+01, 4.834E+02, 1.788E+02, 6.496E+02, 2.169E+01, 7.598E+02, 3.330E+01
 9.000E+01, 4.837E+02, 1.549E+02, 6.499E+02, 2.098E+01, 7.600E+02, 3.212E+01
 9.200E+01, 4.840E+02, 1.319E+02, 6.501E+02, 2.030E+01, 7.602E+02, 3.094E+01
 9.400E+01, 4.843E+02, 1.126E+02, 6.504E+02, 1.990E+01, 7.604E+02, 2.976E+01
 9.600E+01, 4.846E+02, 9.987E+01, 6.506E+02, 1.962E+01, 7.606E+02, 2.858E+01
 9.800E+01, 4.849E+02, 9.079E+01, 6.508E+02, 1.935E+01, 7.607E+02, 2.740E+01
 1.000E+02, 4.851E+02, 8.274E+01, 6.510E+02, 1.908E+01, 7.609E+02, 2.622E+01
 1.020E+02, 4.854E+02, 7.505E+01, 6.512E+02, 1.879E+01, 7.611E+02, 2.504E+01
 1.040E+02, 4.857E+02, 6.806E+01, 6.514E+02, 1.843E+01, 7.612E+02, 2.386E+01
 1.060E+02, 4.859E+02, 6.309E+01, 6.515E+02, 1.804E+01, 7.614E+02, 2.268E+01
 1.080E+02, 4.861E+02, 5.864E+01, 6.517E+02, 1.764E+01, 7.615E+02, 2.150E+01
 1.100E+02, 4.863E+02, 5.431E+01, 6.519E+02, 1.725E+01, 7.616E+02, 2.034E+01
 1.120E+02, 4.866E+02, 5.002E+01, 6.520E+02, 1.687E+01, 7.618E+02, 1.938E+01
 1.140E+02, 4.868E+02, 4.634E+01, 6.522E+02, 1.660E+01, 7.619E+02, 1.846E+01
 1.160E+02, 4.870E+02, 4.410E+01, 6.523E+02, 1.635E+01, 7.620E+02, 1.754E+01
 1.180E+02, 4.872E+02, 4.208E+01, 6.525E+02, 1.609E+01, 7.621E+02, 1.662E+01
 1.200E+02, 4.873E+02, 4.010E+01, 6.526E+02, 1.584E+01, 7.623E+02, 1.570E+01
 1.220E+02, 4.875E+02, 3.813E+01, 6.527E+02, 1.558E+01, 7.624E+02, 1.478E+01
 1.240E+02, 4.877E+02, 3.616E+01, 6.529E+02, 1.532E+01, 7.625E+02, 1.386E+01
 1.260E+02, 4.879E+02, 3.436E+01, 6.530E+02, 1.500E+01, 7.626E+02, 1.294E+01
 1.280E+02, 4.880E+02, 3.339E+01, 6.531E+02, 1.466E+01, 7.627E+02, 1.202E+01
 1.300E+02, 4.882E+02, 3.262E+01, 6.532E+02, 1.431E+01, 7.628E+02, 1.110E+01
 1.320E+02, 4.883E+02, 3.189E+01, 6.533E+02, 1.396E+01, 7.628E+02, 1.018E+01
 1.340E+02, 4.885E+02, 3.115E+01, 6.534E+02, 1.361E+01, 7.629E+02, 9.262E+00
 1.360E+02, 4.886E+02, 3.042E+01, 6.535E+02, 1.325E+01, 7.630E+02, 8.490E+00
 1.380E+02, 4.887E+02, 2.969E+01, 6.536E+02, 1.289E+01, 7.631E+02, 8.128E+00
 1.400E+02, 4.889E+02, 2.896E+01, 6.537E+02, 1.253E+01, 7.632E+02, 7.793E+00
 1.420E+02, 4.890E+02, 2.822E+01, 6.538E+02, 1.217E+01, 7.632E+02, 7.459E+00
 1.440E+02, 4.891E+02, 2.749E+01, 6.539E+02, 1.181E+01, 7.633E+02, 7.124E+00
 1.460E+02, 4.892E+02, 2.677E+01, 6.540E+02, 1.145E+01, 7.634E+02, 6.790E+00
 1.480E+02, 4.893E+02, 2.627E+01, 6.541E+02, 1.108E+01, 7.634E+02, 6.455E+00
 1.500E+02, 4.894E+02, 2.589E+01, 6.541E+02, 1.071E+01, 7.635E+02, 6.121E+00
 1.520E+02, 4.895E+02, 2.552E+01, 6.542E+02, 1.034E+01, 7.636E+02, 5.786E+00
 1.540E+02, 4.896E+02, 2.515E+01, 6.543E+02, 9.969E+00, 7.636E+02, 5.452E+00
 1.560E+02, 4.897E+02, 2.479E+01, 6.543E+02, 9.594E+00, 7.637E+02, 5.117E+00
 1.580E+02, 4.898E+02, 2.442E+01, 6.544E+02, 9.218E+00, 7.637E+02, 4.783E+00
 1.600E+02, 4.899E+02, 2.406E+01, 6.545E+02, 8.840E+00, 7.638E+02, 4.448E+00
 1.620E+02, 4.900E+02, 2.369E+01, 6.545E+02, 8.460E+00, 7.638E+02, 4.180E+00
 1.640E+02, 4.901E+02, 2.332E+01, 6.546E+02, 8.078E+00, 7.639E+02, 3.988E+00
 1.660E+02, 4.902E+02, 2.296E+01, 6.546E+02, 7.777E+00, 7.639E+02, 3.797E+00
 1.680E+02, 4.902E+02, 2.259E+01, 6.547E+02, 7.567E+00, 7.640E+02, 3.606E+00
 1.700E+02, 4.903E+02, 2.223E+01, 6.547E+02, 7.359E+00, 7.640E+02, 3.414E+00
 1.720E+02, 4.904E+02, 2.186E+01, 6.548E+02, 7.151E+00, 7.640E+02, 3.223E+00
 1.740E+02, 4.904E+02, 2.149E+01, 6.548E+02, 6.942E+00, 7.641E+02, 3.032E+00
 1.760E+02, 4.905E+02, 2.113E+01, 6.549E+02, 6.733E+00, 7.641E+02, 2.841E+00
 1.780E+02, 4.906E+02, 2.079E+01, 6.549E+02, 6.523E+00, 7.642E+02, 2.650E+00
 1.800E+02, 4.906E+02, 2.054E+01, 6.550E+02, 6.313E+00, 7.642E+02, 2.459E+00
 1.820E+02, 4.907E+02, 2.030E+01, 6.550E+02, 6.102E+00, 7.642E+02, 2.267E+00
 1.840E+02, 4.908E+02, 2.007E+01, 6.551E+02, 5.890E+00, 7.643E+02, 2.076E+00
 1.860E+02, 4.908E+02, 1.983E+01, 6.551E+02, 5.678E+00, 7.643E+02, 1.887E+00
 1.880E+02, 4.909E+02, 1.960E+01, 6.551E+02, 5.466E+00, 7.643E+02, 1.778E+00
 1.900E+02, 4.909E+02, 1.937E+01, 6.552E+02, 5.253E+00, 7.643E+02, 1.706E+00
 1.920E+02, 4.910E+02, 1.913E+01, 6.552E+02, 5.039E+00, 7.644E+02, 1.635E+00
 1.940E+02, 4.910E+02, 1.890E+01, 6.552E+02, 4.824E+00, 7.644E+02, 1.563E+00
 1.960E+02, 4.911E+02, 1.866E+01, 6.553E+02, 4.610E+00, 7.644E+02, 1.491E+00
 1.980E+02, 4.911E+02, 1.843E+01, 6.553E+02, 4.394E+00, 7.644E+02, 1.420E+00
 2.000E+02, 4.911E+02, 1.820E+01, 6.553E+02, 4.178E+00, 7.645E+02, 1.348E+00
 2.020E+02, 4.912E+02, 1.796E+01, 6.554E+02, 3.961E+00, 7.645E+02, 1.276E+00
 2.040E+02, 4.912E+02, 1.773E+01, 6.554E+02, 3.744E+00, 7.645E+02, 1.205E+00
 2.060E+02, 4.913E+02, 1.749E+01, 6.554E+02, 3.601E+00, 7.645E+02, 1.133E+00
 2.080E+02, 4.913E+02, 1.726E+01, 6.554E+02, 3.532E+00, 7.646E+02, 1.061E+00
 2.100E+02, 4.913E+02, 1.703E+01, 6.555E+02, 3.464E+00, 7.646E+02, 9.895E-01
 2.120E+02, 4.914E+02, 1.679E+01, 6.555E+02, 3.397E+00, 7.646E+02, 9.227E-01
 2.140E+02, 4.914E+02, 1.656E+01, 6.555E+02, 3.329E+00, 7.646E+02, 8.917E-01
 2.160E+02, 4.914E+02, 1.632E+01, 6.555E+02, 3.262E+00, 7.646E+02, 8.678E-01
 2.180E+02, 4.915E+02, 1.609E+01, 6.555E+02, 3.194E+00, 7.646E+02, 8.439E-01
 2.200E+02, 4.915E+02, 1.586E+01, 6.556E+02, 3.126E+00, 7.647E+02, 8.200E-01
 2.220E+02, 4.915E+02, 1.562E+01, 6.556E+02, 3.059E+00, 7.647E+02, 7.961E-01
 2.240E+02, 4.915E+02, 1.539E+01, 6.556E+02, 2.991E+00, 7.647E+02, 7.722E-01
 2.260E+02, 4.916E+02, 1.516E+01, 6.556E+02, 2.923E+00, 7.647E+02, 7.483E-01
 2.280E+02, 4.916E+02, 1.492E+01, 6.556E+02, 2.855E+00, 7.647E+02, 7.244E-01
 2.300E+02, 4.916E+02, 1.469E+01, 6.557E+02, 2.787E+00, 7.647E+02, 7.005E-01
 2.320E+02, 4.917E+02, 1.446E+01, 6.557E+02, 2.719E+00, 7.647E+02, 6.766E-01
 2.340E+02, 4.917E+02, 1.422E+01, 6.557E+02, 2.651E+00, 7.647E+02, 6.527E-01
 2.360E+02, 4.917E+02, 1.399E+01, 6.557E+02, 2.583E+00, 7.648E+02, 6.288E-01
 2.380E+02, 4.917E+02, 1.375E+01, 6.557E+02, 2.515E+00, 7.648E+02, 5.990E-01
 2.400E+02, 4.917E+02, 1.352E+01, 6.557E+02, 2.446E+00, 7.648E+02, 5.523E-01
 2.420E+02, 4.918E+02, 1.329E+01, 6.557E+02, 2.378E+00, 7.648E+02, 5.045E-01
 2.440E+02, 4.918E+02, 1.305E+01, 6.557E+02, 2.310E+00, 7.648E+02, 4.567E-01
 2.460E+02, 4.918E+02, 1.282E+01, 6.558E+02, 2.257E+00, 7.648E+02, 4.088E-01
 2.480E+02, 4.918E+02, 1.259E+01, 6.558E+02, 2.213E+00, 7.648E+02, 3.610E-01
 2.500E+02, 4.918E+02, 1.235E+01, 6.558E+02, 2.169E+00, 7.648E+02, 3.132E-01
 2.520E+02, 4.918E+02, 1.213E+01, 6.558E+02, 2.125E+00, 7.648E+02, 2.654E-01
 2.540E+02, 4.919E+02, 1.196E+01, 6.558E+02, 2.081E+00, 7.648E+02, 2.176E-01
 2.560E+02, 4.919E+02, 1.182E+01, 6.558E+02, 2.037E+00, 7.648E+02, 1.698E-01
 2.580E+02, 4.919E+02, 1.169E+01, 6.558E+02, 1.993E+00, 7.649E+02, 1.220E-01
 2.600E+02, 4.919E+02, 1.155E+01, 6.558E+02, 1.949E+00, 7.649E+02, 7.418E-02
 2.620E+02, 4.919E+02, 1.141E+01, 6.558E+02, 1.905E+00, 7.649E+02, 2.636E-02
 2.640E+02, 4.919E+02, 1.127E+01, 6.558E+02, 1.861E+00, 7.649E+02, 0.000E+00
 2.660E+02, 4.919E+02, 1.113E+01, 6.559E+02, 1.817E+00, 7.649E+02, 0.000E+00
 2.680E+02, 4.920E+02, 1.099E+01, 6.559E+02, 1.773E+00, 7.649E+02, 0.000E+00
 2.700E+02, 4.920E+02, 1.086E+01, 6.559E+02, 1.729E+00, 7.649E+02, 0.000E+00
 2.720E+02, 4.920E+02, 1.072E+01, 6.559E+02, 1.685E+00, 7.649E+02, 0.000E+00
 2.740E+02, 4.920E+02, 1.058E+01, 6.559E+02, 1.641E+00, 7.649E+02, 0.000E+00
 2.760E+02, 4.920E+02, 1.044E+01, 6.559E+02, 1.596E+00, 7.649E+02, 0.000E+00
 2.780E+02, 4.920E+02, 1.030E+01, 6.559E+02, 1.552E+00, 7.649E+02, 0.000E+00
 2.800E+02, 4.920E+02, 1.017E+01, 6.559E+02, 1.508E+00, 7.649E+02, 0.000E+00
 2.820E+02, 4.920E+02, 1.003E+01, 6.559E+02, 1.464E+00, 7.649E+02, 0.000E+00
 2.840E+02, 4.920E+02, 9.889E+00, 6.559E+02, 1.421E+00, 7.649E+02, 0.000E+00
 2.860E+02, 4.921E+02, 9.751E+00, 6.559E+02, 1.404E+00, 7.649E+02, 0.000E+00
 2.880E+02, 4.921E+02, 9.613E+00, 6.559E+02, 1.395E+00, 7.649E+02, 0.000E+00
 2.900E+02, 4.921E+02, 9.475E+00, 6.559E+02, 1.386E+00, 7.649E+02, 0.000E+00
 2.920E+02, 4.921E+02, 9.337E+00, 6.559E+02, 1.378E+00, 7.649E+02, 0.000E+00
 2.940E+02, 4.921E+02, 9.199E+00, 6.559E+02, 1.369E+00, 7.649E+02, 0.000E+00
 2.960E+02, 4.921E+02, 9.060E+00, 6.559E+02, 1.360E+00, 7.649E+02, 0.000E+00
 2.980E+02, 4.921E+02, 8.922E+00, 6.559E+02, 1.351E+00, 7.649E+02, 0.000E+00
 3.000E+02, 4.921E+02, 8.784E+00, 6.560E+02, 1.342E+00, 7.650E+02, 0.000E+00
 3.020E+02, 4.921E+02, 8.646E+00, 6.560E+02, 1.333E+00, 7.650E+02, 0.000E+00
 3.040E+02, 4.921E+02, 8.508E+00, 6.560E+02, 1.324E+00, 7.650E+02, 0.000E+00
 3.060E+02, 4.921E+02, 8.370E+00, 6.560E+02, 1.316E+00, 7.650E+02, 0.000E+00
 3.080E+02, 4.921E+02, 8.232E+00, 6.560E+02, 1.307E+00, 7.650E+02, 0.000E+00
 3.100E+02, 4.921E+02, 8.094E+00, 6.560E+02, 1.298E+00, 7.650E+02, 0.000E+00
 3.120E+02, 4.921E+02, 7.956E+00, 6.560E+02, 1.289E+00, 7.650E+02, 0.000E+00
 3.140E+02, 4.921E+02, 7.818E+00, 6.560E+02, 1.280E+00, 7.650E+02, 0.000E+00
 3.160E+02, 4.921E+02, 7.680E+00, 6.560E+02, 1.271E+00, 7.650E+02, 0.000E+00
 3.180E+02, 4.922E+02, 7.542E+00, 6.560E+02, 1.262E+00, 7.650E+02, 0.000E+00
 3.200E+02, 4.922E+02, 7.404E+00, 6.560E+02, 1.254E+00, 7.650E+02, 0.000E+00
 3.220E+02, 4.922E+02, 7.266E+00, 6.560E+02, 1.245E+00, 7.650E+02, 0.000E+00
 3.240E+02, 4.922E+02, 7.128E+00, 6.560E+02, 1.230E+00, 7.650E+02, 0.000E+00
 3.260E+02, 4.922E+02, 6.990E+00, 6.560E+02, 1.187E+00, 7.650E+02, 0.000E+00
 3.280E+02, 4.922E+02, 6.867E+00, 6.560E+02, 1.139E+00, 7.650E+02, 0.000E+00
 3.300E+02, 4.922E+02, 6.759E+00, 6.560E+02, 1.091E+00, 7.650E+02, 0.000E+00
 3.320E+02, 4.922E+02, 6.652E+00, 6.560E+02, 1.043E+00, 7.650E+02, 0.000E+00
 3.340E+02, 4.922E+02, 6.544E+00, 6.560E+02, 9.947E-01, 7.650E+02, 0.000E+00
 3.360E+02, 4.922E+02, 6.437E+00, 6.560E+02, 9.466E-01, 7.650E+02, 0.000E+00
 3.380E+02, 4.922E+02, 6.330E+00, 6.560E+02, 8.985E-01, 7.650E+02, 0.000E+00
 3.400E+02, 4.922E+02, 6.223E+00, 6.560E+02, 8.504E-01, 7.650E+02, 0.000E+00
 3.420E+02, 4.922E+02, 6.115E+00, 6.560E+02, 8.022E-01, 7.650E+02, 0.000E+00
 3.440E+02, 4.922E+02, 6.008E+00, 6.560E+02, 7.540E-01, 7.650E+02, 0.000E+00
 3.460E+02, 4.922E+02, 5.901E+00, 6.560E+02, 7.058E-01, 7.650E+02, 0.000E+00
 3.480E+02, 4.922E+02, 5.794E+00, 6.560E+02, 6.576E-01, 7.650E+02, 0.000E+00
 3.500E+02, 4.922E+02, 5.687E+00, 6.560E+02, 6.093E-01, 7.650E+02, 0.000E+00
 3.520E+02, 4.922E+02, 5.579E+00, 6.560E+02, 5.610E-01, 7.650E+02, 0.000E+00
 3.540E+02, 4.922E+02, 5.472E+00, 6.560E+02, 5.127E-01, 7.650E+02, 0.000E+00
 3.560E+02, 4.922E+02, 5.365E+00, 6.560E+02, 4.643E-01, 7.650E+02, 0.000E+00
 3.580E+02, 4.922E+02, 5.258E+00, 6.560E+02, 4.159E-01, 7.650E+02, 0.000E+00
 3.600E+02, 4.922E+02, 5.151E+00, 6.560E+02, 3.675E-01, 7.650E+02, 0.000E+00
 3.620E+02, 4.922E+02, 5.043E+00, 6.560E+02, 3.191E-01, 7.650E+02, 0.000E+00
 3.640E+02, 4.922E+02, 4.936E+00, 6.560E+02, 2.808E-01, 7.650E+02, 0.000E+00
 3.660E+02, 4.922E+02, 4.829E+00, 6.560E+02, 2.655E-01, 7.650E+02, 0.000E+00
 3.680E+02, 4.922E+02, 4.722E+00, 6.560E+02, 2.512E-01, 7.650E+02, 0.000E+00
 3.700E+02, 4.922E+02, 4.615E+00, 6.560E+02, 2.368E-01, 7.650E+02, 0.000E+00
 3.720E+02, 4.922E+02, 4.508E+00, 6.560E+02, 2.224E-01, 7.650E+02, 0.000E+00
 3.740E+02, 4.922E+02, 4.400E+00, 6.560E+02, 2.081E-01, 7.650E+02, 0.000E+00
 3.760E+02, 4.922E+02, 4.293E+00, 6.560E+02, 1.937E-01, 7.650E+02, 0.000E+00
 3.780E+02, 4.922E+02, 4.186E+00, 6.560E+02, 1.793E-01, 7.650E+02, 0.000E+00
 3.800E+02, 4.922E+02, 4.079E+00, 6.560E+02, 1.650E-01, 7.650E+02, 0.000E+00
 3.820E+02, 4.922E+02, 3.972E+00, 6.560E+02, 1.506E-01, 7.650E+02, 0.000E+00
 3.840E+02, 4.922E+02, 3.865E+00, 6.560E+02, 1.362E-01, 7.650E+02, 0.000E+00
 3.860E+02, 4.922E+02, 3.758E+00, 6.560E+02, 1.218E-01, 7.650E+02, 0.000E+00
 3.880E+02, 4.922E+02, 3.651E+00, 6.560E+02, 1.074E-01, 7.650E+02, 0.000E+00
 3.900E+02, 4.923E+02, 3.543E+00, 6.560E+02, 9.306E-02, 7.650E+02, 0.000E+00
 3.920E+02, 4.923E+02, 3.436E+00, 6.560E+02, 7.867E-02, 7.650E+02, 0.000E+00
 3.940E+02, 4.923E+02, 3.329E+00, 6.560E+02, 6.428E-02, 7.650E+02, 0.000E+00
 3.960E+02, 4.923E+02, 3.222E+00, 6.560E+02, 4.989E-02, 7.650E+02, 0.000E+00
 3.980E+02, 4.923E+02, 3.115E+00, 6.560E+02, 3.550E-02, 7.650E+02, 0.000E+00
 4.000E+02, 4.923E+02, 3.008E+00, 6.560E+02, 2.110E-02, 7.650E+02, 0.000E+00
 4.020E+02, 4.923E+02, 2.913E+00, 6.560E+02, 6.714E-03, 7.650E+02, 0.000E+00
 4.040E+02, 4.923E+02, 2.868E+00, 6.560E+02, 0.000E+00, 7.650E+02, 0.000E+00
 4.060E+02, 4.923E+02, 2.829E+00, 6.560E+02, 0.000E+00, 7.650E+02, 0.000E+00
 4.080E+02, 4.923E+02, 2.790E+00, 6.560E+02, 0.000E+00, 7.650E+02, 0.000E+00
 4.100E+02, 4.923E+02, 2.751E+00, 6.560E+02, 0.000E+00, 7.650E+02, 0.000E+00
 4.120E+02, 4.923E+02, 2.712E+00, 6.560E+02, 0.000E+00, 7.650E+02, 0.000E+00
 4.140E+02, 4.923E+02, 2.673E+00, 6.560E+02, 0.000E+00, 7.650E+02, 0.000E+00
 4.160E+02, 4.923E+02, 2.634E+00, 6.560E+02, 0.000E+00, 7.650E+02, 0.000E+00
 4.180E+02, 4.923E+02, 2.595E+00, 6.560E+02, 0.000E+00, 7.650E+02, 0.000E+00
 4.200E+02, 4.923E+02, 2.556E+00, 6.560E+02, 0.000E+00, 7.650E+02, 0.000E+00
 4.220E+02, 4.923E+02, 2.517E+00, 6.560E+02, 0.000E+00, 7.650E+02, 0.000E+00
 4.240E+02, 4.923E+02, 2.478E+00, 6.560E+02, 0.000E+00, 7.650E+02, 0.000E+00
 4.260E+02, 4.923E+02, 2.440E+00, 6.560E+02, 0.000E+00, 7.650E+02, 0.000E+00
 4.280E+02, 4.923E+02, 2.401E+00, 6.560E+02, 0.000E+00, 7.650E+02, 0.000E+00
 4.300E+02, 4.923E+02, 2.362E+00, 6.560E+02, 0.000E+00, 7.650E+02, 0.000E+00
 4.320E+02, 4.923E+02, 2.323E+00, 6.560E+02, 0.000E+00, 7.650E+02, 0.000E+00
 4.340E+02, 4.923E+02, 2.284E+00, 6.560E+02, 0.000E+00, 7.650E+02, 0.000E+00
 4.360E+02, 4.923E+02, 2.245E+00, 6.560E+02, 0.000E+00, 7.650E+02, 0.000E+00
 4.380E+02, 4.923E+02, 2.206E+00, 6.560E+02, 0.000E+00, 7.650E+02, 0.000E+00
 4.400E+02, 4.923E+02, 2.167E+00, 6.560E+02, 0.000E+00, 7.650E+02, 0.000E+00
 4.420E+02, 4.923E+02, 2.128E+00, 6.560E+02, 0.000E+00, 7.650E+02, 0.000E+00
 4.440E+02, 4.923E+02, 2.089E+00, 6.560E+02, 0.000E+00, 7.650E+02, 0.000E+00
 4.460E+02, 4.923E+02, 2.051E+00, 6.560E+02, 0.000E+00, 7.650E+02, 0.000E+00
 4.480E+02, 4.923E+02, 2.012E+00, 6.560E+02, 0.000E+00, 7.650E+02, 0.000E+00
 4.500E+02, 4.923E+02, 1.973E+00, 6.560E+02, 0.000E+00, 7.650E+02, 0.000E+00
 4.520E+02, 4.923E+02, 1.934E+00, 6.561E+02, 0.000E+00, 7.650E+02, 0.000E+00
 4.540E+02, 4.923E+02, 1.895E+00, 6.561E+02, 0.000E+00, 7.650E+02, 0.000E+00
 4.560E+02, 4.923E+02, 1.856E+00, 6.561E+02, 0.000E+00, 7.650E+02, 0.000E+00
 4.580E+02, 4.923E+02, 1.817E+00, 6.561E+02, 0.000E+00, 7.650E+02, 0.000E+00
 4.600E+02, 4.923E+02, 1.778E+00, 6.561E+02, 0.000E+00, 7.650E+02, 0.000E+00
 4.620E+02, 4.923E+02, 1.739E+00, 6.561E+02, 0.000E+00, 7.650E+02, 0.000E+00
 4.640E+02, 4.923E+02, 1.700E+00, 6.561E+02, 0.000E+00, 7.650E+02, 0.000E+00
 4.660E+02, 4.923E+02, 1.662E+00, 6.561E+02, 0.000E+00, 7.650E+02, 0.000E+00
 4.680E+02, 4.923E+02, 1.623E+00, 6.561E+02, 0.000E+00, 7.650E+02, 0.000E+00
 4.700E+02, 4.923E+02, 1.584E+00, 6.561E+02, 0.000E+00, 7.650E+02, 0.000E+00
 4.720E+02, 4.923E+02, 1.545E+00, 6.561E+02, 0.000E+00, 7.650E+02, 0.000E+00
 4.740E+02, 4.923E+02, 1.506E+00, 6.561E+02, 0.000E+00, 7.650E+02, 0.000E+00
 4.760E+02, 4.923E+02, 1.467E+00, 6.561E+02, 0.000E+00, 7.650E+02, 0.000E+00
 4.780E+02, 4.923E+02, 1.440E+00, 6.561E+02, 0.000E+00, 7.650E+02, 0.000E+00
 4.800E+02, 4.923E+02, 1.417E+00, 6.561E+02, 0.000E+00, 7.650E+02, 0.000E+00
 4.820E+02, 4.923E+02, 1.395E+00, 6.561E+02, 0.000E+00, 7.650E+02, 0.000E+00
 4.840E+02, 4.923E+02, 1.373E+00, 6.561E+02, 0.000E+00, 7.650E+02, 0.000E+00
 4.860E+02, 4.923E+02, 1.351E+00, 6.561E+02, 0.000E+00, 7.650E+02, 0.000E+00
 4.880E+02, 4.923E+02, 1.328E+00, 6.561E+02, 0.000E+00, 7.650E+02, 0.000E+00
 4.900E+02, 4.923E+02, 1.306E+00, 6.561E+02, 0.000E+00, 7.650E+02, 0.000E+00
 4.920E+02, 4.923E+02, 1.284E+00, 6.561E+02, 0.000E+00, 7.650E+02, 0.000E+00
 4.940E+02, 4.923E+02, 1.262E+00, 6.561E+02, 0.000E+00, 7.650E+02, 0.000E+00
 4.960E+02, 4.923E+02, 1.240E+00, 6.561E+02, 0.000E+00, 7.650E+02, 0.000E+00
 4.980E+02, 4.923E+02, 1.217E+00, 6.561E+02, 0.000E+00, 7.650E+02, 0.000E+00
 5.000E+02, 4.923E+02, 1.195E+00, 6.561E+02, 0.000E+00, 7.650E+02, 0.000E+00
 5.020E+02, 4.923E+02, 1.173E+00, 6.561E+02, 0.000E+00, 7.650E+02, 0.000E+00
 5.040E+02, 4.923E+02, 1.151E+00, 6.561E+02, 0.000E+00, 7.650E+02, 0.000E+00
 5.060E+02, 4.923E+02, 1.128E+00, 6.561E+02, 0.000E+00, 7.650E+02, 0.000E+00
 5.080E+02, 4.923E+02, 1.106E+00, 6.561E+02, 0.000E+00, 7.650E+02, 0.000E+00
 5.100E+02, 4.923E+02, 1.084E+00, 6.561E+02, 0.000E+00, 7.650E+02, 0.000E+00
 5.120E+02, 4.923E+02, 1.062E+00, 6.561E+02, 0.000E+00, 7.650E+02, 0.000E+00
