s,C,kW/m2,C,kW/m2,C,kW/m2
Time,"WALL TEMPERATURE-CONE_1p07_025","HRRPUA-CONE_1p07_025","WALL TEMPERATURE-CONE_1p07_050","HRRPUA-CONE_1p07_050","WALL TEMPERATURE-CONE_1p07_075","HRRPUA-CONE_1p07_075"
 0.000E+00, 2.700E+01, 0.000E+00, 2.700E+01, 0.000E+00, 2.700E+01, 0.000E+00
 1.000E+01, 1.921E+02, 0.000E+00, 3.343E+02, 0.000E+00, 4.528E+02, 4.576E+01
 2.000E+01, 3.170E+02, 0.000E+00, 5.129E+02, 1.191E+02, 6.476E+02, 7.513E+02
 3.000E+01, 3.735E+02, 0.000E+00, 5.699E+02, 5.501E+02, 6.975E+02, 5.956E+02
 4.000E+01, 4.087E+02, 1.252E+01, 6.001E+02, 5.403E+02, 7.222E+02, 1.670E+02
 5.000E+01, 4.317E+02, 1.072E+02, 6.175E+02, 2.614E+02, 7.359E+02, 1.047E+02
 6.000E+01, 4.471E+02, 3.471E+02, 6.283E+02, 1.183E+02, 7.442E+02, 8.372E+01
 7.000E+01, 4.578E+02, 4.811E+02, 6.353E+02, 8.103E+01, 7.495E+02, 6.755E+01
 8.000E+01, 4.654E+02, 3.166E+02, 6.400E+02, 6.564E+01, 7.530E+02, 5.660E+01
 9.000E+01, 4.709E+02, 1.399E+02, 6.433E+02, 5.584E+01, 7.554E+02, 4.379E+01
 1.000E+02, 4.750E+02, 7.568E+01, 6.457E+02, 4.408E+01, 7.571E+02, 2.933E+01
 1.100E+02, 4.780E+02, 5.247E+01, 6.474E+02, 3.229E+01, 7.583E+02, 1.986E+01
 1.200E+02, 4.802E+02, 4.370E+01, 6.486E+02, 2.267E+01, 7.592E+02, 1.271E+01
 1.300E+02, 4.819E+02, 3.759E+01, 6.494E+02, 1.811E+01, 7.598E+02, 7.773E+00
 1.400E+02, 4.832E+02, 3.389E+01, 6.501E+02, 1.665E+01, 7.602E+02, 3.804E+00
 1.500E+02, 4.841E+02, 3.173E+01, 6.505E+02, 1.562E+01, 7.605E+02, 1.397E+00
 1.600E+02, 4.849E+02, 2.957E+01, 6.509E+02, 1.427E+01, 7.607E+02, 1.137E-01
 1.700E+02, 4.854E+02, 2.741E+01, 6.511E+02, 1.288E+01, 7.609E+02, 2.784E-02
 1.800E+02, 4.858E+02, 2.524E+01, 6.513E+02, 1.146E+01, 7.610E+02, 0.000E+00
 1.900E+02, 4.861E+02, 2.349E+01, 6.514E+02, 1.004E+01, 7.610E+02, 0.000E+00
 2.000E+02, 4.864E+02, 2.223E+01, 6.515E+02, 8.944E+00, 7.611E+02, 0.000E+00
 2.100E+02, 4.865E+02, 2.098E+01, 6.516E+02, 7.972E+00, 7.611E+02, 0.000E+00
 2.200E+02, 4.867E+02, 1.973E+01, 6.516E+02, 6.988E+00, 7.612E+02, 0.000E+00
 2.300E+02, 4.868E+02, 1.848E+01, 6.516E+02, 5.992E+00, 7.612E+02, 0.000E+00
 2.400E+02, 4.868E+02, 1.709E+01, 6.517E+02, 5.143E+00, 7.612E+02, 0.000E+00
 2.500E+02, 4.869E+02, 1.540E+01, 6.517E+02, 4.607E+00, 7.612E+02, 0.000E+00
 2.600E+02, 4.869E+02, 1.370E+01, 6.517E+02, 4.077E+00, 7.612E+02, 0.000E+00
 2.700E+02, 4.870E+02, 1.200E+01, 6.517E+02, 3.543E+00, 7.612E+02, 0.000E+00
 2.800E+02, 4.870E+02, 1.029E+01, 6.517E+02, 3.029E+00, 7.612E+02, 0.000E+00
 2.900E+02, 4.870E+02, 8.728E+00, 6.517E+02, 2.748E+00, 7.612E+02, 0.000E+00
 3.000E+02, 4.870E+02, 7.783E+00, 6.517E+02, 2.529E+00, 7.612E+02, 0.000E+00
 3.100E+02, 4.870E+02, 6.912E+00, 6.517E+02, 2.308E+00, 7.612E+02, 0.000E+00
 3.200E+02, 4.871E+02, 6.041E+00, 6.517E+02, 2.088E+00, 7.612E+02, 0.000E+00
 3.300E+02, 4.871E+02, 5.170E+00, 6.517E+02, 1.844E+00, 7.612E+02, 0.000E+00
 3.400E+02, 4.871E+02, 4.326E+00, 6.517E+02, 1.575E+00, 7.612E+02, 0.000E+00
 3.500E+02, 4.871E+02, 3.732E+00, 6.517E+02, 1.304E+00, 7.612E+02, 0.000E+00
 3.600E+02, 4.871E+02, 3.202E+00, 6.517E+02, 1.033E+00, 7.612E+02, 0.000E+00
 3.700E+02, 4.871E+02, 2.672E+00, 6.517E+02, 7.913E-01, 7.612E+02, 0.000E+00
 3.800E+02, 4.871E+02, 2.142E+00, 6.517E+02, 6.928E-01, 7.612E+02, 0.000E+00
 3.900E+02, 4.871E+02, 1.617E+00, 6.517E+02, 6.126E-01, 7.612E+02, 0.000E+00
 4.000E+02, 4.871E+02, 1.264E+00, 6.517E+02, 5.323E-01, 7.612E+02, 0.000E+00
 4.100E+02, 4.871E+02, 9.943E-01, 6.517E+02, 4.517E-01, 7.612E+02, 0.000E+00
 4.200E+02, 4.871E+02, 7.243E-01, 6.517E+02, 3.607E-01, 7.612E+02, 0.000E+00
 4.300E+02, 4.871E+02, 4.543E-01, 6.517E+02, 2.640E-01, 7.612E+02, 0.000E+00
 4.400E+02, 4.871E+02, 1.844E-01, 6.517E+02, 1.673E-01, 7.612E+02, 0.000E+00
 4.500E+02, 4.871E+02, 4.683E-02, 6.517E+02, 7.040E-02, 7.612E+02, 0.000E+00
 4.600E+02, 4.871E+02, 3.683E-02, 6.517E+02, 2.482E-03, 7.612E+02, 0.000E+00
 4.700E+02, 4.871E+02, 2.684E-02, 6.517E+02, 0.000E+00, 7.612E+02, 0.000E+00
 4.800E+02, 4.871E+02, 1.684E-02, 6.517E+02, 0.000E+00, 7.612E+02, 0.000E+00
 4.900E+02, 4.871E+02, 6.847E-03, 6.517E+02, 0.000E+00, 7.612E+02, 0.000E+00
 5.000E+02, 4.871E+02, 1.714E-04, 6.517E+02, 0.000E+00, 7.612E+02, 0.000E+00
 5.100E+02, 4.871E+02, 0.000E+00, 6.517E+02, 0.000E+00, 7.612E+02, 0.000E+00
 5.200E+02, 4.871E+02, 0.000E+00, 6.517E+02, 0.000E+00, 7.612E+02, 0.000E+00
 5.300E+02, 4.871E+02, 0.000E+00, 6.517E+02, 0.000E+00, 7.612E+02, 0.000E+00
 5.400E+02, 4.871E+02, 0.000E+00, 6.517E+02, 0.000E+00, 7.612E+02, 0.000E+00
 5.500E+02, 4.871E+02, 0.000E+00, 6.517E+02, 0.000E+00, 7.612E+02, 0.000E+00
 5.600E+02, 4.871E+02, 0.000E+00, 6.517E+02, 0.000E+00, 7.612E+02, 0.000E+00
 5.700E+02, 4.871E+02, 0.000E+00, 6.517E+02, 0.000E+00, 7.612E+02, 0.000E+00
 5.800E+02, 4.871E+02, 0.000E+00, 6.517E+02, 0.000E+00, 7.612E+02, 0.000E+00
 5.900E+02, 4.871E+02, 0.000E+00, 6.517E+02, 0.000E+00, 7.612E+02, 0.000E+00
 6.000E+02, 4.871E+02, 0.000E+00, 6.517E+02, 0.000E+00, 7.612E+02, 0.000E+00
 6.044E+02, 4.871E+02, 0.000E+00, 6.517E+02, 0.000E+00, 7.612E+02, 0.000E+00
