s,C,kW/m2,C,kW/m2,C,kW/m2
Time,"WALL TEMPERATURE-CONE_9p20_025","HRRPUA-CONE_9p20_025","WALL TEMPERATURE-CONE_9p20_050","HRRPUA-CONE_9p20_050","WALL TEMPERATURE-CONE_9p20_070","HRRPUA-CONE_9p20_070"
 0.000E+00, 2.700E+01, 0.000E+00, 2.700E+01, 0.000E+00, 2.700E+01, 0.000E+00
 1.000E+01, 1.302E+02, 0.000E+00, 2.286E+02, 0.000E+00, 3.026E+02, 0.000E+00
 2.000E+01, 2.209E+02, 0.000E+00, 3.875E+02, 0.000E+00, 4.987E+02, 1.101E+02
 3.000E+01, 2.649E+02, 0.000E+00, 4.500E+02, 3.791E+01, 5.635E+02, 5.172E+02
 4.000E+01, 2.944E+02, 0.000E+00, 4.861E+02, 2.050E+02, 5.980E+02, 6.933E+02
 5.000E+01, 3.160E+02, 0.000E+00, 5.097E+02, 4.189E+02, 6.195E+02, 7.609E+02
 6.000E+01, 3.327E+02, 0.000E+00, 5.267E+02, 5.494E+02, 6.346E+02, 7.977E+02
 7.000E+01, 3.460E+02, 0.000E+00, 5.395E+02, 6.007E+02, 6.458E+02, 8.171E+02
 8.000E+01, 3.571E+02, 0.000E+00, 5.496E+02, 6.370E+02, 6.546E+02, 8.210E+02
 9.000E+01, 3.663E+02, 0.000E+00, 5.577E+02, 6.597E+02, 6.616E+02, 8.317E+02
 1.000E+02, 3.741E+02, 4.006E+00, 5.645E+02, 6.734E+02, 6.674E+02, 8.514E+02
 1.100E+02, 3.808E+02, 2.272E+01, 5.701E+02, 6.798E+02, 6.722E+02, 8.706E+02
 1.200E+02, 3.866E+02, 9.007E+01, 5.749E+02, 6.880E+02, 6.762E+02, 8.768E+02
 1.300E+02, 3.917E+02, 2.010E+02, 5.790E+02, 6.986E+02, 6.797E+02, 8.770E+02
 1.400E+02, 3.963E+02, 2.812E+02, 5.826E+02, 7.067E+02, 6.827E+02, 8.826E+02
 1.500E+02, 4.003E+02, 3.192E+02, 5.857E+02, 7.147E+02, 6.854E+02, 8.900E+02
 1.600E+02, 4.039E+02, 3.496E+02, 5.885E+02, 7.232E+02, 6.878E+02, 8.973E+02
 1.700E+02, 4.071E+02, 3.691E+02, 5.911E+02, 7.344E+02, 6.899E+02, 9.122E+02
 1.800E+02, 4.101E+02, 3.800E+02, 5.934E+02, 7.459E+02, 6.919E+02, 9.355E+02
 1.900E+02, 4.128E+02, 3.910E+02, 5.955E+02, 7.574E+02, 6.937E+02, 9.596E+02
 2.000E+02, 4.153E+02, 4.009E+02, 5.974E+02, 7.686E+02, 6.953E+02, 9.890E+02
 2.100E+02, 4.176E+02, 4.055E+02, 5.992E+02, 7.741E+02, 6.968E+02, 1.018E+03
 2.200E+02, 4.198E+02, 4.094E+02, 6.008E+02, 7.772E+02, 6.983E+02, 1.032E+03
 2.300E+02, 4.218E+02, 4.104E+02, 6.024E+02, 7.877E+02, 6.996E+02, 1.040E+03
 2.400E+02, 4.237E+02, 4.099E+02, 6.039E+02, 8.023E+02, 7.009E+02, 1.052E+03
 2.500E+02, 4.255E+02, 4.122E+02, 6.053E+02, 8.157E+02, 7.020E+02, 1.097E+03
 2.600E+02, 4.272E+02, 4.174E+02, 6.066E+02, 8.285E+02, 7.032E+02, 1.159E+03
 2.700E+02, 4.288E+02, 4.226E+02, 6.078E+02, 8.430E+02, 7.043E+02, 1.224E+03
 2.800E+02, 4.303E+02, 4.279E+02, 6.090E+02, 8.599E+02, 7.053E+02, 1.307E+03
 2.900E+02, 4.318E+02, 4.331E+02, 6.102E+02, 8.770E+02, 7.063E+02, 1.263E+03
 3.000E+02, 4.332E+02, 4.383E+02, 6.113E+02, 8.907E+02, 7.072E+02, 9.033E+02
 3.100E+02, 4.345E+02, 4.399E+02, 6.123E+02, 9.016E+02, 7.081E+02, 3.433E+02
 3.200E+02, 4.358E+02, 4.398E+02, 6.133E+02, 9.134E+02, 7.090E+02, 6.531E+01
 3.300E+02, 4.371E+02, 4.397E+02, 6.143E+02, 9.356E+02, 7.099E+02, 1.294E+01
 3.400E+02, 4.383E+02, 4.399E+02, 6.153E+02, 9.502E+02, 7.107E+02, 6.117E+00
 3.500E+02, 4.394E+02, 4.416E+02, 6.162E+02, 9.324E+02, 7.115E+02, 5.589E+00
 3.600E+02, 4.405E+02, 4.436E+02, 6.170E+02, 8.832E+02, 7.122E+02, 5.046E+00
 3.700E+02, 4.416E+02, 4.456E+02, 6.179E+02, 7.627E+02, 7.130E+02, 4.327E+00
 3.800E+02, 4.427E+02, 4.475E+02, 6.187E+02, 5.470E+02, 7.137E+02, 3.554E+00
 3.900E+02, 4.437E+02, 4.495E+02, 6.195E+02, 3.372E+02, 7.144E+02, 2.781E+00
 4.000E+02, 4.447E+02, 4.515E+02, 6.203E+02, 1.602E+02, 7.151E+02, 2.008E+00
 4.100E+02, 4.456E+02, 4.549E+02, 6.211E+02, 6.136E+01, 7.158E+02, 1.234E+00
 4.200E+02, 4.466E+02, 4.611E+02, 6.218E+02, 2.994E+01, 7.164E+02, 7.717E-01
 4.300E+02, 4.475E+02, 4.675E+02, 6.225E+02, 1.356E+01, 7.170E+02, 6.117E-01
 4.400E+02, 4.484E+02, 4.739E+02, 6.232E+02, 8.101E+00, 7.176E+02, 4.517E-01
 4.500E+02, 4.492E+02, 4.803E+02, 6.239E+02, 4.707E+00, 7.182E+02, 2.917E-01
 4.600E+02, 4.501E+02, 4.873E+02, 6.246E+02, 3.918E+00, 7.188E+02, 1.317E-01
 4.700E+02, 4.509E+02, 4.957E+02, 6.252E+02, 3.723E+00, 7.194E+02, 8.366E-03
 4.800E+02, 4.517E+02, 5.042E+02, 6.259E+02, 3.529E+00, 7.199E+02, 0.000E+00
 4.900E+02, 4.525E+02, 5.126E+02, 6.265E+02, 3.334E+00, 7.205E+02, 0.000E+00
 5.000E+02, 4.532E+02, 5.201E+02, 6.271E+02, 3.139E+00, 7.210E+02, 0.000E+00
 5.100E+02, 4.540E+02, 5.231E+02, 6.277E+02, 2.943E+00, 7.215E+02, 0.000E+00
 5.200E+02, 4.547E+02, 5.254E+02, 6.282E+02, 2.747E+00, 7.220E+02, 0.000E+00
 5.300E+02, 4.554E+02, 5.278E+02, 6.288E+02, 2.543E+00, 7.225E+02, 0.000E+00
 5.400E+02, 4.561E+02, 5.301E+02, 6.293E+02, 2.313E+00, 7.230E+02, 0.000E+00
 5.500E+02, 4.568E+02, 5.325E+02, 6.299E+02, 2.080E+00, 7.234E+02, 0.000E+00
 5.600E+02, 4.575E+02, 5.388E+02, 6.304E+02, 1.846E+00, 7.239E+02, 0.000E+00
 5.700E+02, 4.581E+02, 5.535E+02, 6.309E+02, 1.612E+00, 7.243E+02, 0.000E+00
 5.800E+02, 4.587E+02, 5.704E+02, 6.314E+02, 1.378E+00, 7.248E+02, 0.000E+00
 5.900E+02, 4.594E+02, 5.884E+02, 6.319E+02, 1.142E+00, 7.252E+02, 0.000E+00
 6.000E+02, 4.600E+02, 6.065E+02, 6.324E+02, 9.068E-01, 7.256E+02, 0.000E+00
 6.100E+02, 4.606E+02, 6.248E+02, 6.328E+02, 6.706E-01, 7.260E+02, 0.000E+00
 6.200E+02, 4.611E+02, 6.488E+02, 6.333E+02, 4.340E-01, 7.264E+02, 0.000E+00
 6.300E+02, 4.617E+02, 6.773E+02, 6.337E+02, 1.969E-01, 7.268E+02, 0.000E+00
 6.400E+02, 4.623E+02, 6.931E+02, 6.342E+02, 7.989E-02, 7.272E+02, 0.000E+00
 6.500E+02, 4.628E+02, 6.702E+02, 6.346E+02, 7.197E-02, 7.275E+02, 0.000E+00
 6.600E+02, 4.633E+02, 5.976E+02, 6.350E+02, 6.406E-02, 7.279E+02, 0.000E+00
 6.700E+02, 4.639E+02, 4.768E+02, 6.354E+02, 5.614E-02, 7.282E+02, 0.000E+00
 6.800E+02, 4.644E+02, 3.126E+02, 6.358E+02, 4.821E-02, 7.286E+02, 0.000E+00
 6.900E+02, 4.649E+02, 1.685E+02, 6.362E+02, 4.029E-02, 7.289E+02, 0.000E+00
 7.000E+02, 4.654E+02, 7.899E+01, 6.366E+02, 3.237E-02, 7.292E+02, 0.000E+00
 7.100E+02, 4.658E+02, 3.580E+01, 6.369E+02, 2.444E-02, 7.296E+02, 0.000E+00
 7.200E+02, 4.663E+02, 1.673E+01, 6.373E+02, 1.651E-02, 7.299E+02, 0.000E+00
 7.300E+02, 4.668E+02, 9.452E+00, 6.376E+02, 8.583E-03, 7.302E+02, 0.000E+00
 7.400E+02, 4.672E+02, 6.093E+00, 6.380E+02, 1.345E-03, 7.305E+02, 0.000E+00
 7.500E+02, 4.677E+02, 2.992E+00, 6.383E+02, 0.000E+00, 7.308E+02, 0.000E+00
 7.600E+02, 4.681E+02, 2.319E+00, 6.386E+02, 0.000E+00, 7.310E+02, 0.000E+00
 7.700E+02, 4.685E+02, 2.249E+00, 6.390E+02, 0.000E+00, 7.313E+02, 0.000E+00
 7.800E+02, 4.689E+02, 2.179E+00, 6.393E+02, 0.000E+00, 7.316E+02, 0.000E+00
 7.900E+02, 4.693E+02, 2.109E+00, 6.396E+02, 0.000E+00, 7.319E+02, 0.000E+00
 8.000E+02, 4.697E+02, 2.038E+00, 6.399E+02, 0.000E+00, 7.321E+02, 0.000E+00
 8.100E+02, 4.701E+02, 1.968E+00, 6.402E+02, 0.000E+00, 7.324E+02, 0.000E+00
 8.200E+02, 4.705E+02, 1.898E+00, 6.405E+02, 0.000E+00, 7.326E+02, 0.000E+00
 8.300E+02, 4.709E+02, 1.826E+00, 6.408E+02, 0.000E+00, 7.329E+02, 0.000E+00
 8.400E+02, 4.712E+02, 1.732E+00, 6.410E+02, 0.000E+00, 7.331E+02, 0.000E+00
 8.500E+02, 4.716E+02, 1.629E+00, 6.413E+02, 0.000E+00, 7.333E+02, 0.000E+00
 8.600E+02, 4.719E+02, 1.527E+00, 6.416E+02, 0.000E+00, 7.336E+02, 0.000E+00
 8.700E+02, 4.723E+02, 1.424E+00, 6.418E+02, 0.000E+00, 7.338E+02, 0.000E+00
 8.800E+02, 4.726E+02, 1.321E+00, 6.421E+02, 0.000E+00, 7.340E+02, 0.000E+00
 8.900E+02, 4.730E+02, 1.219E+00, 6.423E+02, 0.000E+00, 7.342E+02, 0.000E+00
 9.000E+02, 4.733E+02, 1.116E+00, 6.426E+02, 0.000E+00, 7.344E+02, 0.000E+00
 9.100E+02, 4.736E+02, 1.013E+00, 6.428E+02, 0.000E+00, 7.346E+02, 0.000E+00
 9.200E+02, 4.739E+02, 9.104E-01, 6.430E+02, 0.000E+00, 7.348E+02, 0.000E+00
 9.300E+02, 4.742E+02, 8.077E-01, 6.433E+02, 0.000E+00, 7.350E+02, 0.000E+00
 9.400E+02, 4.745E+02, 7.049E-01, 6.435E+02, 0.000E+00, 7.352E+02, 0.000E+00
 9.500E+02, 4.748E+02, 6.022E-01, 6.437E+02, 0.000E+00, 7.354E+02, 0.000E+00
 9.600E+02, 4.751E+02, 4.994E-01, 6.439E+02, 0.000E+00, 7.356E+02, 0.000E+00
 9.700E+02, 4.753E+02, 3.966E-01, 6.441E+02, 0.000E+00, 7.357E+02, 0.000E+00
 9.800E+02, 4.756E+02, 3.119E-01, 6.443E+02, 0.000E+00, 7.359E+02, 0.000E+00
 9.900E+02, 4.759E+02, 2.861E-01, 6.445E+02, 0.000E+00, 7.361E+02, 0.000E+00
 1.000E+03, 4.762E+02, 2.648E-01, 6.447E+02, 0.000E+00, 7.362E+02, 0.000E+00
 1.010E+03, 4.764E+02, 2.436E-01, 6.449E+02, 0.000E+00, 7.364E+02, 0.000E+00
 1.020E+03, 4.767E+02, 2.223E-01, 6.451E+02, 0.000E+00, 7.365E+02, 0.000E+00
 1.030E+03, 4.769E+02, 2.010E-01, 6.452E+02, 0.000E+00, 7.367E+02, 0.000E+00
 1.040E+03, 4.771E+02, 1.798E-01, 6.454E+02, 0.000E+00, 7.369E+02, 0.000E+00
 1.050E+03, 4.774E+02, 1.585E-01, 6.456E+02, 0.000E+00, 7.370E+02, 0.000E+00
 1.060E+03, 4.776E+02, 1.372E-01, 6.458E+02, 0.000E+00, 7.371E+02, 0.000E+00
 1.070E+03, 4.778E+02, 1.160E-01, 6.459E+02, 0.000E+00, 7.373E+02, 0.000E+00
 1.080E+03, 4.781E+02, 9.471E-02, 6.461E+02, 0.000E+00, 7.374E+02, 0.000E+00
 1.090E+03, 4.783E+02, 7.344E-02, 6.462E+02, 0.000E+00, 7.376E+02, 0.000E+00
 1.100E+03, 4.785E+02, 5.217E-02, 6.464E+02, 0.000E+00, 7.377E+02, 0.000E+00
 1.110E+03, 4.787E+02, 3.090E-02, 6.466E+02, 0.000E+00, 7.378E+02, 0.000E+00
 1.120E+03, 4.789E+02, 9.652E-03, 6.467E+02, 0.000E+00, 7.379E+02, 0.000E+00
 1.130E+03, 4.791E+02, 0.000E+00, 6.468E+02, 0.000E+00, 7.381E+02, 0.000E+00
 1.140E+03, 4.793E+02, 0.000E+00, 6.470E+02, 0.000E+00, 7.382E+02, 0.000E+00
 1.150E+03, 4.795E+02, 0.000E+00, 6.471E+02, 0.000E+00, 7.383E+02, 0.000E+00
 1.160E+03, 4.797E+02, 0.000E+00, 6.473E+02, 0.000E+00, 7.384E+02, 0.000E+00
 1.170E+03, 4.799E+02, 0.000E+00, 6.474E+02, 0.000E+00, 7.385E+02, 0.000E+00
 1.180E+03, 4.800E+02, 0.000E+00, 6.475E+02, 0.000E+00, 7.386E+02, 0.000E+00
 1.190E+03, 4.802E+02, 0.000E+00, 6.476E+02, 0.000E+00, 7.387E+02, 0.000E+00
 1.200E+03, 4.804E+02, 0.000E+00, 6.478E+02, 0.000E+00, 7.388E+02, 0.000E+00
 1.210E+03, 4.806E+02, 0.000E+00, 6.479E+02, 0.000E+00, 7.389E+02, 0.000E+00
 1.220E+03, 4.807E+02, 0.000E+00, 6.480E+02, 0.000E+00, 7.390E+02, 0.000E+00
 1.230E+03, 4.809E+02, 0.000E+00, 6.481E+02, 0.000E+00, 7.391E+02, 0.000E+00
 1.240E+03, 4.811E+02, 0.000E+00, 6.482E+02, 0.000E+00, 7.392E+02, 0.000E+00
 1.250E+03, 4.812E+02, 0.000E+00, 6.484E+02, 0.000E+00, 7.393E+02, 0.000E+00
 1.260E+03, 4.814E+02, 0.000E+00, 6.485E+02, 0.000E+00, 7.394E+02, 0.000E+00
 1.270E+03, 4.815E+02, 0.000E+00, 6.486E+02, 0.000E+00, 7.395E+02, 0.000E+00
 1.280E+03, 4.817E+02, 0.000E+00, 6.487E+02, 0.000E+00, 7.396E+02, 0.000E+00
 1.290E+03, 4.818E+02, 0.000E+00, 6.488E+02, 0.000E+00, 7.397E+02, 0.000E+00
 1.300E+03, 4.820E+02, 0.000E+00, 6.489E+02, 0.000E+00, 7.398E+02, 0.000E+00
 1.310E+03, 4.821E+02, 0.000E+00, 6.490E+02, 0.000E+00, 7.398E+02, 0.000E+00
 1.320E+03, 4.822E+02, 0.000E+00, 6.491E+02, 0.000E+00, 7.399E+02, 0.000E+00
 1.330E+03, 4.824E+02, 0.000E+00, 6.492E+02, 0.000E+00, 7.400E+02, 0.000E+00
 1.340E+03, 4.825E+02, 0.000E+00, 6.492E+02, 0.000E+00, 7.401E+02, 0.000E+00
 1.350E+03, 4.826E+02, 0.000E+00, 6.493E+02, 0.000E+00, 7.401E+02, 0.000E+00
 1.360E+03, 4.827E+02, 0.000E+00, 6.494E+02, 0.000E+00, 7.402E+02, 0.000E+00
 1.370E+03, 4.829E+02, 0.000E+00, 6.495E+02, 0.000E+00, 7.403E+02, 0.000E+00
 1.380E+03, 4.830E+02, 0.000E+00, 6.496E+02, 0.000E+00, 7.404E+02, 0.000E+00
 1.390E+03, 4.831E+02, 0.000E+00, 6.497E+02, 0.000E+00, 7.404E+02, 0.000E+00
 1.400E+03, 4.832E+02, 0.000E+00, 6.498E+02, 0.000E+00, 7.405E+02, 0.000E+00
 1.410E+03, 4.833E+02, 0.000E+00, 6.498E+02, 0.000E+00, 7.406E+02, 0.000E+00
 1.420E+03, 4.834E+02, 0.000E+00, 6.499E+02, 0.000E+00, 7.406E+02, 0.000E+00
 1.430E+03, 4.836E+02, 0.000E+00, 6.500E+02, 0.000E+00, 7.407E+02, 0.000E+00
 1.440E+03, 4.837E+02, 0.000E+00, 6.501E+02, 0.000E+00, 7.407E+02, 0.000E+00
 1.450E+03, 4.838E+02, 0.000E+00, 6.501E+02, 0.000E+00, 7.408E+02, 0.000E+00
 1.460E+03, 4.839E+02, 0.000E+00, 6.502E+02, 0.000E+00, 7.409E+02, 0.000E+00
 1.470E+03, 4.840E+02, 0.000E+00, 6.503E+02, 0.000E+00, 7.409E+02, 0.000E+00
 1.480E+03, 4.841E+02, 0.000E+00, 6.503E+02, 0.000E+00, 7.410E+02, 0.000E+00
 1.490E+03, 4.842E+02, 0.000E+00, 6.504E+02, 0.000E+00, 7.410E+02, 0.000E+00
 1.500E+03, 4.843E+02, 0.000E+00, 6.505E+02, 0.000E+00, 7.411E+02, 0.000E+00
 1.510E+03, 4.843E+02, 0.000E+00, 6.505E+02, 0.000E+00, 7.411E+02, 0.000E+00
 1.520E+03, 4.844E+02, 0.000E+00, 6.506E+02, 0.000E+00, 7.412E+02, 0.000E+00
 1.530E+03, 4.845E+02, 0.000E+00, 6.506E+02, 0.000E+00, 7.412E+02, 0.000E+00
 1.540E+03, 4.846E+02, 0.000E+00, 6.507E+02, 0.000E+00, 7.413E+02, 0.000E+00
 1.550E+03, 4.847E+02, 0.000E+00, 6.508E+02, 0.000E+00, 7.413E+02, 0.000E+00
 1.560E+03, 4.848E+02, 0.000E+00, 6.508E+02, 0.000E+00, 7.414E+02, 0.000E+00
