s,C,kW/m2,C,kW/m2,C,kW/m2
Time,"WALL TEMPERATURE-CONE_3p27_025","HRRPUA-CONE_3p27_025","WALL TEMPERATURE-CONE_3p27_050","HRRPUA-CONE_3p27_050","WALL TEMPERATURE-CONE_3p27_075","HRRPUA-CONE_3p27_075"
 0.000E+00, 2.700E+01, 0.000E+00, 2.700E+01, 0.000E+00, 2.700E+01, 0.000E+00
 1.000E+01, 1.325E+02, 0.000E+00, 2.327E+02, 0.000E+00, 3.259E+02, 0.000E+00
 2.000E+01, 2.329E+02, 0.000E+00, 4.071E+02, 0.000E+00, 5.472E+02, 0.000E+00
 3.000E+01, 2.951E+02, 0.000E+00, 4.938E+02, 0.000E+00, 6.360E+02, 5.142E+01
 4.000E+01, 3.414E+02, 0.000E+00, 5.467E+02, 0.000E+00, 6.832E+02, 1.636E+02
 5.000E+01, 3.757E+02, 0.000E+00, 5.795E+02, 1.824E+00, 7.098E+02, 1.512E+02
 6.000E+01, 4.012E+02, 0.000E+00, 6.003E+02, 5.869E+01, 7.255E+02, 1.559E+02
 7.000E+01, 4.201E+02, 0.000E+00, 6.139E+02, 1.305E+02, 7.352E+02, 1.697E+02
 8.000E+01, 4.341E+02, 0.000E+00, 6.230E+02, 1.368E+02, 7.415E+02, 1.896E+02
 9.000E+01, 4.446E+02, 0.000E+00, 6.292E+02, 1.216E+02, 7.456E+02, 2.134E+02
 1.000E+02, 4.525E+02, 0.000E+00, 6.335E+02, 1.151E+02, 7.484E+02, 2.294E+02
 1.100E+02, 4.585E+02, 0.000E+00, 6.365E+02, 1.093E+02, 7.502E+02, 2.371E+02
 1.200E+02, 4.630E+02, 0.000E+00, 6.386E+02, 1.098E+02, 7.515E+02, 2.362E+02
 1.300E+02, 4.664E+02, 0.000E+00, 6.402E+02, 1.165E+02, 7.524E+02, 2.397E+02
 1.400E+02, 4.690E+02, 0.000E+00, 6.412E+02, 1.201E+02, 7.531E+02, 2.396E+02
 1.500E+02, 4.710E+02, 0.000E+00, 6.420E+02, 1.224E+02, 7.535E+02, 2.388E+02
 1.600E+02, 4.725E+02, 0.000E+00, 6.425E+02, 1.210E+02, 7.538E+02, 2.395E+02
 1.700E+02, 4.737E+02, 0.000E+00, 6.429E+02, 1.198E+02, 7.540E+02, 2.403E+02
 1.800E+02, 4.746E+02, 0.000E+00, 6.432E+02, 1.208E+02, 7.541E+02, 2.414E+02
 1.900E+02, 4.752E+02, 0.000E+00, 6.434E+02, 1.236E+02, 7.542E+02, 2.428E+02
 2.000E+02, 4.757E+02, 0.000E+00, 6.436E+02, 1.263E+02, 7.543E+02, 2.435E+02
 2.100E+02, 4.761E+02, 0.000E+00, 6.437E+02, 1.264E+02, 7.543E+02, 2.392E+02
 2.200E+02, 4.764E+02, 0.000E+00, 6.437E+02, 1.267E+02, 7.544E+02, 2.410E+02
 2.300E+02, 4.767E+02, 0.000E+00, 6.438E+02, 1.257E+02, 7.544E+02, 2.458E+02
 2.400E+02, 4.768E+02, 0.000E+00, 6.438E+02, 1.186E+02, 7.544E+02, 2.240E+02
 2.500E+02, 4.770E+02, 0.000E+00, 6.438E+02, 1.080E+02, 7.544E+02, 1.732E+02
 2.600E+02, 4.771E+02, 0.000E+00, 6.439E+02, 9.872E+01, 7.544E+02, 1.477E+02
 2.700E+02, 4.771E+02, 0.000E+00, 6.439E+02, 9.304E+01, 7.544E+02, 1.152E+02
 2.800E+02, 4.772E+02, 0.000E+00, 6.439E+02, 8.853E+01, 7.544E+02, 1.573E+01
 2.900E+02, 4.772E+02, 0.000E+00, 6.439E+02, 8.232E+01, 7.544E+02, 0.000E+00
 3.000E+02, 4.773E+02, 0.000E+00, 6.439E+02, 7.626E+01, 7.544E+02, 0.000E+00
 3.100E+02, 4.773E+02, 0.000E+00, 6.439E+02, 7.379E+01, 7.544E+02, 0.000E+00
 3.200E+02, 4.773E+02, 0.000E+00, 6.439E+02, 7.101E+01, 7.544E+02, 0.000E+00
 3.300E+02, 4.773E+02, 0.000E+00, 6.439E+02, 6.746E+01, 7.544E+02, 0.000E+00
 3.400E+02, 4.774E+02, 0.000E+00, 6.439E+02, 6.634E+01, 7.544E+02, 0.000E+00
 3.500E+02, 4.774E+02, 0.000E+00, 6.439E+02, 6.565E+01, 7.544E+02, 0.000E+00
 3.600E+02, 4.774E+02, 6.211E-01, 6.439E+02, 6.452E+01, 7.545E+02, 0.000E+00
 3.700E+02, 4.774E+02, 1.053E+01, 6.439E+02, 6.366E+01, 7.545E+02, 0.000E+00
 3.800E+02, 4.774E+02, 2.953E+01, 6.439E+02, 6.284E+01, 7.545E+02, 0.000E+00
 3.900E+02, 4.774E+02, 4.933E+01, 6.439E+02, 6.223E+01, 7.545E+02, 0.000E+00
 4.000E+02, 4.774E+02, 6.189E+01, 6.439E+02, 6.487E+01, 7.545E+02, 0.000E+00
 4.100E+02, 4.774E+02, 6.332E+01, 6.439E+02, 6.396E+01, 7.545E+02, 0.000E+00
 4.200E+02, 4.774E+02, 5.768E+01, 6.439E+02, 5.551E+01, 7.545E+02, 0.000E+00
 4.300E+02, 4.774E+02, 5.270E+01, 6.439E+02, 5.483E+01, 7.545E+02, 0.000E+00
 4.400E+02, 4.774E+02, 5.203E+01, 6.439E+02, 5.193E+01, 7.545E+02, 0.000E+00
 4.500E+02, 4.774E+02, 5.415E+01, 6.439E+02, 4.717E+01, 7.545E+02, 0.000E+00
 4.600E+02, 4.774E+02, 5.722E+01, 6.439E+02, 4.353E+01, 7.545E+02, 0.000E+00
 4.700E+02, 4.774E+02, 6.011E+01, 6.439E+02, 4.163E+01, 7.545E+02, 0.000E+00
 4.800E+02, 4.774E+02, 6.138E+01, 6.439E+02, 3.953E+01, 7.545E+02, 0.000E+00
 4.900E+02, 4.774E+02, 6.250E+01, 6.439E+02, 3.253E+01, 7.545E+02, 0.000E+00
 5.000E+02, 4.774E+02, 6.585E+01, 6.439E+02, 1.190E+01, 7.545E+02, 0.000E+00
 5.100E+02, 4.774E+02, 6.994E+01, 6.439E+02, 1.977E-01, 7.545E+02, 0.000E+00
 5.200E+02, 4.774E+02, 7.414E+01, 6.439E+02, 0.000E+00, 7.545E+02, 0.000E+00
 5.300E+02, 4.774E+02, 7.846E+01, 6.439E+02, 0.000E+00, 7.545E+02, 0.000E+00
 5.400E+02, 4.774E+02, 8.266E+01, 6.439E+02, 0.000E+00, 7.545E+02, 0.000E+00
 5.500E+02, 4.774E+02, 8.581E+01, 6.439E+02, 0.000E+00, 7.545E+02, 0.000E+00
 5.600E+02, 4.774E+02, 8.883E+01, 6.439E+02, 0.000E+00, 7.545E+02, 0.000E+00
 5.700E+02, 4.774E+02, 9.132E+01, 6.439E+02, 0.000E+00, 7.545E+02, 0.000E+00
 5.800E+02, 4.774E+02, 9.351E+01, 6.439E+02, 0.000E+00, 7.545E+02, 0.000E+00
 5.900E+02, 4.774E+02, 9.421E+01, 6.439E+02, 0.000E+00, 7.545E+02, 0.000E+00
 6.000E+02, 4.774E+02, 9.312E+01, 6.439E+02, 0.000E+00, 7.545E+02, 0.000E+00
 6.100E+02, 4.774E+02, 9.293E+01, 6.439E+02, 0.000E+00, 7.545E+02, 0.000E+00
 6.200E+02, 4.774E+02, 9.366E+01, 6.439E+02, 0.000E+00, 7.545E+02, 0.000E+00
 6.300E+02, 4.774E+02, 9.441E+01, 6.439E+02, 0.000E+00, 7.545E+02, 0.000E+00
 6.400E+02, 4.774E+02, 9.517E+01, 6.439E+02, 0.000E+00, 7.545E+02, 0.000E+00
 6.500E+02, 4.774E+02, 9.578E+01, 6.439E+02, 0.000E+00, 7.545E+02, 0.000E+00
 6.600E+02, 4.774E+02, 9.540E+01, 6.439E+02, 0.000E+00, 7.545E+02, 0.000E+00
 6.700E+02, 4.774E+02, 9.479E+01, 6.439E+02, 0.000E+00, 7.545E+02, 0.000E+00
 6.800E+02, 4.774E+02, 9.447E+01, 6.439E+02, 0.000E+00, 7.545E+02, 0.000E+00
 6.900E+02, 4.774E+02, 9.461E+01, 6.439E+02, 0.000E+00, 7.545E+02, 0.000E+00
 7.000E+02, 4.774E+02, 9.476E+01, 6.439E+02, 0.000E+00, 7.545E+02, 0.000E+00
 7.100E+02, 4.774E+02, 9.492E+01, 6.439E+02, 0.000E+00, 7.545E+02, 0.000E+00
 7.200E+02, 4.774E+02, 9.508E+01, 6.439E+02, 0.000E+00, 7.545E+02, 0.000E+00
 7.300E+02, 4.774E+02, 9.524E+01, 6.439E+02, 0.000E+00, 7.545E+02, 0.000E+00
 7.400E+02, 4.774E+02, 9.539E+01, 6.439E+02, 0.000E+00, 7.545E+02, 0.000E+00
 7.500E+02, 4.774E+02, 9.557E+01, 6.439E+02, 0.000E+00, 7.545E+02, 0.000E+00
 7.600E+02, 4.774E+02, 9.585E+01, 6.439E+02, 0.000E+00, 7.545E+02, 0.000E+00
 7.700E+02, 4.774E+02, 9.614E+01, 6.439E+02, 0.000E+00, 7.545E+02, 0.000E+00
 7.800E+02, 4.774E+02, 9.642E+01, 6.439E+02, 0.000E+00, 7.545E+02, 0.000E+00
 7.900E+02, 4.774E+02, 9.671E+01, 6.439E+02, 0.000E+00, 7.545E+02, 0.000E+00
 8.000E+02, 4.774E+02, 9.700E+01, 6.439E+02, 0.000E+00, 7.545E+02, 0.000E+00
 8.100E+02, 4.774E+02, 9.729E+01, 6.439E+02, 0.000E+00, 7.545E+02, 0.000E+00
 8.200E+02, 4.774E+02, 9.729E+01, 6.439E+02, 0.000E+00, 7.545E+02, 0.000E+00
 8.300E+02, 4.774E+02, 9.618E+01, 6.439E+02, 0.000E+00, 7.545E+02, 0.000E+00
 8.400E+02, 4.774E+02, 9.494E+01, 6.439E+02, 0.000E+00, 7.545E+02, 0.000E+00
 8.500E+02, 4.774E+02, 9.391E+01, 6.439E+02, 0.000E+00, 7.545E+02, 0.000E+00
 8.600E+02, 4.774E+02, 9.482E+01, 6.439E+02, 0.000E+00, 7.545E+02, 0.000E+00
 8.700E+02, 4.774E+02, 9.630E+01, 6.439E+02, 0.000E+00, 7.545E+02, 0.000E+00
 8.800E+02, 4.774E+02, 9.781E+01, 6.439E+02, 0.000E+00, 7.545E+02, 0.000E+00
 8.900E+02, 4.774E+02, 9.895E+01, 6.439E+02, 0.000E+00, 7.545E+02, 0.000E+00
 9.000E+02, 4.774E+02, 9.786E+01, 6.439E+02, 0.000E+00, 7.545E+02, 0.000E+00
 9.100E+02, 4.774E+02, 9.497E+01, 6.439E+02, 0.000E+00, 7.545E+02, 0.000E+00
 9.200E+02, 4.774E+02, 8.414E+01, 6.439E+02, 0.000E+00, 7.545E+02, 0.000E+00
 9.300E+02, 4.774E+02, 7.150E+01, 6.439E+02, 0.000E+00, 7.545E+02, 0.000E+00
 9.400E+02, 4.774E+02, 6.424E+01, 6.439E+02, 0.000E+00, 7.545E+02, 0.000E+00
 9.500E+02, 4.774E+02, 5.997E+01, 6.439E+02, 0.000E+00, 7.545E+02, 0.000E+00
 9.600E+02, 4.774E+02, 5.635E+01, 6.439E+02, 0.000E+00, 7.545E+02, 0.000E+00
 9.700E+02, 4.774E+02, 5.282E+01, 6.439E+02, 0.000E+00, 7.545E+02, 0.000E+00
 9.800E+02, 4.774E+02, 4.963E+01, 6.439E+02, 0.000E+00, 7.545E+02, 0.000E+00
 9.900E+02, 4.774E+02, 4.547E+01, 6.439E+02, 0.000E+00, 7.545E+02, 0.000E+00
 1.000E+03, 4.774E+02, 4.021E+01, 6.439E+02, 0.000E+00, 7.545E+02, 0.000E+00
 1.010E+03, 4.774E+02, 3.210E+01, 6.439E+02, 0.000E+00, 7.545E+02, 0.000E+00
 1.020E+03, 4.774E+02, 1.254E+01, 6.439E+02, 0.000E+00, 7.545E+02, 0.000E+00
 1.030E+03, 4.774E+02, 3.851E-01, 6.439E+02, 0.000E+00, 7.545E+02, 0.000E+00
 1.040E+03, 4.774E+02, 0.000E+00, 6.439E+02, 0.000E+00, 7.545E+02, 0.000E+00
 1.050E+03, 4.774E+02, 0.000E+00, 6.439E+02, 0.000E+00, 7.545E+02, 0.000E+00
 1.060E+03, 4.774E+02, 0.000E+00, 6.439E+02, 0.000E+00, 7.545E+02, 0.000E+00
 1.070E+03, 4.774E+02, 0.000E+00, 6.439E+02, 0.000E+00, 7.545E+02, 0.000E+00
 1.080E+03, 4.774E+02, 0.000E+00, 6.439E+02, 0.000E+00, 7.545E+02, 0.000E+00
 1.090E+03, 4.774E+02, 0.000E+00, 6.439E+02, 0.000E+00, 7.545E+02, 0.000E+00
 1.100E+03, 4.774E+02, 0.000E+00, 6.439E+02, 0.000E+00, 7.545E+02, 0.000E+00
 1.110E+03, 4.774E+02, 0.000E+00, 6.439E+02, 0.000E+00, 7.545E+02, 0.000E+00
 1.120E+03, 4.774E+02, 0.000E+00, 6.439E+02, 0.000E+00, 7.545E+02, 0.000E+00
 1.130E+03, 4.774E+02, 0.000E+00, 6.439E+02, 0.000E+00, 7.545E+02, 0.000E+00
 1.140E+03, 4.774E+02, 0.000E+00, 6.439E+02, 0.000E+00, 7.545E+02, 0.000E+00
 1.150E+03, 4.774E+02, 0.000E+00, 6.439E+02, 0.000E+00, 7.545E+02, 0.000E+00
 1.160E+03, 4.774E+02, 0.000E+00, 6.439E+02, 0.000E+00, 7.545E+02, 0.000E+00
 1.170E+03, 4.774E+02, 0.000E+00, 6.439E+02, 0.000E+00, 7.545E+02, 0.000E+00
 1.180E+03, 4.774E+02, 0.000E+00, 6.439E+02, 0.000E+00, 7.545E+02, 0.000E+00
 1.190E+03, 4.774E+02, 0.000E+00, 6.439E+02, 0.000E+00, 7.545E+02, 0.000E+00
 1.200E+03, 4.774E+02, 0.000E+00, 6.439E+02, 0.000E+00, 7.545E+02, 0.000E+00
 1.210E+03, 4.774E+02, 0.000E+00, 6.439E+02, 0.000E+00, 7.545E+02, 0.000E+00
 1.220E+03, 4.774E+02, 0.000E+00, 6.439E+02, 0.000E+00, 7.545E+02, 0.000E+00
 1.230E+03, 4.774E+02, 0.000E+00, 6.439E+02, 0.000E+00, 7.545E+02, 0.000E+00
 1.240E+03, 4.774E+02, 0.000E+00, 6.439E+02, 0.000E+00, 7.545E+02, 0.000E+00
 1.250E+03, 4.774E+02, 0.000E+00, 6.439E+02, 0.000E+00, 7.545E+02, 0.000E+00
 1.260E+03, 4.774E+02, 0.000E+00, 6.439E+02, 0.000E+00, 7.545E+02, 0.000E+00
 1.270E+03, 4.774E+02, 0.000E+00, 6.439E+02, 0.000E+00, 7.545E+02, 0.000E+00
 1.280E+03, 4.774E+02, 0.000E+00, 6.439E+02, 0.000E+00, 7.545E+02, 0.000E+00
 1.290E+03, 4.774E+02, 0.000E+00, 6.439E+02, 0.000E+00, 7.545E+02, 0.000E+00
 1.300E+03, 4.774E+02, 0.000E+00, 6.439E+02, 0.000E+00, 7.545E+02, 0.000E+00
 1.310E+03, 4.774E+02, 0.000E+00, 6.439E+02, 0.000E+00, 7.545E+02, 0.000E+00
 1.320E+03, 4.774E+02, 0.000E+00, 6.439E+02, 0.000E+00, 7.545E+02, 0.000E+00
 1.330E+03, 4.774E+02, 0.000E+00, 6.439E+02, 0.000E+00, 7.545E+02, 0.000E+00
 1.340E+03, 4.774E+02, 0.000E+00, 6.439E+02, 0.000E+00, 7.545E+02, 0.000E+00
 1.350E+03, 4.774E+02, 0.000E+00, 6.439E+02, 0.000E+00, 7.545E+02, 0.000E+00
 1.360E+03, 4.774E+02, 0.000E+00, 6.439E+02, 0.000E+00, 7.545E+02, 0.000E+00
 1.370E+03, 4.774E+02, 0.000E+00, 6.439E+02, 0.000E+00, 7.545E+02, 0.000E+00
 1.380E+03, 4.774E+02, 0.000E+00, 6.439E+02, 0.000E+00, 7.545E+02, 0.000E+00
 1.390E+03, 4.774E+02, 0.000E+00, 6.439E+02, 0.000E+00, 7.545E+02, 0.000E+00
 1.400E+03, 4.774E+02, 0.000E+00, 6.439E+02, 0.000E+00, 7.545E+02, 0.000E+00
 1.410E+03, 4.774E+02, 0.000E+00, 6.439E+02, 0.000E+00, 7.545E+02, 0.000E+00
 1.420E+03, 4.774E+02, 0.000E+00, 6.439E+02, 0.000E+00, 7.545E+02, 0.000E+00
 1.430E+03, 4.774E+02, 0.000E+00, 6.439E+02, 0.000E+00, 7.545E+02, 0.000E+00
 1.440E+03, 4.774E+02, 0.000E+00, 6.439E+02, 0.000E+00, 7.545E+02, 0.000E+00
 1.450E+03, 4.774E+02, 0.000E+00, 6.439E+02, 0.000E+00, 7.545E+02, 0.000E+00
 1.460E+03, 4.774E+02, 0.000E+00, 6.439E+02, 0.000E+00, 7.545E+02, 0.000E+00
 1.470E+03, 4.774E+02, 0.000E+00, 6.439E+02, 0.000E+00, 7.545E+02, 0.000E+00
 1.480E+03, 4.774E+02, 0.000E+00, 6.439E+02, 0.000E+00, 7.545E+02, 0.000E+00
 1.490E+03, 4.774E+02, 0.000E+00, 6.439E+02, 0.000E+00, 7.545E+02, 0.000E+00
 1.500E+03, 4.774E+02, 0.000E+00, 6.439E+02, 0.000E+00, 7.545E+02, 0.000E+00
 1.510E+03, 4.774E+02, 0.000E+00, 6.439E+02, 0.000E+00, 7.545E+02, 0.000E+00
 1.520E+03, 4.774E+02, 0.000E+00, 6.439E+02, 0.000E+00, 7.545E+02, 0.000E+00
 1.530E+03, 4.774E+02, 0.000E+00, 6.439E+02, 0.000E+00, 7.545E+02, 0.000E+00
 1.540E+03, 4.774E+02, 0.000E+00, 6.439E+02, 0.000E+00, 7.545E+02, 0.000E+00
 1.550E+03, 4.774E+02, 0.000E+00, 6.439E+02, 0.000E+00, 7.545E+02, 0.000E+00
 1.560E+03, 4.774E+02, 0.000E+00, 6.439E+02, 0.000E+00, 7.545E+02, 0.000E+00
 1.570E+03, 4.774E+02, 0.000E+00, 6.439E+02, 0.000E+00, 7.545E+02, 0.000E+00
 1.580E+03, 4.774E+02, 0.000E+00, 6.439E+02, 0.000E+00, 7.545E+02, 0.000E+00
 1.590E+03, 4.774E+02, 0.000E+00, 6.439E+02, 0.000E+00, 7.545E+02, 0.000E+00
 1.600E+03, 4.774E+02, 0.000E+00, 6.439E+02, 0.000E+00, 7.545E+02, 0.000E+00
 1.610E+03, 4.774E+02, 0.000E+00, 6.439E+02, 0.000E+00, 7.545E+02, 0.000E+00
 1.620E+03, 4.774E+02, 0.000E+00, 6.439E+02, 0.000E+00, 7.545E+02, 0.000E+00
 1.630E+03, 4.774E+02, 0.000E+00, 6.439E+02, 0.000E+00, 7.545E+02, 0.000E+00
 1.640E+03, 4.774E+02, 0.000E+00, 6.439E+02, 0.000E+00, 7.545E+02, 0.000E+00
 1.650E+03, 4.774E+02, 0.000E+00, 6.439E+02, 0.000E+00, 7.545E+02, 0.000E+00
 1.660E+03, 4.774E+02, 0.000E+00, 6.439E+02, 0.000E+00, 7.545E+02, 0.000E+00
 1.670E+03, 4.774E+02, 0.000E+00, 6.439E+02, 0.000E+00, 7.545E+02, 0.000E+00
 1.680E+03, 4.774E+02, 0.000E+00, 6.439E+02, 0.000E+00, 7.545E+02, 0.000E+00
 1.690E+03, 4.774E+02, 0.000E+00, 6.439E+02, 0.000E+00, 7.545E+02, 0.000E+00
 1.700E+03, 4.774E+02, 0.000E+00, 6.439E+02, 0.000E+00, 7.545E+02, 0.000E+00
 1.710E+03, 4.774E+02, 0.000E+00, 6.439E+02, 0.000E+00, 7.545E+02, 0.000E+00
 1.720E+03, 4.774E+02, 0.000E+00, 6.439E+02, 0.000E+00, 7.545E+02, 0.000E+00
 1.730E+03, 4.774E+02, 0.000E+00, 6.439E+02, 0.000E+00, 7.545E+02, 0.000E+00
 1.740E+03, 4.774E+02, 0.000E+00, 6.439E+02, 0.000E+00, 7.545E+02, 0.000E+00
 1.750E+03, 4.774E+02, 0.000E+00, 6.439E+02, 0.000E+00, 7.545E+02, 0.000E+00
 1.760E+03, 4.774E+02, 0.000E+00, 6.439E+02, 0.000E+00, 7.545E+02, 0.000E+00
 1.770E+03, 4.774E+02, 0.000E+00, 6.439E+02, 0.000E+00, 7.545E+02, 0.000E+00
 1.780E+03, 4.774E+02, 0.000E+00, 6.439E+02, 0.000E+00, 7.545E+02, 0.000E+00
 1.790E+03, 4.774E+02, 0.000E+00, 6.439E+02, 0.000E+00, 7.545E+02, 0.000E+00
 1.800E+03, 4.774E+02, 0.000E+00, 6.439E+02, 0.000E+00, 7.545E+02, 0.000E+00
 1.810E+03, 4.774E+02, 0.000E+00, 6.439E+02, 0.000E+00, 7.545E+02, 0.000E+00
 1.820E+03, 4.774E+02, 0.000E+00, 6.439E+02, 0.000E+00, 7.545E+02, 0.000E+00
 1.830E+03, 4.774E+02, 0.000E+00, 6.439E+02, 0.000E+00, 7.545E+02, 0.000E+00
 1.840E+03, 4.774E+02, 0.000E+00, 6.439E+02, 0.000E+00, 7.545E+02, 0.000E+00
 1.850E+03, 4.774E+02, 0.000E+00, 6.439E+02, 0.000E+00, 7.545E+02, 0.000E+00
 1.860E+03, 4.774E+02, 0.000E+00, 6.439E+02, 0.000E+00, 7.545E+02, 0.000E+00
 1.870E+03, 4.774E+02, 0.000E+00, 6.439E+02, 0.000E+00, 7.545E+02, 0.000E+00
 1.880E+03, 4.774E+02, 0.000E+00, 6.439E+02, 0.000E+00, 7.545E+02, 0.000E+00
 1.890E+03, 4.774E+02, 0.000E+00, 6.439E+02, 0.000E+00, 7.545E+02, 0.000E+00
 1.900E+03, 4.774E+02, 0.000E+00, 6.439E+02, 0.000E+00, 7.545E+02, 0.000E+00
 1.910E+03, 4.774E+02, 0.000E+00, 6.439E+02, 0.000E+00, 7.545E+02, 0.000E+00
 1.920E+03, 4.774E+02, 0.000E+00, 6.439E+02, 0.000E+00, 7.545E+02, 0.000E+00
 1.930E+03, 4.774E+02, 0.000E+00, 6.439E+02, 0.000E+00, 7.545E+02, 0.000E+00
 1.940E+03, 4.774E+02, 0.000E+00, 6.439E+02, 0.000E+00, 7.545E+02, 0.000E+00
 1.950E+03, 4.774E+02, 0.000E+00, 6.439E+02, 0.000E+00, 7.545E+02, 0.000E+00
 1.960E+03, 4.774E+02, 0.000E+00, 6.439E+02, 0.000E+00, 7.545E+02, 0.000E+00
 1.970E+03, 4.774E+02, 0.000E+00, 6.439E+02, 0.000E+00, 7.545E+02, 0.000E+00
 1.980E+03, 4.774E+02, 0.000E+00, 6.439E+02, 0.000E+00, 7.545E+02, 0.000E+00
 1.990E+03, 4.774E+02, 0.000E+00, 6.439E+02, 0.000E+00, 7.545E+02, 0.000E+00
 2.000E+03, 4.774E+02, 0.000E+00, 6.439E+02, 0.000E+00, 7.545E+02, 0.000E+00
 2.010E+03, 4.774E+02, 0.000E+00, 6.439E+02, 0.000E+00, 7.545E+02, 0.000E+00
 2.020E+03, 4.774E+02, 0.000E+00, 6.439E+02, 0.000E+00, 7.545E+02, 0.000E+00
 2.030E+03, 4.774E+02, 0.000E+00, 6.439E+02, 0.000E+00, 7.545E+02, 0.000E+00
 2.040E+03, 4.774E+02, 0.000E+00, 6.439E+02, 0.000E+00, 7.545E+02, 0.000E+00
 2.050E+03, 4.774E+02, 0.000E+00, 6.439E+02, 0.000E+00, 7.545E+02, 0.000E+00
 2.060E+03, 4.774E+02, 0.000E+00, 6.439E+02, 0.000E+00, 7.545E+02, 0.000E+00
 2.070E+03, 4.774E+02, 0.000E+00, 6.439E+02, 0.000E+00, 7.545E+02, 0.000E+00
 2.080E+03, 4.774E+02, 0.000E+00, 6.439E+02, 0.000E+00, 7.545E+02, 0.000E+00
 2.090E+03, 4.774E+02, 0.000E+00, 6.439E+02, 0.000E+00, 7.545E+02, 0.000E+00
 2.100E+03, 4.774E+02, 0.000E+00, 6.439E+02, 0.000E+00, 7.545E+02, 0.000E+00
 2.110E+03, 4.774E+02, 0.000E+00, 6.439E+02, 0.000E+00, 7.545E+02, 0.000E+00
 2.120E+03, 4.774E+02, 0.000E+00, 6.439E+02, 0.000E+00, 7.545E+02, 0.000E+00
 2.130E+03, 4.774E+02, 0.000E+00, 6.439E+02, 0.000E+00, 7.545E+02, 0.000E+00
 2.140E+03, 4.774E+02, 0.000E+00, 6.439E+02, 0.000E+00, 7.545E+02, 0.000E+00
 2.150E+03, 4.774E+02, 0.000E+00, 6.439E+02, 0.000E+00, 7.545E+02, 0.000E+00
 2.160E+03, 4.774E+02, 0.000E+00, 6.439E+02, 0.000E+00, 7.545E+02, 0.000E+00
 2.170E+03, 4.774E+02, 0.000E+00, 6.439E+02, 0.000E+00, 7.545E+02, 0.000E+00
 2.180E+03, 4.774E+02, 0.000E+00, 6.439E+02, 0.000E+00, 7.545E+02, 0.000E+00
 2.190E+03, 4.774E+02, 0.000E+00, 6.439E+02, 0.000E+00, 7.545E+02, 0.000E+00
 2.200E+03, 4.774E+02, 0.000E+00, 6.439E+02, 0.000E+00, 7.545E+02, 0.000E+00
 2.205E+03, 4.774E+02, 0.000E+00, 6.439E+02, 0.000E+00, 7.545E+02, 0.000E+00
