s,C,kW/m2,C,kW/m2,C,kW/m2
Time,WALL TEMPERATURE-CONE_9p40_035,HRRPUA-CONE_9p40_035,WALL TEMPERATURE-CONE_9p40_050,HRRPUA-CONE_9p40_050,WALL TEMPERATURE-CONE_9p40_075,HRRPUA-CONE_9p40_075
 0.000E+00, 2.700E+01, 0.000E+00, 2.700E+01, 0.000E+00, 2.700E+01, 0.000E+00
 1.000E+01, 1.773E+02, 0.000E+00, 2.374E+02, 0.000E+00, 3.306E+02, 7.793E-01
 2.000E+01, 3.021E+02, 0.000E+00, 4.000E+02, 6.009E+00, 5.364E+02, 3.892E+01
 3.000E+01, 3.552E+02, 6.944E-01, 4.602E+02, 5.057E+01, 5.975E+02, 2.077E+02
 4.000E+01, 3.898E+02, 7.992E+00, 4.966E+02, 1.477E+02, 6.315E+02, 2.409E+02
 5.000E+01, 4.158E+02, 2.618E+01, 5.226E+02, 1.789E+02, 6.551E+02, 2.193E+02
 6.000E+01, 4.367E+02, 6.995E+01, 5.429E+02, 1.884E+02, 6.730E+02, 2.018E+02
 7.000E+01, 4.540E+02, 1.296E+02, 5.593E+02, 1.725E+02, 6.873E+02, 1.843E+02
 8.000E+01, 4.686E+02, 1.302E+02, 5.728E+02, 1.576E+02, 6.990E+02, 1.692E+02
 9.000E+01, 4.810E+02, 1.201E+02, 5.842E+02, 1.438E+02, 7.086E+02, 1.578E+02
 1.000E+02, 4.918E+02, 1.125E+02, 5.938E+02, 1.344E+02, 7.167E+02, 1.509E+02
 1.100E+02, 5.010E+02, 1.070E+02, 6.020E+02, 1.281E+02, 7.235E+02, 1.483E+02
 1.200E+02, 5.090E+02, 1.014E+02, 6.089E+02, 1.221E+02, 7.292E+02, 1.497E+02
 1.300E+02, 5.160E+02, 9.582E+01, 6.149E+02, 1.173E+02, 7.340E+02, 1.528E+02
 1.400E+02, 5.221E+02, 9.111E+01, 6.200E+02, 1.142E+02, 7.381E+02, 1.559E+02
 1.500E+02, 5.273E+02, 8.755E+01, 6.244E+02, 1.125E+02, 7.416E+02, 1.590E+02
 1.600E+02, 5.320E+02, 8.399E+01, 6.282E+02, 1.122E+02, 7.445E+02, 1.622E+02
 1.700E+02, 5.360E+02, 8.043E+01, 6.315E+02, 1.119E+02, 7.470E+02, 1.670E+02
 1.800E+02, 5.395E+02, 7.732E+01, 6.343E+02, 1.126E+02, 7.492E+02, 1.733E+02
 1.900E+02, 5.426E+02, 7.557E+01, 6.368E+02, 1.137E+02, 7.510E+02, 1.796E+02
 2.000E+02, 5.453E+02, 7.393E+01, 6.389E+02, 1.157E+02, 7.526E+02, 1.859E+02
 2.100E+02, 5.476E+02, 7.229E+01, 6.407E+02, 1.178E+02, 7.539E+02, 1.922E+02
 2.200E+02, 5.497E+02, 7.146E+01, 6.423E+02, 1.200E+02, 7.551E+02, 1.993E+02
 2.300E+02, 5.515E+02, 7.135E+01, 6.436E+02, 1.222E+02, 7.560E+02, 2.059E+02
 2.400E+02, 5.531E+02, 7.140E+01, 6.448E+02, 1.244E+02, 7.569E+02, 2.119E+02
 2.500E+02, 5.545E+02, 7.207E+01, 6.458E+02, 1.267E+02, 7.576E+02, 2.171E+02
 2.600E+02, 5.557E+02, 7.280E+01, 6.467E+02, 1.292E+02, 7.582E+02, 2.156E+02
 2.700E+02, 5.568E+02, 7.353E+01, 6.475E+02, 1.320E+02, 7.587E+02, 2.034E+02
 2.800E+02, 5.577E+02, 7.427E+01, 6.481E+02, 1.350E+02, 7.591E+02, 1.812E+02
 2.900E+02, 5.585E+02, 7.500E+01, 6.487E+02, 1.379E+02, 7.595E+02, 1.510E+02
 3.000E+02, 5.592E+02, 7.573E+01, 6.492E+02, 1.409E+02, 7.598E+02, 1.232E+02
 3.100E+02, 5.598E+02, 7.646E+01, 6.496E+02, 1.442E+02, 7.601E+02, 1.108E+02
 3.200E+02, 5.604E+02, 7.719E+01, 6.500E+02, 1.469E+02, 7.603E+02, 1.099E+02
 3.300E+02, 5.609E+02, 7.792E+01, 6.503E+02, 1.473E+02, 7.605E+02, 1.174E+02
 3.400E+02, 5.613E+02, 7.869E+01, 6.506E+02, 1.459E+02, 7.607E+02, 1.290E+02
 3.500E+02, 5.617E+02, 7.998E+01, 6.508E+02, 1.427E+02, 7.609E+02, 1.407E+02
 3.600E+02, 5.620E+02, 8.147E+01, 6.510E+02, 1.390E+02, 7.610E+02, 1.479E+02
 3.700E+02, 5.623E+02, 8.296E+01, 6.512E+02, 1.349E+02, 7.611E+02, 1.458E+02
 3.800E+02, 5.625E+02, 8.446E+01, 6.514E+02, 1.292E+02, 7.612E+02, 1.340E+02
 3.900E+02, 5.627E+02, 8.595E+01, 6.515E+02, 1.224E+02, 7.613E+02, 1.172E+02
 4.000E+02, 5.629E+02, 8.745E+01, 6.516E+02, 1.145E+02, 7.613E+02, 1.000E+02
 4.100E+02, 5.631E+02, 8.894E+01, 6.517E+02, 1.071E+02, 7.614E+02, 8.286E+01
 4.200E+02, 5.633E+02, 9.044E+01, 6.518E+02, 1.021E+02, 7.614E+02, 6.676E+01
 4.300E+02, 5.634E+02, 9.193E+01, 6.519E+02, 9.997E+01, 7.615E+02, 5.121E+01
 4.400E+02, 5.635E+02, 9.343E+01, 6.519E+02, 9.720E+01, 7.615E+02, 3.874E+01
 4.500E+02, 5.636E+02, 9.511E+01, 6.520E+02, 9.404E+01, 7.615E+02, 3.273E+01
 4.600E+02, 5.637E+02, 9.700E+01, 6.520E+02, 9.068E+01, 7.616E+02, 3.100E+01
 4.700E+02, 5.638E+02, 9.889E+01, 6.521E+02, 8.741E+01, 7.616E+02, 3.077E+01
 4.800E+02, 5.638E+02, 1.008E+02, 6.521E+02, 8.494E+01, 7.616E+02, 3.101E+01
 4.900E+02, 5.639E+02, 1.027E+02, 6.521E+02, 8.305E+01, 7.616E+02, 3.126E+01
 5.000E+02, 5.639E+02, 1.046E+02, 6.522E+02, 8.231E+01, 7.616E+02, 3.151E+01
 5.100E+02, 5.640E+02, 1.065E+02, 6.522E+02, 8.221E+01, 7.616E+02, 1.902E+01
 5.200E+02, 5.640E+02, 1.080E+02, 6.522E+02, 8.176E+01, 7.617E+02, 0.000E+00
 5.300E+02, 5.641E+02, 1.082E+02, 6.522E+02, 8.084E+01, 7.617E+02, 0.000E+00
 5.400E+02, 5.641E+02, 1.066E+02, 6.523E+02, 8.051E+01, 7.617E+02, 0.000E+00
 5.500E+02, 5.641E+02, 1.039E+02, 6.523E+02, 7.998E+01, 7.617E+02, 0.000E+00
 5.600E+02, 5.641E+02, 9.863E+01, 6.523E+02, 7.859E+01, 7.617E+02, 0.000E+00
 5.700E+02, 5.642E+02, 9.314E+01, 6.523E+02, 7.583E+01, 7.617E+02, 0.000E+00
 5.800E+02, 5.642E+02, 8.728E+01, 6.523E+02, 7.236E+01, 7.617E+02, 0.000E+00
 5.900E+02, 5.642E+02, 8.010E+01, 6.523E+02, 6.738E+01, 7.617E+02, 0.000E+00
 6.000E+02, 5.642E+02, 7.279E+01, 6.523E+02, 6.170E+01, 7.617E+02, 0.000E+00
 6.100E+02, 5.642E+02, 6.550E+01, 6.523E+02, 5.602E+01, 7.617E+02, 0.000E+00
 6.200E+02, 5.642E+02, 5.938E+01, 6.523E+02, 5.034E+01, 7.617E+02, 0.000E+00
 6.300E+02, 5.642E+02, 5.537E+01, 6.523E+02, 4.539E+01, 7.617E+02, 0.000E+00
 6.400E+02, 5.642E+02, 5.341E+01, 6.523E+02, 4.090E+01, 7.617E+02, 0.000E+00
 6.500E+02, 5.642E+02, 5.175E+01, 6.523E+02, 3.722E+01, 7.617E+02, 0.000E+00
 6.600E+02, 5.643E+02, 5.225E+01, 6.523E+02, 3.472E+01, 7.617E+02, 0.000E+00
 6.700E+02, 5.643E+02, 5.333E+01, 6.523E+02, 3.226E+01, 7.617E+02, 0.000E+00
 6.800E+02, 5.643E+02, 5.515E+01, 6.523E+02, 2.989E+01, 7.617E+02, 0.000E+00
 6.900E+02, 5.643E+02, 5.786E+01, 6.523E+02, 2.833E+01, 7.617E+02, 0.000E+00
 7.000E+02, 5.643E+02, 6.059E+01, 6.523E+02, 2.681E+01, 7.617E+02, 0.000E+00
 7.100E+02, 5.643E+02, 6.331E+01, 6.523E+02, 2.506E+01, 7.617E+02, 0.000E+00
 7.200E+02, 5.643E+02, 6.604E+01, 6.523E+02, 2.359E+01, 7.617E+02, 0.000E+00
 7.300E+02, 5.643E+02, 6.877E+01, 6.523E+02, 2.339E+01, 7.617E+02, 0.000E+00
 7.400E+02, 5.643E+02, 7.070E+01, 6.523E+02, 2.335E+01, 7.617E+02, 0.000E+00
 7.500E+02, 5.643E+02, 7.133E+01, 6.523E+02, 2.331E+01, 7.617E+02, 0.000E+00
 7.600E+02, 5.643E+02, 7.099E+01, 6.523E+02, 2.328E+01, 7.617E+02, 0.000E+00
 7.700E+02, 5.643E+02, 6.977E+01, 6.523E+02, 1.775E+01, 7.617E+02, 0.000E+00
 7.800E+02, 5.643E+02, 6.721E+01, 6.523E+02, 6.113E+00, 7.617E+02, 0.000E+00
 7.900E+02, 5.643E+02, 6.363E+01, 6.524E+02, 6.048E+00, 7.617E+02, 0.000E+00
 8.000E+02, 5.643E+02, 5.966E+01, 6.524E+02, 5.989E+00, 7.617E+02, 0.000E+00
 8.100E+02, 5.643E+02, 5.570E+01, 6.524E+02, 5.930E+00, 7.617E+02, 0.000E+00
 8.200E+02, 5.643E+02, 5.174E+01, 6.524E+02, 5.871E+00, 7.617E+02, 0.000E+00
 8.300E+02, 5.643E+02, 4.778E+01, 6.524E+02, 5.812E+00, 7.617E+02, 0.000E+00
 8.400E+02, 5.643E+02, 4.383E+01, 6.524E+02, 5.753E+00, 7.617E+02, 0.000E+00
 8.500E+02, 5.643E+02, 3.988E+01, 6.524E+02, 5.694E+00, 7.617E+02, 0.000E+00
 8.600E+02, 5.643E+02, 3.604E+01, 6.524E+02, 5.635E+00, 7.617E+02, 0.000E+00
 8.700E+02, 5.643E+02, 3.249E+01, 6.524E+02, 5.576E+00, 7.617E+02, 0.000E+00
 8.800E+02, 5.643E+02, 2.895E+01, 6.524E+02, 5.530E+00, 7.617E+02, 0.000E+00
 8.900E+02, 5.643E+02, 2.542E+01, 6.524E+02, 5.504E+00, 7.617E+02, 0.000E+00
 9.000E+02, 5.643E+02, 2.189E+01, 6.524E+02, 5.478E+00, 7.617E+02, 0.000E+00
 9.100E+02, 5.643E+02, 1.908E+01, 6.524E+02, 5.452E+00, 7.617E+02, 0.000E+00
 9.200E+02, 5.643E+02, 1.737E+01, 6.524E+02, 5.427E+00, 7.617E+02, 0.000E+00
 9.300E+02, 5.643E+02, 1.581E+01, 6.524E+02, 5.401E+00, 7.617E+02, 0.000E+00
 9.400E+02, 5.643E+02, 1.525E+01, 6.524E+02, 5.375E+00, 7.617E+02, 0.000E+00
 9.500E+02, 5.643E+02, 1.489E+01, 6.524E+02, 5.349E+00, 7.617E+02, 0.000E+00
 9.600E+02, 5.643E+02, 1.457E+01, 6.524E+02, 5.323E+00, 7.617E+02, 0.000E+00
 9.700E+02, 5.643E+02, 1.455E+01, 6.524E+02, 5.297E+00, 7.617E+02, 0.000E+00
 9.800E+02, 5.643E+02, 1.461E+01, 6.524E+02, 4.276E-01, 7.617E+02, 0.000E+00
 9.900E+02, 5.643E+02, 1.466E+01, 6.524E+02, 0.000E+00, 7.617E+02, 0.000E+00
 1.000E+03, 5.643E+02, 1.472E+01, 6.524E+02, 0.000E+00, 7.617E+02, 0.000E+00
 1.010E+03, 5.643E+02, 1.477E+01, 6.524E+02, 0.000E+00, 7.617E+02, 0.000E+00
 1.020E+03, 5.643E+02, 1.483E+01, 6.524E+02, 0.000E+00, 7.617E+02, 0.000E+00
 1.030E+03, 5.643E+02, 1.489E+01, 6.524E+02, 0.000E+00, 7.617E+02, 0.000E+00
 1.040E+03, 5.643E+02, 1.494E+01, 6.524E+02, 0.000E+00, 7.617E+02, 0.000E+00
 1.050E+03, 5.643E+02, 1.500E+01, 6.524E+02, 0.000E+00, 7.617E+02, 0.000E+00
 1.060E+03, 5.643E+02, 1.498E+01, 6.524E+02, 0.000E+00, 7.617E+02, 0.000E+00
 1.070E+03, 5.643E+02, 5.798E-01, 6.524E+02, 0.000E+00, 7.617E+02, 0.000E+00
 1.080E+03, 5.643E+02, 0.000E+00, 6.524E+02, 0.000E+00, 7.617E+02, 0.000E+00
 1.090E+03, 5.643E+02, 0.000E+00, 6.524E+02, 0.000E+00, 7.617E+02, 0.000E+00
 1.100E+03, 5.643E+02, 0.000E+00, 6.524E+02, 0.000E+00, 7.617E+02, 0.000E+00
 1.110E+03, 5.643E+02, 0.000E+00, 6.524E+02, 0.000E+00, 7.617E+02, 0.000E+00
 1.120E+03, 5.643E+02, 0.000E+00, 6.524E+02, 0.000E+00, 7.617E+02, 0.000E+00
 1.130E+03, 5.643E+02, 0.000E+00, 6.524E+02, 0.000E+00, 7.617E+02, 0.000E+00
 1.140E+03, 5.643E+02, 0.000E+00, 6.524E+02, 0.000E+00, 7.617E+02, 0.000E+00
 1.150E+03, 5.643E+02, 0.000E+00, 6.524E+02, 0.000E+00, 7.617E+02, 0.000E+00
 1.160E+03, 5.643E+02, 0.000E+00, 6.524E+02, 0.000E+00, 7.617E+02, 0.000E+00
 1.170E+03, 5.643E+02, 0.000E+00, 6.524E+02, 0.000E+00, 7.617E+02, 0.000E+00
 1.180E+03, 5.643E+02, 0.000E+00, 6.524E+02, 0.000E+00, 7.617E+02, 0.000E+00
 1.190E+03, 5.643E+02, 0.000E+00, 6.524E+02, 0.000E+00, 7.617E+02, 0.000E+00
 1.200E+03, 5.643E+02, 0.000E+00, 6.524E+02, 0.000E+00, 7.617E+02, 0.000E+00
 1.210E+03, 5.643E+02, 0.000E+00, 6.524E+02, 0.000E+00, 7.617E+02, 0.000E+00
 1.220E+03, 5.643E+02, 0.000E+00, 6.524E+02, 0.000E+00, 7.617E+02, 0.000E+00
 1.230E+03, 5.643E+02, 0.000E+00, 6.524E+02, 0.000E+00, 7.617E+02, 0.000E+00
 1.240E+03, 5.643E+02, 0.000E+00, 6.524E+02, 0.000E+00, 7.617E+02, 0.000E+00
 1.250E+03, 5.643E+02, 0.000E+00, 6.524E+02, 0.000E+00, 7.617E+02, 0.000E+00
 1.260E+03, 5.643E+02, 0.000E+00, 6.524E+02, 0.000E+00, 7.617E+02, 0.000E+00
 1.270E+03, 5.643E+02, 0.000E+00, 6.524E+02, 0.000E+00, 7.617E+02, 0.000E+00
 1.280E+03, 5.643E+02, 0.000E+00, 6.524E+02, 0.000E+00, 7.617E+02, 0.000E+00
 1.290E+03, 5.643E+02, 0.000E+00, 6.524E+02, 0.000E+00, 7.617E+02, 0.000E+00
 1.300E+03, 5.643E+02, 0.000E+00, 6.524E+02, 0.000E+00, 7.617E+02, 0.000E+00
 1.310E+03, 5.643E+02, 0.000E+00, 6.524E+02, 0.000E+00, 7.617E+02, 0.000E+00
 1.320E+03, 5.643E+02, 0.000E+00, 6.524E+02, 0.000E+00, 7.617E+02, 0.000E+00
 1.330E+03, 5.643E+02, 0.000E+00, 6.524E+02, 0.000E+00, 7.617E+02, 0.000E+00
 1.340E+03, 5.643E+02, 0.000E+00, 6.524E+02, 0.000E+00, 7.617E+02, 0.000E+00
 1.350E+03, 5.643E+02, 0.000E+00, 6.524E+02, 0.000E+00, 7.617E+02, 0.000E+00
 1.360E+03, 5.643E+02, 0.000E+00, 6.524E+02, 0.000E+00, 7.617E+02, 0.000E+00
 1.370E+03, 5.643E+02, 0.000E+00, 6.524E+02, 0.000E+00, 7.617E+02, 0.000E+00
 1.380E+03, 5.643E+02, 0.000E+00, 6.524E+02, 0.000E+00, 7.617E+02, 0.000E+00
 1.390E+03, 5.643E+02, 0.000E+00, 6.524E+02, 0.000E+00, 7.617E+02, 0.000E+00
 1.400E+03, 5.643E+02, 0.000E+00, 6.524E+02, 0.000E+00, 7.617E+02, 0.000E+00
 1.410E+03, 5.643E+02, 0.000E+00, 6.524E+02, 0.000E+00, 7.617E+02, 0.000E+00
 1.420E+03, 5.643E+02, 0.000E+00, 6.524E+02, 0.000E+00, 7.617E+02, 0.000E+00
 1.430E+03, 5.643E+02, 0.000E+00, 6.524E+02, 0.000E+00, 7.617E+02, 0.000E+00
 1.440E+03, 5.643E+02, 0.000E+00, 6.524E+02, 0.000E+00, 7.617E+02, 0.000E+00
 1.450E+03, 5.643E+02, 0.000E+00, 6.524E+02, 0.000E+00, 7.617E+02, 0.000E+00
 1.460E+03, 5.643E+02, 0.000E+00, 6.524E+02, 0.000E+00, 7.617E+02, 0.000E+00
 1.470E+03, 5.643E+02, 0.000E+00, 6.524E+02, 0.000E+00, 7.617E+02, 0.000E+00
 1.480E+03, 5.643E+02, 0.000E+00, 6.524E+02, 0.000E+00, 7.617E+02, 0.000E+00
 1.490E+03, 5.643E+02, 0.000E+00, 6.524E+02, 0.000E+00, 7.617E+02, 0.000E+00
 1.500E+03, 5.643E+02, 0.000E+00, 6.524E+02, 0.000E+00, 7.617E+02, 0.000E+00
 1.510E+03, 5.643E+02, 0.000E+00, 6.524E+02, 0.000E+00, 7.617E+02, 0.000E+00
 1.520E+03, 5.643E+02, 0.000E+00, 6.524E+02, 0.000E+00, 7.617E+02, 0.000E+00
 1.530E+03, 5.643E+02, 0.000E+00, 6.524E+02, 0.000E+00, 7.617E+02, 0.000E+00
 1.540E+03, 5.643E+02, 0.000E+00, 6.524E+02, 0.000E+00, 7.617E+02, 0.000E+00
 1.550E+03, 5.643E+02, 0.000E+00, 6.524E+02, 0.000E+00, 7.617E+02, 0.000E+00
 1.560E+03, 5.643E+02, 0.000E+00, 6.524E+02, 0.000E+00, 7.617E+02, 0.000E+00
 1.570E+03, 5.643E+02, 0.000E+00, 6.524E+02, 0.000E+00, 7.617E+02, 0.000E+00
 1.580E+03, 5.643E+02, 0.000E+00, 6.524E+02, 0.000E+00, 7.617E+02, 0.000E+00
 1.590E+03, 5.643E+02, 0.000E+00, 6.524E+02, 0.000E+00, 7.617E+02, 0.000E+00
 1.600E+03, 5.643E+02, 0.000E+00, 6.524E+02, 0.000E+00, 7.617E+02, 0.000E+00
 1.610E+03, 5.643E+02, 0.000E+00, 6.524E+02, 0.000E+00, 7.617E+02, 0.000E+00
 1.620E+03, 5.643E+02, 0.000E+00, 6.524E+02, 0.000E+00, 7.617E+02, 0.000E+00
 1.630E+03, 5.643E+02, 0.000E+00, 6.524E+02, 0.000E+00, 7.617E+02, 0.000E+00
 1.640E+03, 5.643E+02, 0.000E+00, 6.524E+02, 0.000E+00, 7.617E+02, 0.000E+00
 1.650E+03, 5.643E+02, 0.000E+00, 6.524E+02, 0.000E+00, 7.617E+02, 0.000E+00
 1.660E+03, 5.643E+02, 0.000E+00, 6.524E+02, 0.000E+00, 7.617E+02, 0.000E+00
 1.670E+03, 5.643E+02, 0.000E+00, 6.524E+02, 0.000E+00, 7.617E+02, 0.000E+00
 1.680E+03, 5.643E+02, 0.000E+00, 6.524E+02, 0.000E+00, 7.617E+02, 0.000E+00
 1.690E+03, 5.643E+02, 0.000E+00, 6.524E+02, 0.000E+00, 7.617E+02, 0.000E+00
 1.700E+03, 5.643E+02, 0.000E+00, 6.524E+02, 0.000E+00, 7.617E+02, 0.000E+00
 1.710E+03, 5.643E+02, 0.000E+00, 6.524E+02, 0.000E+00, 7.617E+02, 0.000E+00
 1.720E+03, 5.643E+02, 0.000E+00, 6.524E+02, 0.000E+00, 7.617E+02, 0.000E+00
 1.730E+03, 5.643E+02, 0.000E+00, 6.524E+02, 0.000E+00, 7.617E+02, 0.000E+00
 1.740E+03, 5.643E+02, 0.000E+00, 6.524E+02, 0.000E+00, 7.617E+02, 0.000E+00
 1.750E+03, 5.643E+02, 0.000E+00, 6.524E+02, 0.000E+00, 7.617E+02, 0.000E+00
 1.760E+03, 5.643E+02, 0.000E+00, 6.524E+02, 0.000E+00, 7.617E+02, 0.000E+00
 1.770E+03, 5.643E+02, 0.000E+00, 6.524E+02, 0.000E+00, 7.617E+02, 0.000E+00
 1.780E+03, 5.643E+02, 0.000E+00, 6.524E+02, 0.000E+00, 7.617E+02, 0.000E+00
 1.790E+03, 5.643E+02, 0.000E+00, 6.524E+02, 0.000E+00, 7.617E+02, 0.000E+00
 1.800E+03, 5.643E+02, 0.000E+00, 6.524E+02, 0.000E+00, 7.617E+02, 0.000E+00
 1.810E+03, 5.643E+02, 0.000E+00, 6.524E+02, 0.000E+00, 7.617E+02, 0.000E+00
 1.820E+03, 5.643E+02, 0.000E+00, 6.524E+02, 0.000E+00, 7.617E+02, 0.000E+00
 1.830E+03, 5.643E+02, 0.000E+00, 6.524E+02, 0.000E+00, 7.617E+02, 0.000E+00
 1.840E+03, 5.643E+02, 0.000E+00, 6.524E+02, 0.000E+00, 7.617E+02, 0.000E+00
 1.850E+03, 5.643E+02, 0.000E+00, 6.524E+02, 0.000E+00, 7.617E+02, 0.000E+00
 1.860E+03, 5.643E+02, 0.000E+00, 6.524E+02, 0.000E+00, 7.617E+02, 0.000E+00
 1.870E+03, 5.643E+02, 0.000E+00, 6.524E+02, 0.000E+00, 7.617E+02, 0.000E+00
 1.880E+03, 5.643E+02, 0.000E+00, 6.524E+02, 0.000E+00, 7.617E+02, 0.000E+00
 1.890E+03, 5.643E+02, 0.000E+00, 6.524E+02, 0.000E+00, 7.617E+02, 0.000E+00
 1.900E+03, 5.643E+02, 0.000E+00, 6.524E+02, 0.000E+00, 7.617E+02, 0.000E+00
 1.910E+03, 5.643E+02, 0.000E+00, 6.524E+02, 0.000E+00, 7.617E+02, 0.000E+00
 1.920E+03, 5.643E+02, 0.000E+00, 6.524E+02, 0.000E+00, 7.617E+02, 0.000E+00
 1.930E+03, 5.643E+02, 0.000E+00, 6.524E+02, 0.000E+00, 7.617E+02, 0.000E+00
 1.940E+03, 5.643E+02, 0.000E+00, 6.524E+02, 0.000E+00, 7.617E+02, 0.000E+00
 1.950E+03, 5.643E+02, 0.000E+00, 6.524E+02, 0.000E+00, 7.617E+02, 0.000E+00
 1.960E+03, 5.643E+02, 0.000E+00, 6.524E+02, 0.000E+00, 7.617E+02, 0.000E+00
 1.970E+03, 5.643E+02, 0.000E+00, 6.524E+02, 0.000E+00, 7.617E+02, 0.000E+00
 1.980E+03, 5.643E+02, 0.000E+00, 6.524E+02, 0.000E+00, 7.617E+02, 0.000E+00
 1.990E+03, 5.643E+02, 0.000E+00, 6.524E+02, 0.000E+00, 7.617E+02, 0.000E+00
 2.000E+03, 5.643E+02, 0.000E+00, 6.524E+02, 0.000E+00, 7.617E+02, 0.000E+00
 2.010E+03, 5.643E+02, 0.000E+00, 6.524E+02, 0.000E+00, 7.617E+02, 0.000E+00
 2.020E+03, 5.643E+02, 0.000E+00, 6.524E+02, 0.000E+00, 7.617E+02, 0.000E+00
 2.030E+03, 5.643E+02, 0.000E+00, 6.524E+02, 0.000E+00, 7.617E+02, 0.000E+00
 2.040E+03, 5.643E+02, 0.000E+00, 6.524E+02, 0.000E+00, 7.617E+02, 0.000E+00
 2.050E+03, 5.643E+02, 0.000E+00, 6.524E+02, 0.000E+00, 7.617E+02, 0.000E+00
 2.060E+03, 5.643E+02, 0.000E+00, 6.524E+02, 0.000E+00, 7.617E+02, 0.000E+00
 2.070E+03, 5.643E+02, 0.000E+00, 6.524E+02, 0.000E+00, 7.617E+02, 0.000E+00
 2.080E+03, 5.643E+02, 0.000E+00, 6.524E+02, 0.000E+00, 7.617E+02, 0.000E+00
 2.090E+03, 5.643E+02, 0.000E+00, 6.524E+02, 0.000E+00, 7.617E+02, 0.000E+00
 2.100E+03, 5.643E+02, 0.000E+00, 6.524E+02, 0.000E+00, 7.617E+02, 0.000E+00
 2.110E+03, 5.643E+02, 0.000E+00, 6.524E+02, 0.000E+00, 7.617E+02, 0.000E+00
 2.120E+03, 5.643E+02, 0.000E+00, 6.524E+02, 0.000E+00, 7.617E+02, 0.000E+00
 2.130E+03, 5.643E+02, 0.000E+00, 6.524E+02, 0.000E+00, 7.617E+02, 0.000E+00
 2.140E+03, 5.643E+02, 0.000E+00, 6.524E+02, 0.000E+00, 7.617E+02, 0.000E+00
 2.150E+03, 5.643E+02, 0.000E+00, 6.524E+02, 0.000E+00, 7.617E+02, 0.000E+00
 2.160E+03, 5.643E+02, 0.000E+00, 6.524E+02, 0.000E+00, 7.617E+02, 0.000E+00
 2.170E+03, 5.643E+02, 0.000E+00, 6.524E+02, 0.000E+00, 7.617E+02, 0.000E+00
 2.175E+03, 5.643E+02, 0.000E+00, 6.524E+02, 0.000E+00, 7.617E+02, 0.000E+00
