s,C,kW/m2,C,kW/m2,C,kW/m2
Time,"WALL TEMPERATURE-CONE_14p00_035","HRRPUA-CONE_14p00_035","WALL TEMPERATURE-CONE_14p00_050","HRRPUA-CONE_14p00_050","WALL TEMPERATURE-CONE_14p00_075","HRRPUA-CONE_14p00_075"
 0.000E+00, 2.700E+01, 0.000E+00, 2.700E+01, 0.000E+00, 2.700E+01, 0.000E+00
 1.000E+01, 1.815E+02, 0.000E+00, 2.437E+02, 0.000E+00, 3.405E+02, 0.000E+00
 2.000E+01, 3.089E+02, 0.000E+00, 4.085E+02, 0.000E+00, 5.463E+02, 3.719E+01
 3.000E+01, 3.631E+02, 0.000E+00, 4.689E+02, 6.978E+00, 6.061E+02, 1.402E+02
 4.000E+01, 3.956E+02, 0.000E+00, 5.021E+02, 6.925E+01, 6.360E+02, 1.843E+02
 5.000E+01, 4.178E+02, 0.000E+00, 5.235E+02, 1.057E+02, 6.545E+02, 1.921E+02
 6.000E+01, 4.343E+02, 4.630E+00, 5.391E+02, 1.252E+02, 6.678E+02, 1.856E+02
 7.000E+01, 4.475E+02, 3.216E+01, 5.512E+02, 1.267E+02, 6.782E+02, 1.824E+02
 8.000E+01, 4.585E+02, 6.040E+01, 5.613E+02, 1.262E+02, 6.869E+02, 1.806E+02
 9.000E+01, 4.679E+02, 8.640E+01, 5.700E+02, 1.258E+02, 6.943E+02, 1.683E+02
 1.000E+02, 4.763E+02, 1.033E+02, 5.775E+02, 1.258E+02, 7.008E+02, 1.605E+02
 1.100E+02, 4.837E+02, 1.078E+02, 5.843E+02, 1.203E+02, 7.065E+02, 1.566E+02
 1.200E+02, 4.904E+02, 1.096E+02, 5.903E+02, 1.151E+02, 7.116E+02, 1.497E+02
 1.300E+02, 4.964E+02, 1.081E+02, 5.957E+02, 1.106E+02, 7.162E+02, 1.416E+02
 1.400E+02, 5.019E+02, 1.048E+02, 6.006E+02, 1.087E+02, 7.204E+02, 1.352E+02
 1.500E+02, 5.069E+02, 1.036E+02, 6.050E+02, 1.099E+02, 7.241E+02, 1.342E+02
 1.600E+02, 5.115E+02, 1.037E+02, 6.091E+02, 1.075E+02, 7.275E+02, 1.383E+02
 1.700E+02, 5.157E+02, 1.040E+02, 6.128E+02, 1.020E+02, 7.306E+02, 1.424E+02
 1.800E+02, 5.196E+02, 9.996E+01, 6.161E+02, 9.767E+01, 7.334E+02, 1.474E+02
 1.900E+02, 5.231E+02, 9.466E+01, 6.192E+02, 1.048E+02, 7.360E+02, 1.606E+02
 2.000E+02, 5.264E+02, 8.999E+01, 6.220E+02, 1.083E+02, 7.383E+02, 1.760E+02
 2.100E+02, 5.294E+02, 8.779E+01, 6.246E+02, 1.121E+02, 7.404E+02, 1.934E+02
 2.200E+02, 5.322E+02, 8.627E+01, 6.270E+02, 1.172E+02, 7.423E+02, 2.114E+02
 2.300E+02, 5.347E+02, 8.473E+01, 6.291E+02, 1.159E+02, 7.441E+02, 2.157E+02
 2.400E+02, 5.371E+02, 8.206E+01, 6.311E+02, 1.156E+02, 7.457E+02, 2.177E+02
 2.500E+02, 5.393E+02, 7.892E+01, 6.329E+02, 1.247E+02, 7.472E+02, 2.249E+02
 2.600E+02, 5.413E+02, 7.586E+01, 6.346E+02, 1.372E+02, 7.485E+02, 2.321E+02
 2.700E+02, 5.431E+02, 7.293E+01, 6.361E+02, 1.440E+02, 7.497E+02, 2.346E+02
 2.800E+02, 5.448E+02, 7.059E+01, 6.375E+02, 1.504E+02, 7.508E+02, 2.329E+02
 2.900E+02, 5.464E+02, 6.910E+01, 6.388E+02, 1.567E+02, 7.519E+02, 2.310E+02
 3.000E+02, 5.478E+02, 6.855E+01, 6.400E+02, 1.619E+02, 7.528E+02, 2.234E+02
 3.100E+02, 5.491E+02, 7.011E+01, 6.411E+02, 1.659E+02, 7.536E+02, 2.114E+02
 3.200E+02, 5.504E+02, 7.155E+01, 6.421E+02, 1.713E+02, 7.544E+02, 2.034E+02
 3.300E+02, 5.515E+02, 7.284E+01, 6.430E+02, 1.770E+02, 7.551E+02, 1.972E+02
 3.400E+02, 5.526E+02, 7.437E+01, 6.438E+02, 1.755E+02, 7.557E+02, 1.943E+02
 3.500E+02, 5.535E+02, 7.595E+01, 6.446E+02, 1.762E+02, 7.563E+02, 1.918E+02
 3.600E+02, 5.544E+02, 7.758E+01, 6.453E+02, 1.761E+02, 7.569E+02, 1.894E+02
 3.700E+02, 5.553E+02, 8.167E+01, 6.460E+02, 1.647E+02, 7.574E+02, 1.883E+02
 3.800E+02, 5.560E+02, 8.774E+01, 6.466E+02, 1.683E+02, 7.578E+02, 1.881E+02
 3.900E+02, 5.567E+02, 9.419E+01, 6.471E+02, 1.653E+02, 7.582E+02, 1.879E+02
 4.000E+02, 5.574E+02, 1.008E+02, 6.476E+02, 1.586E+02, 7.586E+02, 1.876E+02
 4.100E+02, 5.580E+02, 1.063E+02, 6.481E+02, 1.550E+02, 7.589E+02, 1.874E+02
 4.200E+02, 5.586E+02, 1.132E+02, 6.485E+02, 1.555E+02, 7.593E+02, 1.861E+02
 4.300E+02, 5.591E+02, 1.194E+02, 6.489E+02, 1.551E+02, 7.595E+02, 1.835E+02
 4.400E+02, 5.595E+02, 1.236E+02, 6.492E+02, 1.555E+02, 7.598E+02, 1.797E+02
 4.500E+02, 5.600E+02, 1.235E+02, 6.496E+02, 1.554E+02, 7.600E+02, 1.762E+02
 4.600E+02, 5.604E+02, 1.234E+02, 6.499E+02, 1.503E+02, 7.603E+02, 1.805E+02
 4.700E+02, 5.608E+02, 1.250E+02, 6.502E+02, 1.455E+02, 7.605E+02, 1.817E+02
 4.800E+02, 5.611E+02, 1.277E+02, 6.504E+02, 1.431E+02, 7.606E+02, 1.595E+02
 4.900E+02, 5.614E+02, 1.306E+02, 6.506E+02, 1.423E+02, 7.608E+02, 1.360E+02
 5.000E+02, 5.617E+02, 1.335E+02, 6.509E+02, 1.470E+02, 7.609E+02, 1.182E+02
 5.100E+02, 5.620E+02, 1.350E+02, 6.511E+02, 1.481E+02, 7.611E+02, 1.032E+02
 5.200E+02, 5.623E+02, 1.356E+02, 6.512E+02, 1.510E+02, 7.612E+02, 9.372E+01
 5.300E+02, 5.625E+02, 1.349E+02, 6.514E+02, 1.536E+02, 7.613E+02, 8.800E+01
 5.400E+02, 5.627E+02, 1.342E+02, 6.516E+02, 1.525E+02, 7.614E+02, 8.219E+01
 5.500E+02, 5.629E+02, 1.335E+02, 6.517E+02, 1.493E+02, 7.615E+02, 7.290E+01
 5.600E+02, 5.631E+02, 1.327E+02, 6.518E+02, 1.430E+02, 7.616E+02, 6.258E+01
 5.700E+02, 5.633E+02, 1.293E+02, 6.520E+02, 1.416E+02, 7.617E+02, 5.601E+01
 5.800E+02, 5.634E+02, 1.249E+02, 6.521E+02, 1.461E+02, 7.618E+02, 5.298E+01
 5.900E+02, 5.636E+02, 1.205E+02, 6.522E+02, 1.449E+02, 7.618E+02, 4.702E+01
 6.000E+02, 5.637E+02, 1.175E+02, 6.523E+02, 1.369E+02, 7.619E+02, 4.037E+01
 6.100E+02, 5.638E+02, 1.151E+02, 6.523E+02, 1.251E+02, 7.620E+02, 3.628E+01
 6.200E+02, 5.639E+02, 1.127E+02, 6.524E+02, 1.166E+02, 7.620E+02, 3.429E+01
 6.300E+02, 5.640E+02, 1.113E+02, 6.525E+02, 1.097E+02, 7.621E+02, 3.270E+01
 6.400E+02, 5.641E+02, 1.105E+02, 6.526E+02, 1.054E+02, 7.621E+02, 3.228E+01
 6.500E+02, 5.642E+02, 1.098E+02, 6.526E+02, 1.015E+02, 7.621E+02, 3.194E+01
 6.600E+02, 5.643E+02, 1.090E+02, 6.527E+02, 9.706E+01, 7.622E+02, 3.161E+01
 6.700E+02, 5.644E+02, 1.082E+02, 6.527E+02, 9.355E+01, 7.622E+02, 3.127E+01
 6.800E+02, 5.645E+02, 1.074E+02, 6.528E+02, 8.357E+01, 7.622E+02, 3.093E+01
 6.900E+02, 5.645E+02, 1.070E+02, 6.528E+02, 7.531E+01, 7.623E+02, 1.840E+01
 7.000E+02, 5.646E+02, 1.069E+02, 6.529E+02, 7.188E+01, 7.623E+02, 0.000E+00
 7.100E+02, 5.647E+02, 1.068E+02, 6.529E+02, 6.989E+01, 7.623E+02, 0.000E+00
 7.200E+02, 5.647E+02, 1.068E+02, 6.529E+02, 6.416E+01, 7.623E+02, 0.000E+00
 7.300E+02, 5.648E+02, 1.067E+02, 6.530E+02, 6.560E+01, 7.624E+02, 0.000E+00
 7.400E+02, 5.648E+02, 1.066E+02, 6.530E+02, 6.117E+01, 7.624E+02, 0.000E+00
 7.500E+02, 5.648E+02, 1.065E+02, 6.530E+02, 5.712E+01, 7.624E+02, 0.000E+00
 7.600E+02, 5.649E+02, 1.064E+02, 6.530E+02, 5.141E+01, 7.624E+02, 0.000E+00
 7.700E+02, 5.649E+02, 1.064E+02, 6.531E+02, 4.600E+01, 7.624E+02, 0.000E+00
 7.800E+02, 5.649E+02, 1.059E+02, 6.531E+02, 4.455E+01, 7.624E+02, 0.000E+00
 7.900E+02, 5.650E+02, 1.051E+02, 6.531E+02, 3.971E+01, 7.624E+02, 0.000E+00
 8.000E+02, 5.650E+02, 1.043E+02, 6.531E+02, 2.083E+01, 7.625E+02, 0.000E+00
 8.100E+02, 5.650E+02, 1.032E+02, 6.531E+02, 1.696E+01, 7.625E+02, 0.000E+00
 8.200E+02, 5.651E+02, 1.017E+02, 6.531E+02, 1.607E+01, 7.625E+02, 0.000E+00
 8.300E+02, 5.651E+02, 1.002E+02, 6.532E+02, 1.542E+01, 7.625E+02, 0.000E+00
 8.400E+02, 5.651E+02, 9.982E+01, 6.532E+02, 1.474E+01, 7.625E+02, 0.000E+00
 8.500E+02, 5.651E+02, 1.014E+02, 6.532E+02, 1.431E+01, 7.625E+02, 0.000E+00
 8.600E+02, 5.651E+02, 1.043E+02, 6.532E+02, 1.417E+01, 7.625E+02, 0.000E+00
 8.700E+02, 5.652E+02, 1.042E+02, 6.532E+02, 1.404E+01, 7.625E+02, 0.000E+00
 8.800E+02, 5.652E+02, 9.737E+01, 6.532E+02, 1.390E+01, 7.625E+02, 0.000E+00
 8.900E+02, 5.652E+02, 8.645E+01, 6.532E+02, 1.355E+01, 7.625E+02, 0.000E+00
 9.000E+02, 5.652E+02, 7.604E+01, 6.532E+02, 1.300E+01, 7.625E+02, 0.000E+00
 9.100E+02, 5.652E+02, 6.917E+01, 6.532E+02, 1.244E+01, 7.625E+02, 0.000E+00
 9.200E+02, 5.652E+02, 6.325E+01, 6.532E+02, 1.186E+01, 7.625E+02, 0.000E+00
 9.300E+02, 5.652E+02, 5.750E+01, 6.532E+02, 1.127E+01, 7.625E+02, 0.000E+00
 9.400E+02, 5.652E+02, 5.283E+01, 6.532E+02, 1.066E+01, 7.625E+02, 0.000E+00
 9.500E+02, 5.652E+02, 4.898E+01, 6.533E+02, 1.004E+01, 7.625E+02, 0.000E+00
 9.600E+02, 5.653E+02, 4.635E+01, 6.533E+02, 9.749E+00, 7.625E+02, 0.000E+00
 9.700E+02, 5.653E+02, 4.458E+01, 6.533E+02, 9.669E+00, 7.625E+02, 0.000E+00
 9.800E+02, 5.653E+02, 4.331E+01, 6.533E+02, 9.590E+00, 7.625E+02, 0.000E+00
 9.900E+02, 5.653E+02, 4.203E+01, 6.533E+02, 9.510E+00, 7.625E+02, 0.000E+00
 1.000E+03, 5.653E+02, 4.076E+01, 6.533E+02, 9.421E+00, 7.625E+02, 0.000E+00
 1.010E+03, 5.653E+02, 3.946E+01, 6.533E+02, 9.278E+00, 7.625E+02, 0.000E+00
 1.020E+03, 5.653E+02, 3.746E+01, 6.533E+02, 9.123E+00, 7.625E+02, 0.000E+00
 1.030E+03, 5.653E+02, 3.509E+01, 6.533E+02, 8.967E+00, 7.625E+02, 0.000E+00
 1.040E+03, 5.653E+02, 3.272E+01, 6.533E+02, 8.811E+00, 7.625E+02, 0.000E+00
 1.050E+03, 5.653E+02, 3.035E+01, 6.533E+02, 8.654E+00, 7.625E+02, 0.000E+00
 1.060E+03, 5.653E+02, 2.803E+01, 6.533E+02, 8.483E+00, 7.625E+02, 0.000E+00
 1.070E+03, 5.653E+02, 2.688E+01, 6.533E+02, 8.022E+00, 7.625E+02, 0.000E+00
 1.080E+03, 5.653E+02, 2.627E+01, 6.533E+02, 7.425E+00, 7.625E+02, 0.000E+00
 1.090E+03, 5.653E+02, 2.566E+01, 6.533E+02, 6.914E+00, 7.626E+02, 0.000E+00
 1.100E+03, 5.653E+02, 2.467E+01, 6.533E+02, 6.878E+00, 7.626E+02, 0.000E+00
 1.110E+03, 5.653E+02, 2.316E+01, 6.533E+02, 6.908E+00, 7.626E+02, 0.000E+00
 1.120E+03, 5.653E+02, 2.165E+01, 6.533E+02, 6.938E+00, 7.626E+02, 0.000E+00
 1.130E+03, 5.653E+02, 2.013E+01, 6.533E+02, 6.969E+00, 7.626E+02, 0.000E+00
 1.140E+03, 5.653E+02, 1.862E+01, 6.533E+02, 6.999E+00, 7.626E+02, 0.000E+00
 1.150E+03, 5.653E+02, 1.757E+01, 6.533E+02, 6.999E+00, 7.626E+02, 0.000E+00
 1.160E+03, 5.653E+02, 1.712E+01, 6.533E+02, 6.694E+00, 7.626E+02, 0.000E+00
 1.170E+03, 5.653E+02, 1.667E+01, 6.533E+02, 6.302E+00, 7.626E+02, 0.000E+00
 1.180E+03, 5.653E+02, 1.622E+01, 6.533E+02, 5.911E+00, 7.626E+02, 0.000E+00
 1.190E+03, 5.653E+02, 1.577E+01, 6.533E+02, 5.722E+00, 7.626E+02, 0.000E+00
 1.200E+03, 5.653E+02, 1.549E+01, 6.533E+02, 5.643E+00, 7.626E+02, 0.000E+00
 1.210E+03, 5.653E+02, 1.541E+01, 6.533E+02, 5.564E+00, 7.626E+02, 0.000E+00
 1.220E+03, 5.653E+02, 1.533E+01, 6.533E+02, 5.488E+00, 7.626E+02, 0.000E+00
 1.230E+03, 5.653E+02, 1.526E+01, 6.533E+02, 5.532E+00, 7.626E+02, 0.000E+00
 1.240E+03, 5.653E+02, 1.518E+01, 6.533E+02, 5.639E+00, 7.626E+02, 0.000E+00
 1.250E+03, 5.653E+02, 1.511E+01, 6.533E+02, 5.745E+00, 7.626E+02, 0.000E+00
 1.260E+03, 5.653E+02, 1.503E+01, 6.533E+02, 5.851E+00, 7.626E+02, 0.000E+00
 1.270E+03, 5.653E+02, 1.495E+01, 6.533E+02, 5.957E+00, 7.626E+02, 0.000E+00
 1.280E+03, 5.653E+02, 1.488E+01, 6.533E+02, 6.062E+00, 7.626E+02, 0.000E+00
 1.290E+03, 5.653E+02, 1.480E+01, 6.533E+02, 6.167E+00, 7.626E+02, 0.000E+00
 1.300E+03, 5.653E+02, 1.472E+01, 6.533E+02, 6.243E+00, 7.626E+02, 0.000E+00
 1.310E+03, 5.653E+02, 1.465E+01, 6.533E+02, 6.106E+00, 7.626E+02, 0.000E+00
 1.320E+03, 5.653E+02, 1.457E+01, 6.533E+02, 5.923E+00, 7.626E+02, 0.000E+00
 1.330E+03, 5.653E+02, 5.597E+00, 6.533E+02, 5.740E+00, 7.626E+02, 0.000E+00
 1.340E+03, 5.653E+02, 0.000E+00, 6.533E+02, 5.555E+00, 7.626E+02, 0.000E+00
 1.350E+03, 5.653E+02, 0.000E+00, 6.533E+02, 5.369E+00, 7.626E+02, 0.000E+00
 1.360E+03, 5.653E+02, 0.000E+00, 6.533E+02, 5.182E+00, 7.626E+02, 0.000E+00
 1.370E+03, 5.653E+02, 0.000E+00, 6.533E+02, 4.994E+00, 7.626E+02, 0.000E+00
 1.380E+03, 5.653E+02, 0.000E+00, 6.533E+02, 4.815E+00, 7.626E+02, 0.000E+00
 1.390E+03, 5.653E+02, 0.000E+00, 6.533E+02, 4.957E+00, 7.626E+02, 0.000E+00
 1.400E+03, 5.653E+02, 0.000E+00, 6.533E+02, 5.252E+00, 7.626E+02, 0.000E+00
 1.410E+03, 5.653E+02, 0.000E+00, 6.533E+02, 5.459E+00, 7.626E+02, 0.000E+00
 1.420E+03, 5.653E+02, 0.000E+00, 6.533E+02, 5.232E+00, 7.626E+02, 0.000E+00
 1.430E+03, 5.653E+02, 0.000E+00, 6.533E+02, 4.942E+00, 7.626E+02, 0.000E+00
 1.440E+03, 5.653E+02, 0.000E+00, 6.533E+02, 4.649E+00, 7.626E+02, 0.000E+00
 1.450E+03, 5.653E+02, 0.000E+00, 6.533E+02, 2.126E+00, 7.626E+02, 0.000E+00
 1.460E+03, 5.653E+02, 0.000E+00, 6.533E+02, 0.000E+00, 7.626E+02, 0.000E+00
 1.470E+03, 5.653E+02, 0.000E+00, 6.533E+02, 0.000E+00, 7.626E+02, 0.000E+00
 1.480E+03, 5.653E+02, 0.000E+00, 6.533E+02, 0.000E+00, 7.626E+02, 0.000E+00
 1.490E+03, 5.653E+02, 0.000E+00, 6.533E+02, 0.000E+00, 7.626E+02, 0.000E+00
 1.500E+03, 5.654E+02, 0.000E+00, 6.533E+02, 0.000E+00, 7.626E+02, 0.000E+00
 1.510E+03, 5.654E+02, 0.000E+00, 6.533E+02, 0.000E+00, 7.626E+02, 0.000E+00
 1.520E+03, 5.654E+02, 0.000E+00, 6.533E+02, 0.000E+00, 7.626E+02, 0.000E+00
 1.530E+03, 5.654E+02, 0.000E+00, 6.533E+02, 0.000E+00, 7.626E+02, 0.000E+00
 1.540E+03, 5.654E+02, 0.000E+00, 6.533E+02, 0.000E+00, 7.626E+02, 0.000E+00
 1.550E+03, 5.654E+02, 0.000E+00, 6.533E+02, 0.000E+00, 7.626E+02, 0.000E+00
 1.560E+03, 5.654E+02, 0.000E+00, 6.533E+02, 0.000E+00, 7.626E+02, 0.000E+00
 1.570E+03, 5.654E+02, 0.000E+00, 6.533E+02, 0.000E+00, 7.626E+02, 0.000E+00
 1.580E+03, 5.654E+02, 0.000E+00, 6.533E+02, 0.000E+00, 7.626E+02, 0.000E+00
 1.590E+03, 5.654E+02, 0.000E+00, 6.533E+02, 0.000E+00, 7.626E+02, 0.000E+00
 1.600E+03, 5.654E+02, 0.000E+00, 6.533E+02, 0.000E+00, 7.626E+02, 0.000E+00
 1.610E+03, 5.654E+02, 0.000E+00, 6.533E+02, 0.000E+00, 7.626E+02, 0.000E+00
 1.620E+03, 5.654E+02, 0.000E+00, 6.533E+02, 0.000E+00, 7.626E+02, 0.000E+00
 1.630E+03, 5.654E+02, 0.000E+00, 6.533E+02, 0.000E+00, 7.626E+02, 0.000E+00
 1.640E+03, 5.654E+02, 0.000E+00, 6.533E+02, 0.000E+00, 7.626E+02, 0.000E+00
 1.650E+03, 5.654E+02, 0.000E+00, 6.533E+02, 0.000E+00, 7.626E+02, 0.000E+00
 1.660E+03, 5.654E+02, 0.000E+00, 6.533E+02, 0.000E+00, 7.626E+02, 0.000E+00
 1.670E+03, 5.654E+02, 0.000E+00, 6.533E+02, 0.000E+00, 7.626E+02, 0.000E+00
 1.680E+03, 5.654E+02, 0.000E+00, 6.533E+02, 0.000E+00, 7.626E+02, 0.000E+00
 1.690E+03, 5.654E+02, 0.000E+00, 6.533E+02, 0.000E+00, 7.626E+02, 0.000E+00
 1.700E+03, 5.654E+02, 0.000E+00, 6.533E+02, 0.000E+00, 7.626E+02, 0.000E+00
 1.710E+03, 5.654E+02, 0.000E+00, 6.533E+02, 0.000E+00, 7.626E+02, 0.000E+00
 1.720E+03, 5.654E+02, 0.000E+00, 6.533E+02, 0.000E+00, 7.626E+02, 0.000E+00
 1.730E+03, 5.654E+02, 0.000E+00, 6.533E+02, 0.000E+00, 7.626E+02, 0.000E+00
 1.740E+03, 5.654E+02, 0.000E+00, 6.533E+02, 0.000E+00, 7.626E+02, 0.000E+00
 1.750E+03, 5.654E+02, 0.000E+00, 6.533E+02, 0.000E+00, 7.626E+02, 0.000E+00
 1.760E+03, 5.654E+02, 0.000E+00, 6.533E+02, 0.000E+00, 7.626E+02, 0.000E+00
 1.770E+03, 5.654E+02, 0.000E+00, 6.533E+02, 0.000E+00, 7.626E+02, 0.000E+00
 1.780E+03, 5.654E+02, 0.000E+00, 6.533E+02, 0.000E+00, 7.626E+02, 0.000E+00
 1.790E+03, 5.654E+02, 0.000E+00, 6.533E+02, 0.000E+00, 7.626E+02, 0.000E+00
 1.800E+03, 5.654E+02, 0.000E+00, 6.533E+02, 0.000E+00, 7.626E+02, 0.000E+00
 1.810E+03, 5.654E+02, 0.000E+00, 6.533E+02, 0.000E+00, 7.626E+02, 0.000E+00
 1.820E+03, 5.654E+02, 0.000E+00, 6.533E+02, 0.000E+00, 7.626E+02, 0.000E+00
 1.830E+03, 5.654E+02, 0.000E+00, 6.533E+02, 0.000E+00, 7.626E+02, 0.000E+00
 1.840E+03, 5.654E+02, 0.000E+00, 6.533E+02, 0.000E+00, 7.626E+02, 0.000E+00
 1.850E+03, 5.654E+02, 0.000E+00, 6.533E+02, 0.000E+00, 7.626E+02, 0.000E+00
 1.860E+03, 5.654E+02, 0.000E+00, 6.533E+02, 0.000E+00, 7.626E+02, 0.000E+00
 1.870E+03, 5.654E+02, 0.000E+00, 6.533E+02, 0.000E+00, 7.626E+02, 0.000E+00
 1.880E+03, 5.654E+02, 0.000E+00, 6.533E+02, 0.000E+00, 7.626E+02, 0.000E+00
 1.890E+03, 5.654E+02, 0.000E+00, 6.533E+02, 0.000E+00, 7.626E+02, 0.000E+00
 1.900E+03, 5.654E+02, 0.000E+00, 6.533E+02, 0.000E+00, 7.626E+02, 0.000E+00
 1.910E+03, 5.654E+02, 0.000E+00, 6.533E+02, 0.000E+00, 7.626E+02, 0.000E+00
 1.920E+03, 5.654E+02, 0.000E+00, 6.533E+02, 0.000E+00, 7.626E+02, 0.000E+00
 1.930E+03, 5.654E+02, 0.000E+00, 6.533E+02, 0.000E+00, 7.626E+02, 0.000E+00
 1.940E+03, 5.654E+02, 0.000E+00, 6.533E+02, 0.000E+00, 7.626E+02, 0.000E+00
 1.950E+03, 5.654E+02, 0.000E+00, 6.533E+02, 0.000E+00, 7.626E+02, 0.000E+00
 1.960E+03, 5.654E+02, 0.000E+00, 6.533E+02, 0.000E+00, 7.626E+02, 0.000E+00
 1.970E+03, 5.654E+02, 0.000E+00, 6.533E+02, 0.000E+00, 7.626E+02, 0.000E+00
 1.980E+03, 5.654E+02, 0.000E+00, 6.533E+02, 0.000E+00, 7.626E+02, 0.000E+00
 1.990E+03, 5.654E+02, 0.000E+00, 6.533E+02, 0.000E+00, 7.626E+02, 0.000E+00
 2.000E+03, 5.654E+02, 0.000E+00, 6.533E+02, 0.000E+00, 7.626E+02, 0.000E+00
 2.010E+03, 5.654E+02, 0.000E+00, 6.533E+02, 0.000E+00, 7.626E+02, 0.000E+00
 2.020E+03, 5.654E+02, 0.000E+00, 6.533E+02, 0.000E+00, 7.626E+02, 0.000E+00
 2.030E+03, 5.654E+02, 0.000E+00, 6.533E+02, 0.000E+00, 7.626E+02, 0.000E+00
 2.040E+03, 5.654E+02, 0.000E+00, 6.533E+02, 0.000E+00, 7.626E+02, 0.000E+00
 2.050E+03, 5.654E+02, 0.000E+00, 6.533E+02, 0.000E+00, 7.626E+02, 0.000E+00
 2.060E+03, 5.654E+02, 0.000E+00, 6.533E+02, 0.000E+00, 7.626E+02, 0.000E+00
 2.070E+03, 5.654E+02, 0.000E+00, 6.533E+02, 0.000E+00, 7.626E+02, 0.000E+00
 2.080E+03, 5.654E+02, 0.000E+00, 6.533E+02, 0.000E+00, 7.626E+02, 0.000E+00
 2.090E+03, 5.654E+02, 0.000E+00, 6.533E+02, 0.000E+00, 7.626E+02, 0.000E+00
 2.100E+03, 5.654E+02, 0.000E+00, 6.533E+02, 0.000E+00, 7.626E+02, 0.000E+00
 2.110E+03, 5.654E+02, 0.000E+00, 6.533E+02, 0.000E+00, 7.626E+02, 0.000E+00
 2.120E+03, 5.654E+02, 0.000E+00, 6.533E+02, 0.000E+00, 7.626E+02, 0.000E+00
 2.130E+03, 5.654E+02, 0.000E+00, 6.533E+02, 0.000E+00, 7.626E+02, 0.000E+00
 2.140E+03, 5.654E+02, 0.000E+00, 6.533E+02, 0.000E+00, 7.626E+02, 0.000E+00
 2.150E+03, 5.654E+02, 0.000E+00, 6.533E+02, 0.000E+00, 7.626E+02, 0.000E+00
 2.160E+03, 5.654E+02, 0.000E+00, 6.533E+02, 0.000E+00, 7.626E+02, 0.000E+00
 2.170E+03, 5.654E+02, 0.000E+00, 6.533E+02, 0.000E+00, 7.626E+02, 0.000E+00
 2.176E+03, 5.654E+02, 0.000E+00, 6.533E+02, 0.000E+00, 7.626E+02, 0.000E+00
