s,C,kW/m2,C,kW/m2,C,kW/m2
Time,WALL TEMPERATURE-CONE_1p95_035,HRRPUA-CONE_1p95_035,WALL TEMPERATURE-CONE_1p95_050,HRRPUA-CONE_1p95_050,WALL TEMPERATURE-CONE_1p95_075,HRRPUA-CONE_1p95_075
 0.000E+00, 2.700E+01, 0.000E+00, 2.700E+01, 0.000E+00, 2.700E+01, 0.000E+00
 1.000E+01, 2.136E+02, 0.000E+00, 2.852E+02, 0.000E+00, 3.918E+02, 0.000E+00
 2.000E+01, 4.174E+02, 0.000E+00, 5.317E+02, 0.000E+00, 6.737E+02, 0.000E+00
 3.000E+01, 4.963E+02, 0.000E+00, 6.030E+02, 0.000E+00, 7.283E+02, 7.042E+00
 4.000E+01, 5.276E+02, 0.000E+00, 6.263E+02, 0.000E+00, 7.436E+02, 2.824E+02
 5.000E+01, 5.419E+02, 0.000E+00, 6.363E+02, 0.000E+00, 7.503E+02, 4.999E+02
 6.000E+01, 5.496E+02, 0.000E+00, 6.417E+02, 0.000E+00, 7.540E+02, 3.171E+02
 7.000E+01, 5.541E+02, 0.000E+00, 6.449E+02, 1.771E+01, 7.563E+02, 1.207E+02
 8.000E+01, 5.569E+02, 0.000E+00, 6.469E+02, 1.423E+02, 7.577E+02, 5.297E+01
 9.000E+01, 5.587E+02, 0.000E+00, 6.482E+02, 3.052E+02, 7.586E+02, 4.683E+01
 1.000E+02, 5.599E+02, 0.000E+00, 6.490E+02, 3.389E+02, 7.591E+02, 4.849E+01
 1.100E+02, 5.607E+02, 0.000E+00, 6.495E+02, 2.456E+02, 7.595E+02, 4.872E+01
 1.200E+02, 5.612E+02, 1.668E+00, 6.499E+02, 1.135E+02, 7.597E+02, 4.398E+01
 1.300E+02, 5.616E+02, 6.178E+01, 6.501E+02, 5.775E+01, 7.598E+02, 3.878E+01
 1.400E+02, 5.618E+02, 2.116E+02, 6.502E+02, 4.618E+01, 7.599E+02, 3.330E+01
 1.500E+02, 5.620E+02, 3.159E+02, 6.503E+02, 4.445E+01, 7.600E+02, 2.772E+01
 1.600E+02, 5.621E+02, 2.862E+02, 6.504E+02, 4.237E+01, 7.600E+02, 2.439E+01
 1.700E+02, 5.621E+02, 1.859E+02, 6.504E+02, 3.889E+01, 7.601E+02, 2.472E+01
 1.800E+02, 5.622E+02, 9.641E+01, 6.505E+02, 3.582E+01, 7.601E+02, 2.505E+01
 1.900E+02, 5.622E+02, 5.035E+01, 6.505E+02, 3.359E+01, 7.601E+02, 2.505E+01
 2.000E+02, 5.622E+02, 3.274E+01, 6.505E+02, 3.100E+01, 7.601E+02, 2.498E+01
 2.100E+02, 5.622E+02, 2.446E+01, 6.505E+02, 2.743E+01, 7.601E+02, 2.422E+01
 2.200E+02, 5.623E+02, 2.221E+01, 6.505E+02, 2.569E+01, 7.601E+02, 2.295E+01
 2.300E+02, 5.623E+02, 2.225E+01, 6.505E+02, 2.828E+01, 7.601E+02, 2.264E+01
 2.400E+02, 5.623E+02, 2.262E+01, 6.505E+02, 2.778E+01, 7.601E+02, 2.518E+01
 2.500E+02, 5.623E+02, 2.299E+01, 6.505E+02, 2.615E+01, 7.601E+02, 2.760E+01
 2.600E+02, 5.623E+02, 2.337E+01, 6.505E+02, 2.468E+01, 7.601E+02, 2.515E+01
 2.700E+02, 5.623E+02, 2.355E+01, 6.505E+02, 2.608E+01, 7.601E+02, 2.101E+01
 2.800E+02, 5.623E+02, 2.258E+01, 6.505E+02, 1.920E+01, 7.601E+02, 1.827E+00
 2.900E+02, 5.623E+02, 2.141E+01, 6.505E+02, 6.429E+00, 7.601E+02, 0.000E+00
 3.000E+02, 5.623E+02, 2.023E+01, 6.505E+02, 6.235E+00, 7.601E+02, 0.000E+00
 3.100E+02, 5.623E+02, 1.905E+01, 6.505E+02, 6.052E+00, 7.601E+02, 0.000E+00
 3.200E+02, 5.623E+02, 1.787E+01, 6.505E+02, 5.868E+00, 7.601E+02, 0.000E+00
 3.300E+02, 5.623E+02, 1.662E+01, 6.505E+02, 5.757E+00, 7.601E+02, 0.000E+00
 3.400E+02, 5.623E+02, 1.536E+01, 6.505E+02, 5.711E+00, 7.601E+02, 0.000E+00
 3.500E+02, 5.623E+02, 1.410E+01, 6.505E+02, 5.665E+00, 7.601E+02, 0.000E+00
 3.600E+02, 5.623E+02, 1.284E+01, 6.505E+02, 5.617E+00, 7.601E+02, 0.000E+00
 3.700E+02, 5.623E+02, 1.169E+01, 6.505E+02, 5.516E+00, 7.601E+02, 0.000E+00
 3.800E+02, 5.623E+02, 1.154E+01, 6.505E+02, 5.390E+00, 7.601E+02, 0.000E+00
 3.900E+02, 5.623E+02, 1.163E+01, 6.505E+02, 5.264E+00, 7.601E+02, 0.000E+00
 4.000E+02, 5.623E+02, 1.171E+01, 6.505E+02, 5.143E+00, 7.601E+02, 0.000E+00
 4.100E+02, 5.623E+02, 1.180E+01, 6.505E+02, 5.065E+00, 7.601E+02, 0.000E+00
 4.200E+02, 5.623E+02, 1.188E+01, 6.505E+02, 4.998E+00, 7.601E+02, 0.000E+00
 4.300E+02, 5.623E+02, 1.189E+01, 6.505E+02, 4.931E+00, 7.601E+02, 0.000E+00
 4.400E+02, 5.623E+02, 1.187E+01, 6.505E+02, 2.318E+00, 7.601E+02, 0.000E+00
 4.500E+02, 5.623E+02, 1.186E+01, 6.505E+02, 0.000E+00, 7.601E+02, 0.000E+00
 4.600E+02, 5.623E+02, 1.184E+01, 6.505E+02, 0.000E+00, 7.601E+02, 0.000E+00
 4.700E+02, 5.623E+02, 1.182E+01, 6.505E+02, 0.000E+00, 7.601E+02, 0.000E+00
 4.800E+02, 5.623E+02, 1.159E+01, 6.505E+02, 0.000E+00, 7.601E+02, 0.000E+00
 4.900E+02, 5.623E+02, 1.131E+01, 6.505E+02, 0.000E+00, 7.601E+02, 0.000E+00
 5.000E+02, 5.623E+02, 1.102E+01, 6.505E+02, 0.000E+00, 7.601E+02, 0.000E+00
 5.100E+02, 5.623E+02, 1.074E+01, 6.505E+02, 0.000E+00, 7.601E+02, 0.000E+00
 5.200E+02, 5.623E+02, 1.048E+01, 6.505E+02, 0.000E+00, 7.601E+02, 0.000E+00
 5.300E+02, 5.623E+02, 1.085E+01, 6.505E+02, 0.000E+00, 7.601E+02, 0.000E+00
 5.400E+02, 5.623E+02, 1.147E+01, 6.505E+02, 0.000E+00, 7.601E+02, 0.000E+00
 5.500E+02, 5.623E+02, 1.208E+01, 6.505E+02, 0.000E+00, 7.601E+02, 0.000E+00
 5.600E+02, 5.623E+02, 1.270E+01, 6.505E+02, 0.000E+00, 7.601E+02, 0.000E+00
 5.700E+02, 5.623E+02, 1.327E+01, 6.505E+02, 0.000E+00, 7.601E+02, 0.000E+00
 5.800E+02, 5.623E+02, 1.282E+01, 6.505E+02, 0.000E+00, 7.601E+02, 0.000E+00
 5.900E+02, 5.623E+02, 1.189E+01, 6.505E+02, 0.000E+00, 7.601E+02, 0.000E+00
 6.000E+02, 5.623E+02, 1.096E+01, 6.505E+02, 0.000E+00, 7.601E+02, 0.000E+00
 6.100E+02, 5.623E+02, 1.003E+01, 6.505E+02, 0.000E+00, 7.601E+02, 0.000E+00
 6.200E+02, 5.623E+02, 8.053E+00, 6.505E+02, 0.000E+00, 7.601E+02, 0.000E+00
 6.300E+02, 5.623E+02, 0.000E+00, 6.505E+02, 0.000E+00, 7.601E+02, 0.000E+00
 6.400E+02, 5.623E+02, 0.000E+00, 6.505E+02, 0.000E+00, 7.601E+02, 0.000E+00
 6.500E+02, 5.623E+02, 0.000E+00, 6.505E+02, 0.000E+00, 7.601E+02, 0.000E+00
 6.600E+02, 5.623E+02, 0.000E+00, 6.505E+02, 0.000E+00, 7.601E+02, 0.000E+00
 6.700E+02, 5.623E+02, 0.000E+00, 6.505E+02, 0.000E+00, 7.601E+02, 0.000E+00
 6.800E+02, 5.623E+02, 0.000E+00, 6.505E+02, 0.000E+00, 7.601E+02, 0.000E+00
 6.900E+02, 5.623E+02, 0.000E+00, 6.505E+02, 0.000E+00, 7.601E+02, 0.000E+00
 7.000E+02, 5.623E+02, 0.000E+00, 6.505E+02, 0.000E+00, 7.601E+02, 0.000E+00
 7.100E+02, 5.623E+02, 0.000E+00, 6.505E+02, 0.000E+00, 7.601E+02, 0.000E+00
 7.200E+02, 5.623E+02, 0.000E+00, 6.505E+02, 0.000E+00, 7.601E+02, 0.000E+00
 7.300E+02, 5.623E+02, 0.000E+00, 6.505E+02, 0.000E+00, 7.601E+02, 0.000E+00
 7.400E+02, 5.623E+02, 0.000E+00, 6.505E+02, 0.000E+00, 7.601E+02, 0.000E+00
 7.500E+02, 5.623E+02, 0.000E+00, 6.505E+02, 0.000E+00, 7.601E+02, 0.000E+00
 7.600E+02, 5.623E+02, 0.000E+00, 6.505E+02, 0.000E+00, 7.601E+02, 0.000E+00
 7.700E+02, 5.623E+02, 0.000E+00, 6.505E+02, 0.000E+00, 7.601E+02, 0.000E+00
 7.800E+02, 5.623E+02, 0.000E+00, 6.505E+02, 0.000E+00, 7.601E+02, 0.000E+00
 7.900E+02, 5.623E+02, 0.000E+00, 6.505E+02, 0.000E+00, 7.601E+02, 0.000E+00
 8.000E+02, 5.623E+02, 0.000E+00, 6.505E+02, 0.000E+00, 7.601E+02, 0.000E+00
 8.100E+02, 5.623E+02, 0.000E+00, 6.505E+02, 0.000E+00, 7.601E+02, 0.000E+00
 8.200E+02, 5.623E+02, 0.000E+00, 6.505E+02, 0.000E+00, 7.601E+02, 0.000E+00
 8.300E+02, 5.623E+02, 0.000E+00, 6.505E+02, 0.000E+00, 7.601E+02, 0.000E+00
 8.400E+02, 5.623E+02, 0.000E+00, 6.505E+02, 0.000E+00, 7.601E+02, 0.000E+00
 8.500E+02, 5.623E+02, 0.000E+00, 6.505E+02, 0.000E+00, 7.601E+02, 0.000E+00
 8.528E+02, 5.623E+02, 0.000E+00, 6.505E+02, 0.000E+00, 7.601E+02, 0.000E+00
