s,C,kW/m2,C,kW/m2
Time,WALL TEMPERATURE-CONE_4p80_020,HRRPUA-CONE_4p80_020,WALL TEMPERATURE-CONE_4p80_025,HRRPUA-CONE_4p80_025
 0.000E+00, 2.700E+01, 0.000E+00, 2.700E+01, 0.000E+00
 1.000E+01, 7.292E+01, 0.000E+00, 8.406E+01, 0.000E+00
 2.000E+01, 1.167E+02, 0.000E+00, 1.388E+02, 0.000E+00
 3.000E+01, 1.410E+02, 0.000E+00, 1.687E+02, 0.000E+00
 4.000E+01, 1.599E+02, 0.000E+00, 1.919E+02, 0.000E+00
 5.000E+01, 1.764E+02, 0.000E+00, 2.118E+02, 0.000E+00
 6.000E+01, 1.914E+02, 0.000E+00, 2.298E+02, 0.000E+00
 7.000E+01, 2.054E+02, 0.000E+00, 2.466E+02, 0.000E+00
 8.000E+01, 2.187E+02, 0.000E+00, 2.622E+02, 0.000E+00
 9.000E+01, 2.313E+02, 0.000E+00, 2.770E+02, 0.000E+00
 1.000E+02, 2.432E+02, 0.000E+00, 2.909E+02, 0.000E+00
 1.100E+02, 2.546E+02, 0.000E+00, 3.039E+02, 0.000E+00
 1.200E+02, 2.654E+02, 0.000E+00, 3.162E+02, 0.000E+00
 1.300E+02, 2.756E+02, 0.000E+00, 3.277E+02, 0.000E+00
 1.400E+02, 2.853E+02, 0.000E+00, 3.386E+02, 0.000E+00
 1.500E+02, 2.945E+02, 0.000E+00, 3.487E+02, 0.000E+00
 1.600E+02, 3.032E+02, 0.000E+00, 3.582E+02, 6.117E+00
 1.700E+02, 3.115E+02, 0.000E+00, 3.671E+02, 4.419E+01
 1.800E+02, 3.192E+02, 6.485E-01, 3.754E+02, 6.200E+01
 1.900E+02, 3.266E+02, 2.221E+01, 3.832E+02, 5.832E+01
 2.000E+02, 3.335E+02, 5.228E+01, 3.904E+02, 6.200E+01
 2.100E+02, 3.400E+02, 5.785E+01, 3.972E+02, 6.469E+01
 2.200E+02, 3.462E+02, 5.467E+01, 4.035E+02, 6.546E+01
 2.300E+02, 3.520E+02, 5.382E+01, 4.093E+02, 6.313E+01
 2.400E+02, 3.574E+02, 5.384E+01, 4.148E+02, 5.871E+01
 2.500E+02, 3.625E+02, 5.515E+01, 4.198E+02, 5.240E+01
 2.600E+02, 3.673E+02, 5.627E+01, 4.245E+02, 4.746E+01
 2.700E+02, 3.718E+02, 5.688E+01, 4.289E+02, 4.280E+01
 2.800E+02, 3.760E+02, 5.618E+01, 4.330E+02, 3.812E+01
 2.900E+02, 3.800E+02, 5.435E+01, 4.367E+02, 3.195E+01
 3.000E+02, 3.837E+02, 5.252E+01, 4.402E+02, 2.292E+01
 3.100E+02, 3.871E+02, 5.069E+01, 4.435E+02, 1.965E+01
 3.200E+02, 3.904E+02, 4.924E+01, 4.465E+02, 1.910E+01
 3.300E+02, 3.934E+02, 4.836E+01, 4.493E+02, 2.160E+01
 3.400E+02, 3.963E+02, 4.749E+01, 4.519E+02, 2.149E+01
 3.500E+02, 3.990E+02, 4.663E+01, 4.543E+02, 1.960E+01
 3.600E+02, 4.015E+02, 4.576E+01, 4.565E+02, 1.690E+01
 3.700E+02, 4.038E+02, 4.555E+01, 4.585E+02, 1.413E+01
 3.800E+02, 4.060E+02, 4.597E+01, 4.604E+02, 1.305E+01
 3.900E+02, 4.080E+02, 4.639E+01, 4.622E+02, 1.271E+01
 4.000E+02, 4.099E+02, 4.677E+01, 4.638E+02, 1.234E+01
 4.100E+02, 4.117E+02, 4.678E+01, 4.653E+02, 1.177E+01
 4.200E+02, 4.134E+02, 4.668E+01, 4.667E+02, 1.091E+01
 4.300E+02, 4.149E+02, 4.659E+01, 4.680E+02, 9.075E+00
 4.400E+02, 4.164E+02, 4.649E+01, 4.692E+02, 6.028E+00
 4.500E+02, 4.177E+02, 4.628E+01, 4.703E+02, 3.946E+00
 4.600E+02, 4.190E+02, 4.576E+01, 4.714E+02, 3.436E+00
 4.700E+02, 4.202E+02, 4.519E+01, 4.723E+02, 3.060E+00
 4.800E+02, 4.213E+02, 4.394E+01, 4.732E+02, 2.731E+00
 4.900E+02, 4.223E+02, 4.220E+01, 4.740E+02, 2.673E+00
 5.000E+02, 4.232E+02, 3.915E+01, 4.748E+02, 2.657E+00
 5.100E+02, 4.241E+02, 3.562E+01, 4.755E+02, 2.642E+00
 5.200E+02, 4.250E+02, 3.158E+01, 4.761E+02, 2.626E+00
 5.300E+02, 4.257E+02, 2.647E+01, 4.767E+02, 2.610E+00
 5.400E+02, 4.265E+02, 1.926E+01, 4.772E+02, 2.594E+00
 5.500E+02, 4.272E+02, 1.469E+01, 4.777E+02, 2.579E+00
 5.600E+02, 4.278E+02, 1.267E+01, 4.782E+02, 2.568E+00
 5.700E+02, 4.284E+02, 9.629E+00, 4.786E+02, 2.594E+00
 5.800E+02, 4.289E+02, 6.477E+00, 4.790E+02, 2.626E+00
 5.900E+02, 4.294E+02, 4.886E+00, 4.794E+02, 2.658E+00
 6.000E+02, 4.299E+02, 3.660E+00, 4.798E+02, 2.690E+00
 6.100E+02, 4.304E+02, 3.173E+00, 4.801E+02, 2.722E+00
 6.200E+02, 4.308E+02, 2.860E+00, 4.804E+02, 2.754E+00
 6.300E+02, 4.312E+02, 2.741E+00, 4.806E+02, 2.786E+00
 6.400E+02, 4.315E+02, 2.626E+00, 4.809E+02, 2.822E+00
 6.500E+02, 4.319E+02, 2.512E+00, 4.811E+02, 2.881E+00
 6.600E+02, 4.322E+02, 2.397E+00, 4.813E+02, 2.945E+00
 6.700E+02, 4.325E+02, 2.283E+00, 4.815E+02, 3.009E+00
 6.800E+02, 4.327E+02, 2.169E+00, 4.817E+02, 3.073E+00
 6.900E+02, 4.330E+02, 2.054E+00, 4.819E+02, 3.137E+00
 7.000E+02, 4.332E+02, 1.940E+00, 4.821E+02, 3.201E+00
 7.100E+02, 4.335E+02, 1.837E+00, 4.822E+02, 3.265E+00
 7.200E+02, 4.337E+02, 1.824E+00, 4.823E+02, 3.327E+00
 7.300E+02, 4.339E+02, 1.830E+00, 4.825E+02, 3.378E+00
 7.400E+02, 4.340E+02, 1.837E+00, 4.826E+02, 3.426E+00
 7.500E+02, 4.342E+02, 1.843E+00, 4.827E+02, 3.474E+00
 7.600E+02, 4.344E+02, 1.849E+00, 4.828E+02, 3.522E+00
 7.700E+02, 4.345E+02, 1.856E+00, 4.829E+02, 3.570E+00
 7.800E+02, 4.346E+02, 1.862E+00, 4.829E+02, 3.618E+00
 7.900E+02, 4.348E+02, 1.868E+00, 4.830E+02, 3.666E+00
 8.000E+02, 4.349E+02, 1.875E+00, 4.831E+02, 3.715E+00
 8.100E+02, 4.350E+02, 1.881E+00, 4.832E+02, 3.776E+00
 8.200E+02, 4.351E+02, 1.887E+00, 4.832E+02, 3.840E+00
 8.300E+02, 4.352E+02, 1.894E+00, 4.833E+02, 3.904E+00
 8.400E+02, 4.353E+02, 1.901E+00, 4.833E+02, 3.968E+00
 8.500E+02, 4.354E+02, 1.936E+00, 4.834E+02, 4.032E+00
 8.600E+02, 4.354E+02, 1.980E+00, 4.834E+02, 4.096E+00
 8.700E+02, 4.355E+02, 2.024E+00, 4.835E+02, 4.160E+00
 8.800E+02, 4.356E+02, 2.068E+00, 4.835E+02, 4.225E+00
 8.900E+02, 4.356E+02, 2.112E+00, 4.835E+02, 4.301E+00
 9.000E+02, 4.357E+02, 2.156E+00, 4.836E+02, 4.381E+00
 9.100E+02, 4.358E+02, 2.200E+00, 4.836E+02, 4.461E+00
 9.200E+02, 4.358E+02, 2.244E+00, 4.836E+02, 4.541E+00
 9.300E+02, 4.359E+02, 2.288E+00, 4.837E+02, 4.621E+00
 9.400E+02, 4.359E+02, 2.332E+00, 4.837E+02, 4.701E+00
 9.500E+02, 4.359E+02, 2.376E+00, 4.837E+02, 4.781E+00
 9.600E+02, 4.360E+02, 2.420E+00, 4.837E+02, 3.317E+00
 9.700E+02, 4.360E+02, 2.464E+00, 4.837E+02, 0.000E+00
 9.800E+02, 4.360E+02, 2.512E+00, 4.838E+02, 0.000E+00
 9.900E+02, 4.361E+02, 2.562E+00, 4.838E+02, 0.000E+00
 1.000E+03, 4.361E+02, 2.612E+00, 4.838E+02, 0.000E+00
 1.010E+03, 4.361E+02, 2.662E+00, 4.838E+02, 0.000E+00
 1.020E+03, 4.362E+02, 2.713E+00, 4.838E+02, 0.000E+00
 1.030E+03, 4.362E+02, 2.763E+00, 4.838E+02, 0.000E+00
 1.040E+03, 4.362E+02, 2.813E+00, 4.838E+02, 0.000E+00
 1.050E+03, 4.362E+02, 2.864E+00, 4.838E+02, 0.000E+00
 1.060E+03, 4.362E+02, 2.914E+00, 4.839E+02, 0.000E+00
 1.070E+03, 4.363E+02, 2.964E+00, 4.839E+02, 0.000E+00
 1.080E+03, 4.363E+02, 3.014E+00, 4.839E+02, 0.000E+00
 1.090E+03, 4.363E+02, 3.065E+00, 4.839E+02, 0.000E+00
 1.100E+03, 4.363E+02, 3.115E+00, 4.839E+02, 0.000E+00
 1.110E+03, 4.363E+02, 3.162E+00, 4.839E+02, 0.000E+00
 1.120E+03, 4.363E+02, 3.206E+00, 4.839E+02, 0.000E+00
 1.130E+03, 4.363E+02, 3.250E+00, 4.839E+02, 0.000E+00
 1.140E+03, 4.364E+02, 3.294E+00, 4.839E+02, 0.000E+00
 1.150E+03, 4.364E+02, 3.338E+00, 4.839E+02, 0.000E+00
 1.160E+03, 4.364E+02, 3.382E+00, 4.839E+02, 0.000E+00
 1.170E+03, 4.364E+02, 3.426E+00, 4.839E+02, 0.000E+00
 1.180E+03, 4.364E+02, 3.470E+00, 4.839E+02, 0.000E+00
 1.190E+03, 4.364E+02, 3.514E+00, 4.839E+02, 0.000E+00
 1.200E+03, 4.364E+02, 3.558E+00, 4.839E+02, 0.000E+00
 1.210E+03, 4.364E+02, 3.602E+00, 4.839E+02, 0.000E+00
 1.220E+03, 4.364E+02, 3.646E+00, 4.839E+02, 0.000E+00
 1.230E+03, 4.364E+02, 3.690E+00, 4.839E+02, 0.000E+00
 1.240E+03, 4.364E+02, 3.739E+00, 4.839E+02, 0.000E+00
 1.250E+03, 4.364E+02, 3.795E+00, 4.839E+02, 0.000E+00
 1.260E+03, 4.364E+02, 3.852E+00, 4.839E+02, 0.000E+00
 1.270E+03, 4.364E+02, 3.908E+00, 4.839E+02, 0.000E+00
 1.280E+03, 4.364E+02, 3.965E+00, 4.839E+02, 0.000E+00
 1.290E+03, 4.364E+02, 4.021E+00, 4.840E+02, 0.000E+00
 1.300E+03, 4.364E+02, 4.078E+00, 4.840E+02, 0.000E+00
 1.310E+03, 4.365E+02, 4.134E+00, 4.840E+02, 0.000E+00
 1.320E+03, 4.365E+02, 4.191E+00, 4.840E+02, 0.000E+00
 1.330E+03, 4.365E+02, 4.248E+00, 4.840E+02, 0.000E+00
 1.340E+03, 4.365E+02, 4.304E+00, 4.840E+02, 0.000E+00
 1.350E+03, 4.365E+02, 4.361E+00, 4.840E+02, 0.000E+00
 1.360E+03, 4.365E+02, 4.417E+00, 4.840E+02, 0.000E+00
 1.370E+03, 4.365E+02, 4.477E+00, 4.840E+02, 0.000E+00
 1.380E+03, 4.365E+02, 4.545E+00, 4.840E+02, 0.000E+00
 1.390E+03, 4.365E+02, 4.614E+00, 4.840E+02, 0.000E+00
 1.400E+03, 4.365E+02, 4.683E+00, 4.840E+02, 0.000E+00
 1.410E+03, 4.365E+02, 4.753E+00, 4.840E+02, 0.000E+00
 1.420E+03, 4.365E+02, 4.822E+00, 4.840E+02, 0.000E+00
 1.430E+03, 4.365E+02, 4.891E+00, 4.840E+02, 0.000E+00
 1.440E+03, 4.365E+02, 4.960E+00, 4.840E+02, 0.000E+00
 1.450E+03, 4.365E+02, 5.029E+00, 4.840E+02, 0.000E+00
 1.460E+03, 4.365E+02, 5.098E+00, 4.840E+02, 0.000E+00
 1.470E+03, 4.365E+02, 5.167E+00, 4.840E+02, 0.000E+00
 1.480E+03, 4.365E+02, 5.237E+00, 4.840E+02, 0.000E+00
 1.490E+03, 4.365E+02, 5.306E+00, 4.840E+02, 0.000E+00
 1.500E+03, 4.365E+02, 2.978E+00, 4.840E+02, 0.000E+00
 1.510E+03, 4.365E+02, 0.000E+00, 4.840E+02, 0.000E+00
 1.520E+03, 4.365E+02, 0.000E+00, 4.840E+02, 0.000E+00
 1.530E+03, 4.365E+02, 0.000E+00, 4.840E+02, 0.000E+00
 1.540E+03, 4.365E+02, 0.000E+00, 4.840E+02, 0.000E+00
 1.550E+03, 4.365E+02, 0.000E+00, 4.840E+02, 0.000E+00
 1.560E+03, 4.365E+02, 0.000E+00, 4.840E+02, 0.000E+00
 1.570E+03, 4.365E+02, 0.000E+00, 4.840E+02, 0.000E+00
 1.580E+03, 4.365E+02, 0.000E+00, 4.840E+02, 0.000E+00
 1.590E+03, 4.365E+02, 0.000E+00, 4.840E+02, 0.000E+00
 1.600E+03, 4.365E+02, 0.000E+00, 4.840E+02, 0.000E+00
 1.610E+03, 4.365E+02, 0.000E+00, 4.840E+02, 0.000E+00
 1.620E+03, 4.365E+02, 0.000E+00, 4.840E+02, 0.000E+00
 1.630E+03, 4.365E+02, 0.000E+00, 4.840E+02, 0.000E+00
 1.640E+03, 4.365E+02, 0.000E+00, 4.840E+02, 0.000E+00
 1.650E+03, 4.365E+02, 0.000E+00, 4.840E+02, 0.000E+00
 1.660E+03, 4.365E+02, 0.000E+00, 4.840E+02, 0.000E+00
 1.670E+03, 4.365E+02, 0.000E+00, 4.840E+02, 0.000E+00
 1.680E+03, 4.365E+02, 0.000E+00, 4.840E+02, 0.000E+00
 1.690E+03, 4.365E+02, 0.000E+00, 4.840E+02, 0.000E+00
 1.700E+03, 4.365E+02, 0.000E+00, 4.840E+02, 0.000E+00
 1.710E+03, 4.365E+02, 0.000E+00, 4.840E+02, 0.000E+00
 1.720E+03, 4.365E+02, 0.000E+00, 4.840E+02, 0.000E+00
 1.730E+03, 4.365E+02, 0.000E+00, 4.840E+02, 0.000E+00
 1.740E+03, 4.365E+02, 0.000E+00, 4.840E+02, 0.000E+00
 1.750E+03, 4.365E+02, 0.000E+00, 4.840E+02, 0.000E+00
 1.760E+03, 4.365E+02, 0.000E+00, 4.840E+02, 0.000E+00
 1.770E+03, 4.365E+02, 0.000E+00, 4.840E+02, 0.000E+00
 1.780E+03, 4.365E+02, 0.000E+00, 4.840E+02, 0.000E+00
 1.790E+03, 4.365E+02, 0.000E+00, 4.840E+02, 0.000E+00
 1.800E+03, 4.365E+02, 0.000E+00, 4.840E+02, 0.000E+00
 1.810E+03, 4.365E+02, 0.000E+00, 4.840E+02, 0.000E+00
 1.820E+03, 4.365E+02, 0.000E+00, 4.840E+02, 0.000E+00
 1.830E+03, 4.365E+02, 0.000E+00, 4.840E+02, 0.000E+00
 1.840E+03, 4.365E+02, 0.000E+00, 4.840E+02, 0.000E+00
 1.850E+03, 4.365E+02, 0.000E+00, 4.840E+02, 0.000E+00
 1.860E+03, 4.365E+02, 0.000E+00, 4.840E+02, 0.000E+00
 1.870E+03, 4.365E+02, 0.000E+00, 4.840E+02, 0.000E+00
 1.880E+03, 4.365E+02, 0.000E+00, 4.840E+02, 0.000E+00
 1.890E+03, 4.365E+02, 0.000E+00, 4.840E+02, 0.000E+00
 1.900E+03, 4.365E+02, 0.000E+00, 4.840E+02, 0.000E+00
 1.910E+03, 4.365E+02, 0.000E+00, 4.840E+02, 0.000E+00
 1.920E+03, 4.365E+02, 0.000E+00, 4.840E+02, 0.000E+00
 1.930E+03, 4.365E+02, 0.000E+00, 4.840E+02, 0.000E+00
 1.940E+03, 4.365E+02, 0.000E+00, 4.840E+02, 0.000E+00
 1.950E+03, 4.365E+02, 0.000E+00, 4.840E+02, 0.000E+00
 1.960E+03, 4.365E+02, 0.000E+00, 4.840E+02, 0.000E+00
 1.970E+03, 4.365E+02, 0.000E+00, 4.840E+02, 0.000E+00
 1.980E+03, 4.365E+02, 0.000E+00, 4.840E+02, 0.000E+00
 1.990E+03, 4.365E+02, 0.000E+00, 4.840E+02, 0.000E+00
 2.000E+03, 4.365E+02, 0.000E+00, 4.840E+02, 0.000E+00
 2.010E+03, 4.365E+02, 0.000E+00, 4.840E+02, 0.000E+00
 2.020E+03, 4.365E+02, 0.000E+00, 4.840E+02, 0.000E+00
 2.030E+03, 4.365E+02, 0.000E+00, 4.840E+02, 0.000E+00
 2.040E+03, 4.365E+02, 0.000E+00, 4.840E+02, 0.000E+00
 2.050E+03, 4.365E+02, 0.000E+00, 4.840E+02, 0.000E+00
 2.060E+03, 4.365E+02, 0.000E+00, 4.840E+02, 0.000E+00
 2.070E+03, 4.365E+02, 0.000E+00, 4.840E+02, 0.000E+00
 2.080E+03, 4.365E+02, 0.000E+00, 4.840E+02, 0.000E+00
 2.090E+03, 4.365E+02, 0.000E+00, 4.840E+02, 0.000E+00
 2.100E+03, 4.365E+02, 0.000E+00, 4.840E+02, 0.000E+00
 2.110E+03, 4.365E+02, 0.000E+00, 4.840E+02, 0.000E+00
 2.120E+03, 4.365E+02, 0.000E+00, 4.840E+02, 0.000E+00
 2.130E+03, 4.365E+02, 0.000E+00, 4.840E+02, 0.000E+00
 2.140E+03, 4.365E+02, 0.000E+00, 4.840E+02, 0.000E+00
 2.150E+03, 4.365E+02, 0.000E+00, 4.840E+02, 0.000E+00
 2.160E+03, 4.365E+02, 0.000E+00, 4.840E+02, 0.000E+00
 2.170E+03, 4.365E+02, 0.000E+00, 4.840E+02, 0.000E+00
 2.180E+03, 4.365E+02, 0.000E+00, 4.840E+02, 0.000E+00
 2.190E+03, 4.365E+02, 0.000E+00, 4.840E+02, 0.000E+00
 2.200E+03, 4.365E+02, 0.000E+00, 4.840E+02, 0.000E+00
 2.210E+03, 4.365E+02, 0.000E+00, 4.840E+02, 0.000E+00
 2.220E+03, 4.365E+02, 0.000E+00, 4.840E+02, 0.000E+00
 2.230E+03, 4.365E+02, 0.000E+00, 4.840E+02, 0.000E+00
 2.240E+03, 4.365E+02, 0.000E+00, 4.840E+02, 0.000E+00
 2.250E+03, 4.365E+02, 0.000E+00, 4.840E+02, 0.000E+00
 2.260E+03, 4.365E+02, 0.000E+00, 4.840E+02, 0.000E+00
 2.270E+03, 4.365E+02, 0.000E+00, 4.840E+02, 0.000E+00
 2.280E+03, 4.365E+02, 0.000E+00, 4.840E+02, 0.000E+00
 2.290E+03, 4.365E+02, 0.000E+00, 4.840E+02, 0.000E+00
 2.300E+03, 4.365E+02, 0.000E+00, 4.840E+02, 0.000E+00
 2.310E+03, 4.365E+02, 0.000E+00, 4.840E+02, 0.000E+00
 2.320E+03, 4.365E+02, 0.000E+00, 4.840E+02, 0.000E+00
 2.330E+03, 4.365E+02, 0.000E+00, 4.840E+02, 0.000E+00
 2.340E+03, 4.365E+02, 0.000E+00, 4.840E+02, 0.000E+00
 2.350E+03, 4.365E+02, 0.000E+00, 4.840E+02, 0.000E+00
 2.360E+03, 4.365E+02, 0.000E+00, 4.840E+02, 0.000E+00
 2.370E+03, 4.365E+02, 0.000E+00, 4.840E+02, 0.000E+00
 2.380E+03, 4.365E+02, 0.000E+00, 4.840E+02, 0.000E+00
 2.390E+03, 4.365E+02, 0.000E+00, 4.840E+02, 0.000E+00
 2.400E+03, 4.365E+02, 0.000E+00, 4.840E+02, 0.000E+00
 2.410E+03, 4.365E+02, 0.000E+00, 4.840E+02, 0.000E+00
 2.420E+03, 4.365E+02, 0.000E+00, 4.840E+02, 0.000E+00
 2.430E+03, 4.365E+02, 0.000E+00, 4.840E+02, 0.000E+00
 2.440E+03, 4.365E+02, 0.000E+00, 4.840E+02, 0.000E+00
 2.450E+03, 4.365E+02, 0.000E+00, 4.840E+02, 0.000E+00
 2.460E+03, 4.365E+02, 0.000E+00, 4.840E+02, 0.000E+00
 2.470E+03, 4.365E+02, 0.000E+00, 4.840E+02, 0.000E+00
 2.473E+03, 4.365E+02, 0.000E+00, 4.840E+02, 0.000E+00
