s,C,kW/m2,C,kW/m2
Time,WALL TEMPERATURE-CONE_12p50_050,HRRPUA-CONE_12p50_050,WALL TEMPERATURE-CONE_12p50_075,HRRPUA-CONE_12p50_075
 0.000E+00, 2.700E+01, 0.000E+00, 2.700E+01, 0.000E+00
 1.000E+01, 1.808E+02, 0.000E+00, 2.536E+02, 0.000E+00
 2.000E+01, 3.170E+02, 0.000E+00, 4.405E+02, 0.000E+00
 3.000E+01, 3.803E+02, 0.000E+00, 5.157E+02, 0.000E+00
 4.000E+01, 4.212E+02, 0.000E+00, 5.595E+02, 0.000E+00
 5.000E+01, 4.499E+02, 0.000E+00, 5.879E+02, 0.000E+00
 6.000E+01, 4.711E+02, 0.000E+00, 6.078E+02, 4.671E+01
 7.000E+01, 4.875E+02, 0.000E+00, 6.227E+02, 1.308E+02
 8.000E+01, 5.007E+02, 0.000E+00, 6.343E+02, 1.218E+02
 9.000E+01, 5.116E+02, 0.000E+00, 6.440E+02, 8.831E+01
 1.000E+02, 5.210E+02, 0.000E+00, 6.521E+02, 6.191E+01
 1.100E+02, 5.292E+02, 0.000E+00, 6.593E+02, 4.902E+01
 1.200E+02, 5.365E+02, 1.439E+00, 6.656E+02, 4.251E+01
 1.300E+02, 5.432E+02, 1.473E+01, 6.714E+02, 3.782E+01
 1.400E+02, 5.492E+02, 5.798E+01, 6.766E+02, 3.467E+01
 1.500E+02, 5.548E+02, 8.582E+01, 6.814E+02, 3.337E+01
 1.600E+02, 5.600E+02, 1.004E+02, 6.859E+02, 3.269E+01
 1.700E+02, 5.648E+02, 9.822E+01, 6.901E+02, 3.120E+01
 1.800E+02, 5.694E+02, 8.402E+01, 6.940E+02, 3.000E+01
 1.900E+02, 5.736E+02, 6.856E+01, 6.977E+02, 1.408E+01
 2.000E+02, 5.776E+02, 5.756E+01, 7.011E+02, 0.000E+00
 2.100E+02, 5.814E+02, 5.049E+01, 7.043E+02, 0.000E+00
 2.200E+02, 5.850E+02, 4.470E+01, 7.074E+02, 0.000E+00
 2.300E+02, 5.883E+02, 4.036E+01, 7.103E+02, 0.000E+00
 2.400E+02, 5.915E+02, 3.773E+01, 7.130E+02, 0.000E+00
 2.500E+02, 5.946E+02, 3.546E+01, 7.155E+02, 0.000E+00
 2.600E+02, 5.974E+02, 3.382E+01, 7.180E+02, 0.000E+00
 2.700E+02, 6.002E+02, 3.220E+01, 7.203E+02, 0.000E+00
 2.800E+02, 6.027E+02, 3.092E+01, 7.224E+02, 0.000E+00
 2.900E+02, 6.052E+02, 3.055E+01, 7.245E+02, 0.000E+00
 3.000E+02, 6.075E+02, 2.935E+01, 7.264E+02, 0.000E+00
 3.100E+02, 6.097E+02, 2.805E+01, 7.283E+02, 0.000E+00
 3.200E+02, 6.118E+02, 2.675E+01, 7.300E+02, 0.000E+00
 3.300E+02, 6.138E+02, 2.551E+01, 7.316E+02, 0.000E+00
 3.400E+02, 6.157E+02, 2.484E+01, 7.332E+02, 0.000E+00
 3.500E+02, 6.175E+02, 2.433E+01, 7.347E+02, 0.000E+00
 3.600E+02, 6.192E+02, 2.382E+01, 7.361E+02, 0.000E+00
 3.700E+02, 6.208E+02, 2.331E+01, 7.374E+02, 0.000E+00
 3.800E+02, 6.224E+02, 2.290E+01, 7.386E+02, 0.000E+00
 3.900E+02, 6.238E+02, 2.254E+01, 7.398E+02, 0.000E+00
 4.000E+02, 6.252E+02, 2.219E+01, 7.410E+02, 0.000E+00
 4.100E+02, 6.266E+02, 2.184E+01, 7.420E+02, 0.000E+00
 4.200E+02, 6.278E+02, 2.138E+01, 7.430E+02, 0.000E+00
 4.300E+02, 6.290E+02, 2.075E+01, 7.440E+02, 0.000E+00
 4.400E+02, 6.302E+02, 2.013E+01, 7.449E+02, 0.000E+00
 4.500E+02, 6.312E+02, 1.950E+01, 7.458E+02, 0.000E+00
 4.600E+02, 6.323E+02, 1.903E+01, 7.466E+02, 0.000E+00
 4.700E+02, 6.333E+02, 1.906E+01, 7.474E+02, 0.000E+00
 4.800E+02, 6.342E+02, 1.912E+01, 7.481E+02, 0.000E+00
 4.900E+02, 6.351E+02, 1.919E+01, 7.488E+02, 0.000E+00
 5.000E+02, 6.359E+02, 1.923E+01, 7.494E+02, 0.000E+00
 5.100E+02, 6.367E+02, 1.905E+01, 7.501E+02, 0.000E+00
 5.200E+02, 6.375E+02, 1.882E+01, 7.507E+02, 0.000E+00
 5.300E+02, 6.382E+02, 1.860E+01, 7.512E+02, 0.000E+00
 5.400E+02, 6.389E+02, 1.578E+01, 7.518E+02, 0.000E+00
 5.500E+02, 6.396E+02, 0.000E+00, 7.523E+02, 0.000E+00
 5.600E+02, 6.402E+02, 0.000E+00, 7.528E+02, 0.000E+00
 5.700E+02, 6.408E+02, 0.000E+00, 7.532E+02, 0.000E+00
 5.800E+02, 6.414E+02, 0.000E+00, 7.536E+02, 0.000E+00
 5.900E+02, 6.419E+02, 0.000E+00, 7.541E+02, 0.000E+00
 6.000E+02, 6.425E+02, 0.000E+00, 7.544E+02, 0.000E+00
 6.100E+02, 6.429E+02, 0.000E+00, 7.548E+02, 0.000E+00
 6.200E+02, 6.434E+02, 0.000E+00, 7.552E+02, 0.000E+00
 6.300E+02, 6.439E+02, 0.000E+00, 7.555E+02, 0.000E+00
 6.400E+02, 6.443E+02, 0.000E+00, 7.558E+02, 0.000E+00
 6.500E+02, 6.447E+02, 0.000E+00, 7.561E+02, 0.000E+00
 6.600E+02, 6.451E+02, 0.000E+00, 7.564E+02, 0.000E+00
 6.700E+02, 6.454E+02, 0.000E+00, 7.567E+02, 0.000E+00
 6.768E+02, 6.457E+02, 0.000E+00, 7.569E+02, 0.000E+00
