s,C,kW/m2,C,kW/m2,C,kW/m2,C,kW/m2
Time,"WALL TEMPERATURE-CONE_22p00_025","HRRPUA-CONE_22p00_025","WALL TEMPERATURE-CONE_22p00_035","HRRPUA-CONE_22p00_035","WALL TEMPERATURE-CONE_22p00_050","HRRPUA-CONE_22p00_050","WALL TEMPERATURE-CONE_22p00_075","HRRPUA-CONE_22p00_075"
 0.000E+00, 2.700E+01, 0.000E+00, 2.700E+01, 0.000E+00, 2.700E+01, 0.000E+00, 2.700E+01, 0.000E+00
 1.000E+01, 1.303E+02, 0.000E+00, 1.703E+02, 0.000E+00, 2.286E+02, 5.956E+01, 3.204E+02, 5.588E+01
 2.000E+01, 2.209E+02, 0.000E+00, 2.912E+02, 9.764E-01, 3.874E+02, 2.123E+02, 5.235E+02, 2.819E+02
 3.000E+01, 2.649E+02, 2.007E+01, 3.453E+02, 7.067E+01, 4.498E+02, 2.567E+02, 5.880E+02, 3.777E+02
 4.000E+01, 2.947E+02, 1.180E+02, 3.796E+02, 1.862E+02, 4.861E+02, 2.185E+02, 6.219E+02, 2.729E+02
 5.000E+01, 3.164E+02, 1.705E+02, 4.034E+02, 2.073E+02, 5.097E+02, 1.716E+02, 6.427E+02, 1.918E+02
 6.000E+01, 3.329E+02, 1.613E+02, 4.207E+02, 1.823E+02, 5.263E+02, 1.224E+02, 6.569E+02, 1.638E+02
 7.000E+01, 3.461E+02, 1.344E+02, 4.341E+02, 1.352E+02, 5.387E+02, 9.286E+01, 6.673E+02, 1.736E+02
 8.000E+01, 3.568E+02, 1.000E+02, 4.448E+02, 9.589E+01, 5.484E+02, 7.486E+01, 6.754E+02, 2.026E+02
 9.000E+01, 3.658E+02, 6.646E+01, 4.536E+02, 5.504E+01, 5.564E+02, 7.456E+01, 6.820E+02, 2.266E+02
 1.000E+02, 3.735E+02, 4.527E+01, 4.610E+02, 3.393E+01, 5.630E+02, 8.406E+01, 6.875E+02, 2.441E+02
 1.100E+02, 3.802E+02, 3.012E+01, 4.673E+02, 2.726E+01, 5.686E+02, 1.019E+02, 6.922E+02, 2.511E+02
 1.200E+02, 3.861E+02, 2.079E+01, 4.729E+02, 2.613E+01, 5.735E+02, 1.183E+02, 6.962E+02, 2.554E+02
 1.300E+02, 3.913E+02, 1.593E+01, 4.778E+02, 2.580E+01, 5.778E+02, 1.324E+02, 6.998E+02, 2.575E+02
 1.400E+02, 3.960E+02, 1.351E+01, 4.822E+02, 2.645E+01, 5.817E+02, 1.427E+02, 7.030E+02, 2.670E+02
 1.500E+02, 4.003E+02, 1.154E+01, 4.861E+02, 2.784E+01, 5.852E+02, 1.502E+02, 7.059E+02, 2.868E+02
 1.600E+02, 4.042E+02, 9.595E+00, 4.898E+02, 3.065E+01, 5.884E+02, 1.562E+02, 7.086E+02, 3.089E+02
 1.700E+02, 4.078E+02, 8.505E+00, 4.931E+02, 3.357E+01, 5.913E+02, 1.609E+02, 7.110E+02, 3.295E+02
 1.800E+02, 4.111E+02, 7.844E+00, 4.961E+02, 3.676E+01, 5.940E+02, 1.652E+02, 7.133E+02, 3.374E+02
 1.900E+02, 4.142E+02, 7.411E+00, 4.990E+02, 4.077E+01, 5.965E+02, 1.706E+02, 7.154E+02, 3.225E+02
 2.000E+02, 4.172E+02, 7.243E+00, 5.017E+02, 4.653E+01, 5.988E+02, 1.775E+02, 7.174E+02, 2.913E+02
 2.100E+02, 4.199E+02, 7.077E+00, 5.042E+02, 5.537E+01, 6.011E+02, 1.872E+02, 7.192E+02, 2.579E+02
 2.200E+02, 4.225E+02, 7.448E+00, 5.066E+02, 6.353E+01, 6.031E+02, 1.993E+02, 7.210E+02, 2.381E+02
 2.300E+02, 4.250E+02, 8.687E+00, 5.088E+02, 7.202E+01, 6.051E+02, 2.065E+02, 7.227E+02, 2.267E+02
 2.400E+02, 4.273E+02, 1.094E+01, 5.109E+02, 8.119E+01, 6.070E+02, 2.104E+02, 7.242E+02, 2.173E+02
 2.500E+02, 4.295E+02, 1.575E+01, 5.130E+02, 8.902E+01, 6.088E+02, 2.139E+02, 7.257E+02, 2.078E+02
 2.600E+02, 4.316E+02, 2.091E+01, 5.149E+02, 9.544E+01, 6.105E+02, 2.153E+02, 7.272E+02, 2.001E+02
 2.700E+02, 4.337E+02, 2.694E+01, 5.168E+02, 9.995E+01, 6.121E+02, 2.138E+02, 7.286E+02, 1.981E+02
 2.800E+02, 4.356E+02, 3.309E+01, 5.185E+02, 1.020E+02, 6.137E+02, 2.136E+02, 7.299E+02, 1.963E+02
 2.900E+02, 4.375E+02, 3.925E+01, 5.202E+02, 1.047E+02, 6.152E+02, 2.144E+02, 7.311E+02, 1.945E+02
 3.000E+02, 4.393E+02, 4.543E+01, 5.219E+02, 1.094E+02, 6.166E+02, 2.137E+02, 7.323E+02, 1.926E+02
 3.100E+02, 4.410E+02, 5.157E+01, 5.234E+02, 1.163E+02, 6.180E+02, 2.071E+02, 7.335E+02, 1.918E+02
 3.200E+02, 4.427E+02, 5.646E+01, 5.249E+02, 1.288E+02, 6.193E+02, 1.967E+02, 7.346E+02, 1.977E+02
 3.300E+02, 4.443E+02, 6.076E+01, 5.264E+02, 1.424E+02, 6.206E+02, 1.835E+02, 7.357E+02, 2.046E+02
 3.400E+02, 4.458E+02, 6.506E+01, 5.278E+02, 1.519E+02, 6.218E+02, 1.722E+02, 7.367E+02, 2.093E+02
 3.500E+02, 4.473E+02, 6.904E+01, 5.291E+02, 1.581E+02, 6.230E+02, 1.638E+02, 7.377E+02, 2.106E+02
 3.600E+02, 4.488E+02, 7.239E+01, 5.304E+02, 1.583E+02, 6.241E+02, 1.566E+02, 7.387E+02, 2.119E+02
 3.700E+02, 4.501E+02, 7.475E+01, 5.317E+02, 1.554E+02, 6.252E+02, 1.525E+02, 7.396E+02, 2.165E+02
 3.800E+02, 4.515E+02, 7.592E+01, 5.329E+02, 1.508E+02, 6.262E+02, 1.488E+02, 7.404E+02, 2.226E+02
 3.900E+02, 4.528E+02, 7.711E+01, 5.340E+02, 1.447E+02, 6.272E+02, 1.450E+02, 7.413E+02, 2.286E+02
 4.000E+02, 4.540E+02, 7.832E+01, 5.352E+02, 1.380E+02, 6.282E+02, 1.413E+02, 7.421E+02, 2.345E+02
 4.100E+02, 4.552E+02, 8.010E+01, 5.362E+02, 1.351E+02, 6.291E+02, 1.384E+02, 7.429E+02, 2.404E+02
 4.200E+02, 4.564E+02, 8.357E+01, 5.373E+02, 1.345E+02, 6.300E+02, 1.384E+02, 7.436E+02, 2.463E+02
 4.300E+02, 4.575E+02, 8.808E+01, 5.383E+02, 1.389E+02, 6.309E+02, 1.404E+02, 7.444E+02, 2.532E+02
 4.400E+02, 4.586E+02, 9.560E+01, 5.392E+02, 1.436E+02, 6.317E+02, 1.424E+02, 7.451E+02, 2.609E+02
 4.500E+02, 4.597E+02, 1.026E+02, 5.402E+02, 1.472E+02, 6.325E+02, 1.444E+02, 7.457E+02, 2.684E+02
 4.600E+02, 4.607E+02, 1.067E+02, 5.411E+02, 1.486E+02, 6.333E+02, 1.464E+02, 7.464E+02, 2.727E+02
 4.700E+02, 4.617E+02, 1.106E+02, 5.419E+02, 1.498E+02, 6.341E+02, 1.484E+02, 7.470E+02, 2.760E+02
 4.800E+02, 4.626E+02, 1.154E+02, 5.428E+02, 1.517E+02, 6.348E+02, 1.505E+02, 7.476E+02, 2.793E+02
 4.900E+02, 4.635E+02, 1.215E+02, 5.436E+02, 1.520E+02, 6.355E+02, 1.539E+02, 7.482E+02, 2.825E+02
 5.000E+02, 4.644E+02, 1.275E+02, 5.444E+02, 1.531E+02, 6.362E+02, 1.573E+02, 7.487E+02, 2.820E+02
 5.100E+02, 4.653E+02, 1.331E+02, 5.451E+02, 1.544E+02, 6.368E+02, 1.601E+02, 7.493E+02, 2.693E+02
 5.200E+02, 4.661E+02, 1.388E+02, 5.459E+02, 1.546E+02, 6.374E+02, 1.632E+02, 7.498E+02, 2.505E+02
 5.300E+02, 4.669E+02, 1.444E+02, 5.466E+02, 1.542E+02, 6.380E+02, 1.668E+02, 7.503E+02, 2.263E+02
 5.400E+02, 4.677E+02, 1.501E+02, 5.473E+02, 1.530E+02, 6.386E+02, 1.697E+02, 7.508E+02, 1.985E+02
 5.500E+02, 4.685E+02, 1.557E+02, 5.479E+02, 1.502E+02, 6.392E+02, 1.724E+02, 7.512E+02, 1.721E+02
 5.600E+02, 4.692E+02, 1.591E+02, 5.486E+02, 1.474E+02, 6.397E+02, 1.754E+02, 7.517E+02, 1.477E+02
 5.700E+02, 4.699E+02, 1.614E+02, 5.492E+02, 1.440E+02, 6.402E+02, 1.792E+02, 7.521E+02, 1.309E+02
 5.800E+02, 4.706E+02, 1.612E+02, 5.498E+02, 1.404E+02, 6.407E+02, 1.832E+02, 7.525E+02, 1.181E+02
 5.900E+02, 4.712E+02, 1.574E+02, 5.503E+02, 1.380E+02, 6.412E+02, 1.873E+02, 7.529E+02, 1.084E+02
 6.000E+02, 4.719E+02, 1.524E+02, 5.509E+02, 1.368E+02, 6.417E+02, 1.913E+02, 7.533E+02, 1.021E+02
 6.100E+02, 4.725E+02, 1.452E+02, 5.514E+02, 1.370E+02, 6.421E+02, 1.953E+02, 7.536E+02, 9.671E+01
 6.200E+02, 4.731E+02, 1.374E+02, 5.519E+02, 1.387E+02, 6.426E+02, 1.992E+02, 7.540E+02, 9.070E+01
 6.300E+02, 4.737E+02, 1.300E+02, 5.524E+02, 1.401E+02, 6.430E+02, 2.028E+02, 7.543E+02, 8.658E+01
 6.400E+02, 4.743E+02, 1.246E+02, 5.529E+02, 1.409E+02, 6.434E+02, 2.062E+02, 7.547E+02, 8.403E+01
 6.500E+02, 4.748E+02, 1.203E+02, 5.534E+02, 1.418E+02, 6.438E+02, 2.086E+02, 7.550E+02, 8.148E+01
 6.600E+02, 4.753E+02, 1.163E+02, 5.538E+02, 1.428E+02, 6.442E+02, 2.088E+02, 7.553E+02, 7.894E+01
 6.700E+02, 4.758E+02, 1.128E+02, 5.543E+02, 1.447E+02, 6.445E+02, 2.086E+02, 7.556E+02, 7.639E+01
 6.800E+02, 4.763E+02, 1.105E+02, 5.547E+02, 1.473E+02, 6.449E+02, 2.058E+02, 7.559E+02, 7.384E+01
 6.900E+02, 4.768E+02, 1.082E+02, 5.551E+02, 1.502E+02, 6.452E+02, 2.017E+02, 7.561E+02, 7.128E+01
 7.000E+02, 4.773E+02, 1.060E+02, 5.555E+02, 1.539E+02, 6.456E+02, 1.934E+02, 7.564E+02, 6.873E+01
 7.100E+02, 4.777E+02, 1.037E+02, 5.559E+02, 1.577E+02, 6.459E+02, 1.811E+02, 7.567E+02, 6.687E+01
 7.200E+02, 4.782E+02, 1.015E+02, 5.563E+02, 1.615E+02, 6.462E+02, 1.662E+02, 7.569E+02, 6.557E+01
 7.300E+02, 4.786E+02, 9.897E+01, 5.566E+02, 1.653E+02, 6.465E+02, 1.506E+02, 7.571E+02, 6.427E+01
 7.400E+02, 4.790E+02, 9.565E+01, 5.570E+02, 1.691E+02, 6.467E+02, 1.384E+02, 7.574E+02, 6.298E+01
 7.500E+02, 4.794E+02, 9.234E+01, 5.573E+02, 1.729E+02, 6.470E+02, 1.274E+02, 7.576E+02, 6.168E+01
 7.600E+02, 4.798E+02, 9.141E+01, 5.576E+02, 1.775E+02, 6.473E+02, 1.156E+02, 7.578E+02, 6.038E+01
 7.700E+02, 4.801E+02, 9.287E+01, 5.579E+02, 1.831E+02, 6.475E+02, 1.038E+02, 7.580E+02, 5.908E+01
 7.800E+02, 4.805E+02, 9.441E+01, 5.582E+02, 1.888E+02, 6.478E+02, 9.251E+01, 7.582E+02, 5.778E+01
 7.900E+02, 4.808E+02, 9.598E+01, 5.585E+02, 1.942E+02, 6.480E+02, 8.023E+01, 7.584E+02, 5.693E+01
 8.000E+02, 4.812E+02, 9.753E+01, 5.588E+02, 1.977E+02, 6.482E+02, 7.013E+01, 7.586E+02, 5.642E+01
 8.100E+02, 4.815E+02, 9.911E+01, 5.591E+02, 2.013E+02, 6.485E+02, 6.274E+01, 7.587E+02, 5.591E+01
 8.200E+02, 4.818E+02, 1.005E+02, 5.593E+02, 2.044E+02, 6.487E+02, 5.649E+01, 7.589E+02, 5.540E+01
 8.300E+02, 4.821E+02, 1.016E+02, 5.596E+02, 2.026E+02, 6.489E+02, 5.260E+01, 7.591E+02, 5.489E+01
 8.400E+02, 4.824E+02, 1.026E+02, 5.598E+02, 2.006E+02, 6.491E+02, 5.015E+01, 7.592E+02, 5.438E+01
 8.500E+02, 4.827E+02, 1.036E+02, 5.600E+02, 1.715E+02, 6.493E+02, 4.859E+01, 7.594E+02, 5.387E+01
 8.600E+02, 4.830E+02, 1.048E+02, 5.603E+02, 9.386E+01, 6.495E+02, 4.709E+01, 7.595E+02, 4.805E+01
 8.700E+02, 4.832E+02, 1.068E+02, 5.605E+02, 8.673E+01, 6.496E+02, 4.557E+01, 7.596E+02, 0.000E+00
 8.800E+02, 4.835E+02, 1.090E+02, 5.607E+02, 8.552E+01, 6.498E+02, 2.108E+01, 7.598E+02, 0.000E+00
 8.900E+02, 4.837E+02, 1.113E+02, 5.609E+02, 8.755E+01, 6.500E+02, 1.385E+01, 7.599E+02, 0.000E+00
 9.000E+02, 4.840E+02, 1.135E+02, 5.611E+02, 9.094E+01, 6.501E+02, 1.328E+01, 7.600E+02, 0.000E+00
 9.100E+02, 4.842E+02, 1.158E+02, 5.613E+02, 8.938E+01, 6.503E+02, 1.304E+01, 7.602E+02, 0.000E+00
 9.200E+02, 4.845E+02, 1.180E+02, 5.615E+02, 8.035E+01, 6.504E+02, 1.282E+01, 7.603E+02, 0.000E+00
 9.300E+02, 4.847E+02, 1.203E+02, 5.617E+02, 6.685E+01, 6.506E+02, 1.260E+01, 7.604E+02, 0.000E+00
 9.400E+02, 4.849E+02, 1.219E+02, 5.618E+02, 5.753E+01, 6.507E+02, 1.238E+01, 7.605E+02, 0.000E+00
 9.500E+02, 4.851E+02, 1.233E+02, 5.620E+02, 5.140E+01, 6.509E+02, 1.215E+01, 7.606E+02, 0.000E+00
 9.600E+02, 4.853E+02, 1.246E+02, 5.622E+02, 4.579E+01, 6.510E+02, 1.192E+01, 7.607E+02, 0.000E+00
 9.700E+02, 4.855E+02, 1.260E+02, 5.623E+02, 4.061E+01, 6.511E+02, 1.169E+01, 7.608E+02, 0.000E+00
 9.800E+02, 4.857E+02, 1.273E+02, 5.625E+02, 3.622E+01, 6.512E+02, 1.146E+01, 7.609E+02, 0.000E+00
 9.900E+02, 4.859E+02, 1.291E+02, 5.626E+02, 3.245E+01, 6.513E+02, 1.122E+01, 7.610E+02, 0.000E+00
 1.000E+03, 4.860E+02, 1.314E+02, 5.628E+02, 2.945E+01, 6.515E+02, 1.098E+01, 7.611E+02, 0.000E+00
 1.010E+03, 4.862E+02, 1.337E+02, 5.629E+02, 2.685E+01, 6.516E+02, 1.078E+01, 7.611E+02, 0.000E+00
 1.020E+03, 4.864E+02, 1.359E+02, 5.630E+02, 2.445E+01, 6.517E+02, 1.067E+01, 7.612E+02, 0.000E+00
 1.030E+03, 4.865E+02, 1.382E+02, 5.632E+02, 2.224E+01, 6.518E+02, 1.057E+01, 7.613E+02, 0.000E+00
 1.040E+03, 4.867E+02, 1.404E+02, 5.633E+02, 2.057E+01, 6.519E+02, 1.047E+01, 7.614E+02, 0.000E+00
 1.050E+03, 4.868E+02, 1.427E+02, 5.634E+02, 1.949E+01, 6.520E+02, 1.036E+01, 7.614E+02, 0.000E+00
 1.060E+03, 4.870E+02, 1.450E+02, 5.635E+02, 1.892E+01, 6.521E+02, 1.026E+01, 7.615E+02, 0.000E+00
 1.070E+03, 4.871E+02, 1.472E+02, 5.636E+02, 1.831E+01, 6.521E+02, 1.016E+01, 7.616E+02, 0.000E+00
 1.080E+03, 4.873E+02, 1.494E+02, 5.638E+02, 1.780E+01, 6.522E+02, 1.005E+01, 7.616E+02, 0.000E+00
 1.090E+03, 4.874E+02, 1.514E+02, 5.639E+02, 1.737E+01, 6.523E+02, 9.945E+00, 7.617E+02, 0.000E+00
 1.100E+03, 4.875E+02, 1.533E+02, 5.640E+02, 1.692E+01, 6.524E+02, 9.839E+00, 7.618E+02, 0.000E+00
 1.110E+03, 4.877E+02, 1.553E+02, 5.641E+02, 1.644E+01, 6.525E+02, 9.733E+00, 7.618E+02, 0.000E+00
 1.120E+03, 4.878E+02, 1.568E+02, 5.642E+02, 1.611E+01, 6.525E+02, 9.626E+00, 7.619E+02, 0.000E+00
 1.130E+03, 4.879E+02, 1.566E+02, 5.642E+02, 1.587E+01, 6.526E+02, 9.519E+00, 7.619E+02, 0.000E+00
 1.140E+03, 4.880E+02, 1.562E+02, 5.643E+02, 1.561E+01, 6.527E+02, 9.412E+00, 7.620E+02, 0.000E+00
 1.150E+03, 4.881E+02, 1.559E+02, 5.644E+02, 1.535E+01, 6.527E+02, 9.304E+00, 7.620E+02, 0.000E+00
 1.160E+03, 4.882E+02, 1.547E+02, 5.645E+02, 1.509E+01, 6.528E+02, 9.195E+00, 7.621E+02, 0.000E+00
 1.170E+03, 4.883E+02, 1.517E+02, 5.646E+02, 1.481E+01, 6.529E+02, 9.086E+00, 7.621E+02, 0.000E+00
 1.180E+03, 4.884E+02, 1.486E+02, 5.647E+02, 1.453E+01, 6.529E+02, 8.977E+00, 7.622E+02, 0.000E+00
 1.190E+03, 4.885E+02, 1.440E+02, 5.647E+02, 1.426E+01, 6.530E+02, 8.867E+00, 7.622E+02, 0.000E+00
 1.200E+03, 4.886E+02, 1.371E+02, 5.648E+02, 1.411E+01, 6.530E+02, 8.785E+00, 7.623E+02, 0.000E+00
 1.210E+03, 4.887E+02, 1.286E+02, 5.649E+02, 1.398E+01, 6.531E+02, 8.733E+00, 7.623E+02, 0.000E+00
 1.220E+03, 4.888E+02, 1.186E+02, 5.649E+02, 1.386E+01, 6.531E+02, 8.682E+00, 7.623E+02, 0.000E+00
 1.230E+03, 4.889E+02, 1.084E+02, 5.650E+02, 1.373E+01, 6.532E+02, 8.631E+00, 7.624E+02, 0.000E+00
 1.240E+03, 4.890E+02, 9.768E+01, 5.651E+02, 1.360E+01, 6.532E+02, 8.580E+00, 7.624E+02, 0.000E+00
 1.250E+03, 4.890E+02, 8.523E+01, 5.651E+02, 1.347E+01, 6.533E+02, 8.528E+00, 7.624E+02, 0.000E+00
 1.260E+03, 4.891E+02, 7.483E+01, 5.652E+02, 1.334E+01, 6.533E+02, 8.477E+00, 7.625E+02, 0.000E+00
 1.270E+03, 4.892E+02, 6.730E+01, 5.653E+02, 1.320E+01, 6.534E+02, 8.425E+00, 7.625E+02, 0.000E+00
 1.280E+03, 4.893E+02, 6.011E+01, 5.653E+02, 1.307E+01, 6.534E+02, 8.374E+00, 7.625E+02, 0.000E+00
 1.290E+03, 4.893E+02, 5.442E+01, 5.654E+02, 1.293E+01, 6.535E+02, 8.322E+00, 7.626E+02, 0.000E+00
 1.300E+03, 4.894E+02, 5.011E+01, 5.654E+02, 1.279E+01, 6.535E+02, 8.270E+00, 7.626E+02, 0.000E+00
 1.310E+03, 4.895E+02, 4.583E+01, 5.655E+02, 1.265E+01, 6.535E+02, 8.218E+00, 7.626E+02, 0.000E+00
 1.320E+03, 4.895E+02, 4.155E+01, 5.655E+02, 1.251E+01, 6.536E+02, 8.166E+00, 7.626E+02, 0.000E+00
 1.330E+03, 4.896E+02, 3.813E+01, 5.656E+02, 1.237E+01, 6.536E+02, 8.114E+00, 7.627E+02, 0.000E+00
 1.340E+03, 4.897E+02, 3.625E+01, 5.656E+02, 1.222E+01, 6.536E+02, 8.062E+00, 7.627E+02, 0.000E+00
 1.350E+03, 4.897E+02, 3.441E+01, 5.656E+02, 1.208E+01, 6.537E+02, 8.009E+00, 7.627E+02, 0.000E+00
 1.360E+03, 4.898E+02, 3.258E+01, 5.657E+02, 1.193E+01, 6.537E+02, 7.957E+00, 7.627E+02, 0.000E+00
 1.370E+03, 4.898E+02, 3.074E+01, 5.657E+02, 1.178E+01, 6.537E+02, 7.904E+00, 7.628E+02, 0.000E+00
 1.380E+03, 4.899E+02, 2.917E+01, 5.658E+02, 1.165E+01, 6.538E+02, 7.852E+00, 7.628E+02, 0.000E+00
 1.390E+03, 4.899E+02, 2.840E+01, 5.658E+02, 1.157E+01, 6.538E+02, 7.809E+00, 7.628E+02, 0.000E+00
 1.400E+03, 4.900E+02, 2.769E+01, 5.658E+02, 1.149E+01, 6.538E+02, 7.769E+00, 7.628E+02, 0.000E+00
 1.410E+03, 4.900E+02, 2.698E+01, 5.659E+02, 1.142E+01, 6.538E+02, 7.728E+00, 7.628E+02, 0.000E+00
 1.420E+03, 4.901E+02, 2.627E+01, 5.659E+02, 1.134E+01, 6.539E+02, 7.688E+00, 7.629E+02, 0.000E+00
 1.430E+03, 4.901E+02, 2.556E+01, 5.659E+02, 1.126E+01, 6.539E+02, 7.647E+00, 7.629E+02, 0.000E+00
 1.440E+03, 4.902E+02, 2.487E+01, 5.660E+02, 1.118E+01, 6.539E+02, 7.606E+00, 7.629E+02, 0.000E+00
 1.450E+03, 4.902E+02, 2.453E+01, 5.660E+02, 1.110E+01, 6.539E+02, 7.565E+00, 7.629E+02, 0.000E+00
 1.460E+03, 4.902E+02, 2.434E+01, 5.660E+02, 1.102E+01, 6.540E+02, 7.525E+00, 7.629E+02, 0.000E+00
 1.470E+03, 4.903E+02, 2.415E+01, 5.661E+02, 1.094E+01, 6.540E+02, 7.484E+00, 7.629E+02, 0.000E+00
 1.480E+03, 4.903E+02, 2.396E+01, 5.661E+02, 1.086E+01, 6.540E+02, 7.443E+00, 7.630E+02, 0.000E+00
 1.490E+03, 4.904E+02, 2.377E+01, 5.661E+02, 1.078E+01, 6.540E+02, 7.402E+00, 7.630E+02, 0.000E+00
 1.500E+03, 4.904E+02, 2.358E+01, 5.662E+02, 1.070E+01, 6.540E+02, 7.360E+00, 7.630E+02, 0.000E+00
 1.510E+03, 4.904E+02, 2.339E+01, 5.662E+02, 1.062E+01, 6.541E+02, 7.319E+00, 7.630E+02, 0.000E+00
 1.520E+03, 4.905E+02, 2.320E+01, 5.662E+02, 1.054E+01, 6.541E+02, 7.278E+00, 7.630E+02, 0.000E+00
 1.530E+03, 4.905E+02, 2.302E+01, 5.662E+02, 1.045E+01, 6.541E+02, 7.237E+00, 7.630E+02, 0.000E+00
 1.540E+03, 4.905E+02, 6.532E+00, 5.663E+02, 1.037E+01, 6.541E+02, 7.195E+00, 7.630E+02, 0.000E+00
 1.550E+03, 4.906E+02, 0.000E+00, 5.663E+02, 1.029E+01, 6.541E+02, 7.154E+00, 7.630E+02, 0.000E+00
 1.560E+03, 4.906E+02, 0.000E+00, 5.663E+02, 1.021E+01, 6.541E+02, 7.112E+00, 7.631E+02, 0.000E+00
 1.570E+03, 4.906E+02, 0.000E+00, 5.663E+02, 1.017E+01, 6.542E+02, 7.076E+00, 7.631E+02, 0.000E+00
 1.580E+03, 4.906E+02, 0.000E+00, 5.663E+02, 1.013E+01, 6.542E+02, 7.048E+00, 7.631E+02, 0.000E+00
 1.590E+03, 4.907E+02, 0.000E+00, 5.664E+02, 1.010E+01, 6.542E+02, 7.021E+00, 7.631E+02, 0.000E+00
 1.600E+03, 4.907E+02, 0.000E+00, 5.664E+02, 1.007E+01, 6.542E+02, 6.993E+00, 7.631E+02, 0.000E+00
 1.610E+03, 4.907E+02, 0.000E+00, 5.664E+02, 1.004E+01, 6.542E+02, 6.965E+00, 7.631E+02, 0.000E+00
 1.620E+03, 4.908E+02, 0.000E+00, 5.664E+02, 1.000E+01, 6.542E+02, 6.937E+00, 7.631E+02, 0.000E+00
 1.630E+03, 4.908E+02, 0.000E+00, 5.664E+02, 9.969E+00, 6.542E+02, 6.909E+00, 7.631E+02, 0.000E+00
 1.640E+03, 4.908E+02, 0.000E+00, 5.664E+02, 9.936E+00, 6.543E+02, 6.882E+00, 7.631E+02, 0.000E+00
 1.650E+03, 4.908E+02, 0.000E+00, 5.665E+02, 9.902E+00, 6.543E+02, 6.854E+00, 7.631E+02, 0.000E+00
 1.660E+03, 4.908E+02, 0.000E+00, 5.665E+02, 9.869E+00, 6.543E+02, 6.826E+00, 7.631E+02, 0.000E+00
 1.670E+03, 4.909E+02, 0.000E+00, 5.665E+02, 9.835E+00, 6.543E+02, 6.798E+00, 7.632E+02, 0.000E+00
 1.680E+03, 4.909E+02, 0.000E+00, 5.665E+02, 9.801E+00, 6.543E+02, 6.770E+00, 7.632E+02, 0.000E+00
 1.690E+03, 4.909E+02, 0.000E+00, 5.665E+02, 9.768E+00, 6.543E+02, 6.742E+00, 7.632E+02, 0.000E+00
 1.700E+03, 4.909E+02, 0.000E+00, 5.665E+02, 9.734E+00, 6.543E+02, 6.714E+00, 7.632E+02, 0.000E+00
 1.710E+03, 4.909E+02, 0.000E+00, 5.665E+02, 9.700E+00, 6.543E+02, 6.686E+00, 7.632E+02, 0.000E+00
 1.720E+03, 4.910E+02, 0.000E+00, 5.666E+02, 9.666E+00, 6.543E+02, 6.658E+00, 7.632E+02, 0.000E+00
 1.730E+03, 4.910E+02, 0.000E+00, 5.666E+02, 9.632E+00, 6.543E+02, 6.630E+00, 7.632E+02, 0.000E+00
 1.740E+03, 4.910E+02, 0.000E+00, 5.666E+02, 6.446E+00, 6.544E+02, 6.601E+00, 7.632E+02, 0.000E+00
 1.750E+03, 4.910E+02, 0.000E+00, 5.666E+02, 0.000E+00, 6.544E+02, 3.889E+00, 7.632E+02, 0.000E+00
 1.760E+03, 4.910E+02, 0.000E+00, 5.666E+02, 0.000E+00, 6.544E+02, 0.000E+00, 7.632E+02, 0.000E+00
 1.770E+03, 4.910E+02, 0.000E+00, 5.666E+02, 0.000E+00, 6.544E+02, 0.000E+00, 7.632E+02, 0.000E+00
 1.780E+03, 4.911E+02, 0.000E+00, 5.666E+02, 0.000E+00, 6.544E+02, 0.000E+00, 7.632E+02, 0.000E+00
 1.790E+03, 4.911E+02, 0.000E+00, 5.666E+02, 0.000E+00, 6.544E+02, 0.000E+00, 7.632E+02, 0.000E+00
 1.800E+03, 4.911E+02, 0.000E+00, 5.666E+02, 0.000E+00, 6.544E+02, 0.000E+00, 7.632E+02, 0.000E+00
 1.810E+03, 4.911E+02, 0.000E+00, 5.667E+02, 0.000E+00, 6.544E+02, 0.000E+00, 7.632E+02, 0.000E+00
 1.820E+03, 4.911E+02, 0.000E+00, 5.667E+02, 0.000E+00, 6.544E+02, 0.000E+00, 7.632E+02, 0.000E+00
 1.830E+03, 4.911E+02, 0.000E+00, 5.667E+02, 0.000E+00, 6.544E+02, 0.000E+00, 7.632E+02, 0.000E+00
 1.840E+03, 4.911E+02, 0.000E+00, 5.667E+02, 0.000E+00, 6.544E+02, 0.000E+00, 7.632E+02, 0.000E+00
 1.850E+03, 4.911E+02, 0.000E+00, 5.667E+02, 0.000E+00, 6.544E+02, 0.000E+00, 7.632E+02, 0.000E+00
 1.860E+03, 4.912E+02, 0.000E+00, 5.667E+02, 0.000E+00, 6.544E+02, 0.000E+00, 7.632E+02, 0.000E+00
 1.870E+03, 4.912E+02, 0.000E+00, 5.667E+02, 0.000E+00, 6.544E+02, 0.000E+00, 7.633E+02, 0.000E+00
 1.880E+03, 4.912E+02, 0.000E+00, 5.667E+02, 0.000E+00, 6.544E+02, 0.000E+00, 7.633E+02, 0.000E+00
 1.890E+03, 4.912E+02, 0.000E+00, 5.667E+02, 0.000E+00, 6.544E+02, 0.000E+00, 7.633E+02, 0.000E+00
 1.900E+03, 4.912E+02, 0.000E+00, 5.667E+02, 0.000E+00, 6.545E+02, 0.000E+00, 7.633E+02, 0.000E+00
 1.910E+03, 4.912E+02, 0.000E+00, 5.667E+02, 0.000E+00, 6.545E+02, 0.000E+00, 7.633E+02, 0.000E+00
 1.920E+03, 4.912E+02, 0.000E+00, 5.667E+02, 0.000E+00, 6.545E+02, 0.000E+00, 7.633E+02, 0.000E+00
 1.930E+03, 4.912E+02, 0.000E+00, 5.667E+02, 0.000E+00, 6.545E+02, 0.000E+00, 7.633E+02, 0.000E+00
 1.940E+03, 4.912E+02, 0.000E+00, 5.668E+02, 0.000E+00, 6.545E+02, 0.000E+00, 7.633E+02, 0.000E+00
 1.950E+03, 4.913E+02, 0.000E+00, 5.668E+02, 0.000E+00, 6.545E+02, 0.000E+00, 7.633E+02, 0.000E+00
 1.960E+03, 4.913E+02, 0.000E+00, 5.668E+02, 0.000E+00, 6.545E+02, 0.000E+00, 7.633E+02, 0.000E+00
 1.970E+03, 4.913E+02, 0.000E+00, 5.668E+02, 0.000E+00, 6.545E+02, 0.000E+00, 7.633E+02, 0.000E+00
 1.980E+03, 4.913E+02, 0.000E+00, 5.668E+02, 0.000E+00, 6.545E+02, 0.000E+00, 7.633E+02, 0.000E+00
