s,C,kW/m2,C,kW/m2,C,kW/m2
Time,WALL TEMPERATURE-CONE_32p20_035,HRRPUA-CONE_32p20_035,WALL TEMPERATURE-CONE_32p20_050,HRRPUA-CONE_32p20_050,WALL TEMPERATURE-CONE_32p20_075,HRRPUA-CONE_32p20_075
 0.000E+00, 2.700E+01, 0.000E+00, 2.700E+01, 0.000E+00, 2.700E+01, 0.000E+00
 1.000E+01, 2.196E+02, 0.000E+00, 2.925E+02, 0.000E+00, 4.003E+02, 0.000E+00
 2.000E+01, 3.628E+02, 0.000E+00, 4.681E+02, 0.000E+00, 6.047E+02, 4.595E+01
 3.000E+01, 4.137E+02, 0.000E+00, 5.198E+02, 0.000E+00, 6.515E+02, 1.894E+02
 4.000E+01, 4.424E+02, 0.000E+00, 5.467E+02, 0.000E+00, 6.744E+02, 2.046E+02
 5.000E+01, 4.607E+02, 0.000E+00, 5.632E+02, 2.004E+01, 6.880E+02, 2.148E+02
 6.000E+01, 4.735E+02, 0.000E+00, 5.743E+02, 9.341E+01, 6.972E+02, 2.095E+02
 7.000E+01, 4.829E+02, 0.000E+00, 5.825E+02, 1.145E+02, 7.039E+02, 1.716E+02
 8.000E+01, 4.903E+02, 0.000E+00, 5.889E+02, 1.209E+02, 7.091E+02, 1.348E+02
 9.000E+01, 4.963E+02, 1.097E+01, 5.940E+02, 1.242E+02, 7.134E+02, 1.160E+02
 1.000E+02, 5.013E+02, 6.585E+01, 5.984E+02, 1.243E+02, 7.169E+02, 1.076E+02
 1.100E+02, 5.056E+02, 9.234E+01, 6.021E+02, 1.186E+02, 7.200E+02, 1.025E+02
 1.200E+02, 5.093E+02, 9.726E+01, 6.053E+02, 1.038E+02, 7.226E+02, 9.897E+01
 1.300E+02, 5.126E+02, 9.918E+01, 6.081E+02, 8.985E+01, 7.250E+02, 9.540E+01
 1.400E+02, 5.155E+02, 1.009E+02, 6.106E+02, 7.918E+01, 7.271E+02, 9.181E+01
 1.500E+02, 5.181E+02, 1.049E+02, 6.129E+02, 7.263E+01, 7.290E+02, 8.822E+01
 1.600E+02, 5.205E+02, 1.087E+02, 6.150E+02, 6.764E+01, 7.307E+02, 8.462E+01
 1.700E+02, 5.227E+02, 1.057E+02, 6.169E+02, 6.377E+01, 7.323E+02, 8.115E+01
 1.800E+02, 5.247E+02, 9.716E+01, 6.186E+02, 6.030E+01, 7.338E+02, 7.836E+01
 1.900E+02, 5.266E+02, 8.601E+01, 6.203E+02, 5.670E+01, 7.352E+02, 7.567E+01
 2.000E+02, 5.284E+02, 7.479E+01, 6.218E+02, 5.457E+01, 7.365E+02, 7.297E+01
 2.100E+02, 5.300E+02, 6.686E+01, 6.232E+02, 5.413E+01, 7.377E+02, 7.027E+01
 2.200E+02, 5.316E+02, 6.106E+01, 6.246E+02, 5.363E+01, 7.388E+02, 6.827E+01
 2.300E+02, 5.331E+02, 5.685E+01, 6.259E+02, 5.268E+01, 7.399E+02, 6.689E+01
 2.400E+02, 5.345E+02, 5.403E+01, 6.271E+02, 5.079E+01, 7.409E+02, 6.551E+01
 2.500E+02, 5.358E+02, 5.235E+01, 6.282E+02, 4.766E+01, 7.419E+02, 6.414E+01
 2.600E+02, 5.370E+02, 5.081E+01, 6.293E+02, 4.456E+01, 7.428E+02, 6.314E+01
 2.700E+02, 5.382E+02, 4.955E+01, 6.304E+02, 4.297E+01, 7.437E+02, 6.240E+01
 2.800E+02, 5.394E+02, 4.872E+01, 6.314E+02, 4.203E+01, 7.446E+02, 6.167E+01
 2.900E+02, 5.405E+02, 4.790E+01, 6.323E+02, 4.109E+01, 7.454E+02, 6.093E+01
 3.000E+02, 5.415E+02, 4.707E+01, 6.333E+02, 4.024E+01, 7.462E+02, 6.020E+01
 3.100E+02, 5.426E+02, 4.625E+01, 6.341E+02, 3.969E+01, 7.469E+02, 5.954E+01
 3.200E+02, 5.435E+02, 4.543E+01, 6.350E+02, 3.933E+01, 7.476E+02, 5.981E+01
 3.300E+02, 5.445E+02, 4.460E+01, 6.358E+02, 3.896E+01, 7.483E+02, 6.036E+01
 3.400E+02, 5.453E+02, 4.378E+01, 6.366E+02, 3.859E+01, 7.490E+02, 6.091E+01
 3.500E+02, 5.462E+02, 4.296E+01, 6.373E+02, 3.796E+01, 7.496E+02, 6.137E+01
 3.600E+02, 5.470E+02, 4.213E+01, 6.380E+02, 3.674E+01, 7.502E+02, 6.124E+01
 3.700E+02, 5.478E+02, 4.131E+01, 6.387E+02, 3.535E+01, 7.508E+02, 6.100E+01
 3.800E+02, 5.486E+02, 4.048E+01, 6.394E+02, 3.345E+01, 7.513E+02, 6.076E+01
 3.900E+02, 5.493E+02, 3.966E+01, 6.400E+02, 3.141E+01, 7.519E+02, 6.052E+01
 4.000E+02, 5.500E+02, 3.885E+01, 6.406E+02, 2.813E+01, 7.524E+02, 6.027E+01
 4.100E+02, 5.507E+02, 3.818E+01, 6.412E+02, 2.717E+01, 7.529E+02, 6.003E+01
 4.200E+02, 5.514E+02, 3.756E+01, 6.418E+02, 2.698E+01, 7.533E+02, 5.979E+01
 4.300E+02, 5.520E+02, 3.695E+01, 6.423E+02, 2.680E+01, 7.538E+02, 5.955E+01
 4.400E+02, 5.526E+02, 3.633E+01, 6.429E+02, 2.671E+01, 7.542E+02, 5.931E+01
 4.500E+02, 5.532E+02, 3.572E+01, 6.434E+02, 2.664E+01, 7.547E+02, 5.906E+01
 4.600E+02, 5.537E+02, 3.510E+01, 6.438E+02, 2.658E+01, 7.551E+02, 5.882E+01
 4.700E+02, 5.543E+02, 3.449E+01, 6.443E+02, 2.510E+01, 7.555E+02, 5.858E+01
 4.800E+02, 5.548E+02, 3.387E+01, 6.448E+02, 1.322E+01, 7.558E+02, 5.834E+01
 4.900E+02, 5.553E+02, 3.326E+01, 6.452E+02, 1.306E+01, 7.562E+02, 5.801E+01
 5.000E+02, 5.558E+02, 3.274E+01, 6.456E+02, 1.300E+01, 7.565E+02, 5.751E+01
 5.100E+02, 5.562E+02, 3.242E+01, 6.460E+02, 1.295E+01, 7.569E+02, 5.701E+01
 5.200E+02, 5.567E+02, 3.211E+01, 6.464E+02, 1.290E+01, 7.572E+02, 5.650E+01
 5.300E+02, 5.571E+02, 3.180E+01, 6.468E+02, 1.284E+01, 7.575E+02, 5.599E+01
 5.400E+02, 5.575E+02, 3.148E+01, 6.471E+02, 1.279E+01, 7.578E+02, 5.549E+01
 5.500E+02, 5.579E+02, 3.117E+01, 6.474E+02, 1.273E+01, 7.581E+02, 5.498E+01
 5.600E+02, 5.583E+02, 3.086E+01, 6.478E+02, 1.268E+01, 7.583E+02, 5.447E+01
 5.700E+02, 5.587E+02, 3.054E+01, 6.481E+02, 1.268E+01, 7.586E+02, 5.397E+01
 5.800E+02, 5.591E+02, 3.025E+01, 6.484E+02, 1.269E+01, 7.588E+02, 5.346E+01
 5.900E+02, 5.594E+02, 3.007E+01, 6.487E+02, 1.269E+01, 7.591E+02, 5.295E+01
 6.000E+02, 5.597E+02, 2.990E+01, 6.490E+02, 1.270E+01, 7.593E+02, 5.244E+01
 6.100E+02, 5.601E+02, 2.974E+01, 6.492E+02, 1.270E+01, 7.595E+02, 5.194E+01
 6.200E+02, 5.604E+02, 2.957E+01, 6.495E+02, 1.271E+01, 7.598E+02, 5.150E+01
 6.300E+02, 5.607E+02, 2.940E+01, 6.498E+02, 1.271E+01, 7.600E+02, 5.179E+01
 6.400E+02, 5.609E+02, 2.923E+01, 6.500E+02, 1.272E+01, 7.602E+02, 5.228E+01
 6.500E+02, 5.612E+02, 2.907E+01, 6.502E+02, 1.272E+01, 7.604E+02, 5.277E+01
 6.600E+02, 5.615E+02, 2.890E+01, 6.505E+02, 1.273E+01, 7.605E+02, 5.326E+01
 6.700E+02, 5.617E+02, 2.873E+01, 6.507E+02, 1.273E+01, 7.607E+02, 5.376E+01
 6.800E+02, 5.620E+02, 2.857E+01, 6.509E+02, 1.274E+01, 7.609E+02, 5.425E+01
 6.900E+02, 5.622E+02, 2.840E+01, 6.511E+02, 1.274E+01, 7.610E+02, 5.474E+01
 7.000E+02, 5.625E+02, 2.826E+01, 6.513E+02, 1.275E+01, 7.612E+02, 5.523E+01
 7.100E+02, 5.627E+02, 2.834E+01, 6.514E+02, 1.275E+01, 7.613E+02, 5.572E+01
 7.200E+02, 5.629E+02, 2.847E+01, 6.516E+02, 1.276E+01, 7.615E+02, 5.617E+01
 7.300E+02, 5.631E+02, 2.859E+01, 6.518E+02, 1.276E+01, 7.616E+02, 5.639E+01
 7.400E+02, 5.633E+02, 2.872E+01, 6.520E+02, 1.276E+01, 7.618E+02, 5.656E+01
 7.500E+02, 5.635E+02, 2.884E+01, 6.521E+02, 1.277E+01, 7.619E+02, 5.674E+01
 7.600E+02, 5.637E+02, 2.897E+01, 6.523E+02, 1.277E+01, 7.620E+02, 5.692E+01
 7.700E+02, 5.638E+02, 2.909E+01, 6.524E+02, 1.278E+01, 7.621E+02, 5.709E+01
 7.800E+02, 5.640E+02, 2.921E+01, 6.526E+02, 1.278E+01, 7.622E+02, 5.727E+01
 7.900E+02, 5.642E+02, 2.920E+01, 6.527E+02, 1.279E+01, 7.624E+02, 5.744E+01
 8.000E+02, 5.643E+02, 2.914E+01, 6.528E+02, 1.279E+01, 7.625E+02, 5.762E+01
 8.100E+02, 5.645E+02, 2.909E+01, 6.530E+02, 1.280E+01, 7.626E+02, 5.780E+01
 8.200E+02, 5.646E+02, 2.903E+01, 6.531E+02, 1.280E+01, 7.627E+02, 5.797E+01
 8.300E+02, 5.648E+02, 2.898E+01, 6.532E+02, 1.279E+01, 7.628E+02, 5.815E+01
 8.400E+02, 5.649E+02, 2.892E+01, 6.533E+02, 1.274E+01, 7.628E+02, 5.832E+01
 8.500E+02, 5.650E+02, 2.887E+01, 6.534E+02, 1.268E+01, 7.629E+02, 5.850E+01
 8.600E+02, 5.652E+02, 2.881E+01, 6.535E+02, 1.263E+01, 7.630E+02, 5.867E+01
 8.700E+02, 5.653E+02, 2.876E+01, 6.536E+02, 1.258E+01, 7.631E+02, 5.885E+01
 8.800E+02, 5.654E+02, 2.870E+01, 6.537E+02, 1.253E+01, 7.632E+02, 5.903E+01
 8.900E+02, 5.655E+02, 2.865E+01, 6.538E+02, 1.248E+01, 7.632E+02, 5.920E+01
 9.000E+02, 5.656E+02, 2.859E+01, 6.539E+02, 1.242E+01, 7.633E+02, 5.938E+01
 9.100E+02, 5.657E+02, 2.854E+01, 6.540E+02, 1.237E+01, 7.634E+02, 5.955E+01
 9.200E+02, 5.658E+02, 2.848E+01, 6.541E+02, 1.232E+01, 7.634E+02, 5.973E+01
 9.300E+02, 5.659E+02, 2.843E+01, 6.541E+02, 1.227E+01, 7.635E+02, 5.990E+01
 9.400E+02, 5.660E+02, 2.837E+01, 6.542E+02, 1.221E+01, 7.636E+02, 6.008E+01
 9.500E+02, 5.661E+02, 2.832E+01, 6.543E+02, 1.216E+01, 7.636E+02, 6.026E+01
 9.600E+02, 5.662E+02, 2.826E+01, 6.544E+02, 1.211E+01, 7.637E+02, 6.061E+01
 9.700E+02, 5.663E+02, 2.821E+01, 6.544E+02, 1.205E+01, 7.637E+02, 6.103E+01
 9.800E+02, 5.664E+02, 2.815E+01, 6.545E+02, 1.200E+01, 7.638E+02, 6.145E+01
 9.900E+02, 5.664E+02, 2.809E+01, 6.546E+02, 1.195E+01, 7.638E+02, 6.187E+01
 1.000E+03, 5.665E+02, 2.804E+01, 6.546E+02, 1.189E+01, 7.639E+02, 6.230E+01
 1.010E+03, 5.666E+02, 2.798E+01, 6.547E+02, 1.184E+01, 7.639E+02, 6.272E+01
 1.020E+03, 5.667E+02, 2.793E+01, 6.547E+02, 1.179E+01, 7.640E+02, 6.314E+01
 1.030E+03, 5.667E+02, 2.787E+01, 6.548E+02, 1.173E+01, 7.640E+02, 6.356E+01
 1.040E+03, 5.668E+02, 2.782E+01, 6.548E+02, 1.168E+01, 7.641E+02, 6.399E+01
 1.050E+03, 5.669E+02, 2.776E+01, 6.549E+02, 1.163E+01, 7.641E+02, 6.441E+01
 1.060E+03, 5.669E+02, 2.771E+01, 6.549E+02, 1.160E+01, 7.641E+02, 6.483E+01
 1.070E+03, 5.670E+02, 2.764E+01, 6.550E+02, 1.166E+01, 7.642E+02, 6.525E+01
 1.080E+03, 5.670E+02, 2.754E+01, 6.550E+02, 1.174E+01, 7.642E+02, 6.567E+01
 1.090E+03, 5.671E+02, 2.742E+01, 6.551E+02, 1.182E+01, 7.642E+02, 6.610E+01
 1.100E+03, 5.671E+02, 2.731E+01, 6.551E+02, 1.190E+01, 7.643E+02, 6.652E+01
 1.110E+03, 5.672E+02, 2.719E+01, 6.552E+02, 1.198E+01, 7.643E+02, 6.694E+01
 1.120E+03, 5.672E+02, 2.707E+01, 6.552E+02, 1.206E+01, 7.643E+02, 6.736E+01
 1.130E+03, 5.673E+02, 2.696E+01, 6.552E+02, 1.214E+01, 7.644E+02, 6.778E+01
 1.140E+03, 5.673E+02, 2.684E+01, 6.553E+02, 1.221E+01, 7.644E+02, 6.821E+01
 1.150E+03, 5.674E+02, 2.673E+01, 6.553E+02, 1.229E+01, 7.644E+02, 6.863E+01
 1.160E+03, 5.674E+02, 2.661E+01, 6.553E+02, 1.237E+01, 7.644E+02, 6.905E+01
 1.170E+03, 5.675E+02, 2.650E+01, 6.554E+02, 1.245E+01, 7.645E+02, 6.947E+01
 1.180E+03, 5.675E+02, 2.638E+01, 6.554E+02, 1.252E+01, 7.645E+02, 6.989E+01
 1.190E+03, 5.675E+02, 2.627E+01, 6.554E+02, 1.260E+01, 7.645E+02, 7.066E+01
 1.200E+03, 5.676E+02, 2.615E+01, 6.554E+02, 1.268E+01, 7.645E+02, 7.192E+01
 1.210E+03, 5.676E+02, 2.604E+01, 6.555E+02, 1.275E+01, 7.646E+02, 7.318E+01
 1.220E+03, 5.676E+02, 2.592E+01, 6.555E+02, 1.283E+01, 7.646E+02, 7.444E+01
 1.230E+03, 5.677E+02, 2.581E+01, 6.555E+02, 1.293E+01, 7.646E+02, 7.571E+01
 1.240E+03, 5.677E+02, 2.569E+01, 6.556E+02, 1.304E+01, 7.646E+02, 7.697E+01
 1.250E+03, 5.677E+02, 2.558E+01, 6.556E+02, 1.316E+01, 7.646E+02, 7.823E+01
 1.260E+03, 5.678E+02, 2.546E+01, 6.556E+02, 1.327E+01, 7.646E+02, 7.949E+01
 1.270E+03, 5.678E+02, 2.535E+01, 6.556E+02, 1.338E+01, 7.647E+02, 8.075E+01
 1.280E+03, 5.678E+02, 2.523E+01, 6.556E+02, 1.349E+01, 7.647E+02, 8.201E+01
 1.290E+03, 5.678E+02, 2.512E+01, 6.557E+02, 1.360E+01, 7.647E+02, 8.329E+01
 1.300E+03, 5.679E+02, 2.500E+01, 6.557E+02, 1.371E+01, 7.647E+02, 8.510E+01
 1.310E+03, 5.679E+02, 2.489E+01, 6.557E+02, 1.382E+01, 7.647E+02, 8.712E+01
 1.320E+03, 5.679E+02, 2.477E+01, 6.557E+02, 1.393E+01, 7.647E+02, 8.914E+01
 1.330E+03, 5.679E+02, 2.465E+01, 6.557E+02, 1.404E+01, 7.648E+02, 9.116E+01
 1.340E+03, 5.680E+02, 2.454E+01, 6.558E+02, 1.415E+01, 7.648E+02, 9.318E+01
 1.350E+03, 5.680E+02, 2.444E+01, 6.558E+02, 1.426E+01, 7.648E+02, 9.520E+01
 1.360E+03, 5.680E+02, 2.449E+01, 6.558E+02, 1.437E+01, 7.648E+02, 9.722E+01
 1.370E+03, 5.680E+02, 2.460E+01, 6.558E+02, 1.448E+01, 7.648E+02, 9.933E+01
 1.380E+03, 5.680E+02, 2.472E+01, 6.558E+02, 1.459E+01, 7.648E+02, 1.020E+02
 1.390E+03, 5.681E+02, 2.483E+01, 6.558E+02, 1.469E+01, 7.648E+02, 1.049E+02
 1.400E+03, 5.681E+02, 2.494E+01, 6.558E+02, 1.480E+01, 7.648E+02, 1.077E+02
 1.410E+03, 5.681E+02, 2.505E+01, 6.559E+02, 1.491E+01, 7.648E+02, 1.105E+02
 1.420E+03, 5.681E+02, 2.516E+01, 6.559E+02, 1.501E+01, 7.648E+02, 1.134E+02
 1.430E+03, 5.681E+02, 2.527E+01, 6.559E+02, 1.506E+01, 7.649E+02, 1.170E+02
 1.440E+03, 5.681E+02, 2.538E+01, 6.559E+02, 1.507E+01, 7.649E+02, 1.206E+02
 1.450E+03, 5.682E+02, 2.550E+01, 6.559E+02, 1.509E+01, 7.649E+02, 1.243E+02
 1.460E+03, 5.682E+02, 2.561E+01, 6.559E+02, 1.511E+01, 7.649E+02, 1.279E+02
 1.470E+03, 5.682E+02, 2.572E+01, 6.559E+02, 1.513E+01, 7.649E+02, 1.315E+02
 1.480E+03, 5.682E+02, 2.583E+01, 6.559E+02, 1.515E+01, 7.649E+02, 1.346E+02
 1.490E+03, 5.682E+02, 2.594E+01, 6.559E+02, 1.516E+01, 7.649E+02, 1.372E+02
 1.500E+03, 5.682E+02, 2.605E+01, 6.559E+02, 1.518E+01, 7.649E+02, 1.399E+02
 1.510E+03, 5.682E+02, 2.617E+01, 6.560E+02, 1.520E+01, 7.649E+02, 1.426E+02
 1.520E+03, 5.682E+02, 2.628E+01, 6.560E+02, 1.522E+01, 7.649E+02, 1.452E+02
 1.530E+03, 5.683E+02, 2.639E+01, 6.560E+02, 1.523E+01, 7.649E+02, 1.479E+02
 1.540E+03, 5.683E+02, 2.650E+01, 6.560E+02, 1.525E+01, 7.649E+02, 1.506E+02
 1.550E+03, 5.683E+02, 2.661E+01, 6.560E+02, 1.527E+01, 7.649E+02, 1.532E+02
 1.560E+03, 5.683E+02, 2.671E+01, 6.560E+02, 1.529E+01, 7.649E+02, 1.556E+02
 1.570E+03, 5.683E+02, 2.676E+01, 6.560E+02, 1.531E+01, 7.649E+02, 1.571E+02
 1.580E+03, 5.683E+02, 2.680E+01, 6.560E+02, 1.532E+01, 7.650E+02, 1.586E+02
 1.590E+03, 5.683E+02, 2.684E+01, 6.560E+02, 1.534E+01, 7.650E+02, 1.600E+02
 1.600E+03, 5.683E+02, 2.688E+01, 6.560E+02, 1.536E+01, 7.650E+02, 1.615E+02
 1.610E+03, 5.683E+02, 2.692E+01, 6.560E+02, 1.538E+01, 7.650E+02, 1.630E+02
 1.620E+03, 5.683E+02, 2.696E+01, 6.560E+02, 1.539E+01, 7.650E+02, 1.644E+02
 1.630E+03, 5.683E+02, 2.700E+01, 6.560E+02, 1.539E+01, 7.650E+02, 1.659E+02
 1.640E+03, 5.683E+02, 2.704E+01, 6.560E+02, 1.538E+01, 7.650E+02, 1.662E+02
 1.650E+03, 5.684E+02, 2.708E+01, 6.560E+02, 1.536E+01, 7.650E+02, 1.647E+02
 1.660E+03, 5.684E+02, 2.712E+01, 6.561E+02, 1.535E+01, 7.650E+02, 1.637E+02
 1.670E+03, 5.684E+02, 2.716E+01, 6.561E+02, 1.533E+01, 7.650E+02, 1.630E+02
 1.680E+03, 5.684E+02, 2.720E+01, 6.561E+02, 1.531E+01, 7.650E+02, 1.624E+02
 1.690E+03, 5.684E+02, 2.724E+01, 6.561E+02, 1.530E+01, 7.650E+02, 1.636E+02
 1.700E+03, 5.684E+02, 2.728E+01, 6.561E+02, 1.528E+01, 7.650E+02, 1.647E+02
 1.710E+03, 5.684E+02, 2.732E+01, 6.561E+02, 1.526E+01, 7.650E+02, 1.623E+02
 1.720E+03, 5.684E+02, 2.736E+01, 6.561E+02, 1.525E+01, 7.650E+02, 1.631E+02
 1.730E+03, 5.684E+02, 2.740E+01, 6.561E+02, 1.525E+01, 7.650E+02, 1.635E+02
 1.740E+03, 5.684E+02, 2.744E+01, 6.561E+02, 1.534E+01, 7.650E+02, 1.626E+02
 1.750E+03, 5.684E+02, 2.748E+01, 6.561E+02, 1.543E+01, 7.650E+02, 1.616E+02
 1.760E+03, 5.684E+02, 2.752E+01, 6.561E+02, 1.552E+01, 7.650E+02, 1.607E+02
 1.770E+03, 5.684E+02, 2.756E+01, 6.561E+02, 1.561E+01, 7.650E+02, 1.597E+02
 1.780E+03, 5.684E+02, 2.760E+01, 6.561E+02, 1.570E+01, 7.650E+02, 1.588E+02
 1.790E+03, 5.684E+02, 2.764E+01, 6.561E+02, 1.579E+01, 7.650E+02, 1.578E+02
 1.800E+03, 5.684E+02, 2.768E+01, 6.561E+02, 1.588E+01, 7.650E+02, 1.562E+02
 1.810E+03, 5.684E+02, 2.772E+01, 6.561E+02, 1.597E+01, 7.650E+02, 1.544E+02
 1.820E+03, 5.684E+02, 2.776E+01, 6.561E+02, 1.606E+01, 7.650E+02, 1.525E+02
 1.830E+03, 5.684E+02, 2.780E+01, 6.561E+02, 1.615E+01, 7.650E+02, 1.507E+02
 1.840E+03, 5.684E+02, 2.784E+01, 6.561E+02, 1.624E+01, 7.650E+02, 1.489E+02
 1.850E+03, 5.685E+02, 2.788E+01, 6.561E+02, 1.633E+01, 7.650E+02, 1.471E+02
 1.860E+03, 5.685E+02, 2.792E+01, 6.561E+02, 1.642E+01, 7.650E+02, 1.452E+02
 1.870E+03, 5.685E+02, 2.796E+01, 6.561E+02, 1.651E+01, 7.650E+02, 1.434E+02
 1.880E+03, 5.685E+02, 2.800E+01, 6.561E+02, 1.660E+01, 7.650E+02, 1.416E+02
 1.890E+03, 5.685E+02, 2.804E+01, 6.561E+02, 1.669E+01, 7.650E+02, 1.396E+02
 1.900E+03, 5.685E+02, 2.808E+01, 6.561E+02, 1.677E+01, 7.650E+02, 1.374E+02
 1.910E+03, 5.685E+02, 2.812E+01, 6.561E+02, 1.686E+01, 7.650E+02, 1.351E+02
 1.920E+03, 5.685E+02, 2.816E+01, 6.561E+02, 1.695E+01, 7.650E+02, 1.328E+02
 1.930E+03, 5.685E+02, 2.820E+01, 6.561E+02, 1.704E+01, 7.650E+02, 1.305E+02
 1.940E+03, 5.685E+02, 2.824E+01, 6.561E+02, 1.712E+01, 7.650E+02, 1.282E+02
 1.950E+03, 5.685E+02, 2.827E+01, 6.561E+02, 1.721E+01, 7.650E+02, 1.259E+02
 1.960E+03, 5.685E+02, 2.831E+01, 6.561E+02, 1.730E+01, 7.650E+02, 1.235E+02
 1.970E+03, 5.685E+02, 2.835E+01, 6.561E+02, 1.738E+01, 7.650E+02, 1.212E+02
 1.980E+03, 5.685E+02, 2.839E+01, 6.561E+02, 1.747E+01, 7.651E+02, 1.185E+02
 1.990E+03, 5.685E+02, 2.843E+01, 6.561E+02, 1.756E+01, 7.651E+02, 1.156E+02
 2.000E+03, 5.685E+02, 2.847E+01, 6.561E+02, 1.764E+01, 7.651E+02, 1.127E+02
 2.010E+03, 5.685E+02, 2.851E+01, 6.561E+02, 1.773E+01, 7.651E+02, 1.098E+02
 2.020E+03, 5.685E+02, 2.855E+01, 6.561E+02, 1.781E+01, 7.651E+02, 1.069E+02
 2.030E+03, 5.685E+02, 2.859E+01, 6.561E+02, 1.790E+01, 7.651E+02, 1.039E+02
 2.040E+03, 5.685E+02, 2.863E+01, 6.561E+02, 1.799E+01, 7.651E+02, 1.010E+02
 2.050E+03, 5.685E+02, 2.868E+01, 6.561E+02, 1.809E+01, 7.651E+02, 9.810E+01
 2.060E+03, 5.685E+02, 2.877E+01, 6.562E+02, 1.818E+01, 7.651E+02, 9.517E+01
 2.070E+03, 5.685E+02, 2.887E+01, 6.562E+02, 1.828E+01, 7.651E+02, 9.225E+01
 2.080E+03, 5.685E+02, 2.896E+01, 6.562E+02, 1.837E+01, 7.651E+02, 8.932E+01
 2.090E+03, 5.685E+02, 2.906E+01, 6.562E+02, 1.846E+01, 7.651E+02, 8.639E+01
 2.100E+03, 5.685E+02, 2.916E+01, 6.562E+02, 1.855E+01, 7.651E+02, 8.345E+01
 2.110E+03, 5.685E+02, 2.925E+01, 6.562E+02, 1.865E+01, 7.651E+02, 8.052E+01
 2.120E+03, 5.685E+02, 2.935E+01, 6.562E+02, 1.874E+01, 7.651E+02, 7.764E+01
 2.130E+03, 5.685E+02, 2.944E+01, 6.562E+02, 1.883E+01, 7.651E+02, 7.522E+01
 2.140E+03, 5.685E+02, 2.954E+01, 6.562E+02, 1.892E+01, 7.651E+02, 7.293E+01
 2.150E+03, 5.685E+02, 2.964E+01, 6.562E+02, 1.901E+01, 7.651E+02, 7.064E+01
 2.160E+03, 5.685E+02, 2.973E+01, 6.562E+02, 1.911E+01, 7.651E+02, 6.835E+01
 2.170E+03, 5.685E+02, 2.983E+01, 6.562E+02, 1.920E+01, 7.651E+02, 6.606E+01
 2.180E+03, 5.685E+02, 2.992E+01, 6.562E+02, 1.929E+01, 7.651E+02, 6.376E+01
 2.190E+03, 5.685E+02, 3.002E+01, 6.562E+02, 1.938E+01, 7.651E+02, 6.147E+01
 2.200E+03, 5.685E+02, 3.012E+01, 6.562E+02, 1.947E+01, 7.651E+02, 5.917E+01
 2.210E+03, 5.685E+02, 3.021E+01, 6.562E+02, 1.956E+01, 7.651E+02, 5.687E+01
 2.220E+03, 5.685E+02, 3.031E+01, 6.562E+02, 1.965E+01, 7.651E+02, 5.458E+01
 2.230E+03, 5.685E+02, 3.041E+01, 6.562E+02, 1.974E+01, 7.651E+02, 5.228E+01
 2.240E+03, 5.685E+02, 3.050E+01, 6.562E+02, 1.984E+01, 7.651E+02, 4.998E+01
 2.250E+03, 5.685E+02, 3.060E+01, 6.562E+02, 2.002E+01, 7.651E+02, 4.768E+01
 2.260E+03, 5.685E+02, 3.069E+01, 6.562E+02, 2.021E+01, 7.651E+02, 4.539E+01
 2.270E+03, 5.685E+02, 3.079E+01, 6.562E+02, 2.039E+01, 7.651E+02, 4.395E+01
 2.280E+03, 5.685E+02, 3.089E+01, 6.562E+02, 2.058E+01, 7.651E+02, 4.306E+01
 2.290E+03, 5.685E+02, 3.098E+01, 6.562E+02, 2.076E+01, 7.651E+02, 4.377E+01
 2.300E+03, 5.685E+02, 3.108E+01, 6.562E+02, 2.094E+01, 7.651E+02, 4.523E+01
 2.310E+03, 5.685E+02, 3.117E+01, 6.562E+02, 2.112E+01, 7.651E+02, 4.669E+01
 2.320E+03, 5.685E+02, 3.127E+01, 6.562E+02, 2.130E+01, 7.651E+02, 4.705E+01
 2.330E+03, 5.685E+02, 3.137E+01, 6.562E+02, 2.148E+01, 7.651E+02, 4.627E+01
 2.340E+03, 5.685E+02, 3.146E+01, 6.562E+02, 2.166E+01, 7.651E+02, 4.549E+01
 2.350E+03, 5.685E+02, 3.156E+01, 6.562E+02, 2.183E+01, 7.651E+02, 3.963E+01
 2.360E+03, 5.685E+02, 3.165E+01, 6.562E+02, 2.201E+01, 7.651E+02, 0.000E+00
 2.370E+03, 5.685E+02, 3.175E+01, 6.562E+02, 2.218E+01, 7.651E+02, 0.000E+00
 2.380E+03, 5.685E+02, 3.185E+01, 6.562E+02, 2.235E+01, 7.651E+02, 0.000E+00
 2.390E+03, 5.685E+02, 3.194E+01, 6.562E+02, 2.253E+01, 7.651E+02, 0.000E+00
 2.400E+03, 5.685E+02, 3.204E+01, 6.562E+02, 2.270E+01, 7.651E+02, 0.000E+00
 2.410E+03, 5.685E+02, 3.213E+01, 6.562E+02, 2.287E+01, 7.651E+02, 0.000E+00
 2.420E+03, 5.685E+02, 3.223E+01, 6.562E+02, 2.303E+01, 7.651E+02, 0.000E+00
 2.430E+03, 5.685E+02, 3.233E+01, 6.562E+02, 2.320E+01, 7.651E+02, 0.000E+00
 2.440E+03, 5.685E+02, 3.242E+01, 6.562E+02, 2.337E+01, 7.651E+02, 0.000E+00
 2.450E+03, 5.685E+02, 3.252E+01, 6.562E+02, 2.356E+01, 7.651E+02, 0.000E+00
 2.460E+03, 5.685E+02, 3.261E+01, 6.562E+02, 2.375E+01, 7.651E+02, 0.000E+00
 2.470E+03, 5.685E+02, 3.271E+01, 6.562E+02, 2.393E+01, 7.651E+02, 0.000E+00
 2.480E+03, 5.685E+02, 3.281E+01, 6.562E+02, 2.412E+01, 7.651E+02, 0.000E+00
 2.490E+03, 5.685E+02, 3.290E+01, 6.562E+02, 2.431E+01, 7.651E+02, 0.000E+00
 2.500E+03, 5.685E+02, 3.300E+01, 6.562E+02, 2.449E+01, 7.651E+02, 0.000E+00
 2.510E+03, 5.685E+02, 3.310E+01, 6.562E+02, 2.468E+01, 7.651E+02, 0.000E+00
 2.520E+03, 5.685E+02, 3.319E+01, 6.562E+02, 2.486E+01, 7.651E+02, 0.000E+00
 2.530E+03, 5.685E+02, 3.329E+01, 6.562E+02, 2.504E+01, 7.651E+02, 0.000E+00
 2.540E+03, 5.685E+02, 3.342E+01, 6.562E+02, 2.522E+01, 7.651E+02, 0.000E+00
 2.550E+03, 5.685E+02, 3.368E+01, 6.562E+02, 2.540E+01, 7.651E+02, 0.000E+00
 2.560E+03, 5.685E+02, 3.397E+01, 6.562E+02, 2.557E+01, 7.651E+02, 0.000E+00
