s,C,kW/m2,C,kW/m2,C,kW/m2
Time,WALL TEMPERATURE-CONE_45p00_035,HRRPUA-CONE_45p00_035,WALL TEMPERATURE-CONE_45p00_050,HRRPUA-CONE_45p00_050,WALL TEMPERATURE-CONE_45p00_075,HRRPUA-CONE_45p00_075
 0.000E+00, 2.700E+01, 0.000E+00, 2.700E+01, 0.000E+00, 2.700E+01, 0.000E+00
 1.000E+01, 1.877E+02, 0.000E+00, 2.511E+02, 0.000E+00, 3.485E+02, 3.101E+01
 2.000E+01, 3.196E+02, 0.000E+00, 4.207E+02, 0.000E+00, 5.582E+02, 9.883E+01
 3.000E+01, 3.741E+02, 0.000E+00, 4.805E+02, 0.000E+00, 6.167E+02, 1.098E+02
 4.000E+01, 4.068E+02, 0.000E+00, 5.132E+02, 0.000E+00, 6.460E+02, 1.140E+02
 5.000E+01, 4.289E+02, 0.000E+00, 5.342E+02, 1.224E+00, 6.639E+02, 1.091E+02
 6.000E+01, 4.449E+02, 0.000E+00, 5.490E+02, 1.383E+01, 6.764E+02, 1.045E+02
 7.000E+01, 4.572E+02, 0.000E+00, 5.601E+02, 2.857E+01, 6.857E+02, 1.015E+02
 8.000E+01, 4.670E+02, 0.000E+00, 5.688E+02, 3.201E+01, 6.928E+02, 9.865E+01
 9.000E+01, 4.750E+02, 0.000E+00, 5.758E+02, 3.967E+01, 6.986E+02, 9.375E+01
 1.000E+02, 4.815E+02, 0.000E+00, 5.815E+02, 4.384E+01, 7.033E+02, 8.757E+01
 1.100E+02, 4.871E+02, 0.000E+00, 5.863E+02, 3.883E+01, 7.072E+02, 7.732E+01
 1.200E+02, 4.918E+02, 0.000E+00, 5.903E+02, 3.407E+01, 7.105E+02, 5.401E+01
 1.300E+02, 4.958E+02, 0.000E+00, 5.938E+02, 3.698E+01, 7.133E+02, 5.404E+01
 1.400E+02, 4.994E+02, 0.000E+00, 5.969E+02, 4.462E+01, 7.158E+02, 7.811E+01
 1.500E+02, 5.026E+02, 0.000E+00, 5.996E+02, 5.862E+01, 7.180E+02, 8.981E+01
 1.600E+02, 5.054E+02, 1.122E+01, 6.019E+02, 6.966E+01, 7.199E+02, 9.683E+01
 1.700E+02, 5.079E+02, 3.335E+01, 6.041E+02, 7.525E+01, 7.217E+02, 9.905E+01
 1.800E+02, 5.102E+02, 4.792E+01, 6.060E+02, 7.750E+01, 7.233E+02, 9.893E+01
 1.900E+02, 5.123E+02, 5.017E+01, 6.078E+02, 7.480E+01, 7.248E+02, 9.780E+01
 2.000E+02, 5.142E+02, 5.210E+01, 6.095E+02, 6.962E+01, 7.261E+02, 9.558E+01
 2.100E+02, 5.159E+02, 5.400E+01, 6.110E+02, 6.276E+01, 7.274E+02, 9.334E+01
 2.200E+02, 5.176E+02, 5.508E+01, 6.124E+02, 5.654E+01, 7.285E+02, 8.811E+01
 2.300E+02, 5.191E+02, 5.400E+01, 6.137E+02, 5.525E+01, 7.296E+02, 8.009E+01
 2.400E+02, 5.205E+02, 5.276E+01, 6.149E+02, 5.529E+01, 7.306E+02, 6.301E+01
 2.500E+02, 5.219E+02, 5.151E+01, 6.160E+02, 5.529E+01, 7.316E+02, 5.490E+01
 2.600E+02, 5.231E+02, 5.037E+01, 6.171E+02, 5.630E+01, 7.324E+02, 5.842E+01
 2.700E+02, 5.243E+02, 4.964E+01, 6.181E+02, 6.111E+01, 7.333E+02, 6.190E+01
 2.800E+02, 5.254E+02, 4.898E+01, 6.191E+02, 7.174E+01, 7.341E+02, 6.238E+01
 2.900E+02, 5.265E+02, 4.830E+01, 6.200E+02, 7.686E+01, 7.349E+02, 6.105E+01
 3.000E+02, 5.275E+02, 4.763E+01, 6.209E+02, 6.991E+01, 7.356E+02, 5.975E+01
 3.100E+02, 5.285E+02, 4.696E+01, 6.217E+02, 6.197E+01, 7.363E+02, 5.926E+01
 3.200E+02, 5.294E+02, 4.618E+01, 6.225E+02, 5.567E+01, 7.369E+02, 5.919E+01
 3.300E+02, 5.303E+02, 4.446E+01, 6.232E+02, 4.906E+01, 7.376E+02, 5.911E+01
 3.400E+02, 5.311E+02, 4.254E+01, 6.240E+02, 3.993E+01, 7.382E+02, 5.897E+01
 3.500E+02, 5.319E+02, 4.170E+01, 6.247E+02, 3.363E+01, 7.387E+02, 5.757E+01
 3.600E+02, 5.327E+02, 4.102E+01, 6.253E+02, 3.165E+01, 7.393E+02, 5.567E+01
 3.700E+02, 5.334E+02, 3.704E+01, 6.260E+02, 3.115E+01, 7.398E+02, 5.358E+01
 3.800E+02, 5.341E+02, 3.170E+01, 6.266E+02, 3.120E+01, 7.403E+02, 4.902E+01
 3.900E+02, 5.348E+02, 2.633E+01, 6.272E+02, 3.118E+01, 7.408E+02, 4.366E+01
 4.000E+02, 5.355E+02, 2.120E+01, 6.278E+02, 3.108E+01, 7.413E+02, 3.864E+01
 4.100E+02, 5.361E+02, 2.389E+01, 6.283E+02, 3.077E+01, 7.418E+02, 3.692E+01
 4.200E+02, 5.367E+02, 3.127E+01, 6.288E+02, 3.042E+01, 7.422E+02, 3.605E+01
 4.300E+02, 5.373E+02, 3.631E+01, 6.294E+02, 3.006E+01, 7.427E+02, 3.519E+01
 4.400E+02, 5.379E+02, 3.938E+01, 6.299E+02, 2.970E+01, 7.431E+02, 3.442E+01
 4.500E+02, 5.385E+02, 4.199E+01, 6.304E+02, 2.934E+01, 7.435E+02, 3.373E+01
 4.600E+02, 5.390E+02, 4.414E+01, 6.308E+02, 2.882E+01, 7.439E+02, 3.304E+01
 4.700E+02, 5.396E+02, 4.576E+01, 6.313E+02, 2.817E+01, 7.443E+02, 3.235E+01
 4.800E+02, 5.401E+02, 4.673E+01, 6.317E+02, 2.753E+01, 7.447E+02, 3.166E+01
 4.900E+02, 5.406E+02, 4.731E+01, 6.322E+02, 2.713E+01, 7.450E+02, 3.107E+01
 5.000E+02, 5.411E+02, 4.730E+01, 6.326E+02, 2.680E+01, 7.454E+02, 3.096E+01
 5.100E+02, 5.416E+02, 4.727E+01, 6.330E+02, 2.646E+01, 7.458E+02, 3.091E+01
 5.200E+02, 5.420E+02, 4.724E+01, 6.334E+02, 2.612E+01, 7.461E+02, 3.086E+01
 5.300E+02, 5.425E+02, 4.707E+01, 6.338E+02, 2.575E+01, 7.464E+02, 3.081E+01
 5.400E+02, 5.429E+02, 4.658E+01, 6.342E+02, 2.531E+01, 7.468E+02, 3.076E+01
 5.500E+02, 5.434E+02, 4.607E+01, 6.346E+02, 2.486E+01, 7.471E+02, 3.080E+01
 5.600E+02, 5.438E+02, 4.556E+01, 6.350E+02, 2.442E+01, 7.474E+02, 3.112E+01
 5.700E+02, 5.442E+02, 4.504E+01, 6.353E+02, 2.399E+01, 7.477E+02, 3.146E+01
 5.800E+02, 5.446E+02, 4.453E+01, 6.357E+02, 2.367E+01, 7.480E+02, 3.180E+01
 5.900E+02, 5.450E+02, 4.383E+01, 6.360E+02, 2.336E+01, 7.483E+02, 3.214E+01
 6.000E+02, 5.454E+02, 4.214E+01, 6.364E+02, 2.305E+01, 7.486E+02, 3.248E+01
 6.100E+02, 5.458E+02, 4.033E+01, 6.367E+02, 2.274E+01, 7.489E+02, 3.283E+01
 6.200E+02, 5.462E+02, 3.850E+01, 6.370E+02, 2.243E+01, 7.491E+02, 3.317E+01
 6.300E+02, 5.465E+02, 3.634E+01, 6.373E+02, 2.212E+01, 7.494E+02, 3.351E+01
 6.400E+02, 5.469E+02, 3.147E+01, 6.377E+02, 2.182E+01, 7.497E+02, 3.385E+01
 6.500E+02, 5.472E+02, 2.634E+01, 6.380E+02, 2.151E+01, 7.499E+02, 3.419E+01
 6.600E+02, 5.476E+02, 2.578E+01, 6.383E+02, 2.120E+01, 7.502E+02, 3.453E+01
 6.700E+02, 5.479E+02, 2.658E+01, 6.386E+02, 2.089E+01, 7.504E+02, 3.487E+01
 6.800E+02, 5.483E+02, 2.739E+01, 6.389E+02, 2.058E+01, 7.507E+02, 3.521E+01
 6.900E+02, 5.486E+02, 2.819E+01, 6.392E+02, 2.037E+01, 7.509E+02, 3.555E+01
 7.000E+02, 5.489E+02, 2.900E+01, 6.394E+02, 2.024E+01, 7.512E+02, 3.559E+01
 7.100E+02, 5.492E+02, 2.978E+01, 6.397E+02, 2.011E+01, 7.514E+02, 3.531E+01
 7.200E+02, 5.495E+02, 2.988E+01, 6.400E+02, 1.998E+01, 7.516E+02, 3.504E+01
 7.300E+02, 5.498E+02, 2.958E+01, 6.402E+02, 1.984E+01, 7.519E+02, 3.476E+01
 7.400E+02, 5.502E+02, 2.928E+01, 6.405E+02, 1.971E+01, 7.521E+02, 3.448E+01
 7.500E+02, 5.504E+02, 2.897E+01, 6.408E+02, 1.957E+01, 7.523E+02, 3.420E+01
 7.600E+02, 5.507E+02, 2.867E+01, 6.410E+02, 1.929E+01, 7.525E+02, 3.392E+01
 7.700E+02, 5.510E+02, 2.837E+01, 6.413E+02, 1.894E+01, 7.527E+02, 3.364E+01
 7.800E+02, 5.513E+02, 2.820E+01, 6.415E+02, 1.859E+01, 7.529E+02, 3.337E+01
 7.900E+02, 5.516E+02, 2.818E+01, 6.418E+02, 1.824E+01, 7.531E+02, 3.311E+01
 8.000E+02, 5.519E+02, 2.816E+01, 6.420E+02, 1.789E+01, 7.533E+02, 3.355E+01
 8.100E+02, 5.521E+02, 2.815E+01, 6.422E+02, 1.753E+01, 7.535E+02, 3.435E+01
 8.200E+02, 5.524E+02, 2.813E+01, 6.425E+02, 1.718E+01, 7.537E+02, 3.514E+01
 8.300E+02, 5.527E+02, 2.811E+01, 6.427E+02, 1.683E+01, 7.539E+02, 3.594E+01
 8.400E+02, 5.529E+02, 2.810E+01, 6.429E+02, 1.645E+01, 7.541E+02, 3.674E+01
 8.500E+02, 5.532E+02, 2.808E+01, 6.431E+02, 1.604E+01, 7.543E+02, 3.753E+01
 8.600E+02, 5.534E+02, 2.796E+01, 6.433E+02, 1.562E+01, 7.545E+02, 3.834E+01
 8.700E+02, 5.537E+02, 2.755E+01, 6.436E+02, 1.521E+01, 7.547E+02, 3.918E+01
 8.800E+02, 5.539E+02, 2.712E+01, 6.438E+02, 1.479E+01, 7.548E+02, 4.003E+01
 8.900E+02, 5.541E+02, 2.669E+01, 6.440E+02, 1.438E+01, 7.550E+02, 4.088E+01
 9.000E+02, 5.544E+02, 2.626E+01, 6.442E+02, 1.396E+01, 7.552E+02, 4.173E+01
 9.100E+02, 5.546E+02, 2.582E+01, 6.444E+02, 1.354E+01, 7.554E+02, 4.258E+01
 9.200E+02, 5.548E+02, 2.529E+01, 6.446E+02, 1.312E+01, 7.555E+02, 4.343E+01
 9.300E+02, 5.550E+02, 2.417E+01, 6.448E+02, 1.270E+01, 7.557E+02, 4.428E+01
 9.400E+02, 5.553E+02, 2.296E+01, 6.450E+02, 1.233E+01, 7.559E+02, 4.512E+01
 9.500E+02, 5.555E+02, 2.175E+01, 6.452E+02, 1.199E+01, 7.560E+02, 4.597E+01
 9.600E+02, 5.557E+02, 2.053E+01, 6.453E+02, 1.166E+01, 7.562E+02, 4.674E+01
 9.700E+02, 5.559E+02, 1.933E+01, 6.455E+02, 1.133E+01, 7.563E+02, 4.706E+01
 9.800E+02, 5.561E+02, 1.816E+01, 6.457E+02, 1.100E+01, 7.565E+02, 4.731E+01
 9.900E+02, 5.563E+02, 1.772E+01, 6.459E+02, 1.067E+01, 7.566E+02, 4.756E+01
 1.000E+03, 5.565E+02, 1.753E+01, 6.460E+02, 1.040E+01, 7.568E+02, 4.782E+01
 1.010E+03, 5.567E+02, 1.733E+01, 6.462E+02, 1.031E+01, 7.569E+02, 4.807E+01
 1.020E+03, 5.569E+02, 1.714E+01, 6.464E+02, 1.028E+01, 7.571E+02, 4.832E+01
 1.030E+03, 5.571E+02, 1.694E+01, 6.466E+02, 1.024E+01, 7.572E+02, 4.857E+01
 1.040E+03, 5.573E+02, 1.675E+01, 6.467E+02, 1.021E+01, 7.573E+02, 4.944E+01
 1.050E+03, 5.575E+02, 1.656E+01, 6.469E+02, 1.017E+01, 7.575E+02, 5.355E+01
 1.060E+03, 5.577E+02, 1.639E+01, 6.470E+02, 1.014E+01, 7.576E+02, 6.173E+01
 1.070E+03, 5.578E+02, 1.623E+01, 6.472E+02, 1.011E+01, 7.577E+02, 7.018E+01
 1.080E+03, 5.580E+02, 1.608E+01, 6.473E+02, 1.007E+01, 7.579E+02, 7.805E+01
 1.090E+03, 5.582E+02, 1.592E+01, 6.475E+02, 1.004E+01, 7.580E+02, 8.455E+01
 1.100E+03, 5.584E+02, 1.577E+01, 6.476E+02, 1.000E+01, 7.581E+02, 9.098E+01
 1.110E+03, 5.585E+02, 1.561E+01, 6.478E+02, 9.970E+00, 7.582E+02, 9.693E+01
 1.120E+03, 5.587E+02, 1.545E+01, 6.479E+02, 9.936E+00, 7.584E+02, 1.019E+02
 1.130E+03, 5.589E+02, 1.530E+01, 6.481E+02, 9.902E+00, 7.585E+02, 1.067E+02
 1.140E+03, 5.590E+02, 1.514E+01, 6.482E+02, 9.868E+00, 7.586E+02, 1.108E+02
 1.150E+03, 5.592E+02, 1.499E+01, 6.484E+02, 9.834E+00, 7.587E+02, 1.132E+02
 1.160E+03, 5.593E+02, 1.483E+01, 6.485E+02, 9.800E+00, 7.588E+02, 1.156E+02
 1.170E+03, 5.595E+02, 1.471E+01, 6.486E+02, 9.766E+00, 7.589E+02, 1.180E+02
 1.180E+03, 5.596E+02, 1.470E+01, 6.488E+02, 9.732E+00, 7.591E+02, 1.204E+02
 1.190E+03, 5.598E+02, 1.468E+01, 6.489E+02, 9.722E+00, 7.592E+02, 1.228E+02
 1.200E+03, 5.599E+02, 1.467E+01, 6.490E+02, 9.733E+00, 7.593E+02, 1.252E+02
 1.210E+03, 5.601E+02, 1.466E+01, 6.492E+02, 9.745E+00, 7.594E+02, 1.271E+02
 1.220E+03, 5.602E+02, 1.465E+01, 6.493E+02, 9.756E+00, 7.595E+02, 1.284E+02
 1.230E+03, 5.604E+02, 1.464E+01, 6.494E+02, 9.768E+00, 7.596E+02, 1.297E+02
 1.240E+03, 5.605E+02, 1.463E+01, 6.495E+02, 9.779E+00, 7.597E+02, 1.303E+02
 1.250E+03, 5.607E+02, 1.462E+01, 6.496E+02, 9.791E+00, 7.598E+02, 1.302E+02
 1.260E+03, 5.608E+02, 1.460E+01, 6.498E+02, 9.802E+00, 7.599E+02, 1.301E+02
 1.270E+03, 5.609E+02, 1.459E+01, 6.499E+02, 9.814E+00, 7.600E+02, 1.300E+02
 1.280E+03, 5.611E+02, 1.458E+01, 6.500E+02, 9.827E+00, 7.601E+02, 1.299E+02
 1.290E+03, 5.612E+02, 1.457E+01, 6.501E+02, 9.933E+00, 7.602E+02, 1.296E+02
 1.300E+03, 5.613E+02, 1.463E+01, 6.502E+02, 1.009E+01, 7.603E+02, 1.288E+02
 1.310E+03, 5.615E+02, 1.471E+01, 6.503E+02, 1.024E+01, 7.604E+02, 1.280E+02
 1.320E+03, 5.616E+02, 1.478E+01, 6.504E+02, 1.040E+01, 7.605E+02, 1.264E+02
 1.330E+03, 5.617E+02, 1.486E+01, 6.505E+02, 1.056E+01, 7.605E+02, 1.242E+02
 1.340E+03, 5.618E+02, 1.494E+01, 6.506E+02, 1.071E+01, 7.606E+02, 1.221E+02
 1.350E+03, 5.619E+02, 1.502E+01, 6.507E+02, 1.093E+01, 7.607E+02, 1.199E+02
 1.360E+03, 5.621E+02, 1.509E+01, 6.508E+02, 1.118E+01, 7.608E+02, 1.177E+02
 1.370E+03, 5.622E+02, 1.517E+01, 6.509E+02, 1.144E+01, 7.609E+02, 1.162E+02
 1.380E+03, 5.623E+02, 1.525E+01, 6.510E+02, 1.169E+01, 7.610E+02, 1.150E+02
 1.390E+03, 5.624E+02, 1.532E+01, 6.511E+02, 1.193E+01, 7.610E+02, 1.138E+02
 1.400E+03, 5.625E+02, 1.540E+01, 6.512E+02, 1.207E+01, 7.611E+02, 1.126E+02
 1.410E+03, 5.626E+02, 1.548E+01, 6.513E+02, 1.217E+01, 7.612E+02, 1.115E+02
 1.420E+03, 5.627E+02, 1.555E+01, 6.514E+02, 1.227E+01, 7.613E+02, 1.103E+02
 1.430E+03, 5.628E+02, 1.563E+01, 6.515E+02, 1.237E+01, 7.614E+02, 1.091E+02
 1.440E+03, 5.629E+02, 1.571E+01, 6.516E+02, 1.248E+01, 7.614E+02, 1.079E+02
 1.450E+03, 5.630E+02, 1.579E+01, 6.517E+02, 1.258E+01, 7.615E+02, 1.067E+02
 1.460E+03, 5.631E+02, 1.586E+01, 6.518E+02, 1.268E+01, 7.616E+02, 1.055E+02
 1.470E+03, 5.632E+02, 1.594E+01, 6.519E+02, 1.282E+01, 7.617E+02, 1.043E+02
 1.480E+03, 5.633E+02, 1.602E+01, 6.519E+02, 1.303E+01, 7.617E+02, 1.031E+02
 1.490E+03, 5.634E+02, 1.609E+01, 6.520E+02, 1.325E+01, 7.618E+02, 1.019E+02
 1.500E+03, 5.635E+02, 1.617E+01, 6.521E+02, 1.346E+01, 7.619E+02, 1.005E+02
 1.510E+03, 5.636E+02, 1.625E+01, 6.522E+02, 1.368E+01, 7.619E+02, 9.899E+01
 1.520E+03, 5.637E+02, 1.633E+01, 6.523E+02, 1.390E+01, 7.620E+02, 9.748E+01
 1.530E+03, 5.638E+02, 1.640E+01, 6.524E+02, 1.411E+01, 7.621E+02, 9.598E+01
 1.540E+03, 5.639E+02, 1.648E+01, 6.524E+02, 1.433E+01, 7.621E+02, 9.448E+01
 1.550E+03, 5.640E+02, 1.656E+01, 6.525E+02, 1.454E+01, 7.622E+02, 9.298E+01
 1.560E+03, 5.641E+02, 1.663E+01, 6.526E+02, 1.476E+01, 7.622E+02, 9.147E+01
 1.570E+03, 5.642E+02, 1.671E+01, 6.527E+02, 1.505E+01, 7.623E+02, 8.997E+01
 1.580E+03, 5.643E+02, 1.679E+01, 6.527E+02, 1.538E+01, 7.624E+02, 8.846E+01
 1.590E+03, 5.643E+02, 1.686E+01, 6.528E+02, 1.570E+01, 7.624E+02, 8.720E+01
 1.600E+03, 5.644E+02, 1.693E+01, 6.529E+02, 1.603E+01, 7.625E+02, 8.710E+01
 1.610E+03, 5.645E+02, 1.690E+01, 6.529E+02, 1.635E+01, 7.625E+02, 8.716E+01
 1.620E+03, 5.646E+02, 1.684E+01, 6.530E+02, 1.669E+01, 7.626E+02, 8.722E+01
 1.630E+03, 5.647E+02, 1.678E+01, 6.531E+02, 1.716E+01, 7.627E+02, 8.728E+01
 1.640E+03, 5.648E+02, 1.671E+01, 6.531E+02, 1.766E+01, 7.627E+02, 8.755E+01
 1.650E+03, 5.648E+02, 1.665E+01, 6.532E+02, 1.816E+01, 7.628E+02, 8.853E+01
 1.660E+03, 5.649E+02, 1.659E+01, 6.533E+02, 1.867E+01, 7.628E+02, 8.958E+01
 1.670E+03, 5.650E+02, 1.652E+01, 6.533E+02, 1.917E+01, 7.629E+02, 9.063E+01
 1.680E+03, 5.651E+02, 1.646E+01, 6.534E+02, 1.967E+01, 7.629E+02, 9.168E+01
 1.690E+03, 5.651E+02, 1.640E+01, 6.535E+02, 2.017E+01, 7.630E+02, 9.273E+01
 1.700E+03, 5.652E+02, 1.634E+01, 6.535E+02, 2.066E+01, 7.630E+02, 9.377E+01
 1.710E+03, 5.653E+02, 1.627E+01, 6.536E+02, 2.116E+01, 7.631E+02, 9.483E+01
 1.720E+03, 5.653E+02, 1.621E+01, 6.536E+02, 2.166E+01, 7.631E+02, 9.611E+01
 1.730E+03, 5.654E+02, 1.615E+01, 6.537E+02, 2.216E+01, 7.632E+02, 9.751E+01
 1.740E+03, 5.655E+02, 1.608E+01, 6.538E+02, 2.265E+01, 7.632E+02, 9.823E+01
 1.750E+03, 5.655E+02, 1.602E+01, 6.538E+02, 2.315E+01, 7.633E+02, 9.756E+01
 1.760E+03, 5.656E+02, 1.596E+01, 6.539E+02, 2.364E+01, 7.633E+02, 9.685E+01
 1.770E+03, 5.657E+02, 1.590E+01, 6.539E+02, 2.413E+01, 7.634E+02, 9.691E+01
 1.780E+03, 5.657E+02, 1.583E+01, 6.540E+02, 2.463E+01, 7.634E+02, 9.830E+01
 1.790E+03, 5.658E+02, 1.577E+01, 6.540E+02, 2.512E+01, 7.635E+02, 9.972E+01
 1.800E+03, 5.659E+02, 1.571E+01, 6.541E+02, 2.561E+01, 7.635E+02, 1.011E+02
 1.810E+03, 5.659E+02, 1.570E+01, 6.541E+02, 2.610E+01, 7.635E+02, 1.021E+02
 1.820E+03, 5.660E+02, 1.587E+01, 6.542E+02, 2.659E+01, 7.636E+02, 1.026E+02
 1.830E+03, 5.660E+02, 1.605E+01, 6.542E+02, 2.708E+01, 7.636E+02, 1.030E+02
 1.840E+03, 5.661E+02, 1.623E+01, 6.543E+02, 2.757E+01, 7.637E+02, 1.034E+02
 1.850E+03, 5.662E+02, 1.641E+01, 6.543E+02, 2.803E+01, 7.637E+02, 1.029E+02
 1.860E+03, 5.662E+02, 1.659E+01, 6.544E+02, 2.843E+01, 7.637E+02, 1.013E+02
 1.870E+03, 5.663E+02, 1.677E+01, 6.544E+02, 2.878E+01, 7.638E+02, 9.975E+01
 1.880E+03, 5.663E+02, 1.695E+01, 6.545E+02, 2.902E+01, 7.638E+02, 9.819E+01
 1.890E+03, 5.664E+02, 1.713E+01, 6.545E+02, 2.925E+01, 7.639E+02, 9.663E+01
 1.900E+03, 5.664E+02, 1.731E+01, 6.546E+02, 2.948E+01, 7.639E+02, 9.508E+01
 1.910E+03, 5.665E+02, 1.749E+01, 6.546E+02, 2.971E+01, 7.639E+02, 9.403E+01
 1.920E+03, 5.665E+02, 1.767E+01, 6.547E+02, 2.993E+01, 7.640E+02, 9.335E+01
 1.930E+03, 5.666E+02, 1.785E+01, 6.547E+02, 3.016E+01, 7.640E+02, 9.267E+01
 1.940E+03, 5.666E+02, 1.803E+01, 6.548E+02, 3.036E+01, 7.640E+02, 9.198E+01
 1.950E+03, 5.667E+02, 1.821E+01, 6.548E+02, 3.049E+01, 7.641E+02, 9.130E+01
 1.960E+03, 5.667E+02, 1.840E+01, 6.548E+02, 3.059E+01, 7.641E+02, 9.062E+01
 1.970E+03, 5.668E+02, 1.860E+01, 6.549E+02, 3.070E+01, 7.641E+02, 8.994E+01
 1.980E+03, 5.668E+02, 1.879E+01, 6.549E+02, 3.080E+01, 7.642E+02, 8.926E+01
 1.990E+03, 5.669E+02, 1.898E+01, 6.550E+02, 3.091E+01, 7.642E+02, 8.861E+01
 2.000E+03, 5.669E+02, 1.917E+01, 6.550E+02, 3.102E+01, 7.642E+02, 8.865E+01
 2.010E+03, 5.670E+02, 1.936E+01, 6.550E+02, 3.112E+01, 7.643E+02, 8.899E+01
 2.020E+03, 5.670E+02, 1.956E+01, 6.551E+02, 3.123E+01, 7.643E+02, 8.933E+01
 2.030E+03, 5.671E+02, 1.975E+01, 6.551E+02, 3.221E+01, 7.643E+02, 8.966E+01
 2.040E+03, 5.671E+02, 1.994E+01, 6.551E+02, 3.442E+01, 7.644E+02, 9.000E+01
 2.050E+03, 5.672E+02, 2.013E+01, 6.552E+02, 3.359E+01, 7.644E+02, 9.034E+01
 2.060E+03, 5.672E+02, 2.033E+01, 6.552E+02, 3.229E+01, 7.644E+02, 9.068E+01
 2.070E+03, 5.672E+02, 2.052E+01, 6.553E+02, 3.216E+01, 7.644E+02, 9.101E+01
 2.080E+03, 5.673E+02, 2.071E+01, 6.553E+02, 3.204E+01, 7.645E+02, 9.135E+01
 2.090E+03, 5.673E+02, 2.090E+01, 6.553E+02, 3.195E+01, 7.645E+02, 9.176E+01
 2.100E+03, 5.674E+02, 2.109E+01, 6.554E+02, 3.202E+01, 7.645E+02, 9.278E+01
 2.110E+03, 5.674E+02, 2.129E+01, 6.554E+02, 3.211E+01, 7.646E+02, 9.395E+01
 2.120E+03, 5.674E+02, 2.148E+01, 6.554E+02, 3.221E+01, 7.646E+02, 9.511E+01
 2.130E+03, 5.675E+02, 2.167E+01, 6.555E+02, 3.230E+01, 7.646E+02, 9.627E+01
 2.140E+03, 5.675E+02, 2.186E+01, 6.555E+02, 3.239E+01, 7.646E+02, 9.753E+01
 2.150E+03, 5.676E+02, 2.206E+01, 6.555E+02, 3.248E+01, 7.647E+02, 9.935E+01
 2.160E+03, 5.676E+02, 2.223E+01, 6.555E+02, 3.258E+01, 7.647E+02, 1.013E+02
 2.170E+03, 5.676E+02, 2.230E+01, 6.556E+02, 3.267E+01, 7.647E+02, 1.032E+02
 2.180E+03, 5.677E+02, 2.235E+01, 6.556E+02, 3.292E+01, 7.647E+02, 1.048E+02
 2.190E+03, 5.677E+02, 2.241E+01, 6.556E+02, 3.361E+01, 7.648E+02, 1.054E+02
 2.200E+03, 5.677E+02, 2.247E+01, 6.557E+02, 3.432E+01, 7.648E+02, 1.058E+02
 2.210E+03, 5.678E+02, 2.252E+01, 6.557E+02, 3.646E+01, 7.648E+02, 1.061E+02
 2.220E+03, 5.678E+02, 2.258E+01, 6.557E+02, 3.655E+01, 7.648E+02, 1.067E+02
 2.230E+03, 5.678E+02, 2.264E+01, 6.558E+02, 3.575E+01, 7.649E+02, 1.078E+02
 2.240E+03, 5.679E+02, 2.269E+01, 6.558E+02, 3.578E+01, 7.649E+02, 1.089E+02
 2.250E+03, 5.679E+02, 2.275E+01, 6.558E+02, 3.802E+01, 7.649E+02, 1.100E+02
 2.260E+03, 5.679E+02, 2.281E+01, 6.558E+02, 3.973E+01, 7.649E+02, 1.112E+02
 2.270E+03, 5.680E+02, 2.286E+01, 6.559E+02, 4.103E+01, 7.649E+02, 1.123E+02
 2.280E+03, 5.680E+02, 2.292E+01, 6.559E+02, 4.179E+01, 7.650E+02, 1.134E+02
 2.290E+03, 5.680E+02, 2.298E+01, 6.559E+02, 4.290E+01, 7.650E+02, 1.147E+02
 2.300E+03, 5.681E+02, 2.304E+01, 6.559E+02, 4.431E+01, 7.650E+02, 1.163E+02
 2.310E+03, 5.681E+02, 2.309E+01, 6.560E+02, 4.571E+01, 7.650E+02, 1.184E+02
 2.320E+03, 5.681E+02, 2.315E+01, 6.560E+02, 4.709E+01, 7.650E+02, 1.217E+02
 2.330E+03, 5.682E+02, 2.355E+01, 6.560E+02, 4.836E+01, 7.651E+02, 1.251E+02
 2.340E+03, 5.682E+02, 2.422E+01, 6.560E+02, 4.918E+01, 7.651E+02, 1.281E+02
 2.350E+03, 5.682E+02, 2.552E+01, 6.561E+02, 4.993E+01, 7.651E+02, 1.302E+02
 2.360E+03, 5.682E+02, 2.743E+01, 6.561E+02, 5.112E+01, 7.651E+02, 1.322E+02
 2.370E+03, 5.683E+02, 2.936E+01, 6.561E+02, 5.301E+01, 7.651E+02, 1.343E+02
 2.380E+03, 5.683E+02, 3.129E+01, 6.561E+02, 5.487E+01, 7.652E+02, 1.358E+02
 2.390E+03, 5.683E+02, 3.321E+01, 6.561E+02, 5.599E+01, 7.652E+02, 1.365E+02
 2.400E+03, 5.683E+02, 3.515E+01, 6.562E+02, 5.661E+01, 7.652E+02, 1.378E+02
 2.410E+03, 5.684E+02, 3.692E+01, 6.562E+02, 5.708E+01, 7.652E+02, 1.400E+02
 2.420E+03, 5.684E+02, 3.841E+01, 6.562E+02, 5.754E+01, 7.652E+02, 1.422E+02
 2.430E+03, 5.684E+02, 3.988E+01, 6.562E+02, 5.786E+01, 7.652E+02, 1.445E+02
 2.440E+03, 5.684E+02, 4.135E+01, 6.563E+02, 5.808E+01, 7.653E+02, 1.467E+02
 2.450E+03, 5.685E+02, 4.283E+01, 6.563E+02, 5.829E+01, 7.653E+02, 1.489E+02
 2.460E+03, 5.685E+02, 4.430E+01, 6.563E+02, 5.850E+01, 7.653E+02, 1.511E+02
 2.470E+03, 5.685E+02, 4.572E+01, 6.563E+02, 5.869E+01, 7.653E+02, 1.529E+02
 2.480E+03, 5.685E+02, 4.687E+01, 6.563E+02, 5.887E+01, 7.653E+02, 1.543E+02
 2.490E+03, 5.686E+02, 4.800E+01, 6.563E+02, 5.905E+01, 7.653E+02, 1.556E+02
 2.500E+03, 5.686E+02, 4.912E+01, 6.564E+02, 5.918E+01, 7.654E+02, 1.570E+02
 2.510E+03, 5.686E+02, 5.025E+01, 6.564E+02, 5.869E+01, 7.654E+02, 1.584E+02
 2.520E+03, 5.686E+02, 5.138E+01, 6.564E+02, 5.793E+01, 7.654E+02, 1.597E+02
 2.530E+03, 5.687E+02, 5.245E+01, 6.564E+02, 5.718E+01, 7.654E+02, 1.611E+02
 2.540E+03, 5.687E+02, 5.310E+01, 6.564E+02, 5.640E+01, 7.654E+02, 1.625E+02
 2.550E+03, 5.687E+02, 5.366E+01, 6.565E+02, 5.541E+01, 7.654E+02, 1.638E+02
 2.560E+03, 5.687E+02, 5.421E+01, 6.565E+02, 5.457E+01, 7.654E+02, 1.652E+02
