s,C,kW/m2,C,kW/m2,C,kW/m2
Time,"WALL TEMPERATURE-CONE_8p70_035","HRRPUA-CONE_8p70_035","WALL TEMPERATURE-CONE_8p70_050","HRRPUA-CONE_8p70_050","WALL TEMPERATURE-CONE_8p70_075","HRRPUA-CONE_8p70_075"
 0.000E+00, 2.700E+01, 0.000E+00, 2.700E+01, 0.000E+00, 2.700E+01, 0.000E+00
 1.000E+01, 1.782E+02, 0.000E+00, 2.393E+02, 0.000E+00, 3.347E+02, 0.000E+00
 2.000E+01, 3.018E+02, 0.000E+00, 3.999E+02, 0.000E+00, 5.369E+02, 1.979E+01
 3.000E+01, 3.546E+02, 0.000E+00, 4.596E+02, 0.000E+00, 5.970E+02, 1.659E+02
 4.000E+01, 3.894E+02, 0.000E+00, 4.963E+02, 2.131E+01, 6.314E+02, 1.850E+02
 5.000E+01, 4.162E+02, 0.000E+00, 5.232E+02, 1.011E+02, 6.559E+02, 1.694E+02
 6.000E+01, 4.378E+02, 0.000E+00, 5.443E+02, 1.374E+02, 6.747E+02, 1.529E+02
 7.000E+01, 4.558E+02, 0.000E+00, 5.614E+02, 1.329E+02, 6.896E+02, 1.438E+02
 8.000E+01, 4.710E+02, 0.000E+00, 5.755E+02, 1.284E+02, 7.017E+02, 1.397E+02
 9.000E+01, 4.839E+02, 1.021E+01, 5.872E+02, 1.230E+02, 7.116E+02, 1.372E+02
 1.000E+02, 4.949E+02, 6.251E+01, 5.970E+02, 1.179E+02, 7.197E+02, 1.352E+02
 1.100E+02, 5.043E+02, 9.196E+01, 6.052E+02, 1.138E+02, 7.265E+02, 1.326E+02
 1.200E+02, 5.124E+02, 9.751E+01, 6.122E+02, 1.103E+02, 7.321E+02, 1.281E+02
 1.300E+02, 5.193E+02, 9.415E+01, 6.181E+02, 1.073E+02, 7.368E+02, 1.233E+02
 1.400E+02, 5.254E+02, 8.917E+01, 6.231E+02, 1.045E+02, 7.408E+02, 1.184E+02
 1.500E+02, 5.305E+02, 8.406E+01, 6.274E+02, 1.011E+02, 7.441E+02, 1.135E+02
 1.600E+02, 5.350E+02, 7.906E+01, 6.310E+02, 9.706E+01, 7.468E+02, 1.104E+02
 1.700E+02, 5.389E+02, 7.450E+01, 6.341E+02, 9.288E+01, 7.492E+02, 1.092E+02
 1.800E+02, 5.423E+02, 7.202E+01, 6.367E+02, 8.966E+01, 7.511E+02, 1.092E+02
 1.900E+02, 5.452E+02, 7.058E+01, 6.390E+02, 8.665E+01, 7.528E+02, 1.093E+02
 2.000E+02, 5.477E+02, 6.947E+01, 6.409E+02, 8.394E+01, 7.542E+02, 1.094E+02
 2.100E+02, 5.499E+02, 6.841E+01, 6.425E+02, 8.194E+01, 7.553E+02, 1.089E+02
 2.200E+02, 5.518E+02, 6.776E+01, 6.439E+02, 8.000E+01, 7.563E+02, 1.072E+02
 2.300E+02, 5.534E+02, 6.721E+01, 6.451E+02, 7.845E+01, 7.571E+02, 1.054E+02
 2.400E+02, 5.548E+02, 6.665E+01, 6.462E+02, 7.761E+01, 7.578E+02, 1.037E+02
 2.500E+02, 5.561E+02, 6.610E+01, 6.470E+02, 7.687E+01, 7.584E+02, 1.020E+02
 2.600E+02, 5.571E+02, 6.554E+01, 6.478E+02, 7.614E+01, 7.589E+02, 1.009E+02
 2.700E+02, 5.581E+02, 6.466E+01, 6.484E+02, 7.541E+01, 7.593E+02, 1.021E+02
 2.800E+02, 5.589E+02, 6.340E+01, 6.490E+02, 7.502E+01, 7.597E+02, 1.034E+02
 2.900E+02, 5.596E+02, 6.213E+01, 6.494E+02, 7.451E+01, 7.600E+02, 1.048E+02
 3.000E+02, 5.602E+02, 6.086E+01, 6.498E+02, 7.394E+01, 7.602E+02, 1.062E+02
 3.100E+02, 5.607E+02, 5.960E+01, 6.502E+02, 7.378E+01, 7.605E+02, 1.075E+02
 3.200E+02, 5.611E+02, 5.833E+01, 6.505E+02, 7.393E+01, 7.606E+02, 1.091E+02
 3.300E+02, 5.615E+02, 5.706E+01, 6.507E+02, 7.464E+01, 7.608E+02, 1.107E+02
 3.400E+02, 5.619E+02, 5.579E+01, 6.509E+02, 7.540E+01, 7.609E+02, 1.121E+02
 3.500E+02, 5.622E+02, 5.452E+01, 6.511E+02, 7.617E+01, 7.610E+02, 1.111E+02
 3.600E+02, 5.624E+02, 5.334E+01, 6.513E+02, 7.692E+01, 7.611E+02, 1.089E+02
 3.700E+02, 5.627E+02, 5.282E+01, 6.514E+02, 7.742E+01, 7.612E+02, 1.068E+02
 3.800E+02, 5.629E+02, 5.245E+01, 6.515E+02, 7.762E+01, 7.612E+02, 1.047E+02
 3.900E+02, 5.630E+02, 5.214E+01, 6.516E+02, 7.781E+01, 7.613E+02, 1.025E+02
 4.000E+02, 5.632E+02, 5.213E+01, 6.517E+02, 7.802E+01, 7.613E+02, 1.003E+02
 4.100E+02, 5.633E+02, 5.215E+01, 6.518E+02, 7.820E+01, 7.614E+02, 9.798E+01
 4.200E+02, 5.634E+02, 5.216E+01, 6.518E+02, 7.798E+01, 7.614E+02, 9.619E+01
 4.300E+02, 5.635E+02, 5.218E+01, 6.519E+02, 7.766E+01, 7.614E+02, 9.821E+01
 4.400E+02, 5.636E+02, 5.220E+01, 6.519E+02, 7.736E+01, 7.615E+02, 1.009E+02
 4.500E+02, 5.637E+02, 5.222E+01, 6.520E+02, 7.706E+01, 7.615E+02, 1.034E+02
 4.600E+02, 5.637E+02, 5.224E+01, 6.520E+02, 7.676E+01, 7.615E+02, 1.064E+02
 4.700E+02, 5.638E+02, 5.218E+01, 6.520E+02, 7.646E+01, 7.615E+02, 1.099E+02
 4.800E+02, 5.638E+02, 5.179E+01, 6.521E+02, 7.615E+01, 7.615E+02, 1.134E+02
 4.900E+02, 5.639E+02, 5.136E+01, 6.521E+02, 7.584E+01, 7.615E+02, 1.168E+02
 5.000E+02, 5.639E+02, 5.093E+01, 6.521E+02, 7.552E+01, 7.615E+02, 1.195E+02
 5.100E+02, 5.639E+02, 5.050E+01, 6.521E+02, 7.559E+01, 7.615E+02, 1.203E+02
 5.200E+02, 5.639E+02, 5.007E+01, 6.521E+02, 7.613E+01, 7.615E+02, 1.210E+02
 5.300E+02, 5.640E+02, 4.964E+01, 6.521E+02, 7.659E+01, 7.616E+02, 1.215E+02
 5.400E+02, 5.640E+02, 4.921E+01, 6.521E+02, 7.683E+01, 7.616E+02, 1.206E+02
 5.500E+02, 5.640E+02, 4.878E+01, 6.521E+02, 7.708E+01, 7.616E+02, 1.191E+02
 5.600E+02, 5.640E+02, 4.835E+01, 6.522E+02, 7.773E+01, 7.616E+02, 1.159E+02
 5.700E+02, 5.640E+02, 4.792E+01, 6.522E+02, 7.850E+01, 7.616E+02, 1.124E+02
 5.800E+02, 5.640E+02, 4.768E+01, 6.522E+02, 7.926E+01, 7.616E+02, 1.089E+02
 5.900E+02, 5.641E+02, 4.798E+01, 6.522E+02, 8.002E+01, 7.616E+02, 1.053E+02
 6.000E+02, 5.641E+02, 4.831E+01, 6.522E+02, 8.072E+01, 7.616E+02, 1.018E+02
 6.100E+02, 5.641E+02, 4.865E+01, 6.522E+02, 8.128E+01, 7.616E+02, 9.843E+01
 6.200E+02, 5.641E+02, 4.898E+01, 6.522E+02, 8.184E+01, 7.616E+02, 9.488E+01
 6.300E+02, 5.641E+02, 4.932E+01, 6.522E+02, 8.244E+01, 7.616E+02, 9.132E+01
 6.400E+02, 5.641E+02, 4.966E+01, 6.522E+02, 8.304E+01, 7.616E+02, 8.776E+01
 6.500E+02, 5.641E+02, 4.999E+01, 6.522E+02, 8.364E+01, 7.616E+02, 8.422E+01
 6.600E+02, 5.641E+02, 5.033E+01, 6.522E+02, 8.424E+01, 7.616E+02, 8.151E+01
 6.700E+02, 5.641E+02, 5.066E+01, 6.522E+02, 8.483E+01, 7.616E+02, 7.931E+01
 6.800E+02, 5.641E+02, 5.100E+01, 6.522E+02, 8.506E+01, 7.616E+02, 7.712E+01
 6.900E+02, 5.641E+02, 5.135E+01, 6.522E+02, 8.509E+01, 7.616E+02, 7.492E+01
 7.000E+02, 5.641E+02, 5.174E+01, 6.522E+02, 8.512E+01, 7.616E+02, 7.272E+01
 7.100E+02, 5.641E+02, 5.214E+01, 6.522E+02, 8.549E+01, 7.616E+02, 7.053E+01
 7.200E+02, 5.641E+02, 5.253E+01, 6.522E+02, 8.609E+01, 7.616E+02, 6.833E+01
 7.300E+02, 5.641E+02, 5.293E+01, 6.522E+02, 8.627E+01, 7.616E+02, 6.614E+01
 7.400E+02, 5.641E+02, 5.333E+01, 6.522E+02, 8.635E+01, 7.616E+02, 6.413E+01
 7.500E+02, 5.641E+02, 5.372E+01, 6.522E+02, 8.643E+01, 7.616E+02, 6.340E+01
 7.600E+02, 5.641E+02, 5.364E+01, 6.522E+02, 8.646E+01, 7.616E+02, 6.293E+01
 7.700E+02, 5.641E+02, 5.310E+01, 6.522E+02, 8.617E+01, 7.616E+02, 6.245E+01
 7.800E+02, 5.641E+02, 5.257E+01, 6.522E+02, 8.579E+01, 7.616E+02, 6.198E+01
 7.900E+02, 5.641E+02, 5.203E+01, 6.522E+02, 8.525E+01, 7.616E+02, 6.151E+01
 8.000E+02, 5.641E+02, 5.150E+01, 6.522E+02, 8.458E+01, 7.616E+02, 6.114E+01
 8.100E+02, 5.641E+02, 5.096E+01, 6.522E+02, 8.379E+01, 7.616E+02, 6.194E+01
 8.200E+02, 5.641E+02, 5.043E+01, 6.522E+02, 8.252E+01, 7.616E+02, 6.309E+01
 8.300E+02, 5.641E+02, 4.989E+01, 6.522E+02, 8.115E+01, 7.616E+02, 6.424E+01
 8.400E+02, 5.641E+02, 4.936E+01, 6.522E+02, 7.977E+01, 7.616E+02, 6.538E+01
 8.500E+02, 5.641E+02, 4.882E+01, 6.522E+02, 7.837E+01, 7.616E+02, 6.653E+01
 8.600E+02, 5.641E+02, 4.829E+01, 6.522E+02, 7.678E+01, 7.616E+02, 6.768E+01
 8.700E+02, 5.641E+02, 4.775E+01, 6.522E+02, 7.475E+01, 7.616E+02, 6.882E+01
 8.800E+02, 5.641E+02, 4.722E+01, 6.522E+02, 7.270E+01, 7.616E+02, 6.999E+01
 8.900E+02, 5.641E+02, 4.668E+01, 6.522E+02, 7.052E+01, 7.616E+02, 7.155E+01
 9.000E+02, 5.641E+02, 4.615E+01, 6.522E+02, 6.839E+01, 7.616E+02, 7.327E+01
 9.100E+02, 5.641E+02, 4.561E+01, 6.522E+02, 6.643E+01, 7.616E+02, 7.489E+01
 9.200E+02, 5.641E+02, 4.537E+01, 6.522E+02, 6.449E+01, 7.616E+02, 7.566E+01
 9.300E+02, 5.641E+02, 4.593E+01, 6.522E+02, 6.255E+01, 7.616E+02, 7.623E+01
 9.400E+02, 5.641E+02, 4.654E+01, 6.522E+02, 6.063E+01, 7.616E+02, 7.681E+01
 9.500E+02, 5.641E+02, 4.715E+01, 6.522E+02, 5.873E+01, 7.616E+02, 7.738E+01
 9.600E+02, 5.641E+02, 4.776E+01, 6.522E+02, 5.683E+01, 7.616E+02, 7.713E+01
 9.700E+02, 5.641E+02, 4.837E+01, 6.522E+02, 5.526E+01, 7.616E+02, 7.575E+01
 9.800E+02, 5.641E+02, 4.898E+01, 6.522E+02, 5.400E+01, 7.616E+02, 7.435E+01
 9.900E+02, 5.641E+02, 4.963E+01, 6.522E+02, 5.282E+01, 7.616E+02, 7.296E+01
 1.000E+03, 5.641E+02, 5.046E+01, 6.522E+02, 5.169E+01, 7.616E+02, 7.156E+01
 1.010E+03, 5.641E+02, 5.133E+01, 6.522E+02, 5.060E+01, 7.616E+02, 7.016E+01
 1.020E+03, 5.641E+02, 5.220E+01, 6.522E+02, 4.969E+01, 7.616E+02, 6.877E+01
 1.030E+03, 5.641E+02, 5.307E+01, 6.522E+02, 4.880E+01, 7.616E+02, 6.686E+01
 1.040E+03, 5.641E+02, 5.394E+01, 6.522E+02, 4.792E+01, 7.616E+02, 6.451E+01
 1.050E+03, 5.641E+02, 5.481E+01, 6.522E+02, 4.723E+01, 7.616E+02, 6.216E+01
 1.060E+03, 5.641E+02, 5.568E+01, 6.522E+02, 4.674E+01, 7.616E+02, 5.981E+01
 1.070E+03, 5.641E+02, 5.655E+01, 6.522E+02, 4.645E+01, 7.616E+02, 5.746E+01
 1.080E+03, 5.641E+02, 5.737E+01, 6.522E+02, 4.615E+01, 7.616E+02, 5.511E+01
 1.090E+03, 5.641E+02, 5.768E+01, 6.522E+02, 4.586E+01, 7.616E+02, 5.285E+01
 1.100E+03, 5.641E+02, 5.786E+01, 6.522E+02, 4.558E+01, 7.616E+02, 5.127E+01
 1.110E+03, 5.641E+02, 5.804E+01, 6.522E+02, 4.566E+01, 7.616E+02, 4.984E+01
 1.120E+03, 5.641E+02, 5.822E+01, 6.522E+02, 4.607E+01, 7.616E+02, 4.841E+01
 1.130E+03, 5.641E+02, 5.840E+01, 6.522E+02, 4.652E+01, 7.616E+02, 4.698E+01
 1.140E+03, 5.641E+02, 5.858E+01, 6.522E+02, 4.698E+01, 7.616E+02, 4.556E+01
 1.150E+03, 5.641E+02, 5.868E+01, 6.522E+02, 4.745E+01, 7.616E+02, 4.413E+01
 1.160E+03, 5.641E+02, 5.840E+01, 6.522E+02, 4.796E+01, 7.616E+02, 4.270E+01
 1.170E+03, 5.641E+02, 5.808E+01, 6.522E+02, 4.867E+01, 7.616E+02, 4.146E+01
 1.180E+03, 5.641E+02, 5.777E+01, 6.522E+02, 4.948E+01, 7.616E+02, 4.054E+01
 1.190E+03, 5.641E+02, 5.737E+01, 6.522E+02, 5.029E+01, 7.616E+02, 3.963E+01
 1.200E+03, 5.641E+02, 5.655E+01, 6.522E+02, 5.110E+01, 7.616E+02, 3.872E+01
 1.210E+03, 5.641E+02, 5.566E+01, 6.522E+02, 5.203E+01, 7.616E+02, 3.780E+01
 1.220E+03, 5.641E+02, 5.477E+01, 6.522E+02, 5.358E+01, 7.616E+02, 3.689E+01
 1.230E+03, 5.641E+02, 5.388E+01, 6.522E+02, 5.520E+01, 7.616E+02, 3.598E+01
 1.240E+03, 5.641E+02, 5.299E+01, 6.522E+02, 5.623E+01, 7.616E+02, 3.507E+01
 1.250E+03, 5.641E+02, 5.211E+01, 6.522E+02, 5.714E+01, 7.616E+02, 3.416E+01
 1.260E+03, 5.641E+02, 5.122E+01, 6.522E+02, 5.804E+01, 7.616E+02, 3.324E+01
 1.270E+03, 5.641E+02, 5.033E+01, 6.522E+02, 5.925E+01, 7.616E+02, 3.233E+01
 1.280E+03, 5.641E+02, 4.944E+01, 6.522E+02, 6.064E+01, 7.616E+02, 3.142E+01
 1.290E+03, 5.641E+02, 4.856E+01, 6.522E+02, 6.209E+01, 7.616E+02, 3.051E+01
 1.300E+03, 5.641E+02, 4.775E+01, 6.522E+02, 6.360E+01, 7.616E+02, 2.960E+01
 1.310E+03, 5.641E+02, 4.695E+01, 6.522E+02, 6.513E+01, 7.616E+02, 2.870E+01
 1.320E+03, 5.641E+02, 4.616E+01, 6.522E+02, 6.667E+01, 7.616E+02, 2.788E+01
 1.330E+03, 5.641E+02, 4.536E+01, 6.522E+02, 6.818E+01, 7.616E+02, 2.707E+01
 1.340E+03, 5.641E+02, 4.456E+01, 6.522E+02, 6.921E+01, 7.616E+02, 2.625E+01
 1.350E+03, 5.641E+02, 4.377E+01, 6.522E+02, 7.006E+01, 7.616E+02, 2.543E+01
 1.360E+03, 5.641E+02, 4.297E+01, 6.522E+02, 7.040E+01, 7.616E+02, 2.462E+01
 1.370E+03, 5.641E+02, 4.218E+01, 6.522E+02, 7.056E+01, 7.616E+02, 2.380E+01
 1.380E+03, 5.641E+02, 4.138E+01, 6.522E+02, 7.051E+01, 7.616E+02, 2.299E+01
 1.390E+03, 5.641E+02, 4.058E+01, 6.522E+02, 6.983E+01, 7.616E+02, 2.217E+01
 1.400E+03, 5.641E+02, 3.979E+01, 6.522E+02, 6.911E+01, 7.616E+02, 2.136E+01
 1.410E+03, 5.641E+02, 3.908E+01, 6.522E+02, 6.812E+01, 7.616E+02, 2.054E+01
 1.420E+03, 5.641E+02, 3.858E+01, 6.522E+02, 6.671E+01, 7.616E+02, 1.972E+01
 1.430E+03, 5.641E+02, 3.809E+01, 6.522E+02, 6.531E+01, 7.616E+02, 1.891E+01
 1.440E+03, 5.641E+02, 3.760E+01, 6.522E+02, 6.386E+01, 7.616E+02, 1.809E+01
 1.450E+03, 5.641E+02, 3.711E+01, 6.522E+02, 6.203E+01, 7.616E+02, 1.022E+01
 1.460E+03, 5.641E+02, 3.662E+01, 6.522E+02, 5.943E+01, 7.616E+02, 0.000E+00
 1.470E+03, 5.641E+02, 3.613E+01, 6.522E+02, 5.675E+01, 7.616E+02, 0.000E+00
 1.480E+03, 5.641E+02, 3.564E+01, 6.522E+02, 5.425E+01, 7.616E+02, 0.000E+00
 1.490E+03, 5.641E+02, 3.515E+01, 6.522E+02, 5.178E+01, 7.616E+02, 0.000E+00
 1.500E+03, 5.641E+02, 3.465E+01, 6.522E+02, 4.927E+01, 7.616E+02, 0.000E+00
 1.510E+03, 5.641E+02, 3.416E+01, 6.522E+02, 4.670E+01, 7.616E+02, 0.000E+00
 1.520E+03, 5.641E+02, 3.367E+01, 6.522E+02, 4.367E+01, 7.616E+02, 0.000E+00
 1.530E+03, 5.641E+02, 3.318E+01, 6.522E+02, 4.050E+01, 7.616E+02, 0.000E+00
 1.540E+03, 5.641E+02, 3.269E+01, 6.522E+02, 3.798E+01, 7.616E+02, 0.000E+00
 1.550E+03, 5.641E+02, 3.220E+01, 6.522E+02, 3.567E+01, 7.616E+02, 0.000E+00
 1.560E+03, 5.641E+02, 3.171E+01, 6.522E+02, 3.361E+01, 7.616E+02, 0.000E+00
 1.570E+03, 5.641E+02, 3.122E+01, 6.522E+02, 3.242E+01, 7.616E+02, 0.000E+00
 1.580E+03, 5.641E+02, 3.073E+01, 6.522E+02, 3.160E+01, 7.616E+02, 0.000E+00
 1.590E+03, 5.641E+02, 3.027E+01, 6.522E+02, 3.083E+01, 7.616E+02, 0.000E+00
 1.600E+03, 5.641E+02, 3.010E+01, 6.522E+02, 3.007E+01, 7.616E+02, 0.000E+00
 1.610E+03, 5.641E+02, 2.999E+01, 6.522E+02, 2.959E+01, 7.616E+02, 0.000E+00
 1.620E+03, 5.641E+02, 2.989E+01, 6.522E+02, 2.929E+01, 7.616E+02, 0.000E+00
 1.630E+03, 5.641E+02, 2.978E+01, 6.522E+02, 2.900E+01, 7.616E+02, 0.000E+00
 1.640E+03, 5.641E+02, 2.968E+01, 6.522E+02, 2.870E+01, 7.616E+02, 0.000E+00
 1.650E+03, 5.641E+02, 2.957E+01, 6.522E+02, 2.840E+01, 7.616E+02, 0.000E+00
 1.660E+03, 5.641E+02, 2.946E+01, 6.522E+02, 2.810E+01, 7.616E+02, 0.000E+00
 1.670E+03, 5.641E+02, 2.936E+01, 6.522E+02, 2.781E+01, 7.616E+02, 0.000E+00
 1.680E+03, 5.641E+02, 2.925E+01, 6.522E+02, 2.751E+01, 7.616E+02, 0.000E+00
 1.690E+03, 5.641E+02, 2.915E+01, 6.522E+02, 2.721E+01, 7.616E+02, 0.000E+00
 1.700E+03, 5.641E+02, 2.904E+01, 6.522E+02, 2.689E+01, 7.616E+02, 0.000E+00
 1.710E+03, 5.641E+02, 2.893E+01, 6.522E+02, 2.653E+01, 7.616E+02, 0.000E+00
 1.720E+03, 5.641E+02, 2.888E+01, 6.522E+02, 2.616E+01, 7.616E+02, 0.000E+00
 1.730E+03, 5.641E+02, 2.909E+01, 6.522E+02, 2.579E+01, 7.616E+02, 0.000E+00
 1.740E+03, 5.641E+02, 2.934E+01, 6.522E+02, 2.542E+01, 7.616E+02, 0.000E+00
 1.750E+03, 5.641E+02, 2.960E+01, 6.522E+02, 2.505E+01, 7.616E+02, 0.000E+00
 1.760E+03, 5.641E+02, 2.986E+01, 6.522E+02, 2.468E+01, 7.616E+02, 0.000E+00
 1.770E+03, 5.641E+02, 3.011E+01, 6.522E+02, 2.431E+01, 7.616E+02, 0.000E+00
 1.780E+03, 5.641E+02, 3.037E+01, 6.522E+02, 2.394E+01, 7.616E+02, 0.000E+00
 1.790E+03, 5.641E+02, 3.063E+01, 6.522E+02, 2.357E+01, 7.616E+02, 0.000E+00
 1.800E+03, 5.641E+02, 3.088E+01, 6.522E+02, 2.323E+01, 7.616E+02, 0.000E+00
 1.810E+03, 5.641E+02, 3.114E+01, 6.522E+02, 2.296E+01, 7.616E+02, 0.000E+00
 1.820E+03, 5.641E+02, 3.140E+01, 6.522E+02, 2.269E+01, 7.616E+02, 0.000E+00
 1.830E+03, 5.641E+02, 3.165E+01, 6.522E+02, 2.242E+01, 7.616E+02, 0.000E+00
 1.840E+03, 5.641E+02, 3.191E+01, 6.522E+02, 2.215E+01, 7.616E+02, 0.000E+00
 1.850E+03, 5.641E+02, 3.217E+01, 6.522E+02, 2.188E+01, 7.616E+02, 0.000E+00
 1.860E+03, 5.641E+02, 3.242E+01, 6.522E+02, 2.161E+01, 7.616E+02, 0.000E+00
 1.870E+03, 5.641E+02, 3.268E+01, 6.522E+02, 2.134E+01, 7.616E+02, 0.000E+00
 1.880E+03, 5.641E+02, 3.294E+01, 6.522E+02, 2.097E+01, 7.616E+02, 0.000E+00
 1.890E+03, 5.641E+02, 3.320E+01, 6.522E+02, 6.036E+00, 7.616E+02, 0.000E+00
 1.900E+03, 5.641E+02, 3.356E+01, 6.522E+02, 5.842E+00, 7.616E+02, 0.000E+00
 1.910E+03, 5.641E+02, 3.395E+01, 6.522E+02, 5.782E+00, 7.616E+02, 0.000E+00
 1.920E+03, 5.641E+02, 3.433E+01, 6.522E+02, 5.722E+00, 7.616E+02, 0.000E+00
 1.930E+03, 5.641E+02, 3.472E+01, 6.522E+02, 5.662E+00, 7.616E+02, 0.000E+00
 1.940E+03, 5.641E+02, 3.510E+01, 6.522E+02, 5.602E+00, 7.616E+02, 0.000E+00
 1.950E+03, 5.641E+02, 3.547E+01, 6.522E+02, 5.542E+00, 7.616E+02, 0.000E+00
 1.960E+03, 5.641E+02, 3.565E+01, 6.522E+02, 5.481E+00, 7.616E+02, 0.000E+00
 1.970E+03, 5.641E+02, 3.578E+01, 6.522E+02, 5.421E+00, 7.616E+02, 0.000E+00
 1.980E+03, 5.641E+02, 3.590E+01, 6.522E+02, 5.360E+00, 7.616E+02, 0.000E+00
 1.990E+03, 5.641E+02, 3.603E+01, 6.522E+02, 5.268E+00, 7.616E+02, 0.000E+00
 2.000E+03, 5.641E+02, 3.616E+01, 6.522E+02, 2.217E-01, 7.616E+02, 0.000E+00
 2.010E+03, 5.641E+02, 3.629E+01, 6.522E+02, 0.000E+00, 7.616E+02, 0.000E+00
 2.020E+03, 5.641E+02, 3.642E+01, 6.522E+02, 0.000E+00, 7.616E+02, 0.000E+00
 2.030E+03, 5.641E+02, 3.655E+01, 6.522E+02, 0.000E+00, 7.616E+02, 0.000E+00
 2.040E+03, 5.641E+02, 3.668E+01, 6.522E+02, 0.000E+00, 7.616E+02, 0.000E+00
 2.050E+03, 5.641E+02, 3.664E+01, 6.522E+02, 0.000E+00, 7.616E+02, 0.000E+00
 2.060E+03, 5.641E+02, 3.633E+01, 6.522E+02, 0.000E+00, 7.616E+02, 0.000E+00
 2.070E+03, 5.641E+02, 3.602E+01, 6.522E+02, 0.000E+00, 7.616E+02, 0.000E+00
 2.080E+03, 5.641E+02, 3.571E+01, 6.522E+02, 0.000E+00, 7.616E+02, 0.000E+00
 2.090E+03, 5.641E+02, 3.539E+01, 6.522E+02, 0.000E+00, 7.616E+02, 0.000E+00
 2.100E+03, 5.641E+02, 3.508E+01, 6.522E+02, 0.000E+00, 7.616E+02, 0.000E+00
 2.110E+03, 5.641E+02, 3.477E+01, 6.522E+02, 0.000E+00, 7.616E+02, 0.000E+00
 2.120E+03, 5.641E+02, 3.446E+01, 6.522E+02, 0.000E+00, 7.616E+02, 0.000E+00
 2.130E+03, 5.641E+02, 3.414E+01, 6.522E+02, 0.000E+00, 7.616E+02, 0.000E+00
 2.140E+03, 5.641E+02, 3.383E+01, 6.522E+02, 0.000E+00, 7.616E+02, 0.000E+00
 2.150E+03, 5.641E+02, 3.352E+01, 6.522E+02, 0.000E+00, 7.616E+02, 0.000E+00
 2.160E+03, 5.641E+02, 3.321E+01, 6.522E+02, 0.000E+00, 7.616E+02, 0.000E+00
 2.170E+03, 5.641E+02, 3.290E+01, 6.522E+02, 0.000E+00, 7.616E+02, 0.000E+00
 2.180E+03, 5.641E+02, 3.258E+01, 6.522E+02, 0.000E+00, 7.616E+02, 0.000E+00
 2.190E+03, 5.641E+02, 3.226E+01, 6.522E+02, 0.000E+00, 7.616E+02, 0.000E+00
 2.200E+03, 5.641E+02, 3.178E+01, 6.522E+02, 0.000E+00, 7.616E+02, 0.000E+00
 2.210E+03, 5.641E+02, 3.126E+01, 6.522E+02, 0.000E+00, 7.616E+02, 0.000E+00
 2.220E+03, 5.641E+02, 3.073E+01, 6.522E+02, 0.000E+00, 7.616E+02, 0.000E+00
 2.230E+03, 5.641E+02, 3.021E+01, 6.522E+02, 0.000E+00, 7.616E+02, 0.000E+00
 2.240E+03, 5.641E+02, 2.968E+01, 6.522E+02, 0.000E+00, 7.616E+02, 0.000E+00
 2.250E+03, 5.641E+02, 2.916E+01, 6.522E+02, 0.000E+00, 7.616E+02, 0.000E+00
 2.260E+03, 5.641E+02, 2.863E+01, 6.522E+02, 0.000E+00, 7.616E+02, 0.000E+00
 2.270E+03, 5.641E+02, 2.811E+01, 6.522E+02, 0.000E+00, 7.616E+02, 0.000E+00
 2.280E+03, 5.641E+02, 2.758E+01, 6.522E+02, 0.000E+00, 7.616E+02, 0.000E+00
 2.290E+03, 5.641E+02, 2.706E+01, 6.522E+02, 0.000E+00, 7.616E+02, 0.000E+00
 2.300E+03, 5.641E+02, 2.653E+01, 6.522E+02, 0.000E+00, 7.616E+02, 0.000E+00
 2.310E+03, 5.641E+02, 2.601E+01, 6.522E+02, 0.000E+00, 7.616E+02, 0.000E+00
 2.320E+03, 5.641E+02, 2.548E+01, 6.522E+02, 0.000E+00, 7.616E+02, 0.000E+00
 2.330E+03, 5.641E+02, 2.497E+01, 6.522E+02, 0.000E+00, 7.616E+02, 0.000E+00
 2.340E+03, 5.641E+02, 2.460E+01, 6.522E+02, 0.000E+00, 7.616E+02, 0.000E+00
 2.350E+03, 5.641E+02, 2.428E+01, 6.522E+02, 0.000E+00, 7.616E+02, 0.000E+00
 2.360E+03, 5.641E+02, 2.396E+01, 6.522E+02, 0.000E+00, 7.616E+02, 0.000E+00
 2.370E+03, 5.641E+02, 2.364E+01, 6.522E+02, 0.000E+00, 7.616E+02, 0.000E+00
 2.380E+03, 5.641E+02, 2.332E+01, 6.522E+02, 0.000E+00, 7.616E+02, 0.000E+00
 2.390E+03, 5.641E+02, 2.301E+01, 6.522E+02, 0.000E+00, 7.616E+02, 0.000E+00
 2.400E+03, 5.641E+02, 2.269E+01, 6.522E+02, 0.000E+00, 7.616E+02, 0.000E+00
 2.410E+03, 5.641E+02, 2.237E+01, 6.522E+02, 0.000E+00, 7.616E+02, 0.000E+00
 2.420E+03, 5.641E+02, 2.205E+01, 6.522E+02, 0.000E+00, 7.616E+02, 0.000E+00
 2.430E+03, 5.641E+02, 2.173E+01, 6.522E+02, 0.000E+00, 7.616E+02, 0.000E+00
 2.440E+03, 5.641E+02, 2.141E+01, 6.522E+02, 0.000E+00, 7.616E+02, 0.000E+00
 2.450E+03, 5.641E+02, 2.109E+01, 6.522E+02, 0.000E+00, 7.616E+02, 0.000E+00
 2.460E+03, 5.641E+02, 2.077E+01, 6.522E+02, 0.000E+00, 7.616E+02, 0.000E+00
 2.470E+03, 5.641E+02, 2.045E+01, 6.522E+02, 0.000E+00, 7.616E+02, 0.000E+00
 2.480E+03, 5.641E+02, 2.013E+01, 6.522E+02, 0.000E+00, 7.616E+02, 0.000E+00
 2.490E+03, 5.641E+02, 1.982E+01, 6.522E+02, 0.000E+00, 7.616E+02, 0.000E+00
 2.500E+03, 5.641E+02, 1.959E+01, 6.522E+02, 0.000E+00, 7.616E+02, 0.000E+00
 2.510E+03, 5.641E+02, 1.938E+01, 6.522E+02, 0.000E+00, 7.616E+02, 0.000E+00
 2.520E+03, 5.641E+02, 1.918E+01, 6.522E+02, 0.000E+00, 7.616E+02, 0.000E+00
 2.530E+03, 5.641E+02, 1.897E+01, 6.522E+02, 0.000E+00, 7.616E+02, 0.000E+00
 2.540E+03, 5.641E+02, 1.877E+01, 6.522E+02, 0.000E+00, 7.616E+02, 0.000E+00
 2.550E+03, 5.641E+02, 1.857E+01, 6.522E+02, 0.000E+00, 7.616E+02, 0.000E+00
 2.560E+03, 5.641E+02, 1.836E+01, 6.522E+02, 0.000E+00, 7.616E+02, 0.000E+00
