s,C,kW/m2,C,kW/m2,C,kW/m2
Time,"WALL TEMPERATURE-CONE_79p00_025","HRRPUA-CONE_79p00_025","WALL TEMPERATURE-CONE_79p00_035","HRRPUA-CONE_79p00_035","WALL TEMPERATURE-CONE_79p00_050","HRRPUA-CONE_79p00_050"
 0.000E+00, 2.700E+01, 0.000E+00, 2.700E+01, 0.000E+00, 2.700E+01, 0.000E+00
 1.000E+01, 1.974E+02, 0.000E+00, 2.579E+02, 0.000E+00, 3.398E+02, 0.000E+00
 2.000E+01, 3.202E+02, 0.000E+00, 4.076E+02, 0.000E+00, 5.136E+02, 0.000E+00
 3.000E+01, 3.633E+02, 0.000E+00, 4.519E+02, 0.000E+00, 5.553E+02, 1.070E+01
 4.000E+01, 3.874E+02, 0.000E+00, 4.751E+02, 0.000E+00, 5.760E+02, 2.511E+01
 5.000E+01, 4.030E+02, 0.000E+00, 4.895E+02, 3.029E+01, 5.885E+02, 2.408E+01
 6.000E+01, 4.140E+02, 0.000E+00, 4.995E+02, 1.652E+01, 5.971E+02, 3.775E+01
 7.000E+01, 4.223E+02, 0.000E+00, 5.070E+02, 8.311E+00, 6.035E+02, 4.409E+01
 8.000E+01, 4.289E+02, 0.000E+00, 5.128E+02, 6.339E+00, 6.085E+02, 5.932E+01
 9.000E+01, 4.342E+02, 0.000E+00, 5.176E+02, 7.436E+00, 6.126E+02, 6.376E+01
 1.000E+02, 4.386E+02, 0.000E+00, 5.215E+02, 1.079E+01, 6.159E+02, 6.648E+01
 1.100E+02, 4.423E+02, 0.000E+00, 5.247E+02, 1.440E+01, 6.187E+02, 6.637E+01
 1.200E+02, 4.455E+02, 0.000E+00, 5.275E+02, 1.658E+01, 6.211E+02, 5.739E+01
 1.300E+02, 4.482E+02, 0.000E+00, 5.299E+02, 1.724E+01, 6.232E+02, 5.641E+01
 1.400E+02, 4.506E+02, 0.000E+00, 5.320E+02, 1.777E+01, 6.249E+02, 5.358E+01
 1.500E+02, 4.527E+02, 0.000E+00, 5.339E+02, 1.764E+01, 6.265E+02, 5.215E+01
 1.600E+02, 4.546E+02, 0.000E+00, 5.355E+02, 1.810E+01, 6.279E+02, 4.561E+01
 1.700E+02, 4.563E+02, 0.000E+00, 5.370E+02, 1.831E+01, 6.292E+02, 4.748E+01
 1.800E+02, 4.578E+02, 0.000E+00, 5.383E+02, 1.814E+01, 6.303E+02, 4.773E+01
 1.900E+02, 4.592E+02, 0.000E+00, 5.395E+02, 1.836E+01, 6.313E+02, 4.770E+01
 2.000E+02, 4.605E+02, 0.000E+00, 5.406E+02, 1.836E+01, 6.323E+02, 1.289E+01
 2.100E+02, 4.617E+02, 9.315E-05, 5.416E+02, 1.806E+01, 6.332E+02, 0.000E+00
 2.200E+02, 4.627E+02, 6.362E+00, 5.426E+02, 1.801E+01, 6.340E+02, 0.000E+00
 2.300E+02, 4.637E+02, 1.776E+01, 5.435E+02, 1.828E+01, 6.347E+02, 0.000E+00
 2.400E+02, 4.647E+02, 1.012E+01, 5.443E+02, 1.817E+01, 6.354E+02, 0.000E+00
 2.500E+02, 4.656E+02, 9.148E+00, 5.451E+02, 1.829E+01, 6.361E+02, 0.000E+00
 2.600E+02, 4.664E+02, 1.397E+01, 5.458E+02, 1.832E+01, 6.367E+02, 0.000E+00
 2.700E+02, 4.672E+02, 1.877E+01, 5.465E+02, 1.788E+01, 6.373E+02, 0.000E+00
 2.800E+02, 4.679E+02, 1.933E+01, 5.471E+02, 1.705E+01, 6.379E+02, 0.000E+00
 2.900E+02, 4.686E+02, 2.071E+01, 5.478E+02, 1.622E+01, 6.384E+02, 0.000E+00
 3.000E+02, 4.693E+02, 2.376E+01, 5.483E+02, 1.588E+01, 6.389E+02, 0.000E+00
 3.100E+02, 4.699E+02, 2.836E+01, 5.489E+02, 1.588E+01, 6.394E+02, 0.000E+00
 3.200E+02, 4.705E+02, 3.179E+01, 5.494E+02, 1.558E+01, 6.399E+02, 0.000E+00
 3.300E+02, 4.711E+02, 3.187E+01, 5.499E+02, 1.510E+01, 6.403E+02, 0.000E+00
 3.400E+02, 4.716E+02, 3.299E+01, 5.504E+02, 1.471E+01, 6.407E+02, 0.000E+00
 3.500E+02, 4.722E+02, 3.355E+01, 5.509E+02, 1.406E+01, 6.411E+02, 0.000E+00
 3.600E+02, 4.727E+02, 3.405E+01, 5.513E+02, 1.368E+01, 6.415E+02, 0.000E+00
 3.700E+02, 4.732E+02, 3.356E+01, 5.518E+02, 1.331E+01, 6.419E+02, 0.000E+00
 3.800E+02, 4.736E+02, 3.380E+01, 5.522E+02, 1.240E+01, 6.423E+02, 0.000E+00
 3.900E+02, 4.741E+02, 2.936E+01, 5.526E+02, 1.124E+01, 6.426E+02, 0.000E+00
 4.000E+02, 4.745E+02, 2.873E+01, 5.530E+02, 1.073E+01, 6.429E+02, 0.000E+00
 4.100E+02, 4.749E+02, 2.939E+01, 5.533E+02, 9.529E+00, 6.433E+02, 0.000E+00
 4.200E+02, 4.753E+02, 2.765E+01, 5.537E+02, 7.824E+00, 6.436E+02, 0.000E+00
 4.300E+02, 4.757E+02, 2.687E+01, 5.540E+02, 0.000E+00, 6.439E+02, 0.000E+00
 4.400E+02, 4.761E+02, 2.776E+01, 5.544E+02, 0.000E+00, 6.442E+02, 0.000E+00
 4.500E+02, 4.765E+02, 2.711E+01, 5.547E+02, 0.000E+00, 6.444E+02, 0.000E+00
 4.600E+02, 4.768E+02, 2.509E+01, 5.550E+02, 0.000E+00, 6.447E+02, 0.000E+00
 4.700E+02, 4.772E+02, 2.301E+01, 5.553E+02, 0.000E+00, 6.450E+02, 0.000E+00
 4.800E+02, 4.775E+02, 2.356E+01, 5.556E+02, 0.000E+00, 6.452E+02, 0.000E+00
 4.900E+02, 4.778E+02, 2.457E+01, 5.559E+02, 0.000E+00, 6.455E+02, 0.000E+00
 5.000E+02, 4.781E+02, 2.341E+01, 5.562E+02, 0.000E+00, 6.457E+02, 0.000E+00
 5.100E+02, 4.785E+02, 2.437E+01, 5.565E+02, 0.000E+00, 6.460E+02, 0.000E+00
 5.200E+02, 4.788E+02, 2.456E+01, 5.567E+02, 0.000E+00, 6.462E+02, 0.000E+00
 5.300E+02, 4.790E+02, 2.482E+01, 5.570E+02, 0.000E+00, 6.464E+02, 0.000E+00
 5.400E+02, 4.793E+02, 2.263E+01, 5.572E+02, 0.000E+00, 6.466E+02, 0.000E+00
 5.500E+02, 4.796E+02, 7.578E+00, 5.575E+02, 0.000E+00, 6.469E+02, 0.000E+00
 5.600E+02, 4.799E+02, 0.000E+00, 5.577E+02, 0.000E+00, 6.471E+02, 0.000E+00
 5.644E+02, 4.801E+02, 0.000E+00, 5.579E+02, 0.000E+00, 6.472E+02, 0.000E+00
