s,C,kW/m2,C,kW/m2,C,kW/m2
Time,"WALL TEMPERATURE-CONE_18p10_035","HRRPUA-CONE_18p10_035","WALL TEMPERATURE-CONE_18p10_050","HRRPUA-CONE_18p10_050","WALL TEMPERATURE-CONE_18p10_075","HRRPUA-CONE_18p10_075"
 0.000E+00, 2.700E+01, 0.000E+00, 2.700E+01, 0.000E+00, 2.700E+01, 0.000E+00
 1.000E+01, 1.957E+02, 0.000E+00, 2.626E+02, 0.000E+00, 3.652E+02, 0.000E+00
 2.000E+01, 3.290E+02, 0.000E+00, 4.316E+02, 0.000E+00, 5.700E+02, 3.188E+00
 3.000E+01, 3.826E+02, 0.000E+00, 4.893E+02, 0.000E+00, 6.248E+02, 6.065E+01
 4.000E+01, 4.142E+02, 0.000E+00, 5.203E+02, 0.000E+00, 6.520E+02, 9.658E+01
 5.000E+01, 4.350E+02, 0.000E+00, 5.398E+02, 0.000E+00, 6.684E+02, 1.034E+02
 6.000E+01, 4.499E+02, 0.000E+00, 5.532E+02, 0.000E+00, 6.796E+02, 1.007E+02
 7.000E+01, 4.613E+02, 0.000E+00, 5.634E+02, 6.886E+00, 6.881E+02, 9.326E+01
 8.000E+01, 4.705E+02, 0.000E+00, 5.717E+02, 3.506E+01, 6.950E+02, 8.530E+01
 9.000E+01, 4.783E+02, 0.000E+00, 5.786E+02, 5.557E+01, 7.008E+02, 7.731E+01
 1.000E+02, 4.850E+02, 0.000E+00, 5.845E+02, 6.266E+01, 7.058E+02, 6.930E+01
 1.100E+02, 4.909E+02, 0.000E+00, 5.898E+02, 6.355E+01, 7.103E+02, 6.143E+01
 1.200E+02, 4.962E+02, 0.000E+00, 5.945E+02, 5.712E+01, 7.143E+02, 5.948E+01
 1.300E+02, 5.011E+02, 0.000E+00, 5.988E+02, 4.762E+01, 7.180E+02, 6.068E+01
 1.400E+02, 5.055E+02, 0.000E+00, 6.027E+02, 4.197E+01, 7.213E+02, 6.187E+01
 1.500E+02, 5.095E+02, 0.000E+00, 6.063E+02, 4.005E+01, 7.243E+02, 6.301E+01
 1.600E+02, 5.133E+02, 0.000E+00, 6.096E+02, 3.881E+01, 7.271E+02, 6.284E+01
 1.700E+02, 5.168E+02, 0.000E+00, 6.127E+02, 3.772E+01, 7.297E+02, 6.210E+01
 1.800E+02, 5.200E+02, 0.000E+00, 6.155E+02, 3.694E+01, 7.321E+02, 6.135E+01
 1.900E+02, 5.230E+02, 0.000E+00, 6.181E+02, 3.612E+01, 7.343E+02, 6.061E+01
 2.000E+02, 5.258E+02, 0.000E+00, 6.206E+02, 3.525E+01, 7.363E+02, 5.986E+01
 2.100E+02, 5.283E+02, 0.000E+00, 6.228E+02, 3.467E+01, 7.382E+02, 5.912E+01
 2.200E+02, 5.308E+02, 0.000E+00, 6.249E+02, 3.519E+01, 7.400E+02, 5.837E+01
 2.300E+02, 5.330E+02, 0.000E+00, 6.269E+02, 3.576E+01, 7.416E+02, 5.762E+01
 2.400E+02, 5.351E+02, 0.000E+00, 6.287E+02, 3.618E+01, 7.432E+02, 5.687E+01
 2.500E+02, 5.371E+02, 0.000E+00, 6.304E+02, 3.618E+01, 7.446E+02, 5.612E+01
 2.600E+02, 5.390E+02, 0.000E+00, 6.320E+02, 3.642E+01, 7.459E+02, 5.542E+01
 2.700E+02, 5.407E+02, 0.000E+00, 6.335E+02, 3.686E+01, 7.471E+02, 5.480E+01
 2.800E+02, 5.423E+02, 0.000E+00, 6.349E+02, 3.729E+01, 7.482E+02, 5.418E+01
 2.900E+02, 5.438E+02, 0.000E+00, 6.361E+02, 3.772E+01, 7.493E+02, 5.356E+01
 3.000E+02, 5.452E+02, 0.000E+00, 6.373E+02, 3.813E+01, 7.502E+02, 5.294E+01
 3.100E+02, 5.465E+02, 8.407E+00, 6.384E+02, 3.848E+01, 7.511E+02, 5.232E+01
 3.200E+02, 5.478E+02, 2.638E+01, 6.395E+02, 3.850E+01, 7.520E+02, 5.170E+01
 3.300E+02, 5.489E+02, 4.112E+01, 6.405E+02, 3.849E+01, 7.528E+02, 5.099E+01
 3.400E+02, 5.500E+02, 4.581E+01, 6.414E+02, 3.847E+01, 7.535E+02, 4.984E+01
 3.500E+02, 5.510E+02, 4.846E+01, 6.422E+02, 3.846E+01, 7.542E+02, 4.862E+01
 3.600E+02, 5.520E+02, 4.972E+01, 6.430E+02, 3.844E+01, 7.548E+02, 4.740E+01
 3.700E+02, 5.529E+02, 5.045E+01, 6.437E+02, 3.838E+01, 7.554E+02, 4.617E+01
 3.800E+02, 5.537E+02, 4.924E+01, 6.444E+02, 3.802E+01, 7.559E+02, 4.495E+01
 3.900E+02, 5.545E+02, 4.740E+01, 6.450E+02, 3.759E+01, 7.564E+02, 4.372E+01
 4.000E+02, 5.552E+02, 4.556E+01, 6.456E+02, 3.717E+01, 7.569E+02, 4.250E+01
 4.100E+02, 5.559E+02, 4.371E+01, 6.462E+02, 3.674E+01, 7.574E+02, 4.127E+01
 4.200E+02, 5.566E+02, 4.187E+01, 6.467E+02, 3.631E+01, 7.578E+02, 4.004E+01
 4.300E+02, 5.572E+02, 4.003E+01, 6.472E+02, 3.588E+01, 7.581E+02, 3.881E+01
 4.400E+02, 5.577E+02, 3.818E+01, 6.477E+02, 3.545E+01, 7.585E+02, 3.758E+01
 4.500E+02, 5.583E+02, 3.633E+01, 6.481E+02, 3.502E+01, 7.588E+02, 3.635E+01
 4.600E+02, 5.588E+02, 3.449E+01, 6.485E+02, 3.459E+01, 7.591E+02, 3.512E+01
 4.700E+02, 5.592E+02, 3.264E+01, 6.489E+02, 3.416E+01, 7.594E+02, 3.389E+01
 4.800E+02, 5.597E+02, 3.079E+01, 6.492E+02, 3.372E+01, 7.597E+02, 3.266E+01
 4.900E+02, 5.601E+02, 2.895E+01, 6.495E+02, 3.329E+01, 7.599E+02, 3.140E+01
 5.000E+02, 5.604E+02, 2.813E+01, 6.498E+02, 3.286E+01, 7.602E+02, 3.007E+01
 5.100E+02, 5.608E+02, 2.839E+01, 6.501E+02, 3.244E+01, 7.604E+02, 2.873E+01
 5.200E+02, 5.611E+02, 2.867E+01, 6.504E+02, 3.202E+01, 7.606E+02, 2.740E+01
 5.300E+02, 5.615E+02, 2.894E+01, 6.506E+02, 3.161E+01, 7.608E+02, 2.606E+01
 5.400E+02, 5.618E+02, 2.921E+01, 6.508E+02, 3.124E+01, 7.609E+02, 2.472E+01
 5.500E+02, 5.620E+02, 2.949E+01, 6.510E+02, 3.088E+01, 7.611E+02, 2.338E+01
 5.600E+02, 5.623E+02, 2.976E+01, 6.512E+02, 3.053E+01, 7.612E+02, 2.204E+01
 5.700E+02, 5.625E+02, 3.003E+01, 6.514E+02, 3.018E+01, 7.614E+02, 2.070E+01
 5.800E+02, 5.628E+02, 3.019E+01, 6.516E+02, 2.982E+01, 7.615E+02, 1.994E+01
 5.900E+02, 5.630E+02, 3.004E+01, 6.518E+02, 2.947E+01, 7.616E+02, 1.967E+01
 6.000E+02, 5.632E+02, 2.987E+01, 6.519E+02, 2.911E+01, 7.617E+02, 1.939E+01
 6.100E+02, 5.634E+02, 2.970E+01, 6.521E+02, 2.876E+01, 7.618E+02, 1.912E+01
 6.200E+02, 5.635E+02, 2.953E+01, 6.522E+02, 2.840E+01, 7.619E+02, 1.885E+01
 6.300E+02, 5.637E+02, 2.936E+01, 6.523E+02, 2.805E+01, 7.620E+02, 1.858E+01
 6.400E+02, 5.639E+02, 2.919E+01, 6.524E+02, 2.769E+01, 7.621E+02, 1.830E+01
 6.500E+02, 5.640E+02, 2.902E+01, 6.525E+02, 2.734E+01, 7.622E+02, 1.803E+01
 6.600E+02, 5.641E+02, 2.885E+01, 6.526E+02, 2.698E+01, 7.623E+02, 1.776E+01
 6.700E+02, 5.643E+02, 2.867E+01, 6.527E+02, 2.663E+01, 7.623E+02, 1.749E+01
 6.800E+02, 5.644E+02, 2.850E+01, 6.528E+02, 2.627E+01, 7.624E+02, 1.721E+01
 6.900E+02, 5.645E+02, 2.833E+01, 6.529E+02, 2.592E+01, 7.624E+02, 1.694E+01
 7.000E+02, 5.646E+02, 2.816E+01, 6.530E+02, 2.556E+01, 7.625E+02, 1.667E+01
 7.100E+02, 5.647E+02, 2.799E+01, 6.531E+02, 2.521E+01, 7.625E+02, 1.639E+01
 7.200E+02, 5.648E+02, 2.782E+01, 6.531E+02, 2.485E+01, 7.626E+02, 1.617E+01
 7.300E+02, 5.649E+02, 2.765E+01, 6.532E+02, 2.449E+01, 7.626E+02, 1.617E+01
 7.400E+02, 5.650E+02, 2.747E+01, 6.532E+02, 2.414E+01, 7.627E+02, 1.621E+01
 7.500E+02, 5.650E+02, 2.730E+01, 6.533E+02, 2.378E+01, 7.627E+02, 1.624E+01
 7.600E+02, 5.651E+02, 2.713E+01, 6.533E+02, 2.349E+01, 7.628E+02, 1.627E+01
 7.700E+02, 5.652E+02, 2.696E+01, 6.534E+02, 2.331E+01, 7.628E+02, 1.631E+01
 7.800E+02, 5.652E+02, 2.679E+01, 6.534E+02, 2.314E+01, 7.628E+02, 1.634E+01
 7.900E+02, 5.653E+02, 2.662E+01, 6.535E+02, 2.297E+01, 7.628E+02, 1.637E+01
 8.000E+02, 5.654E+02, 2.646E+01, 6.535E+02, 2.280E+01, 7.629E+02, 1.641E+01
 8.100E+02, 5.654E+02, 2.631E+01, 6.536E+02, 2.263E+01, 7.629E+02, 1.644E+01
 8.200E+02, 5.655E+02, 2.617E+01, 6.536E+02, 2.246E+01, 7.629E+02, 1.647E+01
 8.300E+02, 5.655E+02, 2.603E+01, 6.536E+02, 2.229E+01, 7.629E+02, 1.650E+01
 8.400E+02, 5.655E+02, 2.589E+01, 6.536E+02, 2.212E+01, 7.630E+02, 1.654E+01
 8.500E+02, 5.656E+02, 2.574E+01, 6.537E+02, 2.195E+01, 7.630E+02, 1.657E+01
 8.600E+02, 5.656E+02, 2.560E+01, 6.537E+02, 2.178E+01, 7.630E+02, 1.660E+01
 8.700E+02, 5.657E+02, 2.546E+01, 6.537E+02, 2.161E+01, 7.630E+02, 1.664E+01
 8.800E+02, 5.657E+02, 2.532E+01, 6.537E+02, 2.144E+01, 7.630E+02, 1.667E+01
 8.900E+02, 5.657E+02, 2.518E+01, 6.538E+02, 2.127E+01, 7.630E+02, 1.670E+01
 9.000E+02, 5.658E+02, 2.503E+01, 6.538E+02, 2.109E+01, 7.631E+02, 1.674E+01
 9.100E+02, 5.658E+02, 2.489E+01, 6.538E+02, 2.092E+01, 7.631E+02, 1.677E+01
 9.200E+02, 5.658E+02, 2.475E+01, 6.538E+02, 2.075E+01, 7.631E+02, 1.680E+01
 9.300E+02, 5.658E+02, 2.461E+01, 6.538E+02, 2.062E+01, 7.631E+02, 1.683E+01
 9.400E+02, 5.659E+02, 2.447E+01, 6.539E+02, 2.050E+01, 7.631E+02, 1.687E+01
 9.500E+02, 5.659E+02, 2.430E+01, 6.539E+02, 2.037E+01, 7.631E+02, 1.692E+01
 9.600E+02, 5.659E+02, 2.403E+01, 6.539E+02, 2.025E+01, 7.631E+02, 1.714E+01
 9.700E+02, 5.659E+02, 2.375E+01, 6.539E+02, 2.013E+01, 7.631E+02, 1.738E+01
 9.800E+02, 5.659E+02, 2.347E+01, 6.539E+02, 2.001E+01, 7.631E+02, 1.762E+01
 9.900E+02, 5.659E+02, 2.320E+01, 6.539E+02, 1.988E+01, 7.631E+02, 1.786E+01
 1.000E+03, 5.660E+02, 2.292E+01, 6.539E+02, 1.978E+01, 7.631E+02, 1.811E+01
 1.010E+03, 5.660E+02, 2.264E+01, 6.539E+02, 1.969E+01, 7.631E+02, 1.835E+01
 1.020E+03, 5.660E+02, 2.236E+01, 6.539E+02, 1.960E+01, 7.632E+02, 1.859E+01
 1.030E+03, 5.660E+02, 2.208E+01, 6.540E+02, 1.951E+01, 7.632E+02, 1.884E+01
 1.040E+03, 5.660E+02, 2.180E+01, 6.540E+02, 1.942E+01, 7.632E+02, 1.910E+01
 1.050E+03, 5.660E+02, 2.152E+01, 6.540E+02, 1.934E+01, 7.632E+02, 2.202E+01
 1.060E+03, 5.660E+02, 2.124E+01, 6.540E+02, 1.925E+01, 7.632E+02, 2.694E+01
 1.070E+03, 5.660E+02, 2.096E+01, 6.540E+02, 1.916E+01, 7.632E+02, 3.008E+01
 1.080E+03, 5.661E+02, 2.068E+01, 6.540E+02, 1.907E+01, 7.632E+02, 3.201E+01
 1.090E+03, 5.661E+02, 2.040E+01, 6.540E+02, 1.899E+01, 7.632E+02, 3.394E+01
 1.100E+03, 5.661E+02, 2.012E+01, 6.540E+02, 1.890E+01, 7.632E+02, 3.587E+01
 1.110E+03, 5.661E+02, 1.984E+01, 6.540E+02, 1.881E+01, 7.632E+02, 3.781E+01
 1.120E+03, 5.661E+02, 1.957E+01, 6.540E+02, 1.872E+01, 7.632E+02, 3.973E+01
 1.130E+03, 5.661E+02, 1.929E+01, 6.540E+02, 1.863E+01, 7.632E+02, 4.166E+01
 1.140E+03, 5.661E+02, 1.901E+01, 6.540E+02, 1.854E+01, 7.632E+02, 4.359E+01
 1.150E+03, 5.661E+02, 1.873E+01, 6.540E+02, 1.846E+01, 7.632E+02, 4.552E+01
 1.160E+03, 5.661E+02, 1.845E+01, 6.540E+02, 1.837E+01, 7.632E+02, 4.744E+01
 1.170E+03, 5.661E+02, 1.817E+01, 6.540E+02, 1.828E+01, 7.632E+02, 4.937E+01
 1.180E+03, 5.661E+02, 1.789E+01, 6.540E+02, 1.819E+01, 7.632E+02, 5.132E+01
 1.190E+03, 5.661E+02, 1.761E+01, 6.540E+02, 1.810E+01, 7.632E+02, 5.366E+01
 1.200E+03, 5.661E+02, 1.733E+01, 6.540E+02, 1.802E+01, 7.632E+02, 5.612E+01
 1.210E+03, 5.661E+02, 1.705E+01, 6.540E+02, 1.793E+01, 7.632E+02, 5.858E+01
 1.220E+03, 5.661E+02, 1.678E+01, 6.540E+02, 1.784E+01, 7.632E+02, 6.104E+01
 1.230E+03, 5.661E+02, 1.650E+01, 6.540E+02, 1.775E+01, 7.632E+02, 6.349E+01
 1.240E+03, 5.661E+02, 1.622E+01, 6.540E+02, 1.766E+01, 7.632E+02, 6.595E+01
 1.250E+03, 5.661E+02, 1.594E+01, 6.540E+02, 1.757E+01, 7.632E+02, 6.840E+01
 1.260E+03, 5.661E+02, 1.566E+01, 6.540E+02, 1.748E+01, 7.632E+02, 7.103E+01
 1.270E+03, 5.662E+02, 1.538E+01, 6.540E+02, 1.740E+01, 7.632E+02, 7.490E+01
 1.280E+03, 5.662E+02, 1.510E+01, 6.540E+02, 1.731E+01, 7.632E+02, 7.902E+01
 1.290E+03, 5.662E+02, 1.481E+01, 6.540E+02, 1.722E+01, 7.632E+02, 8.315E+01
 1.300E+03, 5.662E+02, 1.451E+01, 6.540E+02, 1.713E+01, 7.632E+02, 8.726E+01
 1.310E+03, 5.662E+02, 1.420E+01, 6.541E+02, 1.704E+01, 7.632E+02, 9.180E+01
 1.320E+03, 5.662E+02, 1.390E+01, 6.541E+02, 1.695E+01, 7.632E+02, 9.855E+01
 1.330E+03, 5.662E+02, 1.360E+01, 6.541E+02, 1.686E+01, 7.632E+02, 1.056E+02
 1.340E+03, 5.662E+02, 1.330E+01, 6.541E+02, 1.678E+01, 7.632E+02, 1.153E+02
 1.350E+03, 5.662E+02, 1.299E+01, 6.541E+02, 1.682E+01, 7.632E+02, 1.247E+02
 1.360E+03, 5.662E+02, 1.269E+01, 6.541E+02, 1.698E+01, 7.632E+02, 1.331E+02
 1.370E+03, 5.662E+02, 1.239E+01, 6.541E+02, 1.714E+01, 7.632E+02, 1.377E+02
 1.380E+03, 5.662E+02, 1.209E+01, 6.541E+02, 1.730E+01, 7.632E+02, 1.425E+02
 1.390E+03, 5.662E+02, 1.179E+01, 6.541E+02, 1.747E+01, 7.632E+02, 1.502E+02
 1.400E+03, 5.662E+02, 1.148E+01, 6.541E+02, 1.763E+01, 7.632E+02, 1.586E+02
 1.410E+03, 5.662E+02, 1.118E+01, 6.541E+02, 1.779E+01, 7.632E+02, 1.670E+02
 1.420E+03, 5.662E+02, 1.088E+01, 6.541E+02, 1.795E+01, 7.632E+02, 1.750E+02
 1.430E+03, 5.662E+02, 1.058E+01, 6.541E+02, 1.812E+01, 7.632E+02, 1.742E+02
 1.440E+03, 5.662E+02, 1.027E+01, 6.541E+02, 1.828E+01, 7.632E+02, 1.706E+02
 1.450E+03, 5.662E+02, 9.973E+00, 6.541E+02, 1.844E+01, 7.632E+02, 1.719E+02
 1.460E+03, 5.662E+02, 9.671E+00, 6.541E+02, 1.860E+01, 7.632E+02, 1.768E+02
 1.470E+03, 5.662E+02, 9.490E+00, 6.541E+02, 1.870E+01, 7.632E+02, 1.817E+02
 1.480E+03, 5.662E+02, 9.429E+00, 6.541E+02, 1.878E+01, 7.632E+02, 1.866E+02
 1.490E+03, 5.662E+02, 9.367E+00, 6.541E+02, 1.912E+01, 7.632E+02, 1.903E+02
 1.500E+03, 5.662E+02, 9.306E+00, 6.541E+02, 2.040E+01, 7.632E+02, 1.902E+02
 1.510E+03, 5.662E+02, 9.245E+00, 6.541E+02, 2.156E+01, 7.632E+02, 1.897E+02
 1.520E+03, 5.662E+02, 9.183E+00, 6.541E+02, 2.201E+01, 7.632E+02, 1.902E+02
 1.530E+03, 5.662E+02, 9.122E+00, 6.541E+02, 2.238E+01, 7.632E+02, 1.984E+02
 1.540E+03, 5.662E+02, 9.060E+00, 6.541E+02, 2.276E+01, 7.632E+02, 2.120E+02
 1.550E+03, 5.662E+02, 8.999E+00, 6.541E+02, 2.313E+01, 7.632E+02, 2.260E+02
 1.560E+03, 5.662E+02, 8.938E+00, 6.541E+02, 2.350E+01, 7.632E+02, 2.351E+02
 1.570E+03, 5.662E+02, 8.876E+00, 6.541E+02, 2.387E+01, 7.632E+02, 2.365E+02
 1.580E+03, 5.662E+02, 8.815E+00, 6.541E+02, 2.424E+01, 7.632E+02, 2.346E+02
 1.590E+03, 5.662E+02, 8.753E+00, 6.541E+02, 2.464E+01, 7.632E+02, 2.333E+02
 1.600E+03, 5.662E+02, 8.692E+00, 6.541E+02, 2.512E+01, 7.632E+02, 2.329E+02
 1.610E+03, 5.662E+02, 8.631E+00, 6.541E+02, 2.559E+01, 7.632E+02, 2.324E+02
 1.620E+03, 5.662E+02, 8.569E+00, 6.541E+02, 2.606E+01, 7.632E+02, 2.319E+02
 1.630E+03, 5.662E+02, 8.508E+00, 6.541E+02, 2.653E+01, 7.632E+02, 2.312E+02
 1.640E+03, 5.662E+02, 8.447E+00, 6.541E+02, 2.710E+01, 7.632E+02, 2.295E+02
 1.650E+03, 5.662E+02, 8.385E+00, 6.541E+02, 2.950E+01, 7.632E+02, 2.276E+02
 1.660E+03, 5.662E+02, 8.324E+00, 6.541E+02, 3.152E+01, 7.632E+02, 2.256E+02
 1.670E+03, 5.662E+02, 8.262E+00, 6.541E+02, 3.305E+01, 7.632E+02, 2.216E+02
 1.680E+03, 5.662E+02, 8.201E+00, 6.541E+02, 3.455E+01, 7.632E+02, 2.180E+02
 1.690E+03, 5.662E+02, 8.140E+00, 6.541E+02, 3.604E+01, 7.632E+02, 2.200E+02
 1.700E+03, 5.662E+02, 8.078E+00, 6.541E+02, 3.752E+01, 7.632E+02, 2.218E+02
 1.710E+03, 5.662E+02, 8.017E+00, 6.541E+02, 3.899E+01, 7.632E+02, 2.215E+02
 1.720E+03, 5.662E+02, 7.956E+00, 6.541E+02, 4.044E+01, 7.632E+02, 2.211E+02
 1.730E+03, 5.662E+02, 7.894E+00, 6.541E+02, 4.188E+01, 7.632E+02, 2.208E+02
 1.740E+03, 5.662E+02, 7.833E+00, 6.541E+02, 4.319E+01, 7.632E+02, 2.204E+02
 1.750E+03, 5.662E+02, 7.771E+00, 6.541E+02, 4.429E+01, 7.632E+02, 2.200E+02
 1.760E+03, 5.662E+02, 7.710E+00, 6.541E+02, 4.541E+01, 7.632E+02, 2.197E+02
 1.770E+03, 5.662E+02, 7.655E+00, 6.541E+02, 4.662E+01, 7.632E+02, 2.192E+02
 1.780E+03, 5.662E+02, 7.651E+00, 6.541E+02, 4.783E+01, 7.632E+02, 2.181E+02
 1.790E+03, 5.662E+02, 7.659E+00, 6.541E+02, 4.905E+01, 7.632E+02, 2.169E+02
 1.800E+03, 5.662E+02, 7.666E+00, 6.541E+02, 5.059E+01, 7.632E+02, 2.157E+02
 1.810E+03, 5.662E+02, 7.674E+00, 6.541E+02, 5.445E+01, 7.632E+02, 2.145E+02
 1.820E+03, 5.662E+02, 7.681E+00, 6.541E+02, 5.854E+01, 7.632E+02, 2.133E+02
 1.830E+03, 5.662E+02, 7.688E+00, 6.541E+02, 6.077E+01, 7.632E+02, 2.120E+02
 1.840E+03, 5.662E+02, 7.696E+00, 6.541E+02, 6.235E+01, 7.632E+02, 2.108E+02
 1.850E+03, 5.662E+02, 7.703E+00, 6.541E+02, 6.393E+01, 7.632E+02, 2.093E+02
 1.860E+03, 5.662E+02, 7.711E+00, 6.541E+02, 6.550E+01, 7.632E+02, 2.075E+02
 1.870E+03, 5.662E+02, 7.718E+00, 6.541E+02, 6.653E+01, 7.632E+02, 2.057E+02
 1.880E+03, 5.662E+02, 7.725E+00, 6.541E+02, 6.674E+01, 7.632E+02, 2.039E+02
 1.890E+03, 5.662E+02, 7.733E+00, 6.541E+02, 6.694E+01, 7.632E+02, 2.020E+02
 1.900E+03, 5.662E+02, 7.740E+00, 6.541E+02, 6.714E+01, 7.632E+02, 2.002E+02
 1.910E+03, 5.662E+02, 7.748E+00, 6.541E+02, 6.743E+01, 7.632E+02, 1.982E+02
 1.920E+03, 5.662E+02, 7.755E+00, 6.541E+02, 6.833E+01, 7.632E+02, 1.962E+02
 1.930E+03, 5.662E+02, 7.762E+00, 6.541E+02, 6.934E+01, 7.632E+02, 1.941E+02
 1.940E+03, 5.662E+02, 7.770E+00, 6.541E+02, 7.038E+01, 7.632E+02, 1.914E+02
 1.950E+03, 5.662E+02, 7.777E+00, 6.541E+02, 7.140E+01, 7.632E+02, 1.887E+02
 1.960E+03, 5.662E+02, 7.785E+00, 6.541E+02, 7.216E+01, 7.632E+02, 1.860E+02
 1.970E+03, 5.662E+02, 7.792E+00, 6.541E+02, 7.329E+01, 7.632E+02, 1.833E+02
 1.980E+03, 5.662E+02, 7.799E+00, 6.541E+02, 7.481E+01, 7.632E+02, 1.806E+02
 1.990E+03, 5.662E+02, 7.807E+00, 6.541E+02, 7.633E+01, 7.632E+02, 1.778E+02
 2.000E+03, 5.662E+02, 7.814E+00, 6.541E+02, 7.807E+01, 7.632E+02, 1.751E+02
 2.010E+03, 5.662E+02, 7.822E+00, 6.541E+02, 8.041E+01, 7.632E+02, 1.724E+02
 2.020E+03, 5.662E+02, 7.829E+00, 6.541E+02, 8.278E+01, 7.632E+02, 1.697E+02
 2.030E+03, 5.662E+02, 7.836E+00, 6.541E+02, 8.514E+01, 7.632E+02, 1.670E+02
 2.040E+03, 5.662E+02, 7.844E+00, 6.541E+02, 8.751E+01, 7.632E+02, 1.642E+02
 2.050E+03, 5.662E+02, 7.851E+00, 6.541E+02, 9.013E+01, 7.632E+02, 1.615E+02
 2.060E+03, 5.662E+02, 7.859E+00, 6.541E+02, 9.288E+01, 7.632E+02, 1.588E+02
 2.070E+03, 5.662E+02, 7.866E+00, 6.541E+02, 9.562E+01, 7.632E+02, 1.561E+02
 2.080E+03, 5.662E+02, 7.873E+00, 6.541E+02, 9.718E+01, 7.632E+02, 1.534E+02
 2.090E+03, 5.662E+02, 7.881E+00, 6.541E+02, 9.857E+01, 7.632E+02, 1.506E+02
 2.100E+03, 5.662E+02, 7.888E+00, 6.541E+02, 1.011E+02, 7.632E+02, 1.479E+02
 2.110E+03, 5.662E+02, 7.896E+00, 6.541E+02, 1.055E+02, 7.632E+02, 1.452E+02
 2.120E+03, 5.662E+02, 7.903E+00, 6.541E+02, 1.103E+02, 7.632E+02, 1.425E+02
 2.130E+03, 5.662E+02, 7.910E+00, 6.541E+02, 1.150E+02, 7.632E+02, 1.398E+02
 2.140E+03, 5.662E+02, 7.918E+00, 6.541E+02, 1.195E+02, 7.632E+02, 1.375E+02
 2.150E+03, 5.662E+02, 7.925E+00, 6.541E+02, 1.233E+02, 7.632E+02, 1.354E+02
 2.160E+03, 5.662E+02, 7.933E+00, 6.541E+02, 1.268E+02, 7.632E+02, 1.332E+02
 2.170E+03, 5.662E+02, 7.940E+00, 6.541E+02, 1.303E+02, 7.632E+02, 1.310E+02
 2.180E+03, 5.662E+02, 7.947E+00, 6.541E+02, 1.338E+02, 7.632E+02, 1.288E+02
 2.190E+03, 5.662E+02, 7.955E+00, 6.541E+02, 1.388E+02, 7.632E+02, 1.267E+02
 2.200E+03, 5.662E+02, 7.962E+00, 6.541E+02, 1.448E+02, 7.632E+02, 1.247E+02
 2.210E+03, 5.662E+02, 7.970E+00, 6.541E+02, 1.504E+02, 7.632E+02, 1.227E+02
 2.220E+03, 5.662E+02, 7.977E+00, 6.541E+02, 1.531E+02, 7.632E+02, 1.207E+02
 2.230E+03, 5.662E+02, 7.984E+00, 6.541E+02, 1.560E+02, 7.632E+02, 1.186E+02
 2.240E+03, 5.662E+02, 7.992E+00, 6.541E+02, 1.621E+02, 7.632E+02, 1.165E+02
 2.250E+03, 5.662E+02, 7.999E+00, 6.541E+02, 1.661E+02, 7.632E+02, 1.143E+02
 2.260E+03, 5.662E+02, 8.017E+00, 6.541E+02, 1.681E+02, 7.632E+02, 1.122E+02
 2.270E+03, 5.662E+02, 8.069E+00, 6.541E+02, 1.686E+02, 7.632E+02, 1.100E+02
 2.280E+03, 5.662E+02, 8.124E+00, 6.541E+02, 1.671E+02, 7.632E+02, 1.078E+02
 2.290E+03, 5.662E+02, 8.178E+00, 6.541E+02, 1.656E+02, 7.632E+02, 1.055E+02
 2.300E+03, 5.662E+02, 8.233E+00, 6.541E+02, 1.643E+02, 7.632E+02, 1.032E+02
 2.310E+03, 5.662E+02, 8.288E+00, 6.541E+02, 1.651E+02, 7.632E+02, 1.009E+02
 2.320E+03, 5.662E+02, 8.342E+00, 6.541E+02, 1.678E+02, 7.632E+02, 9.854E+01
 2.330E+03, 5.662E+02, 8.397E+00, 6.541E+02, 1.706E+02, 7.632E+02, 9.678E+01
 2.340E+03, 5.662E+02, 8.451E+00, 6.541E+02, 1.734E+02, 7.632E+02, 9.515E+01
 2.350E+03, 5.662E+02, 8.506E+00, 6.541E+02, 1.739E+02, 7.632E+02, 9.351E+01
 2.360E+03, 5.662E+02, 8.561E+00, 6.541E+02, 1.720E+02, 7.632E+02, 9.188E+01
 2.370E+03, 5.662E+02, 8.615E+00, 6.541E+02, 1.702E+02, 7.632E+02, 9.024E+01
 2.380E+03, 5.662E+02, 8.670E+00, 6.541E+02, 1.685E+02, 7.632E+02, 8.860E+01
 2.390E+03, 5.662E+02, 8.724E+00, 6.541E+02, 1.681E+02, 7.632E+02, 8.697E+01
 2.400E+03, 5.662E+02, 8.779E+00, 6.541E+02, 1.688E+02, 7.632E+02, 8.533E+01
 2.410E+03, 5.662E+02, 8.834E+00, 6.541E+02, 1.696E+02, 7.632E+02, 8.369E+01
 2.420E+03, 5.662E+02, 8.888E+00, 6.541E+02, 1.704E+02, 7.632E+02, 2.254E+01
 2.430E+03, 5.662E+02, 8.943E+00, 6.541E+02, 1.712E+02, 7.632E+02, 0.000E+00
 2.440E+03, 5.662E+02, 8.997E+00, 6.541E+02, 1.720E+02, 7.632E+02, 0.000E+00
 2.450E+03, 5.662E+02, 9.052E+00, 6.541E+02, 1.732E+02, 7.632E+02, 0.000E+00
 2.460E+03, 5.662E+02, 9.483E+00, 6.541E+02, 1.744E+02, 7.632E+02, 0.000E+00
 2.470E+03, 5.662E+02, 1.058E+01, 6.541E+02, 1.752E+02, 7.632E+02, 0.000E+00
 2.480E+03, 5.662E+02, 1.170E+01, 6.541E+02, 1.753E+02, 7.632E+02, 0.000E+00
 2.490E+03, 5.662E+02, 1.282E+01, 6.541E+02, 1.752E+02, 7.632E+02, 0.000E+00
 2.500E+03, 5.662E+02, 1.376E+01, 6.541E+02, 1.750E+02, 7.632E+02, 0.000E+00
 2.510E+03, 5.662E+02, 1.423E+01, 6.541E+02, 1.749E+02, 7.632E+02, 0.000E+00
 2.520E+03, 5.662E+02, 1.467E+01, 6.541E+02, 1.747E+02, 7.632E+02, 0.000E+00
 2.530E+03, 5.662E+02, 1.511E+01, 6.541E+02, 1.749E+02, 7.632E+02, 0.000E+00
 2.540E+03, 5.662E+02, 1.555E+01, 6.541E+02, 1.753E+02, 7.632E+02, 0.000E+00
 2.550E+03, 5.662E+02, 1.598E+01, 6.541E+02, 1.756E+02, 7.632E+02, 0.000E+00
 2.560E+03, 5.662E+02, 1.642E+01, 6.541E+02, 1.759E+02, 7.632E+02, 0.000E+00
