s,,,,,,,
Time,"O2 EXHAUST","CO2 EXHAUST","H2O EXHAUST","CO EXHAUST","FUEL EXHAUST","SOOT EXHAUST","TEMP EXHAUST"
 0.0000000E+000, 2.3099739E-001, 5.9146498E-004, 5.9412091E-003, 0.0000000E+000, 0.0000000E+000, 0.0000000E+000, 2.0000000E+001
 1.0013212E+000, 2.3099739E-001, 5.9146498E-004, 5.9412091E-003, 3.4988802E-030, 5.0473197E-029, 1.0687178E-030, 2.0396299E+001
 2.0007238E+000, 2.2310749E-001, 7.0166282E-003, 9.5617788E-003, 3.9833320E-005, 2.9493057E-004, 5.1762947E-005, 9.6104752E+001
 3.0014781E+000, 2.1738493E-001, 1.1695118E-002, 1.2212660E-002, 7.9596872E-005, 3.3556281E-004, 9.1781407E-005, 1.4633954E+002
 4.0024546E+000, 2.1320995E-001, 1.5128097E-002, 1.4134137E-002, 9.0143957E-005, 3.9480334E-004, 1.1711513E-004, 1.8386891E+002
 5.0054041E+000, 2.0764595E-001, 1.9676376E-002, 1.6703483E-002, 1.2286012E-004, 4.7996648E-004, 1.5473459E-004, 2.2954771E+002
 6.0006081E+000, 2.0179683E-001, 2.4513071E-002, 1.9400028E-002, 1.2896271E-004, 4.8388319E-004, 1.8853197E-004, 2.7316881E+002
 7.0043546E+000, 1.9357727E-001, 3.1326718E-002, 2.3193647E-002, 1.3325682E-004, 4.3255027E-004, 2.3521246E-004, 3.2608981E+002
 8.0040750E+000, 1.8559774E-001, 3.7971971E-002, 2.6875964E-002, 1.2328976E-004, 3.2469897E-004, 2.7767632E-004, 3.6764419E+002
 9.0058340E+000, 1.7930179E-001, 4.3235393E-002, 2.9780163E-002, 1.0541856E-004, 2.0591655E-004, 3.0915133E-004, 3.9903671E+002
 1.0002762E+001, 1.7173318E-001, 4.9537161E-002, 3.3271166E-002, 9.5243409E-005, 1.1545924E-004, 3.4926383E-004, 4.2381953E+002
 1.1001483E+001, 1.6284054E-001, 5.6927465E-002, 3.7371908E-002, 8.8779279E-005, 4.2100441E-005, 3.9748854E-004, 4.5556136E+002
 1.2002285E+001, 1.5770022E-001, 6.1192377E-002, 3.9742350E-002, 8.8216605E-005, 1.3381942E-005, 4.2600427E-004, 4.5960656E+002
 1.3004044E+001, 1.4988676E-001, 6.7659056E-002, 4.3345511E-002, 9.4614379E-005, 1.7605462E-006, 4.7081031E-004, 4.7569618E+002
 1.4007255E+001, 1.4235756E-001, 7.3885584E-002, 4.6817598E-002, 1.0298424E-004, 2.4627133E-007, 5.1443054E-004, 4.8599211E+002
 1.5004267E+001, 1.3605730E-001, 7.9095053E-002, 4.9722989E-002, 1.1034523E-004, 2.9269051E-007, 5.5100325E-004, 4.9165036E+002
 1.6002083E+001, 1.3043525E-001, 8.3743852E-002, 5.2315597E-002, 1.1684250E-004, 2.2552096E-007, 5.8362434E-004, 4.9665180E+002
 1.7000474E+001, 1.2364104E-001, 8.9361905E-002, 5.5448744E-002, 1.2468783E-004, 1.3188233E-007, 6.2304535E-004, 5.0250790E+002
 1.8002687E+001, 1.1961016E-001, 9.2694965E-002, 5.7307582E-002, 1.2935412E-004, 1.3955165E-007, 6.4643549E-004, 4.9920918E+002
 1.9001882E+001, 1.1385926E-001, 9.7450160E-002, 5.9959628E-002, 1.3608072E-004, 2.5083535E-007, 6.7982063E-004, 5.0279336E+002
 2.0003393E+001, 1.0895578E-001, 1.0150466E-001, 6.2220877E-002, 1.4181108E-004, 4.2401911E-007, 7.0828523E-004, 5.0578581E+002
 2.1006546E+001, 1.0338440E-001, 1.0611146E-001, 6.4790130E-002, 1.4830203E-004, 4.8427171E-007, 7.4062297E-004, 5.1074834E+002
 2.2005313E+001, 1.0191741E-001, 1.0732473E-001, 6.5466608E-002, 1.4987477E-004, 1.1200238E-007, 7.4910997E-004, 5.0099158E+002
 2.3003176E+001, 9.5522667E-002, 1.1250468E-001, 6.8425529E-002, 2.1334390E-004, 1.5954933E-004, 7.9762529E-004, 5.1147952E+002
 2.4005629E+001, 9.3689893E-002, 1.1402115E-001, 6.9271952E-002, 2.1597584E-004, 1.5077727E-004, 8.0837737E-004, 5.0430692E+002
 2.5006980E+001, 9.1647251E-002, 1.1568979E-001, 7.0216326E-002, 2.2934834E-004, 1.7807905E-004, 8.2247529E-004, 5.0240720E+002
 2.6002531E+001, 8.7330000E-002, 1.1885538E-001, 7.2230509E-002, 4.3382908E-004, 8.5434747E-004, 8.8797751E-004, 5.0042084E+002
 2.7001482E+001, 8.6443934E-002, 1.1953145E-001, 7.2642836E-002, 4.6313684E-004, 9.4651039E-004, 8.9885880E-004, 4.9117248E+002
 2.8004305E+001, 8.4869392E-002, 1.2088509E-001, 7.3372251E-002, 4.4428966E-004, 8.2544375E-004, 9.0386962E-004, 4.9260212E+002
 2.9005636E+001, 8.2568657E-002, 1.2232446E-001, 7.4466217E-002, 6.8029142E-004, 1.5653359E-003, 9.6460132E-004, 4.8785436E+002
 3.0004000E+001, 8.0558506E-002, 1.2366555E-001, 7.5390106E-002, 8.2447784E-004, 2.2211720E-003, 1.0048066E-003, 4.8748395E+002
 3.1009039E+001, 7.8930243E-002, 1.2491950E-001, 7.6155389E-002, 8.7894799E-004, 2.3258009E-003, 1.0250126E-003, 4.8385784E+002
 3.2000536E+001, 7.8157328E-002, 1.2532818E-001, 7.6525087E-002, 9.9354072E-004, 2.7112789E-003, 1.0525528E-003, 4.7475398E+002
 3.3009735E+001, 7.7269854E-002, 1.2584358E-001, 7.6928930E-002, 1.0885382E-003, 3.1756968E-003, 1.0765701E-003, 4.7270767E+002
 3.4006970E+001, 7.6000232E-002, 1.2661826E-001, 7.7529666E-002, 1.2253174E-003, 3.6392481E-003, 1.1113686E-003, 4.7069253E+002
 3.5001827E+001, 7.5951688E-002, 1.2650408E-001, 7.7532199E-002, 1.2794590E-003, 4.0555396E-003, 1.1223182E-003, 4.5913652E+002
 3.6003160E+001, 7.5015051E-002, 1.2683816E-001, 7.7958511E-002, 1.4740707E-003, 4.9627197E-003, 1.1666733E-003, 4.5894584E+002
 3.7002122E+001, 7.4604342E-002, 1.2706882E-001, 7.8165913E-002, 1.5373071E-003, 5.0804310E-003, 1.1819051E-003, 4.5137773E+002
 3.8005145E+001, 7.3253604E-002, 1.2763622E-001, 7.8792168E-002, 1.7883042E-003, 6.1552892E-003, 1.2400276E-003, 4.5212926E+002
 3.9006224E+001, 7.2775586E-002, 1.2792963E-001, 7.9000436E-002, 1.8252675E-003, 6.4248846E-003, 1.2499966E-003, 4.4760707E+002
 4.0000078E+001, 7.2544549E-002, 1.2789852E-001, 7.9052728E-002, 1.8836848E-003, 7.1653903E-003, 1.2624304E-003, 4.4630042E+002
 4.1006492E+001, 7.2255802E-002, 1.2788716E-001, 7.9174276E-002, 1.9874676E-003, 7.7269179E-003, 1.2848119E-003, 4.3683182E+002
 4.2001076E+001, 7.2201691E-002, 1.2782466E-001, 7.9208796E-002, 2.0430522E-003, 7.8876669E-003, 1.2964197E-003, 4.3188000E+002
 4.3007959E+001, 7.1938044E-002, 1.2777946E-001, 7.9273151E-002, 2.1176609E-003, 8.7262115E-003, 1.3122627E-003, 4.2765814E+002
 4.4003840E+001, 7.1935512E-002, 1.2757050E-001, 7.9238917E-002, 2.1852987E-003, 9.3409251E-003, 1.3254968E-003, 4.2607305E+002
 4.5001391E+001, 7.1512250E-002, 1.2776709E-001, 7.9380374E-002, 2.2134516E-003, 9.9417641E-003, 1.3329107E-003, 4.2445872E+002
 4.6004268E+001, 7.1582304E-002, 1.2753499E-001, 7.9309036E-002, 2.2616451E-003, 1.0503056E-002, 1.3417821E-003, 4.1956270E+002
 4.7008218E+001, 7.1317943E-002, 1.2743419E-001, 7.9398636E-002, 2.3806295E-003, 1.1316339E-002, 1.3668531E-003, 4.1609620E+002
 4.8005887E+001, 7.1199368E-002, 1.2729912E-001, 7.9414647E-002, 2.4557995E-003, 1.1992911E-002, 1.3822135E-003, 4.1388809E+002
 4.9002087E+001, 7.0995706E-002, 1.2736955E-001, 7.9471107E-002, 2.4712905E-003, 1.2393945E-002, 1.3860398E-003, 4.1068466E+002
 5.0001346E+001, 7.1215782E-002, 1.2703165E-001, 7.9331871E-002, 2.5121029E-003, 1.2911876E-002, 1.3926035E-003, 4.0937874E+002
 5.1005581E+001, 7.0790585E-002, 1.2703506E-001, 7.9493080E-002, 2.6422343E-003, 1.3796496E-002, 1.4207866E-003, 4.0641850E+002
 5.2007560E+001, 7.0814311E-002, 1.2686590E-001, 7.9434235E-002, 2.6726098E-003, 1.4357604E-002, 1.4262253E-003, 4.0506024E+002
 5.3009453E+001, 7.1021853E-002, 1.2654413E-001, 7.9271311E-002, 2.6882248E-003, 1.5026196E-002, 1.4274459E-003, 3.9985354E+002
 5.4008941E+001, 7.0946586E-002, 1.2641069E-001, 7.9260565E-002, 2.7413173E-003, 1.5665615E-002, 1.4380401E-003, 3.9936131E+002
 5.5003316E+001, 7.1131317E-002, 1.2621928E-001, 7.9142756E-002, 2.7334280E-003, 1.5922013E-002, 1.4350489E-003, 3.9642671E+002
 5.6003484E+001, 7.1136698E-002, 1.2601525E-001, 7.9068202E-002, 2.7677497E-003, 1.6715655E-002, 1.4411082E-003, 3.9295051E+002
 5.7010746E+001, 7.1125503E-002, 1.2586016E-001, 7.9026739E-002, 2.8057954E-003, 1.7299181E-002, 1.4483012E-003, 3.9278652E+002
 5.8003432E+001, 7.1711580E-002, 1.2524409E-001, 7.8645880E-002, 2.7792731E-003, 1.8169198E-002, 1.4384292E-003, 3.8650039E+002
 5.9010368E+001, 7.2033815E-002, 1.2492602E-001, 7.8419948E-002, 2.7427190E-003, 1.8697379E-002, 1.4283864E-003, 3.8211683E+002
 6.0006832E+001, 7.2324648E-002, 1.2443456E-001, 7.8166723E-002, 2.7636928E-003, 1.9852077E-002, 1.4296290E-003, 3.8761561E+002
 6.1003717E+001, 7.2178749E-002, 1.2452390E-001, 7.8247654E-002, 2.7884000E-003, 1.9839246E-002, 1.4355748E-003, 3.7943679E+002
 6.2008307E+001, 7.2468876E-002, 1.2412051E-001, 7.8047613E-002, 2.8106508E-003, 2.0529052E-002, 1.4376833E-003, 3.7649389E+002
 6.3008062E+001, 7.2856480E-002, 1.2366630E-001, 7.7775615E-002, 2.7986757E-003, 2.1308156E-002, 1.4320454E-003, 3.8048059E+002
 6.4006067E+001, 7.3464752E-002, 1.2312660E-001, 7.7368448E-002, 2.7172336E-003, 2.2078123E-002, 1.4108029E-003, 3.7142594E+002
 6.5006692E+001, 7.4590498E-002, 1.2197242E-001, 7.6667690E-002, 2.6768236E-003, 2.3521725E-002, 1.3943152E-003, 3.7023631E+002
 6.6005853E+001, 7.4276972E-002, 1.2219893E-001, 7.6857834E-002, 2.7268736E-003, 2.3336199E-002, 1.4066647E-003, 3.6578766E+002
 6.7010281E+001, 7.4619504E-002, 1.2186901E-001, 7.6669442E-002, 2.7240862E-003, 2.3596540E-002, 1.4038473E-003, 3.6224560E+002
 6.8002509E+001, 7.5222931E-002, 1.2115416E-001, 7.6250359E-002, 2.7122692E-003, 2.4800828E-002, 1.3964952E-003, 3.5977712E+002
 6.9001182E+001, 7.5601995E-002, 1.2078527E-001, 7.6030040E-002, 2.7017964E-003, 2.5161551E-002, 1.3917537E-003, 3.5883734E+002
 7.0005901E+001, 7.6059991E-002, 1.2031662E-001, 7.5729979E-002, 2.6734576E-003, 2.5829395E-002, 1.3824778E-003, 3.5707204E+002
 7.1009201E+001, 7.6727456E-002, 1.1959323E-001, 7.5278913E-002, 2.6397314E-003, 2.6958799E-002, 1.3703276E-003, 3.5907210E+002
 7.2005968E+001, 7.7019621E-002, 1.1933371E-001, 7.5123318E-002, 2.6314325E-003, 2.7109271E-002, 1.3667900E-003, 3.5744451E+002
 7.3004753E+001, 7.7278011E-002, 1.1897662E-001, 7.4927028E-002, 2.6363525E-003, 2.7819043E-002, 1.3654596E-003, 3.5477598E+002
 7.4000838E+001, 7.7906991E-002, 1.1852613E-001, 7.4592880E-002, 2.5705110E-003, 2.7923171E-002, 1.3481889E-003, 3.4759716E+002
 7.5003286E+001, 7.8119730E-002, 1.1825337E-001, 7.4431114E-002, 2.5648962E-003, 2.8466114E-002, 1.3451448E-003, 3.4705360E+002
 7.6010273E+001, 7.9351347E-002, 1.1704526E-001, 7.3678682E-002, 2.5070766E-003, 2.9858532E-002, 1.3245277E-003, 3.4386098E+002
 7.7001037E+001, 7.9676579E-002, 1.1686117E-001, 7.3517006E-002, 2.4596116E-003, 2.9754087E-002, 1.3130212E-003, 3.4608192E+002
 7.8013050E+001, 7.9792003E-002, 1.1652416E-001, 7.3348768E-002, 2.4797047E-003, 3.0867508E-002, 1.3151102E-003, 3.4555687E+002
 7.9011251E+001, 7.9768340E-002, 1.1658289E-001, 7.3377188E-002, 2.4755783E-003, 3.0693259E-002, 1.3146110E-003, 3.4130152E+002
 8.0009383E+001, 8.0149178E-002, 1.1625636E-001, 7.3172469E-002, 2.4580210E-003, 3.0876453E-002, 1.3086204E-003, 3.3921219E+002
 8.1011304E+001, 8.1008282E-002, 1.1525433E-001, 7.2568408E-002, 2.4284522E-003, 3.2600524E-002, 1.2955011E-003, 3.3843256E+002
 8.2005576E+001, 8.1121931E-002, 1.1524602E-001, 7.2507076E-002, 2.3829891E-003, 3.2479173E-002, 1.2856079E-003, 3.3622449E+002
 8.3000689E+001, 8.1085356E-002, 1.1518149E-001, 7.2495764E-002, 2.4039755E-003, 3.2822788E-002, 1.2897168E-003, 3.3274555E+002
 8.4003172E+001, 8.1462143E-002, 1.1473391E-001, 7.2223342E-002, 2.3888976E-003, 3.3636284E-002, 1.2834522E-003, 3.3501801E+002
 8.5000283E+001, 8.2108341E-002, 1.1403444E-001, 7.1862888E-002, 2.4143835E-003, 3.4308507E-002, 1.2842726E-003, 3.3557232E+002
 8.6012950E+001, 8.2329198E-002, 1.1388133E-001, 7.1678802E-002, 2.3377393E-003, 3.4702256E-002, 1.2666625E-003, 3.3678850E+002
 8.7006377E+001, 8.2693146E-002, 1.1336721E-001, 7.1363632E-002, 2.3199719E-003, 3.5937028E-002, 1.2593710E-003, 3.3356228E+002
 8.8004712E+001, 8.2322258E-002, 1.1360948E-001, 7.1554253E-002, 2.3643740E-003, 3.5957436E-002, 1.2706051E-003, 3.3618186E+002
 8.9003828E+001, 8.2532793E-002, 1.1337493E-001, 7.1332525E-002, 2.2956090E-003, 3.6763501E-002, 1.2541546E-003, 3.3727035E+002
 9.0006235E+001, 8.3021684E-002, 1.1296595E-001, 7.1091085E-002, 2.2848905E-003, 3.6860859E-002, 1.2490897E-003, 3.2793830E+002
 9.1005335E+001, 8.2878297E-002, 1.1294904E-001, 7.1094322E-002, 2.2976373E-003, 3.7476402E-002, 1.2517366E-003, 3.3010942E+002
 9.2009891E+001, 8.3356164E-002, 1.1262875E-001, 7.0823937E-002, 2.2250621E-003, 3.7602664E-002, 1.2338834E-003, 3.3266279E+002
 9.3010189E+001, 8.3693192E-002, 1.1219165E-001, 7.0557264E-002, 2.2104316E-003, 3.8529978E-002, 1.2277864E-003, 3.3252644E+002
 9.4012503E+001, 8.3489294E-002, 1.1233032E-001, 7.0683491E-002, 2.2488326E-003, 3.8412370E-002, 1.2370259E-003, 3.2946314E+002
 9.5005379E+001, 8.3955464E-002, 1.1176754E-001, 7.0267918E-002, 2.1739484E-003, 3.9868842E-002, 1.2170501E-003, 3.3086987E+002
 9.6001683E+001, 8.3845458E-002, 1.1191967E-001, 7.0401361E-002, 2.2100923E-003, 3.9292038E-002, 1.2258898E-003, 3.2718016E+002
 9.7003027E+001, 8.4119328E-002, 1.1164350E-001, 7.0188314E-002, 2.1655103E-003, 3.9868259E-002, 1.2143915E-003, 3.2792639E+002
 9.8000458E+001, 8.4170256E-002, 1.1140306E-001, 7.0069910E-002, 2.1816801E-003, 4.0785112E-002, 1.2162793E-003, 3.2411683E+002
 9.9002930E+001, 8.4293956E-002, 1.1120730E-001, 6.9952549E-002, 2.1772230E-003, 4.1302960E-002, 1.2140025E-003, 3.2732044E+002
 1.0000500E+002, 8.4462974E-002, 1.1102671E-001, 6.9793354E-002, 2.1329933E-003, 4.1831244E-002, 1.2032220E-003, 3.2797822E+002
 1.0100150E+002, 8.4579146E-002, 1.1094892E-001, 6.9757195E-002, 2.1380177E-003, 4.1699070E-002, 1.2037863E-003, 3.2776498E+002
 1.0200369E+002, 8.4335919E-002, 1.1103054E-001, 6.9812981E-002, 2.1487014E-003, 4.2247032E-002, 1.2066481E-003, 3.2886421E+002
 1.0300611E+002, 8.4722279E-002, 1.1060190E-001, 6.9548676E-002, 2.1311680E-003, 4.2938139E-002, 1.1999790E-003, 3.2262758E+002
 1.0401286E+002, 8.4751936E-002, 1.1054825E-001, 6.9473298E-002, 2.0968528E-003, 4.3335582E-002, 1.1921955E-003, 3.2654168E+002
 1.0500853E+002, 8.4979018E-002, 1.1022650E-001, 6.9283434E-002, 2.0914140E-003, 4.4070631E-002, 1.1888611E-003, 3.2799115E+002
 1.0600767E+002, 8.4838476E-002, 1.1038478E-001, 6.9338677E-002, 2.0653326E-003, 4.4039564E-002, 1.1842806E-003, 3.3053918E+002
 1.0700753E+002, 8.5085234E-002, 1.1007457E-001, 6.9182618E-002, 2.0802926E-003, 4.4483353E-002, 1.1854363E-003, 3.2357155E+002
 1.0800296E+002, 8.5257054E-002, 1.0973518E-001, 6.8946072E-002, 2.0479651E-003, 4.5741459E-002, 1.1761677E-003, 3.2437955E+002
 1.0900465E+002, 8.4898212E-002, 1.1021119E-001, 6.9217035E-002, 2.0488168E-003, 4.4804364E-002, 1.1795445E-003, 3.2683488E+002
 1.1000589E+002, 8.5278972E-002, 1.0970614E-001, 6.8935222E-002, 2.0522761E-003, 4.5767276E-002, 1.1769055E-003, 3.2157829E+002
 1.1101199E+002, 8.5133655E-002, 1.0970565E-001, 6.8925883E-002, 2.0480291E-003, 4.6427418E-002, 1.1759859E-003, 3.2441441E+002
 1.1201322E+002, 8.5200760E-002, 1.0960208E-001, 6.8895651E-002, 2.0700959E-003, 4.6519146E-002, 1.1800655E-003, 3.2535637E+002
 1.1300051E+002, 8.5162999E-002, 1.0972960E-001, 6.8915762E-002, 2.0289530E-003, 4.6312706E-002, 1.1720188E-003, 3.2645773E+002
 1.1401082E+002, 8.5488256E-002, 1.0904080E-001, 6.8605053E-002, 2.0938023E-003, 4.8032335E-002, 1.1814321E-003, 3.2539286E+002
 1.1500670E+002, 8.5585204E-002, 1.0901441E-001, 6.8567526E-002, 2.0750475E-003, 4.7885834E-002, 1.1771963E-003, 3.2423084E+002
 1.1600409E+002, 8.5278243E-002, 1.0911327E-001, 6.8667463E-002, 2.1130655E-003, 4.8423143E-002, 1.1860882E-003, 3.2827238E+002
 1.1700243E+002, 8.5347328E-002, 1.0903290E-001, 6.8627272E-002, 2.1170298E-003, 4.8515233E-002, 1.1864067E-003, 3.2852768E+002
 1.1800487E+002, 8.5511404E-002, 1.0886963E-001, 6.8488361E-002, 2.0806855E-003, 4.8918138E-002, 1.1774481E-003, 3.2523796E+002
 1.1900179E+002, 8.5365668E-002, 1.0896017E-001, 6.8587489E-002, 2.1188199E-003, 4.8802119E-002, 1.1863068E-003, 3.2425932E+002
 1.2000724E+002, 8.5268643E-002, 1.0896706E-001, 6.8604743E-002, 2.1307760E-003, 4.9099289E-002, 1.1889411E-003, 3.2780162E+002
 1.2100175E+002, 8.5675998E-002, 1.0858760E-001, 6.8309447E-002, 2.0669703E-003, 4.9775255E-002, 1.1725902E-003, 3.2770368E+002
 1.2200102E+002, 8.5283216E-002, 1.0897373E-001, 6.8565319E-002, 2.0972409E-003, 4.9241960E-002, 1.1817305E-003, 3.2846685E+002
 1.2301021E+002, 8.5534756E-002, 1.0859545E-001, 6.8356188E-002, 2.1019502E-003, 5.0093198E-002, 1.1802128E-003, 3.2322150E+002
 1.2400630E+002, 8.5367853E-002, 1.0864465E-001, 6.8402826E-002, 2.1187561E-003, 5.0436776E-002, 1.1841808E-003, 3.2453469E+002
 1.2500319E+002, 8.5337885E-002, 1.0863037E-001, 6.8411082E-002, 2.1320664E-003, 5.0545099E-002, 1.1869653E-003, 3.2177354E+002
 1.2600795E+002, 8.5611092E-002, 1.0814940E-001, 6.8216590E-002, 2.1937388E-003, 5.1429483E-002, 1.1970834E-003, 3.2375276E+002
 1.2700007E+002, 8.5189400E-002, 1.0846977E-001, 6.8447465E-002, 2.2349044E-003, 5.1285503E-002, 1.2081410E-003, 3.2872720E+002
 1.2800064E+002, 8.5470339E-002, 1.0816505E-001, 6.8292405E-002, 2.2475291E-003, 5.1569911E-002, 1.2088276E-003, 3.2823226E+002
 1.2901191E+002, 8.5484067E-002, 1.0817076E-001, 6.8222790E-002, 2.1912677E-003, 5.1884162E-002, 1.1966939E-003, 3.2872052E+002
 1.3001144E+002, 8.5304401E-002, 1.0821046E-001, 6.8292381E-002, 2.2301961E-003, 5.2173720E-002, 1.2053846E-003, 3.2688351E+002
 1.3101196E+002, 8.5540175E-002, 1.0789066E-001, 6.8061961E-002, 2.1925847E-003, 5.3091662E-002, 1.1951029E-003, 3.2110350E+002
 1.3200071E+002, 8.5182548E-002, 1.0832241E-001, 6.8312617E-002, 2.1977082E-003, 5.2349285E-002, 1.1991076E-003, 3.2718304E+002
 1.3300165E+002, 8.5339053E-002, 1.0821085E-001, 6.8230333E-002, 2.1817450E-003, 5.2369402E-002, 1.1949046E-003, 3.2580483E+002
 1.3400467E+002, 8.5421251E-002, 1.0799301E-001, 6.8091696E-002, 2.1716463E-003, 5.3221820E-002, 1.1912602E-003, 3.2592197E+002
 1.3501535E+002, 8.5367618E-002, 1.0791442E-001, 6.8198734E-002, 2.2901177E-003, 5.3013581E-002, 1.2163654E-003, 3.2737288E+002
 1.3600364E+002, 8.5558731E-002, 1.0756556E-001, 6.7953165E-002, 2.2547611E-003, 5.4259492E-002, 1.2063777E-003, 3.2695337E+002
 1.3701205E+002, 8.5527716E-002, 1.0759096E-001, 6.7992795E-002, 2.2743523E-003, 5.4120638E-002, 1.2107866E-003, 3.2013512E+002
 1.3800019E+002, 8.5385086E-002, 1.0777556E-001, 6.8074365E-002, 2.2566984E-003, 5.3901094E-002, 1.2082055E-003, 3.2318631E+002
 1.3900316E+002, 8.5680596E-002, 1.0735562E-001, 6.7852235E-002, 2.2693243E-003, 5.4722831E-002, 1.2081209E-003, 3.2369742E+002
 1.4000328E+002, 8.5413689E-002, 1.0740106E-001, 6.8020844E-002, 2.3833120E-003, 5.4821066E-002, 1.2330900E-003, 3.2842751E+002
 1.4100013E+002, 8.5325215E-002, 1.0733106E-001, 6.8039276E-002, 2.4305542E-003, 5.5228980E-002, 1.2428434E-003, 3.2580336E+002
 1.4201060E+002, 8.5151045E-002, 1.0749981E-001, 6.8123131E-002, 2.4223586E-003, 5.5160300E-002, 1.2422029E-003, 3.2888901E+002
 1.4300195E+002, 8.5491902E-002, 1.0708093E-001, 6.7892628E-002, 2.4272373E-003, 5.5836339E-002, 1.2404486E-003, 3.2680496E+002
 1.4400596E+002, 8.5354223E-002, 1.0730658E-001, 6.7946840E-002, 2.3700490E-003, 5.5664931E-002, 1.2295892E-003, 3.2191311E+002
 1.4500488E+002, 8.5411099E-002, 1.0718107E-001, 6.7913772E-002, 2.3999881E-003, 5.5858723E-002, 1.2352251E-003, 3.2609010E+002
 1.4600501E+002, 8.5549673E-002, 1.0697290E-001, 6.7854767E-002, 2.4456282E-003, 5.6017977E-002, 1.2437031E-003, 3.2247630E+002
 1.4700223E+002, 8.5233249E-002, 1.0736138E-001, 6.8045092E-002, 2.4231054E-003, 5.5521282E-002, 1.2414365E-003, 3.2327850E+002
 1.4800953E+002, 8.4911073E-002, 1.0750070E-001, 6.8233449E-002, 2.5111105E-003, 5.5555250E-002, 1.2614138E-003, 3.3036425E+002
 1.4900977E+002, 8.5373267E-002, 1.0698363E-001, 6.7946884E-002, 2.5148067E-003, 5.6227616E-002, 1.2587442E-003, 3.2636389E+002
 1.5000471E+002, 8.5398056E-002, 1.0674724E-001, 6.7842901E-002, 2.5407095E-003, 5.7166385E-002, 1.2627653E-003, 3.2628493E+002
 1.5101469E+002, 8.5422381E-002, 1.0678459E-001, 6.7848025E-002, 2.5274117E-003, 5.6962132E-002, 1.2601380E-003, 3.2637341E+002
 1.5200368E+002, 8.5283610E-002, 1.0679156E-001, 6.7892676E-002, 2.5611401E-003, 5.7283004E-002, 1.2674839E-003, 3.2336124E+002
 1.5300608E+002, 8.5257537E-002, 1.0693498E-001, 6.7934237E-002, 2.5291006E-003, 5.6878024E-002, 1.2615129E-003, 3.2308653E+002
 1.5400275E+002, 8.5247414E-002, 1.0676759E-001, 6.7950267E-002, 2.6167921E-003, 5.7165222E-002, 1.2793639E-003, 3.3246201E+002
