s,,,,,,,
Time,O2 EXHAUST,CO2 EXHAUST,H2O EXHAUST,CO EXHAUST,FUEL EXHAUST,SOOT EXHAUST,TEMP EXHAUST
 0.0000000E+000, 2.3099739E-001, 5.9146498E-004, 5.9412092E-003, 0.0000000E+000, 0.0000000E+000, 0.0000000E+000, 2.0000000E+001
 1.0013122E+000, 2.3099739E-001, 5.9146498E-004, 5.9412092E-003, 2.4904259E-035, 9.0401635E-034, 9.0437484E-036, 2.0301578E+001
 2.0023106E+000, 2.2512621E-001, 5.1654562E-003, 9.7600546E-003, 7.3737286E-006, 1.9712246E-004, 2.8117117E-005, 8.1909881E+001
 3.0021533E+000, 2.2074740E-001, 8.6028490E-003, 1.2630083E-002, 1.2583119E-005, 2.0359431E-004, 4.9175691E-005, 1.2398687E+002
 4.0006274E+000, 2.1624204E-001, 1.2128059E-002, 1.5576796E-002, 1.9814077E-005, 2.5875785E-004, 7.1177328E-005, 1.6725789E+002
 5.0016222E+000, 2.1277811E-001, 1.4832248E-002, 1.7846025E-002, 2.9940296E-005, 2.9891361E-004, 8.9036616E-005, 1.9808113E+002
 6.0051555E+000, 2.0888927E-001, 1.7883870E-002, 2.0393217E-002, 3.4205038E-005, 3.1374987E-004, 1.0765468E-004, 2.3199661E+002
 7.0000959E+000, 2.0353365E-001, 2.2102141E-002, 2.3905578E-002, 3.5464492E-005, 2.8481804E-004, 1.3239641E-004, 2.7371072E+002
 8.0036696E+000, 1.9893813E-001, 2.5735441E-002, 2.6925876E-002, 3.3800897E-005, 2.0636375E-004, 1.5311763E-004, 3.0800513E+002
 9.0032339E+000, 1.9541068E-001, 2.8523146E-002, 2.9242690E-002, 3.2259137E-005, 1.5462361E-004, 1.6895943E-004, 3.2679471E+002
 1.0006444E+001, 1.8891500E-001, 3.3657060E-002, 3.3508911E-002, 2.9164764E-005, 5.8892868E-005, 1.9807945E-004, 3.6432273E+002
 1.1001120E+001, 1.8374092E-001, 3.7737720E-002, 3.6903668E-002, 2.8761125E-005, 1.4178153E-005, 2.2166623E-004, 3.8531203E+002
 1.2006476E+001, 1.7897928E-001, 4.1484993E-002, 4.0025036E-002, 3.0531686E-005, 6.2087034E-007, 2.4378516E-004, 4.0431575E+002
 1.3002799E+001, 1.7325117E-001, 4.5988284E-002, 4.3778330E-002, 3.3841632E-005, 2.4078401E-008, 2.7062015E-004, 4.2140526E+002
 1.4002571E+001, 1.6948652E-001, 4.8947849E-002, 4.6245045E-002, 3.6043124E-005, 1.3599859E-008, 2.8826173E-004, 4.2681880E+002
 1.5001195E+001, 1.6314772E-001, 5.3931021E-002, 5.0398441E-002, 3.9782049E-005, 3.7664058E-008, 3.1797266E-004, 4.4540492E+002
 1.6007501E+001, 1.5997566E-001, 5.6424722E-002, 5.2476870E-002, 4.1636555E-005, 3.2753522E-008, 3.3283719E-004, 4.4979358E+002
 1.7002460E+001, 1.5454585E-001, 6.0693330E-002, 5.6034651E-002, 4.4819360E-005, 3.5527312E-008, 3.5828343E-004, 4.5996809E+002
 1.8005418E+001, 1.5015356E-001, 6.4146332E-002, 5.8912610E-002, 4.7376419E-005, 2.0626366E-008, 3.7886387E-004, 4.5919167E+002
 1.9007090E+001, 1.4715374E-001, 6.6504635E-002, 6.0878181E-002, 4.9126304E-005, 1.4311576E-008, 3.9292047E-004, 4.6180944E+002
 2.0006633E+001, 1.4298193E-001, 6.9784274E-002, 6.3611681E-002, 5.1572632E-005, 1.4382596E-008, 4.1247141E-004, 4.6493519E+002
 2.1003064E+001, 1.3951948E-001, 7.2506232E-002, 6.5880395E-002, 5.3617116E-005, 2.6952818E-008, 4.2870088E-004, 4.6433936E+002
 2.2000173E+001, 1.3661832E-001, 7.4786973E-002, 6.7781324E-002, 5.5310790E-005, 2.3028198E-008, 4.4229546E-004, 4.6659947E+002
 2.3004237E+001, 1.3462046E-001, 7.6357589E-002, 6.9090377E-002, 5.6473258E-005, 1.7299176E-008, 4.5165645E-004, 4.6287954E+002
 2.4003067E+001, 1.3102564E-001, 7.9183606E-002, 7.1445818E-002, 5.8593301E-005, 3.2842290E-008, 4.6850581E-004, 4.6500049E+002
 2.5006853E+001, 1.2744547E-001, 8.1998168E-002, 7.3791653E-002, 6.0674639E-005, 1.7940502E-008, 4.8528041E-004, 4.6997742E+002
 2.6001932E+001, 1.2420024E-001, 8.4549380E-002, 7.5918028E-002, 6.2578409E-005, 1.7135589E-008, 5.0048914E-004, 4.7165173E+002
 2.7005158E+001, 1.2264649E-001, 8.5770832E-002, 7.6936101E-002, 6.3501051E-005, 3.0008148E-008, 5.0777307E-004, 4.6724205E+002
 2.8002936E+001, 1.1938067E-001, 8.8338267E-002, 7.9075953E-002, 6.5393403E-005, 1.0403985E-008, 5.2307347E-004, 4.6643569E+002
 2.9008088E+001, 1.1695395E-001, 9.0245978E-002, 8.0666032E-002, 6.6841021E-005, 3.1090941E-008, 5.3445121E-004, 4.6450822E+002
 3.0005420E+001, 1.1478002E-001, 9.1955040E-002, 8.2090446E-002, 6.8090340E-005, 1.2297513E-008, 5.4463400E-004, 4.6065352E+002
 3.1006200E+001, 1.1201412E-001, 9.4129398E-002, 8.3902757E-002, 6.9730968E-005, 2.7225003E-008, 5.5760004E-004, 4.6381465E+002
 3.2006371E+001, 1.0906098E-001, 9.6450990E-002, 8.5837751E-002, 7.1464223E-005, 2.4521002E-008, 5.7144010E-004, 4.6545509E+002
 3.3004062E+001, 1.0588324E-001, 9.8949123E-002, 8.7919911E-002, 7.3341122E-005, 5.0423083E-008, 5.8633514E-004, 4.6813115E+002
 3.4008113E+001, 1.0451429E-001, 1.0002537E-001, 8.8816874E-002, 7.4111713E-005, 2.1180624E-008, 5.9274408E-004, 4.6208503E+002
 3.5000092E+001, 1.0133903E-001, 1.0252157E-001, 9.0897408E-002, 7.5977192E-005, 2.5413522E-008, 6.0762548E-004, 4.6589934E+002
 3.6007148E+001, 9.9140867E-002, 1.0424958E-001, 9.2337734E-002, 7.7304182E-005, 5.0417196E-008, 6.1793484E-004, 4.6498840E+002
 3.7003288E+001, 9.7371028E-002, 1.0564098E-001, 9.3497369E-002, 7.8309639E-005, 2.9889849E-008, 6.2622244E-004, 4.6426865E+002
 3.8000183E+001, 9.3677339E-002, 1.0854474E-001, 9.5917595E-002, 8.0483438E-005, 3.4118183E-008, 6.4353432E-004, 4.6924494E+002
 3.9007937E+001, 9.0640947E-002, 1.1093173E-001, 9.7907150E-002, 8.2289802E-005, 5.0900273E-008, 6.5776950E-004, 4.7241705E+002
 4.0002822E+001, 8.9878716E-002, 1.1153096E-001, 9.8406585E-002, 8.2733204E-005, 5.5646254E-008, 6.6134091E-004, 4.6654084E+002
 4.1001056E+001, 8.7764583E-002, 1.1319303E-001, 9.9791810E-002, 8.3938198E-005, 3.0247900E-008, 6.7124155E-004, 4.6726455E+002
 4.2006331E+001, 8.4994788E-002, 1.1537038E-001, 1.0160670E-001, 8.5623813E-005, 8.2966652E-008, 6.8423464E-004, 4.6582990E+002
 4.3006929E+001, 8.3703109E-002, 1.1638583E-001, 1.0245305E-001, 8.6381779E-005, 7.9576567E-008, 6.9028813E-004, 4.6632943E+002
 4.4009947E+001, 8.1615118E-002, 1.1802731E-001, 1.0382117E-001, 8.7596357E-005, 6.6163676E-008, 7.0007138E-004, 4.6257245E+002
 4.5007927E+001, 7.9257356E-002, 1.1987969E-001, 1.0536649E-001, 8.9709891E-005, 6.3274144E-007, 7.1127093E-004, 4.6658621E+002
 4.6008912E+001, 7.7073181E-002, 1.2159038E-001, 1.0680009E-001, 9.5048187E-005, 3.6725459E-006, 7.2233986E-004, 4.6366780E+002
 4.7008366E+001, 7.4887133E-002, 1.2329718E-001, 1.0823709E-001, 1.0384449E-004, 8.8587688E-006, 7.3412768E-004, 4.6620924E+002
 4.8000619E+001, 7.2622567E-002, 1.2506172E-001, 1.0972712E-001, 1.1525151E-004, 1.5742867E-005, 7.4681018E-004, 4.6911851E+002
 4.9003115E+001, 7.1042123E-002, 1.2629412E-001, 1.1076690E-001, 1.2274111E-004, 1.9171585E-005, 7.5556563E-004, 4.6622008E+002
 5.0004448E+001, 6.9952363E-002, 1.2713822E-001, 1.1148545E-001, 1.3121576E-004, 2.6594917E-005, 7.6227958E-004, 4.6410391E+002
 5.1003689E+001, 6.8686490E-002, 1.2812764E-001, 1.1231659E-001, 1.3534209E-004, 3.1385971E-005, 7.6890432E-004, 4.6016901E+002
 5.2004583E+001, 6.6497998E-002, 1.2983649E-001, 1.1375464E-001, 1.4380549E-004, 3.8533797E-005, 7.8063263E-004, 4.6470819E+002
 5.3009253E+001, 6.4252797E-002, 1.3158412E-001, 1.1523187E-001, 1.5587673E-004, 4.9278316E-005, 7.9335952E-004, 4.6563657E+002
 5.4004379E+001, 6.2211900E-002, 1.3317124E-001, 1.1657563E-001, 1.6798741E-004, 5.8282991E-005, 8.0516360E-004, 4.6626834E+002
 5.5005719E+001, 6.0551698E-002, 1.3446896E-001, 1.1766613E-001, 1.7359226E-004, 6.2571126E-005, 8.1389389E-004, 4.6686256E+002
 5.6003193E+001, 5.9514637E-002, 1.3526777E-001, 1.1835095E-001, 1.8413279E-004, 7.4607747E-005, 8.2078810E-004, 4.6177710E+002
 5.7007785E+001, 5.7412759E-002, 1.3689756E-001, 1.1973625E-001, 1.9940225E-004, 8.7892285E-005, 8.3351701E-004, 4.6660967E+002
 5.8010441E+001, 5.6511534E-002, 1.3759133E-001, 1.2033217E-001, 2.0915226E-004, 9.5973328E-005, 8.3963232E-004, 4.6546894E+002
 5.9003781E+001, 5.4409009E-002, 1.3923484E-001, 1.2171335E-001, 2.1630117E-004, 1.0076369E-004, 8.5069974E-004, 4.6584855E+002
 6.0000056E+001, 5.3207160E-002, 1.4016296E-001, 1.2250723E-001, 2.2759555E-004, 1.0892835E-004, 8.5850573E-004, 4.5742658E+002
 6.1003692E+001, 5.0902095E-002, 1.4193960E-001, 1.2403133E-001, 2.5152916E-004, 1.2551951E-004, 8.7394425E-004, 4.6525047E+002
 6.2008291E+001, 5.0005936E-002, 1.4263596E-001, 1.2462107E-001, 2.5692805E-004, 1.3181998E-004, 8.7914166E-004, 4.6080611E+002
 6.3000574E+001, 4.7797987E-002, 1.4435714E-001, 1.2607315E-001, 2.6736049E-004, 1.3979011E-004, 8.9136369E-004, 4.6493385E+002
 6.4003861E+001, 4.6758042E-002, 1.4515864E-001, 1.2675961E-001, 2.7758547E-004, 1.5199231E-004, 8.9820587E-004, 4.6296812E+002
 6.5009242E+001, 4.5313897E-002, 1.4626644E-001, 1.2771701E-001, 2.9619480E-004, 1.6290803E-004, 9.0862257E-004, 4.6182639E+002
 6.6003612E+001, 4.3423527E-002, 1.4773903E-001, 1.2896058E-001, 3.0574825E-004, 1.7045795E-004, 9.1921397E-004, 4.6491932E+002
 6.7008112E+001, 4.2800869E-002, 1.4823084E-001, 1.2936659E-001, 3.0409093E-004, 1.7369130E-004, 9.2171185E-004, 4.6270705E+002
 6.8007422E+001, 4.1113779E-002, 1.4953981E-001, 1.3047948E-001, 3.1648305E-004, 1.7884076E-004, 9.3196265E-004, 4.6319474E+002
 6.9002218E+001, 3.9267491E-002, 1.5097913E-001, 1.3169346E-001, 3.2504990E-004, 1.8642566E-004, 9.4214945E-004, 4.6671808E+002
 7.0006380E+001, 3.7257298E-002, 1.5253037E-001, 1.3302354E-001, 3.4557955E-004, 1.9329482E-004, 9.5555049E-004, 4.6647432E+002
 7.1002551E+001, 3.6782619E-002, 1.5289796E-001, 1.3333579E-001, 3.4892764E-004, 1.9965069E-004, 9.5840093E-004, 4.6107544E+002
 7.2004465E+001, 3.4906632E-002, 1.5434712E-001, 1.3457643E-001, 3.6711079E-004, 2.0567309E-004, 9.7070660E-004, 4.6469313E+002
 7.3007706E+001, 3.4090786E-002, 1.5496082E-001, 1.3512031E-001, 3.8448206E-004, 2.2428251E-004, 9.7799150E-004, 4.5965820E+002
 7.4008847E+001, 3.2171765E-002, 1.5641012E-001, 1.3640486E-001, 4.2547990E-004, 2.3546334E-004, 9.9518962E-004, 4.6762674E+002
 7.5002485E+001, 3.1181921E-002, 1.5721584E-001, 1.3704247E-001, 4.0837811E-004, 2.2367460E-004, 9.9619713E-004, 4.6721836E+002
 7.6004847E+001, 3.0455060E-002, 1.5777590E-001, 1.3752190E-001, 4.1540460E-004, 2.3394287E-004, 1.0009528E-003, 4.6494976E+002
 7.7002300E+001, 2.9157402E-002, 1.5874319E-001, 1.3839386E-001, 4.5042096E-004, 2.5385161E-004, 1.0140722E-003, 4.6838820E+002
 7.8001457E+001, 2.7958645E-002, 1.5963447E-001, 1.3920142E-001, 4.8482033E-004, 2.6868599E-004, 1.0266183E-003, 4.6573651E+002
 7.9002295E+001, 2.6782263E-002, 1.6055733E-001, 1.3997476E-001, 4.8765703E-004, 2.6241520E-004, 1.0325804E-003, 4.6187235E+002
 8.0006842E+001, 2.5971168E-002, 1.6122403E-001, 1.4049219E-001, 4.6823199E-004, 2.5986778E-004, 1.0322833E-003, 4.6862910E+002
 8.1005234E+001, 2.5571726E-002, 1.6149616E-001, 1.4076905E-001, 4.9456445E-004, 2.8394196E-004, 1.0395079E-003, 4.6837395E+002
 8.2006644E+001, 2.3397584E-002, 1.6316334E-001, 1.4221632E-001, 5.2584578E-004, 2.7783817E-004, 1.0558868E-003, 4.6744578E+002
 8.3001319E+001, 2.1427037E-002, 1.6465093E-001, 1.4353894E-001, 5.7004625E-004, 2.7621189E-004, 1.0739936E-003, 4.6976358E+002
 8.4004675E+001, 2.0358144E-002, 1.6549098E-001, 1.4424155E-001, 5.7192611E-004, 2.6772637E-004, 1.0792701E-003, 4.7428962E+002
 8.5003311E+001, 2.0310126E-002, 1.6547471E-001, 1.4429432E-001, 6.0652271E-004, 2.9155854E-004, 1.0865935E-003, 4.6637756E+002
 8.6001843E+001, 1.8234247E-002, 1.6696169E-001, 1.4572151E-001, 7.0552564E-004, 3.1606701E-004, 1.1164469E-003, 4.7112545E+002
 8.7009485E+001, 1.7255604E-002, 1.6773903E-001, 1.4636027E-001, 7.0132929E-004, 3.0982743E-004, 1.1200568E-003, 4.6670598E+002
 8.8003578E+001, 1.6590149E-002, 1.6820596E-001, 1.4682006E-001, 7.3850124E-004, 3.2826482E-004, 1.1307356E-003, 4.6404818E+002
 8.9001082E+001, 1.5413948E-002, 1.6899970E-001, 1.4765080E-001, 8.2726576E-004, 3.5228699E-004, 1.1543720E-003, 4.6765709E+002
 9.0001203E+001, 1.5503089E-002, 1.6902463E-001, 1.4754316E-001, 7.6042498E-004, 3.5754132E-004, 1.1401856E-003, 4.7189174E+002
 9.1010933E+001, 1.3313502E-002, 1.7050250E-001, 1.4910242E-001, 9.3205981E-004, 3.5043048E-004, 1.1855587E-003, 4.6674276E+002
 9.2003160E+001, 1.3301760E-002, 1.7060034E-001, 1.4906340E-001, 8.6936515E-004, 3.5851305E-004, 1.1726843E-003, 4.6985658E+002
 9.3004685E+001, 1.2381593E-002, 1.7117750E-001, 1.4973812E-001, 9.7067998E-004, 3.6638634E-004, 1.1977551E-003, 4.6574125E+002
 9.4002415E+001, 1.1233753E-002, 1.7183053E-001, 1.5060440E-001, 1.1389922E-003, 4.1285748E-004, 1.2376308E-003, 4.6494524E+002
 9.5000573E+001, 1.1498570E-002, 1.7153465E-001, 1.5047208E-001, 1.1983284E-003, 4.2504376E-004, 1.2486363E-003, 4.6392442E+002
 9.6006955E+001, 1.0668834E-002, 1.7235265E-001, 1.5094078E-001, 1.0878632E-003, 3.9050618E-004, 1.2296974E-003, 4.6755748E+002
 9.7003641E+001, 9.9034033E-003, 1.7244396E-001, 1.5168006E-001, 1.4335359E-003, 4.6959082E-004, 1.3043414E-003, 4.6309533E+002
 9.8004375E+001, 9.2178618E-003, 1.7286402E-001, 1.5218856E-001, 1.5163432E-003, 4.7220078E-004, 1.3245327E-003, 4.6027812E+002
 9.9007250E+001, 8.2929827E-003, 1.7322699E-001, 1.5297126E-001, 1.7667577E-003, 5.0019077E-004, 1.3803287E-003, 4.6250120E+002
 1.0000911E+002, 7.8900416E-003, 1.7301602E-001, 1.5347601E-001, 2.1213378E-003, 6.0235189E-004, 1.4551290E-003, 4.6508339E+002
 1.0100277E+002, 7.8848793E-003, 1.7360810E-001, 1.5320529E-001, 1.7235317E-003, 5.1206381E-004, 1.3732719E-003, 4.5982819E+002
 1.0200753E+002, 7.1980568E-003, 1.7310385E-001, 1.5415394E-001, 2.4364021E-003, 6.2470288E-004, 1.5231901E-003, 4.5643964E+002
 1.0300642E+002, 7.1879877E-003, 1.7345455E-001, 1.5399565E-001, 2.2019083E-003, 5.9256162E-004, 1.4749478E-003, 4.5878556E+002
 1.0400176E+002, 6.7070980E-003, 1.7300371E-001, 1.5467423E-001, 2.7512825E-003, 8.1166799E-004, 1.5901219E-003, 4.5260145E+002
 1.0500364E+002, 6.3982150E-003, 1.7271775E-001, 1.5513212E-001, 3.1137855E-003, 8.5670378E-004, 1.6661856E-003, 4.5363697E+002
 1.0600621E+002, 6.7347760E-003, 1.7295266E-001, 1.5468470E-001, 2.7786985E-003, 7.5619870E-004, 1.5957036E-003, 4.4959428E+002
 1.0700422E+002, 5.9270357E-003, 1.7284197E-001, 1.5557370E-001, 3.2898307E-003, 8.2191412E-004, 1.7046512E-003, 4.5199464E+002
 1.0800453E+002, 5.6847481E-003, 1.7270664E-001, 1.5586612E-001, 3.5011123E-003, 9.4501270E-004, 1.7491664E-003, 4.4860161E+002
 1.0900459E+002, 5.6568642E-003, 1.7309169E-001, 1.5572628E-001, 3.2611522E-003, 8.4444275E-004, 1.6999512E-003, 4.5070751E+002
 1.1000031E+002, 5.8463654E-003, 1.7250513E-001, 1.5578861E-001, 3.5481694E-003, 9.8180062E-004, 1.7580868E-003, 4.4376362E+002
 1.1100779E+002, 5.4318169E-003, 1.7226962E-001, 1.5632891E-001, 3.9317660E-003, 1.0399451E-003, 1.8389659E-003, 4.4477022E+002
 1.1200176E+002, 5.1387761E-003, 1.7172984E-001, 1.5686222E-001, 4.4439403E-003, 1.2292252E-003, 1.9456480E-003, 4.4812565E+002
 1.1300127E+002, 5.0652716E-003, 1.7125534E-001, 1.5715977E-001, 4.8047329E-003, 1.3058704E-003, 2.0202513E-003, 4.4563592E+002
 1.1400983E+002, 4.7641068E-003, 1.7107669E-001, 1.5753090E-001, 5.0758279E-003, 1.4492719E-003, 2.0773396E-003, 4.4190124E+002
 1.1500780E+002, 4.8976965E-003, 1.7146696E-001, 1.5721668E-001, 4.7428129E-003, 1.3564299E-003, 2.0082032E-003, 4.4441470E+002
 1.1600308E+002, 5.0893177E-003, 1.7108115E-001, 1.5719954E-001, 4.9011795E-003, 1.3973644E-003, 2.0399198E-003, 4.3785629E+002
 1.1700234E+002, 4.5497475E-003, 1.7021710E-001, 1.5811305E-001, 5.7523576E-003, 1.7577937E-003, 2.2174055E-003, 4.4105676E+002
 1.1800155E+002, 4.4372109E-003, 1.7027848E-001, 1.5822887E-001, 5.7857574E-003, 1.6437534E-003, 2.2249222E-003, 4.4214697E+002
 1.1900597E+002, 4.7255009E-003, 1.7022665E-001, 1.5795063E-001, 5.6633290E-003, 1.6484195E-003, 2.1983723E-003, 4.3456281E+002
 1.2000030E+002, 4.6516768E-003, 1.6941630E-001, 1.5836333E-001, 6.2302332E-003, 1.9441529E-003, 2.3152194E-003, 4.3634253E+002
 1.2100931E+002, 4.6154689E-003, 1.6951371E-001, 1.5835207E-001, 6.1821621E-003, 1.9449720E-003, 2.3054778E-003, 4.3447938E+002
 1.2200848E+002, 4.8437698E-003, 1.6969686E-001, 1.5804102E-001, 5.9405683E-003, 1.8588903E-003, 2.2547410E-003, 4.3784088E+002
 1.2300239E+002, 4.3514265E-003, 1.6835010E-001, 1.5911620E-001, 7.0854759E-003, 2.3482964E-003, 2.4924039E-003, 4.3483880E+002
 1.2400502E+002, 4.1739905E-003, 1.6830971E-001, 1.5935932E-001, 7.2291780E-003, 2.2032989E-003, 2.5229797E-003, 4.3072634E+002
 1.2500714E+002, 4.2294705E-003, 1.6851459E-001, 1.5921484E-001, 7.0649610E-003, 2.1342588E-003, 2.4889589E-003, 4.3563299E+002
 1.2600590E+002, 4.0232655E-003, 1.6793600E-001, 1.5967660E-001, 7.5566862E-003, 2.3226941E-003, 2.5910315E-003, 4.3725483E+002
 1.2700237E+002, 4.1490450E-003, 1.6726967E-001, 1.5981894E-001, 7.9202509E-003, 2.5693348E-003, 2.6651170E-003, 4.3288367E+002
 1.2800589E+002, 4.2890624E-003, 1.6688414E-001, 1.5982041E-001, 8.0885959E-003, 2.7528274E-003, 2.6989750E-003, 4.2575765E+002
 1.2900417E+002, 4.2984993E-003, 1.6646591E-001, 1.5999336E-001, 8.3602113E-003, 2.8655401E-003, 2.7547849E-003, 4.2832834E+002
 1.3000478E+002, 4.2787420E-003, 1.6615188E-001, 1.6012747E-001, 8.5666427E-003, 3.0463868E-003, 2.7972237E-003, 4.2996559E+002
 1.3100144E+002, 3.9767331E-003, 1.6615882E-001, 1.6047850E-001, 8.7460318E-003, 2.8983596E-003, 2.8357254E-003, 4.3211040E+002
 1.3200676E+002, 4.1045793E-003, 1.6545378E-001, 1.6066861E-001, 9.1508972E-003, 3.0229398E-003, 2.9184410E-003, 4.2809635E+002
 1.3300508E+002, 4.0837004E-003, 1.6546020E-001, 1.6060412E-001, 9.1154832E-003, 3.3568440E-003, 2.9108864E-003, 4.2487818E+002
 1.3400859E+002, 4.4079076E-003, 1.6536238E-001, 1.6035995E-001, 9.0301629E-003, 3.1663388E-003, 2.8920251E-003, 4.2639784E+002
 1.3500269E+002, 4.1558021E-003, 1.6455293E-001, 1.6092160E-001, 9.6746924E-003, 3.6149448E-003, 3.0255213E-003, 4.2286745E+002
 1.3600264E+002, 4.0349723E-003, 1.6462610E-001, 1.6102854E-001, 9.6984886E-003, 3.5476562E-003, 3.0310476E-003, 4.2781542E+002
 1.3700531E+002, 4.1727237E-003, 1.6411053E-001, 1.6111401E-001, 9.9667424E-003, 3.6668819E-003, 3.0855720E-003, 4.2344262E+002
 1.3800333E+002, 4.4953164E-003, 1.6407119E-001, 1.6081364E-001, 9.8271417E-003, 3.5903226E-003, 3.0554124E-003, 4.2720036E+002
 1.3900606E+002, 4.2235165E-003, 1.6385593E-001, 1.6115655E-001, 1.0099589E-002, 3.7971321E-003, 3.1125785E-003, 4.2018760E+002
 1.4000729E+002, 4.2918136E-003, 1.6318912E-001, 1.6132285E-001, 1.0476257E-002, 4.1912369E-003, 3.1894709E-003, 4.2537504E+002
 1.4100125E+002, 4.1167091E-003, 1.6325409E-001, 1.6152055E-001, 1.0550535E-002, 4.0054052E-003, 3.2057728E-003, 4.3233463E+002
 1.4201124E+002, 4.1717873E-003, 1.6266324E-001, 1.6173329E-001, 1.0917669E-002, 4.1151794E-003, 3.2810609E-003, 4.2219463E+002
 1.4300479E+002, 4.1585221E-003, 1.6241687E-001, 1.6181025E-001, 1.1065202E-002, 4.3610317E-003, 3.3112643E-003, 4.1998882E+002
 1.4401032E+002, 4.3430289E-003, 1.6225866E-001, 1.6165554E-001, 1.1053644E-002, 4.5233572E-003, 3.3078691E-003, 4.2075838E+002
 1.4501036E+002, 4.4556149E-003, 1.6224447E-001, 1.6158616E-001, 1.1023188E-002, 4.3553050E-003, 3.3012562E-003, 4.2076058E+002
 1.4600307E+002, 4.4018092E-003, 1.6167676E-001, 1.6186100E-001, 1.1413095E-002, 4.6286232E-003, 3.3815618E-003, 4.2427231E+002
 1.4701071E+002, 4.2460756E-003, 1.6084043E-001, 1.6230988E-001, 1.2010826E-002, 5.1774101E-003, 3.5048684E-003, 4.1849410E+002
 1.4800373E+002, 4.0302131E-003, 1.6160929E-001, 1.6225361E-001, 1.1647167E-002, 4.7580260E-003, 3.4313570E-003, 4.2062866E+002
 1.4900362E+002, 4.2401595E-003, 1.6107883E-001, 1.6222620E-001, 1.1863594E-002, 5.0556512E-003, 3.4746838E-003, 4.1992177E+002
 1.5000458E+002, 3.9303423E-003, 1.6085100E-001, 1.6267828E-001, 1.2197630E-002, 5.0102339E-003, 3.5449811E-003, 4.2320296E+002
 1.5100721E+002, 3.9891591E-003, 1.6076318E-001, 1.6263177E-001, 1.2211788E-002, 5.1264183E-003, 3.5475075E-003, 4.2004313E+002
 1.5200169E+002, 4.2266541E-003, 1.6000632E-001, 1.6263881E-001, 1.2544841E-002, 5.6277657E-003, 3.6145268E-003, 4.1670199E+002
 1.5301099E+002, 4.0797003E-003, 1.5970056E-001, 1.6287010E-001, 1.2798665E-002, 5.9387481E-003, 3.6671753E-003, 4.2393044E+002
 1.5400060E+002, 4.0558309E-003, 1.5957852E-001, 1.6307392E-001, 1.2956359E-002, 5.4685922E-003, 3.7002761E-003, 4.2098005E+002
