s,,,,,,,
Time,"O2 EXHAUST","CO2 EXHAUST","H2O EXHAUST","CO EXHAUST","FUEL EXHAUST","SOOT EXHAUST","TEMP EXHAUST"
 0.0000000E+000, 2.3099739E-001, 5.9146498E-004, 5.9412091E-003, 0.0000000E+000, 0.0000000E+000, 0.0000000E+000, 2.0000000E+001
 1.0046445E+000, 2.3099739E-001, 5.9146498E-004, 5.9412091E-003, 1.0601316E-031, 1.2837973E-030, 3.2942448E-032, 2.0455745E+001
 2.0042493E+000, 2.2322587E-001, 6.9246834E-003, 9.5081109E-003, 3.7734520E-005, 2.7805614E-004, 5.0692316E-005, 9.5734859E+001
 3.0022413E+000, 2.1892335E-001, 1.0422869E-002, 1.1500860E-002, 7.6073633E-005, 3.4883753E-004, 8.2478390E-005, 1.3474686E+002
 4.0020456E+000, 2.1367716E-001, 1.4715821E-002, 1.3917833E-002, 1.0060329E-004, 4.5112434E-004, 1.1661276E-004, 1.8248262E+002
 5.0056310E+000, 2.0759504E-001, 1.9700696E-002, 1.6730400E-002, 1.3353944E-004, 4.9641852E-004, 1.5721211E-004, 2.3207290E+002
 6.0003812E+000, 2.0091825E-001, 2.5237700E-002, 1.9809526E-002, 1.3414024E-004, 4.6372174E-004, 1.9452105E-004, 2.8256143E+002
 7.0055856E+000, 1.9557463E-001, 2.9679081E-002, 2.2273788E-002, 1.3010732E-004, 4.1795187E-004, 2.2347046E-004, 3.1786203E+002
 8.0016985E+000, 1.8793346E-001, 3.6036047E-002, 2.5801367E-002, 1.2456495E-004, 3.1990897E-004, 2.6495549E-004, 3.6349735E+002
 9.0065069E+000, 1.8179529E-001, 4.1164419E-002, 2.8631463E-002, 1.0754066E-004, 2.1763140E-004, 2.9570621E-004, 3.9482172E+002
 1.0006522E+001, 1.7402714E-001, 4.7641504E-002, 3.2214081E-002, 9.2651971E-005, 1.0884334E-004, 3.3597519E-004, 4.2506275E+002
 1.1000252E+001, 1.6559355E-001, 5.4652357E-002, 3.6102750E-002, 8.5306354E-005, 3.7319759E-005, 3.8146073E-004, 4.5311715E+002
 1.2005369E+001, 1.5837538E-001, 6.0636922E-002, 3.9431104E-002, 8.6246420E-005, 7.1672907E-006, 4.2184831E-004, 4.6999223E+002
 1.3006339E+001, 1.5317702E-001, 6.4938152E-002, 4.1828242E-002, 9.0942071E-005, 2.0585070E-006, 4.5174570E-004, 4.7732554E+002
 1.4006606E+001, 1.4745721E-001, 6.9668757E-002, 4.4465897E-002, 9.7090002E-005, 2.6844000E-007, 4.8484049E-004, 4.8488319E+002
 1.5000248E+001, 1.3936414E-001, 7.6360785E-002, 4.8198046E-002, 1.0647693E-004, 7.4785294E-008, 5.3180648E-004, 4.9923514E+002
 1.6006963E+001, 1.3537813E-001, 7.9656768E-002, 5.0036182E-002, 1.1107229E-004, 5.3444194E-008, 5.5493231E-004, 4.9787081E+002
 1.7005386E+001, 1.3049165E-001, 8.3697312E-002, 5.2289581E-002, 1.1672794E-004, 4.6280279E-008, 5.8328705E-004, 4.9825491E+002
 1.8005037E+001, 1.2503796E-001, 8.8206865E-002, 5.4804557E-002, 1.2305087E-004, 3.7715127E-008, 6.1493542E-004, 4.9882548E+002
 1.9008830E+001, 1.1902644E-001, 9.3177044E-002, 5.7576973E-002, 1.3045412E-004, 1.7465468E-007, 6.4991053E-004, 5.1174308E+002
 2.0005913E+001, 1.1676290E-001, 9.5049026E-002, 5.8620704E-002, 1.3286192E-004, 9.8628484E-008, 6.6300129E-004, 5.0279749E+002
 2.1001026E+001, 1.1352841E-001, 9.7723413E-002, 6.0112341E-002, 1.3671628E-004, 1.2097135E-007, 6.8179296E-004, 5.0123962E+002
 2.2001979E+001, 1.0892844E-001, 1.0152700E-001, 6.2233625E-002, 1.4206783E-004, 1.3944548E-007, 7.0849084E-004, 5.0525345E+002
 2.3004481E+001, 1.0534631E-001, 1.0448929E-001, 6.3885433E-002, 1.4601727E-004, 8.2451688E-008, 7.2923620E-004, 5.0714102E+002
 2.4005676E+001, 1.0282802E-001, 1.0657142E-001, 6.5046800E-002, 1.4906499E-004, 1.5810085E-007, 7.4387654E-004, 5.0230895E+002
 2.5000084E+001, 9.9585528E-002, 1.0925259E-001, 6.6542078E-002, 1.5281864E-004, 1.1429598E-007, 7.6269193E-004, 5.0262132E+002
 2.6008360E+001, 9.5979829E-002, 1.1223334E-001, 6.8205086E-002, 1.5750640E-004, 2.4532028E-007, 7.8372111E-004, 5.0480534E+002
 2.7007631E+001, 9.3762354E-002, 1.1406295E-001, 6.9228877E-002, 1.6278335E-004, 1.5363819E-006, 7.9714828E-004, 5.0467990E+002
 2.8004453E+001, 8.9725158E-002, 1.1738421E-001, 7.1095986E-002, 1.7921671E-004, 5.9355256E-006, 8.2300563E-004, 5.0414054E+002
 2.9007349E+001, 8.6592918E-002, 1.1996537E-001, 7.2543224E-002, 1.8896544E-004, 8.0751244E-006, 8.4244686E-004, 5.0504020E+002
 3.0002270E+001, 8.6935470E-002, 1.1968225E-001, 7.2385124E-002, 1.8841137E-004, 8.5572403E-006, 8.4042587E-004, 4.9696055E+002
 3.1000837E+001, 8.2246938E-002, 1.2353007E-001, 7.4556599E-002, 2.1407078E-004, 1.4845685E-005, 8.7181543E-004, 5.0485511E+002
 3.2001787E+001, 8.1187938E-002, 1.2439905E-001, 7.5046843E-002, 2.1974587E-004, 1.7762724E-005, 8.7887849E-004, 4.9541960E+002
 3.3005634E+001, 7.8405888E-002, 1.2669144E-001, 7.6332079E-002, 2.2833733E-004, 2.1124411E-005, 8.9613034E-004, 5.0096976E+002
 3.4006919E+001, 7.5790802E-002, 1.2884281E-001, 7.7541444E-002, 2.3892964E-004, 2.4198494E-005, 9.1286824E-004, 4.9985768E+002
 3.5006812E+001, 7.2851058E-002, 1.3125111E-001, 7.8904366E-002, 2.5802586E-004, 2.9081242E-005, 9.3317159E-004, 4.9690566E+002
 3.6000056E+001, 7.0412230E-002, 1.3324935E-001, 8.0034982E-002, 2.7367507E-004, 3.2911761E-005, 9.4997562E-004, 4.9837360E+002
 3.7000282E+001, 6.9215623E-002, 1.3423938E-001, 8.0586202E-002, 2.7434220E-004, 3.5031332E-005, 9.5676774E-004, 4.9513015E+002
 3.8004769E+001, 6.4759939E-002, 1.3789088E-001, 8.2652056E-002, 3.0277783E-004, 3.9178505E-005, 9.8743987E-004, 5.0252218E+002
 3.9002179E+001, 6.3780379E-002, 1.3869457E-001, 8.3105430E-002, 3.0800476E-004, 4.2616847E-005, 9.9396750E-004, 4.9758729E+002
 4.0008252E+001, 6.0306427E-002, 1.4156141E-001, 8.4709186E-002, 3.1592783E-004, 4.4371854E-005, 1.0149319E-003, 5.0187948E+002
 4.1004924E+001, 5.9523226E-002, 1.4219408E-001, 8.5074991E-002, 3.2710644E-004, 4.8636455E-005, 1.0215991E-003, 4.9533301E+002
 4.2001528E+001, 5.6343066E-002, 1.4482734E-001, 8.6540640E-002, 3.2847635E-004, 4.6231279E-005, 1.0395770E-003, 5.0035177E+002
 4.3002183E+001, 5.4532353E-002, 1.4630450E-001, 8.7381997E-002, 3.4446779E-004, 5.1280992E-005, 1.0529562E-003, 5.0096048E+002
 4.4008728E+001, 5.3262448E-002, 1.4735480E-001, 8.7967531E-002, 3.4576620E-004, 5.1253384E-005, 1.0602896E-003, 4.9982781E+002
 4.5003268E+001, 5.0966686E-002, 1.4922262E-001, 8.9035929E-002, 3.6957759E-004, 5.8527386E-005, 1.0779843E-003, 5.0038617E+002
 4.6001158E+001, 4.8687359E-002, 1.5106490E-001, 9.0101144E-002, 4.0211682E-004, 6.5417130E-005, 1.0973961E-003, 5.0211642E+002
 4.7008260E+001, 4.6838593E-002, 1.5263183E-001, 9.0941694E-002, 3.7786681E-004, 5.5416045E-005, 1.1026698E-003, 5.0391542E+002
 4.8007728E+001, 4.4765502E-002, 1.5433358E-001, 9.1902301E-002, 3.8939525E-004, 5.4888561E-005, 1.1165912E-003, 5.0194778E+002
 4.9000625E+001, 4.2506844E-002, 1.5619938E-001, 9.2944646E-002, 3.9342477E-004, 5.4338644E-005, 1.1299914E-003, 5.0160818E+002
 5.0007959E+001, 3.9825651E-002, 1.5838623E-001, 9.4190689E-002, 4.1746518E-004, 6.1512257E-005, 1.1498777E-003, 5.0484254E+002
 5.1007289E+001, 3.9281513E-002, 1.5882301E-001, 9.4445443E-002, 4.2694029E-004, 6.6640530E-005, 1.1548610E-003, 5.0323179E+002
 5.2010636E+001, 3.7114825E-002, 1.6061551E-001, 9.5445206E-002, 4.2949893E-004, 6.1567259E-005, 1.1674507E-003, 5.0398562E+002
 5.3000097E+001, 3.5982363E-002, 1.6151077E-001, 9.5980727E-002, 4.5949549E-004, 7.0348229E-005, 1.1799535E-003, 5.0288635E+002
 5.4002811E+001, 3.5955255E-002, 1.6154678E-001, 9.5988601E-002, 4.4986824E-004, 6.8758072E-005, 1.1781119E-003, 4.9814468E+002
 5.5009258E+001, 3.2907113E-002, 1.6405306E-001, 9.7399841E-002, 4.6405677E-004, 6.6200461E-005, 1.1980111E-003, 5.0344186E+002
 5.6008972E+001, 3.2064649E-002, 1.6471641E-001, 9.7799483E-002, 4.8852663E-004, 7.1109215E-005, 1.2077606E-003, 4.9949059E+002
 5.7006785E+001, 2.9381755E-002, 1.6687481E-001, 9.9058507E-002, 5.3534344E-004, 7.0584015E-005, 1.2323848E-003, 5.0351700E+002
 5.8000878E+001, 2.9159478E-002, 1.6707408E-001, 9.9155026E-002, 5.2405488E-004, 7.2713304E-005, 1.2312800E-003, 4.9572052E+002
 5.9004050E+001, 2.7123054E-002, 1.6869496E-001, 1.0011591E-001, 5.7143339E-004, 7.8219308E-005, 1.2524165E-003, 5.0008003E+002
 6.0004438E+001, 2.4006320E-002, 1.7129187E-001, 1.0154658E-001, 5.6110302E-004, 7.5303740E-005, 1.2676183E-003, 5.0982274E+002
 6.1001097E+001, 2.4699906E-002, 1.7067684E-001, 1.0124043E-001, 5.8946682E-004, 8.2557980E-005, 1.2696266E-003, 4.9663734E+002
 6.2004303E+001, 2.2118890E-002, 1.7280103E-001, 1.0243416E-001, 5.9963485E-004, 8.3208088E-005, 1.2860902E-003, 5.0622057E+002
 6.3003797E+001, 2.1514444E-002, 1.7328802E-001, 1.0271747E-001, 6.0959305E-004, 8.3600062E-005, 1.2915152E-003, 5.0457909E+002
 6.4009139E+001, 2.0744454E-002, 1.7391179E-001, 1.0307703E-001, 6.1973143E-004, 8.4622586E-005, 1.2978976E-003, 5.0437142E+002
 6.5010607E+001, 1.9545619E-002, 1.7483721E-001, 1.0365212E-001, 6.6778605E-004, 9.3346829E-005, 1.3145106E-003, 5.0130178E+002
 6.6007332E+001, 1.7669878E-002, 1.7623804E-001, 1.0456986E-001, 7.7791042E-004, 1.0195903E-004, 1.3477480E-003, 5.0246157E+002
 6.7005695E+001, 1.7043008E-002, 1.7680464E-001, 1.0484326E-001, 7.4492152E-004, 9.2253201E-005, 1.3444135E-003, 5.0478855E+002
 6.8000742E+001, 1.5798197E-002, 1.7767890E-001, 1.0547175E-001, 8.5781235E-004, 1.0117977E-004, 1.3747138E-003, 5.0057061E+002
 6.9002695E+001, 1.5594717E-002, 1.7792488E-001, 1.0553762E-001, 8.0165942E-004, 1.0041026E-004, 1.3642139E-003, 4.9811301E+002
 7.0007818E+001, 1.3172584E-002, 1.7967442E-001, 1.0674608E-001, 9.8847241E-004, 1.0098450E-004, 1.4163883E-003, 5.0320985E+002
 7.1007049E+001, 1.2589883E-002, 1.8023997E-001, 1.0698425E-001, 9.2809214E-004, 1.0241063E-004, 1.4071193E-003, 5.0385541E+002
 7.2003294E+001, 1.0761299E-002, 1.8132939E-001, 1.0797805E-001, 1.2356098E-003, 1.1501247E-004, 1.4809821E-003, 5.0401477E+002
 7.3007228E+001, 9.2792759E-003, 1.8257532E-001, 1.0865574E-001, 1.2237191E-003, 1.0588945E-004, 1.4867749E-003, 5.0991434E+002
 7.4002028E+001, 1.0577869E-002, 1.8162815E-001, 1.0801069E-001, 1.1298782E-003, 1.0815831E-004, 1.4601075E-003, 5.0401984E+002
 7.5001013E+001, 8.8022990E-003, 1.8294905E-001, 1.0887935E-001, 1.2363710E-003, 1.2688682E-004, 1.4920223E-003, 5.0246207E+002
 7.6002061E+001, 7.9322802E-003, 1.8295504E-001, 1.0953270E-001, 1.7513977E-003, 1.5917022E-004, 1.6035160E-003, 4.9926718E+002
 7.7005175E+001, 7.2854259E-003, 1.8359300E-001, 1.0979309E-001, 1.6767393E-003, 1.6258888E-004, 1.5916434E-003, 4.9925979E+002
 7.8002981E+001, 6.4026243E-003, 1.8452576E-001, 1.1013110E-001, 1.5336279E-003, 1.3924971E-004, 1.5669367E-003, 5.0643163E+002
 7.9001665E+001, 6.4408086E-003, 1.8374731E-001, 1.1037645E-001, 2.0709393E-003, 1.7861056E-004, 1.6779856E-003, 5.0030403E+002
 8.0007452E+001, 6.7123985E-003, 1.8385991E-001, 1.1012678E-001, 1.8236524E-003, 1.9229395E-004, 1.6252281E-003, 4.9268673E+002
 8.1008150E+001, 5.8074008E-003, 1.8419087E-001, 1.1069384E-001, 2.1271154E-003, 1.9900611E-004, 1.6931207E-003, 4.9711889E+002
 8.2008330E+001, 5.9170319E-003, 1.8432320E-001, 1.1056529E-001, 1.9669515E-003, 1.8442888E-004, 1.6593492E-003, 4.9727570E+002
 8.3005142E+001, 5.0527185E-003, 1.8372813E-001, 1.1142704E-001, 2.9118500E-003, 2.4221536E-004, 1.8598325E-003, 4.9378693E+002
 8.4009755E+001, 5.0992869E-003, 1.8398806E-001, 1.1129985E-001, 2.6965902E-003, 2.3003381E-004, 1.8149949E-003, 4.9296586E+002
 8.5005416E+001, 4.8976075E-003, 1.8305878E-001, 1.1175867E-001, 3.4699831E-003, 3.9824963E-004, 1.9761203E-003, 4.8989395E+002
 8.6000080E+001, 5.1633838E-003, 1.8307899E-001, 1.1156831E-001, 3.3098320E-003, 2.9377077E-004, 1.9415984E-003, 4.8688585E+002
 8.7003762E+001, 4.2804077E-003, 1.8333278E-001, 1.1212639E-001, 3.6406562E-003, 4.1131552E-004, 2.0148943E-003, 4.8663649E+002
 8.8006869E+001, 4.1563538E-003, 1.8332050E-001, 1.1223075E-001, 3.7285912E-003, 3.8045957E-004, 2.0338411E-003, 4.8931059E+002
 8.9000125E+001, 4.2105277E-003, 1.8270749E-001, 1.1239712E-001, 4.1306598E-003, 4.5829409E-004, 2.1167341E-003, 4.8892044E+002
 9.0008952E+001, 3.8382213E-003, 1.8247733E-001, 1.1276015E-001, 4.5196546E-003, 4.7602682E-004, 2.1993683E-003, 4.8191563E+002
 9.1001221E+001, 3.6612820E-003, 1.8209120E-001, 1.1301284E-001, 4.8903717E-003, 5.9410653E-004, 2.2770003E-003, 4.8204009E+002
 9.2010219E+001, 3.4411047E-003, 1.8301254E-001, 1.1287688E-001, 4.3762247E-003, 4.2984481E-004, 2.1719232E-003, 4.8459423E+002
 9.3003443E+001, 3.2261072E-003, 1.8271520E-001, 1.1314574E-001, 4.7201818E-003, 4.4143833E-004, 2.2443600E-003, 4.8709424E+002
 9.4005328E+001, 3.2159203E-003, 1.8177908E-001, 1.1344898E-001, 5.3736561E-003, 6.7833963E-004, 2.3794890E-003, 4.7935000E+002
 9.5000766E+001, 3.7049778E-003, 1.8053985E-001, 1.1347076E-001, 5.9379451E-003, 9.7880606E-004, 2.4932829E-003, 4.7364294E+002
 9.6001599E+001, 3.0186558E-003, 1.8196378E-001, 1.1354887E-001, 5.3710436E-003, 5.8626949E-004, 2.3801634E-003, 4.8058442E+002
 9.7010285E+001, 2.9713318E-003, 1.8087344E-001, 1.1395380E-001, 6.1725460E-003, 7.2587761E-004, 2.5462901E-003, 4.7878610E+002
 9.8004959E+001, 2.9889170E-003, 1.8012366E-001, 1.1419050E-001, 6.6907209E-003, 8.4192474E-004, 2.6533906E-003, 4.7165435E+002
 9.9007325E+001, 2.7672978E-003, 1.8123191E-001, 1.1398322E-001, 6.0378974E-003, 7.0407759E-004, 2.5195588E-003, 4.7462266E+002
 1.0000507E+002, 2.6254039E-003, 1.8019222E-001, 1.1441643E-001, 6.8401206E-003, 9.8282342E-004, 2.6861821E-003, 4.7461732E+002
 1.0100204E+002, 2.6421005E-003, 1.8076363E-001, 1.1422958E-001, 6.4396954E-003, 8.0408471E-004, 2.6033650E-003, 4.8043130E+002
 1.0200337E+002, 2.6858478E-003, 1.7952901E-001, 1.1462207E-001, 7.2947715E-003, 9.1826562E-004, 2.7801163E-003, 4.7679471E+002
 1.0300758E+002, 2.9882113E-003, 1.7877356E-001, 1.1460871E-001, 7.6182389E-003, 1.2303325E-003, 2.8450443E-003, 4.6685140E+002
 1.0400128E+002, 2.6067174E-003, 1.8001537E-001, 1.1450605E-001, 6.9887047E-003, 9.1979952E-004, 2.7171484E-003, 4.7674050E+002
 1.0501085E+002, 2.7852713E-003, 1.7891159E-001, 1.1475191E-001, 7.6699410E-003, 1.0165668E-003, 2.8571587E-003, 4.7414417E+002
 1.0600853E+002, 2.5430435E-003, 1.7787738E-001, 1.1525253E-001, 8.5233113E-003, 1.3331890E-003, 3.0348874E-003, 4.6930966E+002
 1.0700041E+002, 2.5667608E-003, 1.7823479E-001, 1.1512921E-001, 8.2676520E-003, 1.2013512E-003, 2.9819614E-003, 4.7057458E+002
 1.0800392E+002, 2.5520368E-003, 1.7828684E-001, 1.1512225E-001, 8.2392047E-003, 1.1976267E-003, 2.9761548E-003, 4.6897327E+002
 1.0900514E+002, 2.4551392E-003, 1.7798923E-001, 1.1526697E-001, 8.4857896E-003, 1.3988473E-003, 3.0275189E-003, 4.6842348E+002
 1.1000789E+002, 2.4244230E-003, 1.7829475E-001, 1.1520461E-001, 8.3012484E-003, 1.2624943E-003, 2.9896346E-003, 4.6921196E+002
 1.1100855E+002, 2.4521434E-003, 1.7602280E-001, 1.1593725E-001, 9.8837090E-003, 1.6363079E-003, 3.3168297E-003, 4.6770912E+002
 1.1200779E+002, 2.7151610E-003, 1.7693757E-001, 1.1543942E-001, 9.0857383E-003, 1.4551007E-003, 3.1502882E-003, 4.6308012E+002
 1.1300031E+002, 2.8735338E-003, 1.7634170E-001, 1.1548666E-001, 9.3867256E-003, 1.7184335E-003, 3.2114227E-003, 4.6795547E+002
 1.1400833E+002, 2.4901309E-003, 1.7661146E-001, 1.1572280E-001, 9.4539480E-003, 1.4860156E-003, 3.2277803E-003, 4.6912542E+002
 1.1500782E+002, 2.5841474E-003, 1.7519490E-001, 1.1611526E-001, 1.0389796E-002, 1.7521502E-003, 3.4207897E-003, 4.6298108E+002
 1.1600472E+002, 2.4532301E-003, 1.7575892E-001, 1.1605356E-001, 1.0091504E-002, 1.5169202E-003, 3.3600248E-003, 4.6642702E+002
 1.1701077E+002, 2.2828353E-003, 1.7539571E-001, 1.1629675E-001, 1.0444511E-002, 1.6143034E-003, 3.4339782E-003, 4.6597960E+002
 1.1800938E+002, 2.2903844E-003, 1.7512237E-001, 1.1639183E-001, 1.0640142E-002, 1.6034976E-003, 3.4744778E-003, 4.6825452E+002
 1.1900716E+002, 2.1677695E-003, 1.7536655E-001, 1.1641705E-001, 1.0552094E-002, 1.4917115E-003, 3.4570632E-003, 4.6708950E+002
 1.2000106E+002, 2.3002657E-003, 1.7450742E-001, 1.1657135E-001, 1.1054003E-002, 1.7980780E-003, 3.5599101E-003, 4.6405277E+002
 1.2100334E+002, 2.1372477E-003, 1.7349513E-001, 1.1699183E-001, 1.1834539E-002, 2.1807086E-003, 3.7220248E-003, 4.5828602E+002
 1.2200271E+002, 2.3339944E-003, 1.7366346E-001, 1.1680605E-001, 1.1612654E-002, 2.0449874E-003, 3.6751378E-003, 4.5962311E+002
 1.2300263E+002, 2.2990259E-003, 1.7420975E-001, 1.1664788E-001, 1.1246493E-002, 1.9744716E-003, 3.5995675E-003, 4.6731062E+002
 1.2401149E+002, 2.2821734E-003, 1.7342978E-001, 1.1693250E-001, 1.1815656E-002, 2.0309734E-003, 3.7174989E-003, 4.6157056E+002
 1.2500956E+002, 2.2084895E-003, 1.7303070E-001, 1.1709713E-001, 1.2122672E-002, 2.2274568E-003, 3.7812592E-003, 4.6273049E+002
 1.2600567E+002, 2.1842405E-003, 1.7349836E-001, 1.1696323E-001, 1.1810263E-002, 2.1350332E-003, 3.7167928E-003, 4.6552217E+002
 1.2701076E+002, 2.2122007E-003, 1.7229897E-001, 1.1732468E-001, 1.2625975E-002, 2.4159582E-003, 3.8852628E-003, 4.6120829E+002
 1.2801065E+002, 2.2397962E-003, 1.7264285E-001, 1.1718488E-001, 1.2363680E-002, 2.3854519E-003, 3.8308103E-003, 4.6243530E+002
 1.2900903E+002, 2.3311601E-003, 1.7433769E-001, 1.1660086E-001, 1.1152326E-002, 1.8442330E-003, 3.5800481E-003, 4.7065746E+002
 1.3000916E+002, 2.3251882E-003, 1.7246136E-001, 1.1718508E-001, 1.2443765E-002, 2.3883495E-003, 3.8469222E-003, 4.5615152E+002
 1.3100837E+002, 2.1753714E-003, 1.7138395E-001, 1.1763148E-001, 1.3273207E-002, 2.7026792E-003, 4.0191827E-003, 4.6341307E+002
 1.3200685E+002, 2.2558792E-003, 1.7148382E-001, 1.1752649E-001, 1.3146249E-002, 2.7449272E-003, 3.9923795E-003, 4.5916604E+002
 1.3301088E+002, 2.1706072E-003, 1.7251424E-001, 1.1730521E-001, 1.2515105E-002, 2.2686934E-003, 3.8627152E-003, 4.6163889E+002
 1.3400140E+002, 2.1369823E-003, 1.7108210E-001, 1.1772370E-001, 1.3480300E-002, 2.9565200E-003, 4.0619724E-003, 4.6163864E+002
 1.3500463E+002, 2.2090166E-003, 1.7091087E-001, 1.1773984E-001, 1.3568268E-002, 2.9071280E-003, 4.0798590E-003, 4.5840300E+002
 1.3600972E+002, 2.1203542E-003, 1.7050082E-001, 1.1795593E-001, 1.3919994E-002, 2.9049426E-003, 4.1532204E-003, 4.5868173E+002
 1.3700482E+002, 2.2908754E-003, 1.7032666E-001, 1.1792235E-001, 1.3969278E-002, 2.7230478E-003, 4.1627152E-003, 4.5994945E+002
 1.3800560E+002, 2.2616395E-003, 1.7020534E-001, 1.1796430E-001, 1.4056523E-002, 2.8558986E-003, 4.1807812E-003, 4.5904039E+002
 1.3900797E+002, 2.1989461E-003, 1.6997968E-001, 1.1807777E-001, 1.4246157E-002, 2.9428574E-003, 4.2203036E-003, 4.5929431E+002
 1.4000617E+002, 2.2615886E-003, 1.7026670E-001, 1.1794372E-001, 1.4013159E-002, 2.8472617E-003, 4.1718092E-003, 4.6035043E+002
 1.4100505E+002, 2.1753337E-003, 1.6970254E-001, 1.1813250E-001, 1.4413103E-002, 3.2919133E-003, 4.2545718E-003, 4.5827645E+002
 1.4200863E+002, 2.2681045E-003, 1.6921214E-001, 1.1829360E-001, 1.4755339E-002, 2.9933416E-003, 4.3253386E-003, 4.5605782E+002
 1.4300449E+002, 2.1841552E-003, 1.6943953E-001, 1.1827012E-001, 1.4636726E-002, 3.0211908E-003, 4.3011974E-003, 4.5706600E+002
 1.4400486E+002, 2.1806517E-003, 1.6949988E-001, 1.1822537E-001, 1.4575332E-002, 3.1619913E-003, 4.2883172E-003, 4.5643996E+002
 1.4500913E+002, 2.1209513E-003, 1.6902138E-001, 1.1839700E-001, 1.4923138E-002, 3.4194784E-003, 4.3603716E-003, 4.5763287E+002
 1.4600663E+002, 2.0689221E-003, 1.6920169E-001, 1.1838796E-001, 1.4836170E-002, 3.3280646E-003, 4.3427617E-003, 4.5893980E+002
 1.4700281E+002, 2.1706588E-003, 1.6918632E-001, 1.1832986E-001, 1.4796581E-002, 3.2527619E-003, 4.3340912E-003, 4.5525483E+002
 1.4800533E+002, 2.1928495E-003, 1.6869611E-001, 1.1849613E-001, 1.5144010E-002, 3.2205770E-003, 4.4059841E-003, 4.5585428E+002
 1.4900601E+002, 2.1156517E-003, 1.6810581E-001, 1.1868230E-001, 1.5553521E-002, 3.6937388E-003, 4.4906416E-003, 4.5817428E+002
 1.5000812E+002, 2.2007168E-003, 1.6769900E-001, 1.1877358E-001, 1.5804749E-002, 3.6451735E-003, 4.5422764E-003, 4.5403630E+002
 1.5100927E+002, 2.0503862E-003, 1.6791306E-001, 1.1883063E-001, 1.5755180E-002, 3.5341638E-003, 4.5329863E-003, 4.5590009E+002
 1.5200672E+002, 2.0892705E-003, 1.6869311E-001, 1.1857146E-001, 1.5205107E-002, 3.2453291E-003, 4.4191856E-003, 4.5739993E+002
 1.5300176E+002, 2.3381519E-003, 1.6761469E-001, 1.1871654E-001, 1.5796283E-002, 3.5519303E-003, 4.5398779E-003, 4.5904690E+002
 1.5400238E+002, 2.1054882E-003, 1.6735595E-001, 1.1894123E-001, 1.6089316E-002, 3.8036685E-003, 4.6015546E-003, 4.5608256E+002
