s,,,,,,,
Time,"O2 EXHAUST","CO2 EXHAUST","H2O EXHAUST","CO EXHAUST","FUEL EXHAUST","SOOT EXHAUST","TEMP EXHAUST"
 0.0000000E+000, 2.3099745E-001, 5.9146511E-004, 5.9409840E-003, 0.0000000E+000, 0.0000000E+000, 0.0000000E+000, 2.0000000E+001
 1.0030056E+000, 2.3099745E-001, 5.9146511E-004, 5.9409840E-003, 2.0042204E-030, 1.8029722E-029, 5.7861934E-031, 2.0296356E+001
 2.0054346E+000, 2.2431343E-001, 6.0113592E-003, 9.0328551E-003, 6.3126339E-005, 1.6043112E-004, 5.0052255E-005, 9.3086568E+001
 3.0032377E+000, 2.2073816E-001, 8.9080684E-003, 1.0686435E-002, 9.7766097E-005, 2.5236440E-004, 7.6998163E-005, 1.2459544E+002
 4.0033718E+000, 2.1551577E-001, 1.3109581E-002, 1.3114713E-002, 1.7160869E-004, 3.7483623E-004, 1.2118789E-004, 1.7198706E+002
 5.0019541E+000, 2.1103386E-001, 1.6757897E-002, 1.5192607E-002, 2.1120684E-004, 4.2876291E-004, 1.5425330E-004, 2.0797471E+002
 6.0075634E+000, 2.0248464E-001, 2.3801105E-002, 1.9141081E-002, 2.3738649E-004, 4.4745561E-004, 2.0721089E-004, 2.7235489E+002
 7.0004492E+000, 1.9783790E-001, 2.7680733E-002, 2.1279804E-002, 2.2283735E-004, 3.9586208E-004, 2.3011320E-004, 3.0126337E+002
 8.0044065E+000, 1.8963348E-001, 3.4514895E-002, 2.5053079E-002, 2.0201583E-004, 3.5228260E-004, 2.7149720E-004, 3.4858381E+002
 9.0074993E+000, 1.8415543E-001, 3.9109695E-002, 2.7573483E-002, 1.7466257E-004, 2.5467280E-004, 2.9643106E-004, 3.7677426E+002
 1.0002927E+001, 1.7797054E-001, 4.4306309E-002, 3.0413390E-002, 1.3538130E-004, 1.5804404E-004, 3.2282506E-004, 4.0077387E+002
 1.1000843E+001, 1.7284411E-001, 4.8598479E-002, 3.2769987E-002, 1.1168689E-004, 9.3196681E-005, 3.4651866E-004, 4.1858549E+002
 1.2003350E+001, 1.6495593E-001, 5.5168040E-002, 3.6400823E-002, 9.4501984E-005, 3.7118303E-005, 3.8691274E-004, 4.4425035E+002
 1.3002790E+001, 1.6145062E-001, 5.8090658E-002, 3.8013707E-002, 8.4959668E-005, 8.8474404E-006, 4.0447245E-004, 4.4973381E+002
 1.4000396E+001, 1.5572650E-001, 6.2829316E-002, 4.0652593E-002, 8.8514972E-005, 2.2737197E-006, 4.3706033E-004, 4.5796864E+002
 1.5002984E+001, 1.5015138E-001, 6.7440316E-002, 4.3223410E-002, 9.4389982E-005, 1.0106815E-006, 4.6929298E-004, 4.6454694E+002
 1.6009265E+001, 1.4356105E-001, 7.2890479E-002, 4.6262427E-002, 1.0160167E-004, 1.6987204E-007, 5.0744956E-004, 4.6838368E+002
 1.7007314E+001, 1.3817962E-001, 7.7339832E-002, 4.8744197E-002, 1.0813150E-004, 3.6337417E-007, 5.3873848E-004, 4.8438563E+002
 1.8005866E+001, 1.3454439E-001, 8.0346260E-002, 5.0420455E-002, 1.1200744E-004, 6.0494558E-008, 5.5976437E-004, 4.7198973E+002
 1.9000646E+001, 1.2976852E-001, 8.4295210E-002, 5.2622871E-002, 1.1761378E-004, 1.4822072E-007, 5.8749342E-004, 4.8226408E+002
 2.0008539E+001, 1.2423990E-001, 8.8863041E-002, 5.5173087E-002, 1.2620166E-004, 3.6719902E-006, 6.2002320E-004, 4.9122305E+002
 2.1005309E+001, 1.2339035E-001, 8.9569368E-002, 5.5564135E-002, 1.2490217E-004, 5.3067639E-009, 6.2448478E-004, 4.7911532E+002
 2.2009163E+001, 1.1413711E-001, 9.7220281E-002, 5.9831369E-002, 1.3588482E-004, 2.5179092E-007, 6.7823467E-004, 4.9564651E+002
 2.3007567E+001, 1.1296271E-001, 9.8191698E-002, 6.0372863E-002, 1.3703578E-004, 4.6126646E-008, 6.8500647E-004, 4.8671565E+002
 2.4006639E+001, 1.0674931E-001, 1.0332908E-001, 6.3238261E-002, 1.4446090E-004, 2.7774039E-007, 7.2110903E-004, 4.9854407E+002
 2.5008233E+001, 1.0378873E-001, 1.0577615E-001, 6.4603593E-002, 1.4837760E-004, 1.9116641E-006, 7.3838780E-004, 4.9803603E+002
 2.6005282E+001, 1.0081382E-001, 1.0822416E-001, 6.5977541E-002, 1.5875022E-004, 1.4188054E-005, 7.5706983E-004, 4.8894248E+002
 2.7005131E+001, 9.7787881E-002, 1.1073012E-001, 6.7372602E-002, 1.6024933E-004, 8.4139695E-006, 7.7422090E-004, 4.8750011E+002
 2.8008146E+001, 9.2007481E-002, 1.1523276E-001, 7.0091666E-002, 3.3242662E-004, 2.6570408E-004, 8.4170986E-004, 4.9833111E+002
 2.9005341E+001, 9.0585654E-002, 1.1649950E-001, 7.0730357E-002, 2.8012750E-004, 1.7796208E-004, 8.3889934E-004, 4.8699057E+002
 3.0008347E+001, 8.9078156E-002, 1.1762718E-001, 7.1438676E-002, 3.4534650E-004, 3.4215652E-004, 8.6058344E-004, 4.8435291E+002
 3.1012275E+001, 8.3399249E-002, 1.2167993E-001, 7.4150976E-002, 7.1254462E-004, 1.1073230E-003, 9.6725029E-004, 4.9247907E+002
 3.2003812E+001, 8.2821888E-002, 1.2209290E-001, 7.4435609E-002, 7.5626921E-004, 1.1343786E-003, 9.7948413E-004, 4.8471886E+002
 3.3009155E+001, 8.2174940E-002, 1.2253847E-001, 7.4698519E-002, 7.6997245E-004, 1.5071528E-003, 9.8544243E-004, 4.7505312E+002
 3.4009513E+001, 8.0674141E-002, 1.2352357E-001, 7.5405314E-002, 8.9794600E-004, 1.9354025E-003, 1.0197484E-003, 4.7213554E+002
 3.5005274E+001, 7.8292214E-002, 1.2530328E-001, 7.6530854E-002, 1.0068095E-003, 2.1639856E-003, 1.0552544E-003, 4.7561433E+002
 3.6009045E+001, 7.7595516E-002, 1.2528912E-001, 7.6870947E-002, 1.2872079E-003, 3.2348979E-003, 1.1158335E-003, 4.6314896E+002
 3.7004406E+001, 7.6263949E-002, 1.2597356E-001, 7.7500992E-002, 1.4881785E-003, 3.9758358E-003, 1.1639163E-003, 4.5833910E+002
 3.8012188E+001, 7.6007279E-002, 1.2625559E-001, 7.7636878E-002, 1.4705762E-003, 3.7405635E-003, 1.1620005E-003, 4.4792148E+002
 3.9006747E+001, 7.5606702E-002, 1.2645025E-001, 7.7811100E-002, 1.5243241E-003, 4.0700796E-003, 1.1749384E-003, 4.4825658E+002
 4.0009875E+001, 7.5233259E-002, 1.2657730E-001, 7.8011774E-002, 1.6282467E-003, 4.2750993E-003, 1.1982781E-003, 4.4714925E+002
 4.1008729E+001, 7.4210215E-002, 1.2657990E-001, 7.8458985E-002, 1.9894221E-003, 6.0882554E-003, 1.2764504E-003, 4.4529066E+002
 4.2003202E+001, 7.4774384E-002, 1.2616028E-001, 7.8127608E-002, 1.9130416E-003, 6.3867701E-003, 1.2571075E-003, 4.2425387E+002
 4.3008971E+001, 7.3436901E-002, 1.2681406E-001, 7.8686500E-002, 2.0732684E-003, 7.6049187E-003, 1.2961706E-003, 4.3856303E+002
 4.4010736E+001, 7.3398569E-002, 1.2685448E-001, 7.8740230E-002, 2.0970720E-003, 7.3891978E-003, 1.3015916E-003, 4.2956263E+002
 4.5013201E+001, 7.3522250E-002, 1.2671292E-001, 7.8646344E-002, 2.0862900E-003, 7.6701273E-003, 1.2983092E-003, 4.2344052E+002
 4.6010919E+001, 7.3750734E-002, 1.2669127E-001, 7.8495719E-002, 1.9761330E-003, 7.5862983E-003, 1.2743288E-003, 4.2091899E+002
 4.7008528E+001, 7.2419592E-002, 1.2706038E-001, 7.9040496E-002, 2.2532887E-003, 9.4220063E-003, 1.3367829E-003, 4.2835485E+002
 4.8009511E+001, 7.3235180E-002, 1.2622510E-001, 7.8657209E-002, 2.3191100E-003, 9.7816302E-003, 1.3454174E-003, 4.1462154E+002
 4.9005870E+001, 7.2923646E-002, 1.2653873E-001, 7.8812932E-002, 2.3035600E-003, 9.6038037E-003, 1.3441580E-003, 4.1886164E+002
 5.0009141E+001, 7.3231201E-002, 1.2631758E-001, 7.8658009E-002, 2.2782542E-003, 9.6098652E-003, 1.3371977E-003, 4.0276549E+002
 5.1008833E+001, 7.2973621E-002, 1.2639008E-001, 7.8732965E-002, 2.3080178E-003, 1.0130525E-002, 1.3441265E-003, 3.9848961E+002
 5.2009713E+001, 7.3303659E-002, 1.2521199E-001, 7.8593689E-002, 2.7241843E-003, 1.1860485E-002, 1.4262690E-003, 3.9908722E+002
 5.3007072E+001, 7.3719194E-002, 1.2546101E-001, 7.8340489E-002, 2.4102124E-003, 1.1020127E-002, 1.3600036E-003, 3.9538356E+002
 5.4001081E+001, 7.4098203E-002, 1.2501982E-001, 7.8142334E-002, 2.4492410E-003, 1.1403024E-002, 1.3654872E-003, 3.8169737E+002
 5.5001436E+001, 7.3937821E-002, 1.2406346E-001, 7.8321045E-002, 3.0190359E-003, 1.2993431E-002, 1.4823586E-003, 3.7614569E+002
 5.6004376E+001, 7.4683639E-002, 1.2295247E-001, 7.7898662E-002, 3.1799915E-003, 1.4408528E-002, 1.5097303E-003, 3.8773299E+002
 5.7012425E+001, 7.4001091E-002, 1.2419843E-001, 7.8217867E-002, 2.8780177E-003, 1.3027926E-002, 1.4527529E-003, 3.8782286E+002
 5.8001078E+001, 7.4961257E-002, 1.2316675E-001, 7.7708110E-002, 2.9322845E-003, 1.3869440E-002, 1.4575706E-003, 3.6866168E+002
 5.9007248E+001, 7.4932122E-002, 1.2203564E-001, 7.7767885E-002, 3.4868340E-003, 1.5912985E-002, 1.5699718E-003, 3.6349380E+002
 6.0011085E+001, 7.4875902E-002, 1.2180056E-001, 7.7856235E-002, 3.6613092E-003, 1.6129781E-002, 1.6061454E-003, 3.6012295E+002
 6.1009662E+001, 7.5064200E-002, 1.2141271E-001, 7.7664995E-002, 3.6852263E-003, 1.7166120E-002, 1.6087202E-003, 3.8152222E+002
 6.2007104E+001, 7.4944560E-002, 1.2133886E-001, 7.7824129E-002, 3.8427913E-003, 1.6937909E-002, 1.6423158E-003, 3.7335979E+002
 6.3000172E+001, 7.5376395E-002, 1.2120602E-001, 7.7575254E-002, 3.7033808E-003, 1.6765380E-002, 1.6112588E-003, 3.7296870E+002
 6.4013364E+001, 7.5878742E-002, 1.1967138E-001, 7.7392989E-002, 4.2435102E-003, 1.8720611E-002, 1.7178300E-003, 3.5754705E+002
 6.5001053E+001, 7.6033752E-002, 1.1968051E-001, 7.7243040E-002, 4.1214161E-003, 1.8879142E-002, 1.6914743E-003, 3.5100592E+002
 6.6007069E+001, 7.6989393E-002, 1.1872247E-001, 7.6532768E-002, 3.9887555E-003, 2.0696289E-002, 1.6563447E-003, 3.5286676E+002
 6.7007368E+001, 7.7829339E-002, 1.1728517E-001, 7.6209414E-002, 4.3705674E-003, 2.1822096E-002, 1.7293110E-003, 3.6225137E+002
 6.8007166E+001, 7.6497652E-002, 1.1910437E-001, 7.6877650E-002, 4.0911017E-003, 2.0095592E-002, 1.6810514E-003, 3.6399395E+002
 6.9009901E+001, 7.6856183E-002, 1.1830328E-001, 7.6769423E-002, 4.3612187E-003, 2.0785438E-002, 1.7341204E-003, 3.5498726E+002
 7.0006908E+001, 7.6979696E-002, 1.1779920E-001, 7.6655942E-002, 4.4982446E-003, 2.1896167E-002, 1.7603884E-003, 3.5548735E+002
 7.1000944E+001, 7.6976428E-002, 1.1801908E-001, 7.6637983E-002, 4.3857441E-003, 2.1571148E-002, 1.7375218E-003, 3.4705709E+002
 7.2007495E+001, 7.7746706E-002, 1.1640334E-001, 7.6330297E-002, 4.8610443E-003, 2.3257203E-002, 1.8295202E-003, 3.4369462E+002
 7.3012710E+001, 7.7564206E-002, 1.1669970E-001, 7.6335248E-002, 4.7351081E-003, 2.3403600E-002, 1.8042618E-003, 3.4194609E+002
 7.4010070E+001, 7.7667224E-002, 1.1602935E-001, 7.6330348E-002, 5.0305666E-003, 2.4333482E-002, 1.8636928E-003, 3.4631196E+002
 7.5003908E+001, 7.8431689E-002, 1.1525797E-001, 7.5923565E-002, 5.0505942E-003, 2.4909045E-002, 1.8628489E-003, 3.3644568E+002
 7.6005544E+001, 7.9048275E-002, 1.1420240E-001, 7.5564105E-002, 5.2373633E-003, 2.6408196E-002, 1.8961783E-003, 3.4244404E+002
 7.7008577E+001, 7.9393979E-002, 1.1338214E-001, 7.5390594E-002, 5.4662127E-003, 2.7549017E-002, 1.9401913E-003, 3.4774744E+002
 7.8008127E+001, 7.9450192E-002, 1.1400332E-001, 7.5263425E-002, 5.0884932E-003, 2.6777621E-002, 1.8626319E-003, 3.6232651E+002
 7.9012724E+001, 7.9093732E-002, 1.1393236E-001, 7.5514132E-002, 5.3194610E-003, 2.7030306E-002, 1.9121311E-003, 3.5591518E+002
 8.0012077E+001, 7.9396107E-002, 1.1339213E-001, 7.5388162E-002, 5.4598182E-003, 2.7533618E-002, 1.9388747E-003, 3.4436010E+002
 8.1009117E+001, 7.9611724E-002, 1.1311025E-001, 7.5219055E-002, 5.4526118E-003, 2.8123066E-002, 1.9354251E-003, 3.3969106E+002
 8.2003885E+001, 8.0082513E-002, 1.1255147E-001, 7.4925835E-002, 5.4697746E-003, 2.8879092E-002, 1.9353896E-003, 3.3500551E+002
 8.3003380E+001, 8.0012660E-002, 1.1229417E-001, 7.5055307E-002, 5.6860537E-003, 2.8970862E-002, 1.9804586E-003, 3.2996865E+002
 8.4010262E+001, 8.0923376E-002, 1.1156119E-001, 7.4443190E-002, 5.5284763E-003, 2.9988052E-002, 1.9414459E-003, 3.2217566E+002
 8.5007700E+001, 8.1273393E-002, 1.1066309E-001, 7.4352180E-002, 5.8555495E-003, 3.0811805E-002, 2.0061876E-003, 3.3212060E+002
 8.6008054E+001, 8.0482634E-002, 1.1110086E-001, 7.4885148E-002, 6.0827481E-003, 3.0315734E-002, 2.0582842E-003, 3.4357402E+002
 8.7000070E+001, 8.0674387E-002, 1.1084651E-001, 7.4758801E-002, 6.0964503E-003, 3.0714979E-002, 2.0595426E-003, 3.3800529E+002
 8.8000190E+001, 8.0942965E-002, 1.1037163E-001, 7.4671941E-002, 6.2381002E-003, 3.1014424E-002, 2.0870040E-003, 3.3572469E+002
 8.9002355E+001, 8.0972014E-002, 1.1029983E-001, 7.4622879E-002, 6.2321479E-003, 3.1305712E-002, 2.0852352E-003, 3.3861331E+002
 9.0004405E+001, 8.0751949E-002, 1.1045396E-001, 7.4730433E-002, 6.2495688E-003, 3.1327708E-002, 2.0900396E-003, 3.3534355E+002
 9.1005295E+001, 8.1298663E-002, 1.0978190E-001, 7.4485478E-002, 6.3532618E-003, 3.1726020E-002, 2.1079645E-003, 3.2016637E+002
 9.2006448E+001, 8.2905635E-002, 1.0802999E-001, 7.3512802E-002, 6.3636699E-003, 3.3842293E-002, 2.0984614E-003, 3.1097060E+002
 9.3000940E+001, 8.3202269E-002, 1.0742244E-001, 7.3441275E-002, 6.5761704E-003, 3.4204017E-002, 2.1403621E-003, 3.1319501E+002
 9.4007089E+001, 8.1623736E-002, 1.0823056E-001, 7.4498014E-002, 7.0537395E-003, 3.3384156E-002, 2.2491170E-003, 3.3631620E+002
 9.5001122E+001, 8.2027367E-002, 1.0791651E-001, 7.4233408E-002, 6.9841786E-003, 3.3776696E-002, 2.2319589E-003, 3.4028114E+002
 9.6001493E+001, 8.2356826E-002, 1.0777335E-001, 7.4001044E-002, 6.8639783E-003, 3.3962024E-002, 2.2049906E-003, 3.2817557E+002
 9.7003076E+001, 8.3345998E-002, 1.0658552E-001, 7.3423578E-002, 6.9358746E-003, 3.5365458E-002, 2.2125765E-003, 3.2217591E+002
 9.8009686E+001, 8.3030768E-002, 1.0677790E-001, 7.3594313E-002, 6.9863844E-003, 3.5361742E-002, 2.2247971E-003, 3.2792094E+002
 9.9009066E+001, 8.3227859E-002, 1.0647605E-001, 7.3506165E-002, 7.0506506E-003, 3.5623004E-002, 2.2366765E-003, 3.2306543E+002
 1.0000937E+002, 8.4255026E-002, 1.0518680E-001, 7.2999676E-002, 7.2218877E-003, 3.6678804E-002, 2.2650744E-003, 3.1810422E+002
 1.0100372E+002, 8.3555837E-002, 1.0584809E-001, 7.3357226E-002, 7.2123086E-003, 3.6320157E-002, 2.2674407E-003, 3.2598187E+002
 1.0200129E+002, 8.3797921E-002, 1.0528658E-001, 7.3335224E-002, 7.4431567E-003, 3.6545928E-002, 2.3136200E-003, 3.2355744E+002
 1.0300697E+002, 8.4159360E-002, 1.0491810E-001, 7.3119662E-002, 7.4364845E-003, 3.6953402E-002, 2.3097037E-003, 3.2087395E+002
 1.0400157E+002, 8.4688455E-002, 1.0421825E-001, 7.2779564E-002, 7.4799462E-003, 3.8004165E-002, 2.3144124E-003, 3.1815642E+002
 1.0500007E+002, 8.4839166E-002, 1.0378908E-001, 7.2752419E-002, 7.6490988E-003, 3.8377103E-002, 2.3481317E-003, 3.2049193E+002
 1.0600510E+002, 8.4941583E-002, 1.0333663E-001, 7.2772833E-002, 7.8661166E-003, 3.8736670E-002, 2.3920513E-003, 3.2145067E+002
 1.0700869E+002, 8.5732590E-002, 1.0258538E-001, 7.2288955E-002, 7.8174214E-003, 3.9585339E-002, 2.3764741E-003, 3.1696327E+002
 1.0800224E+002, 8.5497658E-002, 1.0249074E-001, 7.2487976E-002, 8.0170899E-003, 3.9661240E-002, 2.4190413E-003, 3.2405195E+002
 1.0900203E+002, 8.5752505E-002, 1.0223570E-001, 7.2382729E-002, 8.0461232E-003, 3.9681851E-002, 2.4236108E-003, 3.1406754E+002
 1.1000603E+002, 8.6248922E-002, 1.0147884E-001, 7.2035065E-002, 8.1099973E-003, 4.1024368E-002, 2.4323545E-003, 3.1930605E+002
 1.1100811E+002, 8.6614481E-002, 1.0116409E-001, 7.1846457E-002, 8.0997978E-003, 4.1159381E-002, 2.4280348E-003, 3.0436658E+002
 1.1200863E+002, 8.7711457E-002, 9.9702435E-002, 7.1297315E-002, 8.3144423E-003, 4.2500924E-002, 2.4646682E-003, 3.0867197E+002
 1.1301086E+002, 8.6715189E-002, 1.0063969E-001, 7.1846943E-002, 8.3338714E-003, 4.1778902E-002, 2.4751626E-003, 3.2540221E+002
 1.1400714E+002, 8.6934541E-002, 1.0011862E-001, 7.1792938E-002, 8.5224124E-003, 4.2195387E-002, 2.5124601E-003, 3.2449650E+002
 1.1501048E+002, 8.7131803E-002, 9.9722538E-002, 7.1746627E-002, 8.6611203E-003, 4.2413223E-002, 2.5398137E-003, 3.2017747E+002
 1.1600367E+002, 8.6481688E-002, 1.0015449E-001, 7.2118562E-002, 8.7646950E-003, 4.2226494E-002, 2.5651239E-003, 3.2687892E+002
 1.1701229E+002, 8.7038076E-002, 9.9852214E-002, 7.1720993E-002, 8.5849302E-003, 4.2688253E-002, 2.5242003E-003, 3.1831380E+002
 1.1800884E+002, 8.7677581E-002, 9.9243799E-002, 7.1371255E-002, 8.5778652E-003, 4.3148343E-002, 2.5185881E-003, 3.1008037E+002
 1.1900530E+002, 8.7959180E-002, 9.8663525E-002, 7.1274084E-002, 8.7587045E-003, 4.3659770E-002, 2.5538221E-003, 3.1006766E+002
 1.2000095E+002, 8.6867479E-002, 9.9423023E-002, 7.1842090E-002, 8.8738697E-003, 4.3589462E-002, 2.5838399E-003, 3.2918324E+002
 1.2100240E+002, 8.6712851E-002, 9.9435225E-002, 7.1978593E-002, 8.9760550E-003, 4.3460878E-002, 2.6060312E-003, 3.2513504E+002
 1.2200068E+002, 8.7278586E-002, 9.8754711E-002, 7.1662933E-002, 9.0289104E-003, 4.4185473E-002, 2.6129010E-003, 3.1453480E+002
 1.2300601E+002, 8.8302760E-002, 9.7596948E-002, 7.1067914E-002, 9.0731734E-003, 4.5479260E-002, 2.6147093E-003, 3.1275402E+002
 1.2400932E+002, 8.7641184E-002, 9.7842523E-002, 7.1564279E-002, 9.3562086E-003, 4.5026691E-002, 2.6775969E-003, 3.1985473E+002
 1.2500008E+002, 8.8038748E-002, 9.7510830E-002, 7.1310911E-002, 9.3033137E-003, 4.5417876E-002, 2.6639263E-003, 3.1231621E+002
 1.2600767E+002, 8.9083646E-002, 9.6327262E-002, 7.0746440E-002, 9.3822348E-003, 4.6508253E-002, 2.6730596E-003, 3.0987380E+002
 1.2700484E+002, 8.9779710E-002, 9.5378140E-002, 7.0450411E-002, 9.5684021E-003, 4.7114192E-002, 2.7069700E-003, 3.0962174E+002
 1.2800636E+002, 8.8350665E-002, 9.6823977E-002, 7.1218783E-002, 9.5353391E-003, 4.5986806E-002, 2.7095200E-003, 3.1635448E+002
 1.2900402E+002, 8.9113689E-002, 9.5721107E-002, 7.0889614E-002, 9.7638875E-003, 4.6800936E-002, 2.7515689E-003, 3.1589475E+002
 1.3000442E+002, 8.9384997E-002, 9.5299330E-002, 7.0786698E-002, 9.8693075E-003, 4.7071648E-002, 2.7715477E-003, 3.0787398E+002
 1.3100665E+002, 8.9348261E-002, 9.5341910E-002, 7.0776848E-002, 9.8433011E-003, 4.7194764E-002, 2.7662071E-003, 3.1386137E+002
 1.3200035E+002, 9.0006900E-002, 9.4227545E-002, 7.0622104E-002, 1.0212858E-002, 4.7508680E-002, 2.8386868E-003, 3.1414549E+002
 1.3300773E+002, 9.0360833E-002, 9.4063663E-002, 7.0418247E-002, 1.0123399E-002, 4.7476051E-002, 2.8182299E-003, 3.1521416E+002
 1.3400209E+002, 8.9906764E-002, 9.4189042E-002, 7.0751907E-002, 1.0331664E-002, 4.7289938E-002, 2.8641336E-003, 3.1495791E+002
 1.3500493E+002, 9.0561124E-002, 9.3548184E-002, 7.0381165E-002, 1.0322772E-002, 4.7868012E-002, 2.8579087E-003, 3.0652797E+002
 1.3601109E+002, 9.0710802E-002, 9.3430586E-002, 7.0201480E-002, 1.0234875E-002, 4.8464591E-002, 2.8381031E-003, 3.0676495E+002
 1.3700474E+002, 9.1546861E-002, 9.2492146E-002, 6.9776859E-002, 1.0314923E-002, 4.9171253E-002, 2.8491245E-003, 3.0370875E+002
 1.3800691E+002, 9.0169698E-002, 9.3639062E-002, 7.0569898E-002, 1.0434113E-002, 4.8285921E-002, 2.8826115E-003, 3.1811645E+002
 1.3901075E+002, 8.9775438E-002, 9.3508929E-002, 7.0934641E-002, 1.0779910E-002, 4.8187038E-002, 2.9565576E-003, 3.2580918E+002
 1.4001107E+002, 8.9494016E-002, 9.3610718E-002, 7.1157543E-002, 1.0910536E-002, 4.7935155E-002, 2.9855036E-003, 3.2431363E+002
 1.4100516E+002, 8.9847226E-002, 9.3399791E-002, 7.0894768E-002, 1.0796994E-002, 4.8323315E-002, 2.9595216E-003, 3.1674931E+002
 1.4200820E+002, 9.0167900E-002, 9.3187103E-002, 7.0646469E-002, 1.0695959E-002, 4.8771421E-002, 2.9362344E-003, 3.1396226E+002
 1.4300678E+002, 8.9217650E-002, 9.4164094E-002, 7.1145559E-002, 1.0657886E-002, 4.8055923E-002, 2.9345538E-003, 3.2168711E+002
 1.4401365E+002, 8.9631505E-002, 9.3371831E-002, 7.0974349E-002, 1.0874658E-002, 4.8843346E-002, 2.9761401E-003, 3.1834401E+002
 1.4500217E+002, 8.9737781E-002, 9.3258679E-002, 7.0969902E-002, 1.0920098E-002, 4.8648456E-002, 2.9852116E-003, 3.0837898E+002
 1.4600719E+002, 9.0623286E-002, 9.2432761E-002, 7.0420703E-002, 1.0853042E-002, 4.9609851E-002, 2.9651606E-003, 3.1037637E+002
 1.4701122E+002, 9.0313193E-002, 9.2295022E-002, 7.0661209E-002, 1.1105317E-002, 4.9857611E-002, 3.0188215E-003, 3.1278128E+002
 1.4801085E+002, 9.0474739E-002, 9.2004489E-002, 7.0658219E-002, 1.1230532E-002, 4.9776476E-002, 3.0439632E-003, 3.1231477E+002
 1.4900988E+002, 9.0637358E-002, 9.1750292E-002, 7.0634315E-002, 1.1323349E-002, 4.9733624E-002, 3.0623390E-003, 3.1347800E+002
 1.5001317E+002, 9.0447199E-002, 9.1958905E-002, 7.0706939E-002, 1.1288923E-002, 4.9714305E-002, 3.0562910E-003, 3.1435138E+002
 1.5100033E+002, 9.1554985E-002, 9.0295358E-002, 7.0270303E-002, 1.1680429E-002, 5.0793336E-002, 3.1298354E-003, 3.1321807E+002
 1.5201023E+002, 9.1536685E-002, 9.0330712E-002, 7.0295136E-002, 1.1683951E-002, 5.0662904E-002, 3.1308344E-003, 3.0617711E+002
 1.5300673E+002, 9.0898542E-002, 9.1093814E-002, 7.0536172E-002, 1.1538054E-002, 5.0487401E-002, 3.1043899E-003, 3.2042487E+002
 1.5400586E+002, 9.1407468E-002, 9.0489628E-002, 7.0306799E-002, 1.1623919E-002, 5.0822981E-002, 3.1189129E-003, 3.1138673E+002
