s,,,,,,,
Time,"O2 EXHAUST","CO2 EXHAUST","H2O EXHAUST","CO EXHAUST","FUEL EXHAUST","SOOT EXHAUST","TEMP EXHAUST"
 0.0000000E+000, 2.3099739E-001, 5.9146498E-004, 5.9412092E-003, 0.0000000E+000, 0.0000000E+000, 0.0000000E+000, 2.0000000E+001
 1.0005659E+000, 2.3099739E-001, 5.9146498E-004, 5.9412092E-003, 3.6634146E-030, 4.2729641E-029, 1.0130810E-030, 2.0675069E+001
 2.0029773E+000, 2.2208896E-001, 7.7890634E-003, 1.0461390E-002, 3.9226065E-005, 2.8219442E-004, 3.8231772E-005, 1.0764954E+002
 3.0049019E+000, 2.1643819E-001, 1.2376126E-002, 1.3345624E-002, 6.6156308E-005, 3.3289555E-004, 6.3010815E-005, 1.5854854E+002
 4.0017022E+000, 2.1240225E-001, 1.5637706E-002, 1.5395602E-002, 8.5040778E-005, 4.4865527E-004, 8.0573272E-005, 1.9634742E+002
 5.0046013E+000, 2.0451655E-001, 2.2072036E-002, 1.9420123E-002, 1.0782522E-004, 4.5495866E-004, 1.1211689E-004, 2.6018041E+002
 6.0029201E+000, 1.9682806E-001, 2.8402320E-002, 2.3334332E-002, 9.8577183E-005, 3.9461772E-004, 1.3636142E-004, 3.1507450E+002
 7.0000319E+000, 1.9155958E-001, 3.2761942E-002, 2.6017807E-002, 8.3533647E-005, 3.0271600E-004, 1.5119850E-004, 3.4771566E+002
 8.0013510E+000, 1.8197612E-001, 4.0686637E-002, 3.0896645E-002, 5.6941428E-005, 1.5895077E-004, 1.7833011E-004, 4.0233091E+002
 9.0035904E+000, 1.7326859E-001, 4.7876679E-002, 3.5329068E-002, 3.6982734E-005, 5.1626738E-005, 2.0384027E-004, 4.3929389E+002
 1.0000953E+001, 1.6686900E-001, 5.3144444E-002, 3.8586605E-002, 2.9526266E-005, 6.5014426E-006, 2.2406675E-004, 4.6366843E+002
 1.1006396E+001, 1.6019328E-001, 5.8618632E-002, 4.1984923E-002, 3.1052307E-005, 4.1435730E-007, 2.4707444E-004, 4.7485415E+002
 1.2006978E+001, 1.5145092E-001, 6.5783638E-002, 4.6435311E-002, 3.4764633E-005, 5.2206691E-008, 2.7755625E-004, 4.9559911E+002
 1.3007607E+001, 1.4401041E-001, 7.1881463E-002, 5.0223002E-002, 3.8036654E-005, 6.1439330E-008, 3.0352214E-004, 5.0904859E+002
 1.4000886E+001, 1.3879695E-001, 7.6153744E-002, 5.2877112E-002, 4.0581630E-005, 1.9601168E-007, 3.2176860E-004, 5.1422199E+002
 1.5004865E+001, 1.3243854E-001, 8.1364684E-002, 5.6113974E-002, 4.3421377E-005, 1.9676232E-007, 3.4396729E-004, 5.1774976E+002
 1.6007158E+001, 1.2883577E-001, 8.4317774E-002, 5.7947847E-002, 4.4691866E-005, 1.1707485E-007, 3.5647486E-004, 5.1938744E+002
 1.7006769E+001, 1.2266191E-001, 8.9377428E-002, 6.1090770E-002, 4.7474093E-005, 1.4686471E-007, 3.7803441E-004, 5.2535341E+002
 1.8003841E+001, 1.2044801E-001, 9.1191850E-002, 6.2217780E-002, 4.8428742E-005, 1.2163034E-007, 3.8575656E-004, 5.2159284E+002
 1.9000692E+001, 1.1619449E-001, 9.4677906E-002, 6.4383052E-002, 5.0224214E-005, 1.0241440E-007, 4.0058485E-004, 5.2241430E+002
 2.0003717E+001, 1.1175302E-001, 9.8317719E-002, 6.6644101E-002, 5.2290506E-005, 1.5575325E-007, 4.1610826E-004, 5.2299404E+002
 2.1002036E+001, 1.0870634E-001, 1.0081460E-001, 6.8195059E-002, 5.3635246E-005, 1.4619786E-007, 4.2674160E-004, 5.2337166E+002
 2.2003642E+001, 1.0740736E-001, 1.0187936E-001, 6.8856254E-002, 5.4079853E-005, 9.9770365E-008, 4.3124840E-004, 5.1742188E+002
 2.3006856E+001, 1.0501002E-001, 1.0384402E-001, 7.0076681E-002, 5.5182353E-005, 1.0954952E-007, 4.3962471E-004, 5.1583921E+002
 2.4004429E+001, 1.0245212E-001, 1.0594023E-001, 7.1378851E-002, 5.6377935E-005, 1.2851118E-007, 4.4856599E-004, 5.1668127E+002
 2.5003405E+001, 1.0015485E-001, 1.0782328E-001, 7.2548189E-002, 5.7158291E-005, 5.2995405E-008, 4.5653514E-004, 5.1883743E+002
 2.6007898E+001, 9.7763963E-002, 1.0978254E-001, 7.3765360E-002, 5.8326794E-005, 1.3080816E-007, 4.6490322E-004, 5.1936908E+002
 2.7000488E+001, 9.4767521E-002, 1.1223811E-001, 7.5290795E-002, 5.9747481E-005, 1.5703985E-007, 4.7538167E-004, 5.1690591E+002
 2.8004029E+001, 9.2214120E-002, 1.1432997E-001, 7.6590909E-002, 6.1386685E-005, 3.5257968E-007, 4.8440008E-004, 5.2032298E+002
 2.9004337E+001, 9.1438920E-002, 1.1496371E-001, 7.6986057E-002, 6.2771027E-005, 9.2278578E-007, 4.8732256E-004, 5.1323620E+002
 3.0000386E+001, 8.9566657E-002, 1.1649778E-001, 7.7939267E-002, 6.3811939E-005, 1.0487358E-006, 4.9390167E-004, 5.1570237E+002
 3.1005564E+001, 8.6433824E-002, 1.1904854E-001, 7.9540017E-002, 7.6536608E-005, 5.1749111E-006, 5.0719814E-004, 5.1504097E+002
 3.2006301E+001, 8.3603140E-002, 1.2134924E-001, 8.0987827E-002, 9.0787819E-005, 9.8659272E-006, 5.1978584E-004, 5.1923237E+002
 3.3001417E+001, 8.3354025E-002, 1.2155575E-001, 8.1113539E-002, 8.9123746E-005, 1.0642080E-005, 5.2028465E-004, 5.1711685E+002
 3.4003981E+001, 8.1264923E-002, 1.2326188E-001, 8.2179032E-002, 9.4019616E-005, 1.2692318E-005, 5.2840315E-004, 5.1716389E+002
 3.5000231E+001, 7.9388730E-002, 1.2479834E-001, 8.3134165E-002, 9.5375129E-005, 1.4876649E-005, 5.3505961E-004, 5.1668233E+002
 3.6009581E+001, 7.7297451E-002, 1.2649242E-001, 8.4205981E-002, 1.0985997E-004, 1.8820634E-005, 5.4518408E-004, 5.1416100E+002
 3.7005983E+001, 7.5591800E-002, 1.2788678E-001, 8.5075333E-002, 1.1286374E-004, 2.0558326E-005, 5.5160517E-004, 5.1504551E+002
 3.8004546E+001, 7.4784195E-002, 1.2854127E-001, 8.5489406E-002, 1.1844624E-004, 2.0709931E-005, 5.5551375E-004, 5.1818724E+002
 3.9005375E+001, 7.3338288E-002, 1.2972120E-001, 8.6227040E-002, 1.2236462E-004, 2.3065742E-005, 5.6124250E-004, 5.1339188E+002
 4.0009447E+001, 7.0336442E-002, 1.3217759E-001, 8.7756514E-002, 1.2623651E-004, 2.3929727E-005, 5.7224992E-004, 5.1326103E+002
 4.1001735E+001, 6.9489082E-002, 1.3287270E-001, 8.8187576E-002, 1.2611779E-004, 2.4083762E-005, 5.7510443E-004, 5.1561889E+002
 4.2004432E+001, 6.8083138E-002, 1.3402517E-001, 8.8903178E-002, 1.2655486E-004, 2.4170265E-005, 5.7997303E-004, 5.1670354E+002
 4.3001620E+001, 6.8310088E-002, 1.3383955E-001, 8.8787224E-002, 1.2600517E-004, 2.5512906E-005, 5.7908613E-004, 5.1222093E+002
 4.4003412E+001, 6.6030036E-002, 1.3569391E-001, 8.9953317E-002, 1.3690295E-004, 2.7313965E-005, 5.8910556E-004, 5.0986885E+002
 4.5007848E+001, 6.3708457E-002, 1.3759213E-001, 9.1136469E-002, 1.4075107E-004, 2.9635375E-005, 5.9779528E-004, 5.1303524E+002
 4.6007072E+001, 6.3653381E-002, 1.3765243E-001, 9.1159041E-002, 1.3043715E-004, 2.6312710E-005, 5.9583377E-004, 5.1130028E+002
 4.7001366E+001, 6.0615560E-002, 1.4010820E-001, 9.2718558E-002, 1.5544513E-004, 2.9385177E-005, 6.1137025E-004, 5.1621754E+002
 4.8001074E+001, 5.9673166E-002, 1.4086779E-001, 9.3202313E-002, 1.6416199E-004, 3.5068765E-005, 6.1638627E-004, 5.1447578E+002
 4.9002060E+001, 5.8557943E-002, 1.4178389E-001, 9.3769169E-002, 1.6313415E-004, 3.5074657E-005, 6.1996149E-004, 5.1374605E+002
 5.0007639E+001, 5.7980359E-002, 1.4227129E-001, 9.4057989E-002, 1.5371405E-004, 3.2722974E-005, 6.1996118E-004, 5.1250090E+002
 5.1002521E+001, 5.7689647E-002, 1.4250898E-001, 9.4206193E-002, 1.5423425E-004, 3.2809711E-005, 6.2105748E-004, 5.0903078E+002
 5.2000007E+001, 5.5427829E-002, 1.4436051E-001, 9.5358410E-002, 1.5670978E-004, 3.3080194E-005, 6.2925944E-004, 5.1553603E+002
 5.3000482E+001, 5.4491671E-002, 1.4513465E-001, 9.5832196E-002, 1.5221065E-004, 3.2981102E-005, 6.3150223E-004, 5.1547145E+002
 5.4007203E+001, 5.3590306E-002, 1.4585918E-001, 9.6296286E-002, 1.6236125E-004, 3.5452279E-005, 6.3668040E-004, 5.1391996E+002
 5.5006227E+001, 5.3801860E-002, 1.4567690E-001, 9.6191647E-002, 1.6823195E-004, 3.8156075E-005, 6.3718391E-004, 5.0944640E+002
 5.6003588E+001, 5.1475748E-002, 1.4758311E-001, 9.7376100E-002, 1.6953224E-004, 3.6886778E-005, 6.4536043E-004, 5.1243501E+002
 5.7001506E+001, 4.9863806E-002, 1.4890323E-001, 9.8197634E-002, 1.7129285E-004, 3.4013573E-005, 6.5120741E-004, 5.1676393E+002
 5.8007965E+001, 5.0285533E-002, 1.4856377E-001, 9.7980168E-002, 1.6653015E-004, 3.5463448E-005, 6.4877981E-004, 5.1411763E+002
 5.9003481E+001, 4.7842491E-002, 1.5054872E-001, 9.9230272E-002, 1.7950671E-004, 3.8085504E-005, 6.5978604E-004, 5.1727725E+002
 6.0002930E+001, 4.7069537E-002, 1.5117291E-001, 9.9626992E-002, 1.8610121E-004, 4.0649369E-005, 6.6378606E-004, 5.1657480E+002
 6.1002915E+001, 4.6368442E-002, 1.5175754E-001, 9.9980255E-002, 1.7954515E-004, 3.8537270E-005, 6.6480264E-004, 5.1508405E+002
 6.2002861E+001, 4.6894446E-002, 1.5133612E-001, 9.9708753E-002, 1.7255794E-004, 3.7671764E-005, 6.6155853E-004, 5.1090433E+002
 6.3005642E+001, 4.4798104E-002, 1.5303311E-001, 1.0078384E-001, 1.8805642E-004, 4.0644643E-005, 6.7191238E-004, 5.1745346E+002
 6.4005957E+001, 4.4459512E-002, 1.5331167E-001, 1.0095597E-001, 1.8758063E-004, 3.9645841E-005, 6.7296449E-004, 5.1597209E+002
 6.5007681E+001, 4.4794613E-002, 1.5303173E-001, 1.0078751E-001, 1.9119419E-004, 3.9746289E-005, 6.7257942E-004, 5.1207617E+002
 6.6001182E+001, 4.3436369E-002, 1.5414984E-001, 1.0147697E-001, 1.8828324E-004, 3.9561209E-005, 6.7658783E-004, 5.1942301E+002
 6.7005656E+001, 4.3601863E-002, 1.5401023E-001, 1.0139435E-001, 1.9104994E-004, 3.9484702E-005, 6.7660260E-004, 5.1010366E+002
 6.8009056E+001, 4.3266747E-002, 1.5428899E-001, 1.0156349E-001, 1.8841353E-004, 3.8442740E-005, 6.7719227E-004, 5.0957916E+002
 6.9000092E+001, 4.2517542E-002, 1.5490728E-001, 1.0194310E-001, 1.8566284E-004, 3.8696108E-005, 6.7916419E-004, 5.1255068E+002
 7.0005462E+001, 4.1876348E-002, 1.5545176E-001, 1.0226267E-001, 1.7299464E-004, 3.4497307E-005, 6.7870399E-004, 5.1457250E+002
 7.1000699E+001, 4.0708242E-002, 1.5639880E-001, 1.0286116E-001, 1.8061523E-004, 3.6046448E-005, 6.8426159E-004, 5.1484531E+002
 7.2003620E+001, 3.8895303E-002, 1.5786741E-001, 1.0379056E-001, 1.9333160E-004, 3.8236632E-005, 6.9307274E-004, 5.1684927E+002
 7.3009509E+001, 3.9317013E-002, 1.5749831E-001, 1.0358402E-001, 2.0893843E-004, 4.5044187E-005, 6.9488965E-004, 5.1098137E+002
 7.4006508E+001, 3.8329037E-002, 1.5831741E-001, 1.0408352E-001, 2.0292283E-004, 4.3232656E-005, 6.9699356E-004, 5.1669518E+002
 7.5004278E+001, 3.9332594E-002, 1.5750084E-001, 1.0357033E-001, 1.9833329E-004, 4.2899137E-005, 6.9262638E-004, 5.1206076E+002
 7.6004530E+001, 3.7925829E-002, 1.5864350E-001, 1.0429079E-001, 2.0636507E-004, 4.1980940E-005, 6.9908265E-004, 5.1537205E+002
 7.7004571E+001, 3.7218033E-002, 1.5923881E-001, 1.0464540E-001, 1.9614664E-004, 3.9712251E-005, 6.9935823E-004, 5.1697113E+002
 7.8007793E+001, 3.7278749E-002, 1.5919082E-001, 1.0461371E-001, 1.9481729E-004, 4.0026111E-005, 6.9887439E-004, 5.1589092E+002
 7.9002575E+001, 3.5917308E-002, 1.6029875E-001, 1.0531054E-001, 2.0139179E-004, 3.7029232E-005, 7.0487433E-004, 5.1943223E+002
 8.0008000E+001, 3.6624535E-002, 1.5970578E-001, 1.0495492E-001, 2.0991525E-004, 4.2028712E-005, 7.0424501E-004, 5.1067638E+002
 8.1002859E+001, 3.4935385E-002, 1.6109285E-001, 1.0581429E-001, 2.0910857E-004, 3.9079964E-005, 7.0981893E-004, 5.1782826E+002
 8.2008204E+001, 3.5487727E-002, 1.6062579E-001, 1.0553788E-001, 2.1839379E-004, 4.4317210E-005, 7.0987462E-004, 5.1868095E+002
 8.3002425E+001, 3.5079056E-002, 1.6096487E-001, 1.0574416E-001, 2.1556836E-004, 4.4691840E-005, 7.1067369E-004, 5.1494680E+002
 8.4000254E+001, 3.3938922E-002, 1.6190062E-001, 1.0632469E-001, 2.1555763E-004, 4.1319777E-005, 7.1454837E-004, 5.1468224E+002
 8.5003848E+001, 3.5760758E-002, 1.6041342E-001, 1.0539421E-001, 2.1012168E-004, 4.4678981E-005, 7.0722117E-004, 5.0784907E+002
 8.6004430E+001, 3.2906541E-002, 1.6271453E-001, 1.0686250E-001, 2.3839810E-004, 4.5012950E-005, 7.2281762E-004, 5.1207013E+002
 8.7005108E+001, 3.2122404E-002, 1.6337374E-001, 1.0725548E-001, 2.2729847E-004, 4.2492090E-005, 7.2316901E-004, 5.1944131E+002
 8.8008403E+001, 3.3582377E-002, 1.6218315E-001, 1.0650975E-001, 2.2236377E-004, 4.3072893E-005, 7.1717818E-004, 5.1651447E+002
 8.9002124E+001, 3.3449520E-002, 1.6229140E-001, 1.0657731E-001, 2.2264659E-004, 4.4741799E-005, 7.1768731E-004, 5.0974136E+002
 9.0008496E+001, 3.2307788E-002, 1.6321879E-001, 1.0716190E-001, 2.2906981E-004, 4.4649767E-005, 7.2290683E-004, 5.1390224E+002
 9.1009013E+001, 3.2006812E-002, 1.6346266E-001, 1.0731620E-001, 2.3115952E-004, 4.4894965E-005, 7.2436524E-004, 5.1214661E+002
 9.2003327E+001, 3.1719430E-002, 1.6370441E-001, 1.0746046E-001, 2.2717904E-004, 4.2484902E-005, 7.2451344E-004, 5.1716517E+002
 9.3008073E+001, 3.1556063E-002, 1.6381813E-001, 1.0755059E-001, 2.4080427E-004, 4.8372400E-005, 7.2790589E-004, 5.1297833E+002
 9.4005356E+001, 3.1274606E-002, 1.6405796E-001, 1.0769027E-001, 2.3447248E-004, 4.7863434E-005, 7.2754202E-004, 5.1723351E+002
 9.5001643E+001, 3.1436771E-002, 1.6392448E-001, 1.0760801E-001, 2.3485338E-004, 4.7593986E-005, 7.2707063E-004, 5.1492700E+002
 9.6002064E+001, 3.0658126E-002, 1.6458402E-001, 1.0799665E-001, 2.2058342E-004, 4.3029719E-005, 7.2674370E-004, 5.1550034E+002
 9.7009333E+001, 3.1167769E-002, 1.6415704E-001, 1.0774053E-001, 2.2668058E-004, 4.5216350E-005, 7.2628192E-004, 5.0806108E+002
 9.8009221E+001, 2.9618336E-002, 1.6538660E-001, 1.0854457E-001, 2.5533726E-004, 5.0211795E-005, 7.3752026E-004, 5.1979933E+002
 9.9004150E+001, 3.1174684E-002, 1.6413591E-001, 1.0774265E-001, 2.3727202E-004, 4.8251114E-005, 7.2846518E-004, 5.1467240E+002
 1.0000046E+002, 3.1203467E-002, 1.6410614E-001, 1.0773012E-001, 2.4139840E-004, 5.0140298E-005, 7.2922657E-004, 5.0915020E+002
 1.0100533E+002, 2.9223865E-002, 1.6570354E-001, 1.0874764E-001, 2.5982067E-004, 5.1711374E-005, 7.3979467E-004, 5.1803913E+002
 1.0200393E+002, 2.9330146E-002, 1.6562590E-001, 1.0869001E-001, 2.5324206E-004, 5.0240533E-005, 7.3806252E-004, 5.1740438E+002
 1.0300741E+002, 3.0187324E-002, 1.6494614E-001, 1.0824517E-001, 2.3716650E-004, 4.6705122E-005, 7.3179951E-004, 5.1628271E+002
 1.0400642E+002, 3.0276717E-002, 1.6488051E-001, 1.0819713E-001, 2.3207081E-004, 4.3963019E-005, 7.3043505E-004, 5.1500381E+002
 1.0500548E+002, 2.8977576E-002, 1.6594783E-001, 1.0885735E-001, 2.3074045E-004, 4.4282137E-005, 7.3457189E-004, 5.2391188E+002
 1.0600611E+002, 2.7789244E-002, 1.6689421E-001, 1.0947293E-001, 2.5050950E-004, 4.6694376E-005, 7.4273145E-004, 5.2272674E+002
 1.0700568E+002, 2.8862681E-002, 1.6602314E-001, 1.0892252E-001, 2.4356971E-004, 4.8950740E-005, 7.3763456E-004, 5.1717681E+002
 1.0800440E+002, 2.8083442E-002, 1.6663956E-001, 1.0932813E-001, 2.5966966E-004, 4.9237791E-005, 7.4364036E-004, 5.1613200E+002
 1.0900701E+002, 2.8305759E-002, 1.6646544E-001, 1.0921205E-001, 2.5407097E-004, 4.7416657E-005, 7.4171857E-004, 5.1293915E+002
 1.1000325E+002, 2.9050506E-002, 1.6584249E-001, 1.0883708E-001, 2.6207208E-004, 5.2091515E-005, 7.4085305E-004, 5.1306347E+002
 1.1100148E+002, 2.7614808E-002, 1.6700585E-001, 1.0957317E-001, 2.7204599E-004, 5.2738903E-005, 7.4781151E-004, 5.1725865E+002
 1.1200492E+002, 2.7527954E-002, 1.6708908E-001, 1.0961305E-001, 2.6387424E-004, 5.0093586E-005, 7.4640427E-004, 5.1491397E+002
 1.1300026E+002, 2.6863751E-002, 1.6761685E-001, 1.0995788E-001, 2.7596057E-004, 5.0058491E-005, 7.5118226E-004, 5.1943982E+002
 1.1400339E+002, 2.7061516E-002, 1.6748569E-001, 1.0984598E-001, 2.5474109E-004, 4.3677265E-005, 7.4608931E-004, 5.2161970E+002
 1.1500063E+002, 2.6457770E-002, 1.6796024E-001, 1.1016053E-001, 2.6874648E-004, 4.8592758E-005, 7.5105826E-004, 5.1973506E+002
 1.1600383E+002, 2.7159124E-002, 1.6737847E-001, 1.0980609E-001, 2.7325129E-004, 4.9686354E-005, 7.4961375E-004, 5.0992538E+002
 1.1700613E+002, 2.6465834E-002, 1.6793986E-001, 1.1016109E-001, 2.7792996E-004, 5.3106974E-005, 7.5294279E-004, 5.1864539E+002
 1.1800440E+002, 2.7496879E-002, 1.6711350E-001, 1.0962934E-001, 2.6466826E-004, 4.9833881E-005, 7.4667568E-004, 5.1567491E+002
 1.1900169E+002, 2.6499408E-002, 1.6795066E-001, 1.1013010E-001, 2.5173019E-004, 4.5131665E-005, 7.4737025E-004, 5.2329721E+002
 1.2000225E+002, 2.7017437E-002, 1.6749689E-001, 1.0987750E-001, 2.7181867E-004, 4.8671464E-005, 7.4979720E-004, 5.0821892E+002
 1.2100270E+002, 2.7668734E-002, 1.6699473E-001, 1.0953360E-001, 2.4933706E-004, 4.6518513E-005, 7.4289655E-004, 5.1345566E+002
 1.2200735E+002, 2.6209914E-002, 1.6818627E-001, 1.1027809E-001, 2.5299674E-004, 4.5356445E-005, 7.4861797E-004, 5.1965394E+002
 1.2300296E+002, 2.6627390E-002, 1.6782509E-001, 1.1007297E-001, 2.6615972E-004, 4.6831432E-005, 7.4994372E-004, 5.1516171E+002
 1.2400290E+002, 2.5905557E-002, 1.6843341E-001, 1.1043405E-001, 2.5482745E-004, 4.4872266E-005, 7.5003443E-004, 5.1595728E+002
 1.2500410E+002, 2.8169308E-002, 1.6657965E-001, 1.0928053E-001, 2.5242004E-004, 4.7538003E-005, 7.4183780E-004, 5.1184770E+002
 1.2600891E+002, 2.7535972E-002, 1.6712072E-001, 1.0959465E-001, 2.3744974E-004, 4.4415519E-005, 7.4086989E-004, 5.1512994E+002
 1.2700941E+002, 2.6257060E-002, 1.6812449E-001, 1.1026284E-001, 2.6903451E-004, 4.8362748E-005, 7.5180055E-004, 5.1417347E+002
 1.2800494E+002, 2.6323553E-002, 1.6807912E-001, 1.1022548E-001, 2.6262886E-004, 4.7499133E-005, 7.5023919E-004, 5.1653503E+002
 1.2900456E+002, 2.7064351E-002, 1.6748490E-001, 1.0984338E-001, 2.5328331E-004, 4.6368508E-005, 7.4577351E-004, 5.1422718E+002
 1.3000973E+002, 2.6392906E-002, 1.6803529E-001, 1.1018498E-001, 2.5338993E-004, 4.7195209E-005, 7.4807672E-004, 5.1347843E+002
 1.3100323E+002, 2.5593406E-002, 1.6869315E-001, 1.1059160E-001, 2.5233058E-004, 4.3757517E-005, 7.5057522E-004, 5.1654624E+002
 1.3200259E+002, 2.6451494E-002, 1.6796254E-001, 1.1016451E-001, 2.7053142E-004, 5.0384396E-005, 7.5145048E-004, 5.1089910E+002
 1.3300657E+002, 2.5533775E-002, 1.6873192E-001, 1.1062565E-001, 2.5927789E-004, 4.5697948E-005, 7.5222539E-004, 5.1830277E+002
 1.3400844E+002, 2.6265601E-002, 1.6813365E-001, 1.1025193E-001, 2.5751562E-004, 4.8522749E-005, 7.4936880E-004, 5.1689500E+002
 1.3500747E+002, 2.6860376E-002, 1.6765833E-001, 1.0994473E-001, 2.4894983E-004, 4.6128581E-005, 7.4556295E-004, 5.1177663E+002
 1.3600808E+002, 2.5014588E-002, 1.6914395E-001, 1.1089488E-001, 2.6874225E-004, 4.8265542E-005, 7.5596168E-004, 5.1459069E+002
 1.3700945E+002, 2.6096083E-002, 1.6829461E-001, 1.1033025E-001, 2.4254448E-004, 4.3858718E-005, 7.4682584E-004, 5.1624518E+002
 1.3800555E+002, 2.6052680E-002, 1.6826836E-001, 1.1037493E-001, 2.8491332E-004, 5.5896164E-005, 7.5580111E-004, 5.0787514E+002
 1.3900880E+002, 2.6317850E-002, 1.6808889E-001, 1.1022592E-001, 2.5874163E-004, 4.9497401E-005, 7.4944621E-004, 5.1205268E+002
 1.4000582E+002, 2.5438238E-002, 1.6881504E-001, 1.1067192E-001, 2.5561185E-004, 4.7765141E-005, 7.5178375E-004, 5.0978515E+002
 1.4100120E+002, 2.5056627E-002, 1.6913131E-001, 1.1086533E-001, 2.5365929E-004, 4.4905622E-005, 7.5267548E-004, 5.1503721E+002
 1.4200864E+002, 2.4429581E-002, 1.6962871E-001, 1.1119121E-001, 2.6567364E-004, 4.4860079E-005, 7.5731220E-004, 5.1494327E+002
 1.4300437E+002, 2.4448207E-002, 1.6960759E-001, 1.1118364E-001, 2.6951878E-004, 4.7149981E-005, 7.5804913E-004, 5.1239889E+002
 1.4400286E+002, 2.5106015E-002, 1.6906966E-001, 1.1084744E-001, 2.6782071E-004, 5.1446910E-005, 7.5545629E-004, 5.1399131E+002
 1.4500099E+002, 2.3982589E-002, 1.6999781E-001, 1.1141638E-001, 2.6304781E-004, 5.1184961E-005, 7.5827846E-004, 5.2210263E+002
 1.4600186E+002, 2.4120514E-002, 1.6987655E-001, 1.1134916E-001, 2.6861765E-004, 5.2798786E-005, 7.5897026E-004, 5.1649328E+002
 1.4700565E+002, 2.4003202E-002, 1.6993676E-001, 1.1142265E-001, 2.9371850E-004, 5.6576002E-005, 7.6460144E-004, 5.1630693E+002
 1.4800959E+002, 2.6177869E-002, 1.6819521E-001, 1.1030031E-001, 2.6459931E-004, 5.0822072E-005, 7.5114262E-004, 5.1418257E+002
 1.4900893E+002, 2.5737958E-002, 1.6854916E-001, 1.1052679E-001, 2.6938455E-004, 5.1443551E-005, 7.5363509E-004, 5.1777215E+002
 1.5000789E+002, 2.5242858E-002, 1.6895099E-001, 1.1078002E-001, 2.7213294E-004, 5.3377802E-005, 7.5588921E-004, 5.1411924E+002
 1.5100358E+002, 2.5202697E-002, 1.6901734E-001, 1.1078865E-001, 2.4951045E-004, 4.4920490E-005, 7.5131375E-004, 5.1617542E+002
 1.5200690E+002, 2.5310815E-002, 1.6889207E-001, 1.1074758E-001, 2.7496858E-004, 4.9191363E-005, 7.5625303E-004, 5.1317818E+002
 1.5300098E+002, 2.5724654E-002, 1.6859594E-001, 1.1052032E-001, 2.4471661E-004, 4.5154302E-005, 7.4854002E-004, 5.1121527E+002
 1.5400607E+002, 2.5356917E-002, 1.6889732E-001, 1.1070796E-001, 2.4517532E-004, 4.2963434E-005, 7.4988702E-004, 5.1348412E+002
