s,,,,,,,
Time,"O2 EXHAUST","CO2 EXHAUST","H2O EXHAUST","CO EXHAUST","FUEL EXHAUST","SOOT EXHAUST","TEMP EXHAUST"
 0.0000000E+000, 2.3099745E-001, 5.9146511E-004, 5.9409840E-003, 0.0000000E+000, 0.0000000E+000, 0.0000000E+000, 2.0000000E+001
 1.0049662E+000, 2.3099745E-001, 5.9146511E-004, 5.9409840E-003, 8.2620135E-032, 3.7379948E-031, 2.5344965E-032, 2.0327755E+001
 2.0046606E+000, 2.2557131E-001, 4.8274278E-003, 9.4946378E-003, 1.6950407E-005, 6.5638137E-005, 2.8231096E-005, 8.2820779E+001
 3.0002073E+000, 2.2199412E-001, 7.5906299E-003, 1.1853356E-002, 4.9338505E-005, 1.0415854E-004, 5.1262216E-005, 1.0856463E+002
 4.0065424E+000, 2.1730667E-001, 1.1247458E-002, 1.4929294E-002, 6.8193046E-005, 1.4154784E-004, 7.6546960E-005, 1.5142621E+002
 5.0024992E+000, 2.1404126E-001, 1.3774754E-002, 1.7075877E-002, 9.2205136E-005, 1.9306542E-004, 9.6397834E-005, 1.8109792E+002
 6.0014317E+000, 2.1151514E-001, 1.5766103E-002, 1.8730608E-002, 9.1719013E-005, 1.8321625E-004, 1.0783995E-004, 2.0338827E+002
 7.0035587E+000, 2.0686711E-001, 1.9420379E-002, 2.1774891E-002, 9.4949188E-005, 1.8645205E-004, 1.2972910E-004, 2.4112866E+002
 8.0009717E+000, 2.0326622E-001, 2.2248303E-002, 2.4134012E-002, 9.9168733E-005, 1.9254074E-004, 1.4704053E-004, 2.6810655E+002
 9.0020009E+000, 1.9978997E-001, 2.5015170E-002, 2.6404551E-002, 8.3371263E-005, 1.5170652E-004, 1.5966662E-004, 2.9115894E+002
 1.0007878E+001, 1.9366911E-001, 2.9874827E-002, 3.0405275E-002, 6.2394273E-005, 9.3020688E-005, 1.8330751E-004, 3.2763953E+002
 1.1008876E+001, 1.9067404E-001, 3.2259919E-002, 3.2361377E-002, 4.8169648E-005, 5.5995599E-005, 1.9406011E-004, 3.4537533E+002
 1.2001852E+001, 1.8574729E-001, 3.6156654E-002, 3.5584154E-002, 3.9176211E-005, 2.8562776E-005, 2.1471027E-004, 3.6267075E+002
 1.3002611E+001, 1.8102956E-001, 3.9886982E-002, 3.8670295E-002, 3.1091847E-005, 4.1003879E-006, 2.3459218E-004, 3.8233746E+002
 1.4004019E+001, 1.7652966E-001, 4.3429339E-002, 4.1617059E-002, 3.1952042E-005, 6.1259058E-008, 2.5531953E-004, 3.9768448E+002
 1.5007460E+001, 1.7071631E-001, 4.8001429E-002, 4.5424779E-002, 3.5367097E-005, 4.8783560E-008, 2.8257084E-004, 4.1679376E+002
 1.6005784E+001, 1.6837890E-001, 4.9839829E-002, 4.6955742E-002, 3.6692752E-005, 2.1609571E-009, 2.9351809E-004, 4.1320635E+002
 1.7007756E+001, 1.6271336E-001, 5.4295627E-002, 5.0666649E-002, 4.0040627E-005, 2.8762135E-008, 3.2008052E-004, 4.3026424E+002
 1.8005105E+001, 1.5999094E-001, 5.6436792E-002, 5.2449809E-002, 4.1618416E-005, 9.8062910E-009, 3.3283799E-004, 4.3241890E+002
 1.9010167E+001, 1.5437110E-001, 6.0856579E-002, 5.6130814E-002, 4.4985960E-005, 7.1918140E-008, 3.5919586E-004, 4.3754793E+002
 2.0002000E+001, 1.5145669E-001, 6.3148798E-002, 5.8039699E-002, 4.6636607E-005, 2.3396082E-008, 3.7284501E-004, 4.4012748E+002
 2.1007017E+001, 1.4572417E-001, 6.7657356E-002, 6.1794454E-002, 4.9975904E-005, 1.1271484E-008, 3.9971153E-004, 4.4975371E+002
 2.2004510E+001, 1.4614401E-001, 6.7327150E-002, 6.1519465E-002, 4.9735395E-005, 1.8784239E-008, 3.9774471E-004, 4.4392540E+002
 2.3006870E+001, 1.3932445E-001, 7.2690588E-002, 6.5986242E-002, 5.3745876E-005, 2.7949294E-008, 4.2971368E-004, 4.5066480E+002
 2.4004380E+001, 1.3663149E-001, 7.4808481E-002, 6.7750142E-002, 5.5370346E-005, 7.0881370E-008, 4.4234630E-004, 4.5646148E+002
 2.5006872E+001, 1.3585218E-001, 7.5421506E-002, 6.8260542E-002, 5.5755112E-005, 7.7210751E-009, 4.4598433E-004, 4.4374442E+002
 2.6009945E+001, 1.3351835E-001, 7.7257008E-002, 6.9789194E-002, 5.7132796E-005, 1.4231236E-008, 4.5692603E-004, 4.4820161E+002
 2.7000808E+001, 1.2971216E-001, 8.0250525E-002, 7.2282217E-002, 5.9351590E-005, 5.0645425E-009, 4.7476477E-004, 4.4651421E+002
 2.8001406E+001, 1.2755950E-001, 8.1943527E-002, 7.3692201E-002, 6.0627464E-005, 2.0811650E-008, 4.8485812E-004, 4.4481724E+002
 2.9000976E+001, 1.2386277E-001, 8.4850953E-002, 7.6113536E-002, 6.2787181E-005, 1.1793884E-008, 5.0218485E-004, 4.4957082E+002
 3.0005294E+001, 1.2250661E-001, 8.5917537E-002, 7.7001810E-002, 6.3585979E-005, 2.2445325E-008, 5.0854254E-004, 4.4552803E+002
 3.1007232E+001, 1.1892812E-001, 8.8731953E-002, 7.9345702E-002, 6.5685377E-005, 1.8188325E-008, 5.2531688E-004, 4.4916160E+002
 3.2003319E+001, 1.1637846E-001, 9.0737231E-002, 8.1015713E-002, 6.7171854E-005, 1.4537908E-008, 5.3726661E-004, 4.4748957E+002
 3.3006952E+001, 1.1469116E-001, 9.2064251E-002, 8.2120885E-002, 6.8166365E-005, 2.0070147E-008, 5.4517685E-004, 4.4706004E+002
 3.4005477E+001, 1.0769469E-001, 9.7566396E-002, 8.6703694E-002, 7.2551196E-005, 2.6858555E-007, 5.7803115E-004, 4.6374328E+002
 3.5009209E+001, 1.0863396E-001, 9.6828063E-002, 8.6088337E-002, 7.1757747E-005, 6.7008321E-008, 5.7357806E-004, 4.5231077E+002
 3.6006349E+001, 1.0589538E-001, 9.8981935E-002, 8.7882077E-002, 7.3343267E-005, 3.7690700E-008, 5.8641088E-004, 4.5256043E+002
 3.7005974E+001, 1.0507693E-001, 9.9625692E-002, 8.8418140E-002, 7.3787571E-005, 5.7054370E-009, 5.9024000E-004, 4.4304930E+002
 3.8007571E+001, 1.0122912E-001, 1.0265182E-001, 9.0938464E-002, 7.6106545E-005, 6.6655671E-008, 6.0828950E-004, 4.5371117E+002
 3.9006071E+001, 9.7715496E-002, 1.0541528E-001, 9.3239847E-002, 7.8127339E-005, 3.3493307E-008, 6.2475139E-004, 4.5410374E+002
 4.0008175E+001, 9.7556138E-002, 1.0554065E-001, 9.3344214E-002, 7.8199908E-005, 1.0153620E-008, 6.2549406E-004, 4.4774791E+002
 4.1004291E+001, 9.5322860E-002, 1.0729709E-001, 9.4806995E-002, 7.9504535E-005, 8.8585632E-009, 6.3596149E-004, 4.4552187E+002
 4.2001721E+001, 9.4841932E-002, 1.0767533E-001, 9.5122001E-002, 7.9789124E-005, 1.2860660E-008, 6.3821636E-004, 4.3597487E+002
 4.3002128E+001, 9.0589941E-002, 1.1101937E-001, 9.7907052E-002, 8.2324393E-005, 6.3773977E-008, 6.5815619E-004, 4.4951818E+002
 4.4005895E+001, 9.0812848E-002, 1.1084413E-001, 9.7761027E-002, 8.2151042E-005, 1.3941319E-008, 6.5710249E-004, 4.4633527E+002
 4.5002980E+001, 8.7754962E-002, 1.1324905E-001, 9.9763939E-002, 8.3970818E-005, 3.9663626E-008, 6.7144181E-004, 4.5225380E+002
 4.6006452E+001, 8.5970212E-002, 1.1465269E-001, 1.0093295E-001, 8.5040789E-005, 6.0726125E-008, 6.7981265E-004, 4.4519937E+002
 4.7003356E+001, 8.3788921E-002, 1.1636829E-001, 1.0236166E-001, 8.6283088E-005, 2.6317071E-008, 6.9002980E-004, 4.4692416E+002
 4.8003501E+001, 8.1202827E-002, 1.1840136E-001, 1.0405569E-001, 8.8255322E-005, 1.1323116E-006, 7.0224577E-004, 4.5164985E+002
 4.9003940E+001, 7.8723587E-002, 1.2030500E-001, 1.0569118E-001, 1.1614708E-004, 4.8046278E-005, 7.1931969E-004, 4.5635891E+002
 5.0006839E+001, 7.7487979E-002, 1.2130398E-001, 1.0649352E-001, 1.0124063E-004, 2.1067038E-005, 7.2188707E-004, 4.4844875E+002
 5.1009506E+001, 7.3023200E-002, 1.2451940E-001, 1.0948136E-001, 2.6758865E-004, 3.6504661E-004, 7.7652669E-004, 4.6025676E+002
 5.2005844E+001, 7.4440803E-002, 1.2357201E-001, 1.0851679E-001, 1.7402971E-004, 1.7098642E-004, 7.5078882E-004, 4.5250038E+002
 5.3008099E+001, 7.2364582E-002, 1.2515523E-001, 1.0988704E-001, 2.0256186E-004, 2.2998690E-004, 7.6614330E-004, 4.4632907E+002
 5.4001938E+001, 7.0254423E-002, 1.2676203E-001, 1.1128536E-001, 2.3550564E-004, 2.7178758E-004, 7.8258897E-004, 4.5573077E+002
 5.5006970E+001, 6.8579227E-002, 1.2765774E-001, 1.1243818E-001, 4.5186853E-004, 9.0163902E-004, 8.3459999E-004, 4.4836826E+002
 5.6006698E+001, 6.9399684E-002, 1.2720994E-001, 1.1186780E-001, 3.4696903E-004, 6.3472644E-004, 8.0930511E-004, 4.4195115E+002
 5.7003336E+001, 6.8207256E-002, 1.2781823E-001, 1.1268848E-001, 5.1399441E-004, 1.1419821E-003, 8.4897374E-004, 4.3411807E+002
 5.8006111E+001, 6.7230340E-002, 1.2847903E-001, 1.1331548E-001, 5.5556534E-004, 1.4111401E-003, 8.6180126E-004, 4.3930168E+002
 5.9006747E+001, 6.5409668E-002, 1.2950156E-001, 1.1454463E-001, 7.5677099E-004, 2.0919830E-003, 9.1126829E-004, 4.3889925E+002
 6.0004349E+001, 6.5000524E-002, 1.2971867E-001, 1.1485841E-001, 8.2691295E-004, 2.1198138E-003, 9.2770409E-004, 4.2873381E+002
 6.1001876E+001, 6.3764915E-002, 1.3049749E-001, 1.1575999E-001, 9.6053919E-004, 2.1395432E-003, 9.6113333E-004, 4.3619035E+002
 6.2007906E+001, 6.4551041E-002, 1.2999250E-001, 1.1520015E-001, 8.8680562E-004, 2.0908726E-003, 9.4225096E-004, 4.3389581E+002
 6.3004771E+001, 6.3960263E-002, 1.3034215E-001, 1.1563960E-001, 9.6506357E-004, 2.1126156E-003, 9.6121144E-004, 4.2689048E+002
 6.4004858E+001, 6.2016139E-002, 1.3134485E-001, 1.1694250E-001, 1.2144699E-003, 3.0585085E-003, 1.0209936E-003, 4.3040350E+002
 6.5001170E+001, 6.2154829E-002, 1.3114453E-001, 1.1677116E-001, 1.2133996E-003, 3.5662832E-003, 1.0196022E-003, 4.1955629E+002
 6.6007902E+001, 6.2036202E-002, 1.3069124E-001, 1.1679266E-001, 1.4266333E-003, 4.8973118E-003, 1.0631161E-003, 4.1682864E+002
 6.7007294E+001, 6.1435452E-002, 1.3152282E-001, 1.1721367E-001, 1.2821030E-003, 4.0605988E-003, 1.0366630E-003, 4.1499955E+002
 6.8003125E+001, 6.1061618E-002, 1.3149121E-001, 1.1745145E-001, 1.4228919E-003, 4.7475071E-003, 1.0669448E-003, 4.1848845E+002
 6.9005280E+001, 6.0344412E-002, 1.3160053E-001, 1.1799675E-001, 1.6635436E-003, 5.3638774E-003, 1.1196512E-003, 4.1379966E+002
 7.0006613E+001, 6.0438926E-002, 1.3136122E-001, 1.1790564E-001, 1.7215347E-003, 5.8147774E-003, 1.1308127E-003, 4.0870962E+002
 7.1000706E+001, 5.9937173E-002, 1.3164217E-001, 1.1830141E-001, 1.8066891E-003, 5.7751011E-003, 1.1508667E-003, 4.0890306E+002
 7.2009980E+001, 5.9998651E-002, 1.3181341E-001, 1.1829944E-001, 1.7290954E-003, 5.1772272E-003, 1.1350685E-003, 4.1223908E+002
 7.3003586E+001, 5.9197995E-002, 1.3216657E-001, 1.1881825E-001, 1.8491480E-003, 5.7590442E-003, 1.1630944E-003, 4.0857910E+002
 7.4004382E+001, 5.8687382E-002, 1.3229437E-001, 1.1909961E-001, 1.9434006E-003, 6.5258911E-003, 1.1842317E-003, 4.1139731E+002
 7.5010541E+001, 5.9155162E-002, 1.3110469E-001, 1.1854703E-001, 2.1804657E-003, 9.1763622E-003, 1.2286365E-003, 4.0273395E+002
 7.6006695E+001, 5.8434943E-002, 1.3204301E-001, 1.1936610E-001, 2.1948005E-003, 7.0296148E-003, 1.2371718E-003, 4.0823321E+002
 7.7005636E+001, 5.8811292E-002, 1.3161003E-001, 1.1891222E-001, 2.1486145E-003, 8.1393343E-003, 1.2246715E-003, 4.0303799E+002
 7.8007438E+001, 5.8797172E-002, 1.3165205E-001, 1.1896373E-001, 2.1566617E-003, 7.9071250E-003, 1.2266556E-003, 3.9656081E+002
 7.9000193E+001, 5.8237351E-002, 1.3146175E-001, 1.1923476E-001, 2.3870738E-003, 9.5664333E-003, 1.2754125E-003, 3.9707474E+002
 8.0009063E+001, 5.8134805E-002, 1.3157079E-001, 1.1936973E-001, 2.4094253E-003, 9.2367532E-003, 1.2808799E-003, 3.9738966E+002
 8.1003205E+001, 5.7874434E-002, 1.3156089E-001, 1.1954418E-001, 2.5066587E-003, 9.6552411E-003, 1.3018625E-003, 4.0018076E+002
 8.2001311E+001, 5.8018316E-002, 1.3082592E-001, 1.1900819E-001, 2.5548027E-003, 1.2686544E-002, 1.3080280E-003, 3.8878063E+002
 8.3004254E+001, 5.7552403E-002, 1.3162313E-001, 1.1956831E-001, 2.4953973E-003, 1.0791606E-002, 1.2997907E-003, 3.9648634E+002
 8.4002066E+001, 5.7955871E-002, 1.3106011E-001, 1.1912173E-001, 2.5102250E-003, 1.2020562E-002, 1.2997384E-003, 3.8364322E+002
 8.5001516E+001, 5.7621588E-002, 1.3135926E-001, 1.1950560E-001, 2.5791719E-003, 1.1285058E-002, 1.3163888E-003, 3.9188825E+002
 8.6000335E+001, 5.8111276E-002, 1.3051542E-001, 1.1878838E-001, 2.5781625E-003, 1.3804737E-002, 1.3112858E-003, 3.8736717E+002
 8.7001622E+001, 5.7539153E-002, 1.3091331E-001, 1.1931006E-001, 2.6771127E-003, 1.3320024E-002, 1.3350015E-003, 3.9011460E+002
 8.8001298E+001, 5.7650592E-002, 1.3092980E-001, 1.1928057E-001, 2.6533016E-003, 1.2934725E-002, 1.3299437E-003, 3.8835934E+002
 8.9012058E+001, 5.7669955E-002, 1.3078993E-001, 1.1919957E-001, 2.6733601E-003, 1.3461126E-002, 1.3334745E-003, 3.9343478E+002
 9.0003769E+001, 5.7530793E-002, 1.3036459E-001, 1.1915436E-001, 2.8401648E-003, 1.5090210E-002, 1.3671055E-003, 3.9514016E+002
 9.1005681E+001, 5.7492911E-002, 1.3057808E-001, 1.1916635E-001, 2.7522410E-003, 1.4770205E-002, 1.3493181E-003, 3.8963209E+002
 9.2008058E+001, 5.7532063E-002, 1.3039084E-001, 1.1915625E-001, 2.8294936E-003, 1.5024171E-002, 1.3649486E-003, 3.8745860E+002
 9.3011854E+001, 5.7611183E-002, 1.3017492E-001, 1.1909833E-001, 2.8943787E-003, 1.5359453E-002, 1.3777370E-003, 3.7976542E+002
 9.4008860E+001, 5.7012083E-002, 1.3029750E-001, 1.1947551E-001, 3.0412801E-003, 1.6125592E-002, 1.4102358E-003, 3.9122701E+002
 9.5010220E+001, 5.7313570E-002, 1.3038554E-001, 1.1927222E-001, 2.8941163E-003, 1.5491371E-002, 1.3789020E-003, 3.8896187E+002
 9.6007320E+001, 5.7564766E-002, 1.2996566E-001, 1.1902632E-001, 2.9505867E-003, 1.6267698E-002, 1.3886885E-003, 3.8086107E+002
 9.7011857E+001, 5.7233841E-002, 1.3007320E-001, 1.1938108E-001, 3.0893786E-003, 1.6022418E-002, 1.4193419E-003, 3.8694885E+002
 9.8001196E+001, 5.6985203E-002, 1.3010703E-001, 1.1941289E-001, 3.0937645E-003, 1.6875665E-002, 1.4204900E-003, 3.8824166E+002
 9.9009559E+001, 5.6783855E-002, 1.3028451E-001, 1.1973307E-001, 3.1822384E-003, 1.6080891E-002, 1.4406597E-003, 3.8722295E+002
 1.0000583E+002, 5.7155861E-002, 1.2929779E-001, 1.1905506E-001, 3.2660838E-003, 1.9228754E-002, 1.4530906E-003, 3.9156475E+002
 1.0100585E+002, 5.7314143E-002, 1.2942981E-001, 1.1885426E-001, 3.1024496E-003, 1.9100035E-002, 1.4184498E-003, 3.8725776E+002
 1.0200258E+002, 5.7264343E-002, 1.2947615E-001, 1.1897828E-001, 3.1463039E-003, 1.8718531E-002, 1.4282061E-003, 3.8064470E+002
 1.0300137E+002, 5.7423248E-002, 1.2952984E-001, 1.1884904E-001, 3.0541459E-003, 1.8458229E-002, 1.4085761E-003, 3.7739400E+002
 1.0401281E+002, 5.6932149E-002, 1.2936944E-001, 1.1898915E-001, 3.2031687E-003, 2.0292712E-002, 1.4398966E-003, 3.8620811E+002
 1.0500543E+002, 5.6914029E-002, 1.2937880E-001, 1.1910516E-001, 3.2588959E-003, 1.9884447E-002, 1.4520073E-003, 3.8090109E+002
 1.0600353E+002, 5.7220170E-002, 1.2937467E-001, 1.1885573E-001, 3.1287643E-003, 1.9602247E-002, 1.4238256E-003, 3.8165341E+002
 1.0701089E+002, 5.7128557E-002, 1.2908029E-001, 1.1877582E-001, 3.2191494E-003, 2.0905138E-002, 1.4416798E-003, 3.7938715E+002
 1.0800421E+002, 5.6999885E-002, 1.2934677E-001, 1.1899397E-001, 3.2148648E-003, 2.0033358E-002, 1.4422950E-003, 3.8069513E+002
 1.0900301E+002, 5.7424480E-002, 1.2896086E-001, 1.1843891E-001, 3.0952247E-003, 2.1250540E-002, 1.4141746E-003, 3.8267509E+002
 1.1000100E+002, 5.7216471E-002, 1.2862624E-001, 1.1841655E-001, 3.2344343E-003, 2.2894929E-002, 1.4423610E-003, 3.8399643E+002
 1.1101047E+002, 5.7016062E-002, 1.2896624E-001, 1.1871464E-001, 3.2395606E-003, 2.1856256E-002, 1.4454381E-003, 3.7900751E+002
 1.1200632E+002, 5.6828319E-002, 1.2886392E-001, 1.1883564E-001, 3.3493598E-003, 2.2369692E-002, 1.4686041E-003, 3.8035882E+002
 1.1300376E+002, 5.7249320E-002, 1.2868378E-001, 1.1851464E-001, 3.2589912E-003, 2.2246076E-002, 1.4480058E-003, 3.7548588E+002
 1.1400042E+002, 5.6817422E-002, 1.2863960E-001, 1.1880679E-001, 3.4340043E-003, 2.2985148E-002, 1.4856201E-003, 3.8590015E+002
 1.1500824E+002, 5.6983282E-002, 1.2889282E-001, 1.1877182E-001, 3.3018754E-003, 2.1913485E-002, 1.4584958E-003, 3.7481779E+002
 1.1600493E+002, 5.6623398E-002, 1.2868121E-001, 1.1898886E-001, 3.5115441E-003, 2.2988835E-002, 1.5026388E-003, 3.8439005E+002
 1.1700873E+002, 5.6886329E-002, 1.2859366E-001, 1.1865835E-001, 3.3771880E-003, 2.3383320E-002, 1.4730616E-003, 3.8115721E+002
 1.1800520E+002, 5.7290031E-002, 1.2758469E-001, 1.1814649E-001, 3.5559464E-003, 2.5775226E-002, 1.5058973E-003, 3.7678777E+002
 1.1900104E+002, 5.7258762E-002, 1.2823346E-001, 1.1839239E-001, 3.3954493E-003, 2.3607770E-002, 1.4749249E-003, 3.7301063E+002
 1.2001039E+002, 5.6749909E-002, 1.2842679E-001, 1.1883809E-001, 3.5451639E-003, 2.3574783E-002, 1.5084399E-003, 3.8068357E+002
 1.2100948E+002, 5.6729844E-002, 1.2844673E-001, 1.1866948E-001, 3.4498721E-003, 2.4296229E-002, 1.4879395E-003, 3.8185352E+002
 1.2200517E+002, 5.6954383E-002, 1.2802761E-001, 1.1830453E-001, 3.4451122E-003, 2.5661568E-002, 1.4844839E-003, 3.7425997E+002
 1.2300853E+002, 5.6585354E-002, 1.2846730E-001, 1.1881610E-001, 3.5179038E-003, 2.4275701E-002, 1.5027789E-003, 3.7387102E+002
 1.2400368E+002, 5.6598244E-002, 1.2827503E-001, 1.1868555E-001, 3.5357693E-003, 2.5134337E-002, 1.5055325E-003, 3.7922012E+002
 1.2500854E+002, 5.6772208E-002, 1.2815866E-001, 1.1853347E-001, 3.5069978E-003, 2.5246117E-002, 1.4986327E-003, 3.8066349E+002
 1.2600933E+002, 5.6623495E-002, 1.2815346E-001, 1.1872671E-001, 3.6104640E-003, 2.5108354E-002, 1.5209893E-003, 3.8254854E+002
 1.2700405E+002, 5.6804141E-002, 1.2789970E-001, 1.1845947E-001, 3.5832443E-003, 2.5932177E-002, 1.5136311E-003, 3.7875187E+002
 1.2800050E+002, 5.6269608E-002, 1.2866544E-001, 1.1896121E-001, 3.5085877E-003, 2.4624959E-002, 1.5019133E-003, 3.8842206E+002
 1.2901060E+002, 5.6158043E-002, 1.2832370E-001, 1.1901450E-001, 3.6886794E-003, 2.5572955E-002, 1.5389017E-003, 3.8025800E+002
 1.3000401E+002, 5.5905180E-002, 1.2862801E-001, 1.1919542E-001, 3.6500013E-003, 2.5298276E-002, 1.5322965E-003, 3.8902808E+002
 1.3100526E+002, 5.6393904E-002, 1.2791740E-001, 1.1854504E-001, 3.6243692E-003, 2.7284228E-002, 1.5226366E-003, 3.8825203E+002
 1.3200332E+002, 5.6476652E-002, 1.2784592E-001, 1.1863771E-001, 3.7026773E-003, 2.6707412E-002, 1.5391638E-003, 3.7667838E+002
 1.3300813E+002, 5.6630961E-002, 1.2751333E-001, 1.1836902E-001, 3.7099388E-003, 2.7807668E-002, 1.5388102E-003, 3.8305347E+002
 1.3400190E+002, 5.6157572E-002, 1.2811020E-001, 1.1893834E-001, 3.7440798E-003, 2.6312497E-002, 1.5496533E-003, 3.7910530E+002
 1.3500109E+002, 5.6500325E-002, 1.2763915E-001, 1.1823975E-001, 3.5893284E-003, 2.8623660E-002, 1.5134458E-003, 3.8269497E+002
 1.3600868E+002, 5.6204263E-002, 1.2761080E-001, 1.1870635E-001, 3.8453925E-003, 2.8056926E-002, 1.5686846E-003, 3.7689475E+002
 1.3700446E+002, 5.6208680E-002, 1.2796818E-001, 1.1863188E-001, 3.6487763E-003, 2.7614582E-002, 1.5282132E-003, 3.7992954E+002
 1.3800442E+002, 5.6196321E-002, 1.2773480E-001, 1.1878467E-001, 3.8308393E-003, 2.7525209E-002, 1.5662530E-003, 3.7582244E+002
 1.3901029E+002, 5.5687566E-002, 1.2805655E-001, 1.1914486E-001, 3.8797148E-003, 2.7575472E-002, 1.5786941E-003, 3.8223215E+002
 1.4001135E+002, 5.6201436E-002, 1.2754906E-001, 1.1869199E-001, 3.8653841E-003, 2.8251390E-002, 1.5726529E-003, 3.8591041E+002
 1.4100312E+002, 5.6265411E-002, 1.2770617E-001, 1.1854812E-001, 3.7210509E-003, 2.8241356E-002, 1.5423342E-003, 3.8305665E+002
 1.4200483E+002, 5.5886510E-002, 1.2751565E-001, 1.1878075E-001, 3.9296232E-003, 2.9291734E-002, 1.5863623E-003, 3.8507234E+002
 1.4300149E+002, 5.6343002E-002, 1.2694137E-001, 1.1824477E-001, 3.9028338E-003, 3.0678627E-002, 1.5772405E-003, 3.8508575E+002
 1.4400621E+002, 5.6156817E-002, 1.2784812E-001, 1.1871870E-001, 3.7472118E-003, 2.7727664E-002, 1.5488161E-003, 3.8546139E+002
 1.4501087E+002, 5.6206870E-002, 1.2777022E-001, 1.1861665E-001, 3.7286303E-003, 2.8083718E-002, 1.5443451E-003, 3.7504102E+002
 1.4601196E+002, 5.6401042E-002, 1.2735049E-001, 1.1823520E-001, 3.7160257E-003, 2.9644706E-002, 1.5391893E-003, 3.8133512E+002
 1.4700560E+002, 5.6007997E-002, 1.2702423E-001, 1.1869364E-001, 4.1009997E-003, 3.0122572E-002, 1.6205966E-003, 3.8475232E+002
 1.4800811E+002, 5.6397487E-002, 1.2727115E-001, 1.1843587E-001, 3.8543887E-003, 2.9014385E-002, 1.5686649E-003, 3.7885717E+002
 1.4900442E+002, 5.5649075E-002, 1.2758194E-001, 1.1902068E-001, 4.0265129E-003, 2.9196380E-002, 1.6077106E-003, 3.8616197E+002
 1.5000694E+002, 5.6723881E-002, 1.2692955E-001, 1.1800550E-001, 3.7804270E-003, 3.0055764E-002, 1.5506844E-003, 3.7977082E+002
 1.5100334E+002, 5.5765203E-002, 1.2727562E-001, 1.1873756E-001, 4.0151874E-003, 3.0462534E-002, 1.6034881E-003, 3.8740311E+002
 1.5201113E+002, 5.6234487E-002, 1.2739451E-001, 1.1853679E-001, 3.8536229E-003, 2.9047627E-002, 1.5692147E-003, 3.7369120E+002
 1.5300673E+002, 5.6351369E-002, 1.2690577E-001, 1.1816004E-001, 3.8749287E-003, 3.1055539E-002, 1.5709974E-003, 3.8348530E+002
 1.5400378E+002, 5.6230250E-002, 1.2743753E-001, 1.1839871E-001, 3.7636172E-003, 2.9532983E-002, 1.5499911E-003, 3.8197684E+002
