s,,,,,,,
Time,"O2 EXHAUST","CO2 EXHAUST","H2O EXHAUST","CO EXHAUST","FUEL EXHAUST","SOOT EXHAUST","TEMP EXHAUST"
 0.0000000E+000, 2.3099739E-001, 5.9146498E-004, 5.9412091E-003, 0.0000000E+000, 0.0000000E+000, 0.0000000E+000, 2.0000000E+001
 1.0004998E+000, 2.3099739E-001, 5.9146498E-004, 5.9412091E-003, 2.1287467E-029, 2.3358726E-028, 5.6879899E-030, 2.0525552E+001
 2.0005394E+000, 2.2198294E-001, 7.8691332E-003, 1.0513123E-002, 4.3452643E-005, 3.0191429E-004, 3.9543250E-005, 1.0685622E+002
 3.0027761E+000, 2.1671872E-001, 1.2135374E-002, 1.3202626E-002, 7.5019382E-005, 3.4729911E-004, 6.4042206E-005, 1.5346299E+002
 4.0020124E+000, 2.0946714E-001, 1.8034566E-002, 1.6893144E-002, 9.8790374E-005, 4.3670291E-004, 9.3617426E-005, 2.1695182E+002
 5.0038421E+000, 2.0432170E-001, 2.2246804E-002, 1.9512904E-002, 1.0470146E-004, 4.4156082E-004, 1.1234154E-004, 2.5651678E+002
 6.0056876E+000, 1.9585752E-001, 2.9191866E-002, 2.3824281E-002, 1.0863584E-004, 4.0788783E-004, 1.4195593E-004, 3.1597808E+002
 7.0031669E+000, 1.8928097E-001, 3.4629245E-002, 2.7169449E-002, 9.0206012E-005, 3.2262619E-004, 1.6048716E-004, 3.5874188E+002
 8.0047057E+000, 1.8137571E-001, 4.1171698E-002, 3.1193542E-002, 6.7261800E-005, 1.9162489E-004, 1.8261819E-004, 3.9512761E+002
 9.0027064E+000, 1.7057650E-001, 5.0099331E-002, 3.6687567E-002, 3.8110831E-005, 4.8585569E-005, 2.1328455E-004, 4.4222383E+002
 1.0005861E+001, 1.6348993E-001, 5.5930323E-002, 4.0293223E-002, 3.1433146E-005, 7.7416708E-006, 2.3598885E-004, 4.6015490E+002
 1.1007813E+001, 1.5303195E-001, 6.4507650E-002, 4.5614789E-002, 3.4251604E-005, 5.2636645E-007, 2.7212193E-004, 4.8474736E+002
 1.2004040E+001, 1.4660381E-001, 6.9777709E-002, 4.8885791E-002, 3.6940153E-005, 1.6937252E-007, 2.9452977E-004, 4.9204013E+002
 1.3004704E+001, 1.3860956E-001, 7.6331527E-002, 5.2953726E-002, 4.0380362E-005, 1.1622637E-007, 3.2241698E-004, 5.0419868E+002
 1.4006993E+001, 1.3275534E-001, 8.1129883E-002, 5.5932904E-002, 4.3502407E-005, 1.0742960E-006, 3.4296504E-004, 5.0374482E+002
 1.5001107E+001, 1.2502003E-001, 8.7472208E-002, 5.9868921E-002, 4.6374095E-005, 2.2514089E-007, 3.6985333E-004, 5.1343958E+002
 1.6008508E+001, 1.1815713E-001, 9.3098078E-002, 6.3361260E-002, 4.9594297E-005, 6.0244379E-007, 3.9384980E-004, 5.1986507E+002
 1.7001854E+001, 1.1224163E-001, 9.7947839E-002, 6.6371377E-002, 5.2059063E-005, 4.2758538E-007, 4.1446854E-004, 5.2173804E+002
 1.8002997E+001, 1.0585509E-001, 1.0318348E-001, 6.9621219E-002, 5.4876947E-005, 6.7848615E-007, 4.3676181E-004, 5.2944505E+002
 1.9004047E+001, 1.0205563E-001, 1.0629837E-001, 7.1554632E-002, 5.6515869E-005, 4.6022632E-007, 4.5001685E-004, 5.2604621E+002
 2.0004005E+001, 9.6722801E-002, 1.1064362E-001, 7.4272157E-002, 7.3301247E-005, 3.4622038E-005, 4.7164478E-004, 5.2819425E+002
 2.1000233E+001, 9.2973026E-002, 1.1366447E-001, 7.6189840E-002, 1.0510622E-004, 9.3648825E-005, 4.9103747E-004, 5.2373500E+002
 2.2006158E+001, 8.9296755E-002, 1.1670772E-001, 7.8053802E-002, 8.9045455E-005, 6.8338789E-005, 5.0016607E-004, 5.2241841E+002
 2.3000666E+001, 8.5456291E-002, 1.1967199E-001, 8.0032364E-002, 1.8905351E-004, 3.1656783E-004, 5.3408197E-004, 5.2337338E+002
 2.4003769E+001, 8.3577635E-002, 1.2112099E-001, 8.1001443E-002, 2.3927383E-004, 4.3401398E-004, 5.5094944E-004, 5.1926427E+002
 2.5006032E+001, 8.0961212E-002, 1.2299628E-001, 8.2362473E-002, 3.8033500E-004, 8.2728959E-004, 5.8923828E-004, 5.1297902E+002
 2.6000050E+001, 7.7353666E-002, 1.2540620E-001, 8.4238699E-002, 6.5256226E-004, 1.7244224E-003, 6.5812283E-004, 5.1268068E+002
 2.7007649E+001, 7.6247606E-002, 1.2625935E-001, 8.4814153E-002, 6.8545881E-004, 1.7688826E-003, 6.6877409E-004, 5.0551438E+002
 2.8008717E+001, 7.4003702E-002, 1.2752361E-001, 8.6013835E-002, 9.8126342E-004, 2.6347991E-003, 7.3801520E-004, 4.9962351E+002
 2.9004934E+001, 7.3971565E-002, 1.2746723E-001, 8.6005990E-002, 1.0014521E-003, 2.9221792E-003, 7.4215058E-004, 4.9618823E+002
 3.0003439E+001, 7.2627531E-002, 1.2821330E-001, 8.6725914E-002, 1.1845135E-003, 3.4565413E-003, 7.8485062E-004, 4.8506816E+002
 3.1001600E+001, 7.1364027E-002, 1.2903167E-001, 8.7367830E-002, 1.2808596E-003, 3.8985281E-003, 8.0908731E-004, 4.8456217E+002
 3.2001125E+001, 6.9570961E-002, 1.2986696E-001, 8.8302693E-002, 1.5786143E-003, 5.0610230E-003, 8.7697449E-004, 4.8221581E+002
 3.3003472E+001, 6.9643681E-002, 1.2967317E-001, 8.8306312E-002, 1.6658828E-003, 5.1270836E-003, 8.9505430E-004, 4.7815463E+002
 3.4006985E+001, 6.8977619E-002, 1.2985039E-001, 8.8592837E-002, 1.7940211E-003, 6.1304053E-003, 9.2351589E-004, 4.7219302E+002
 3.5002957E+001, 6.8414211E-002, 1.3008815E-001, 8.8928670E-002, 1.9273047E-003, 6.3345351E-003, 9.5333953E-004, 4.6566357E+002
 3.6009840E+001, 6.8102633E-002, 1.3000294E-001, 8.9103595E-002, 2.0897919E-003, 6.9367927E-003, 9.8814532E-004, 4.5935199E+002
 3.7008596E+001, 6.7643960E-002, 1.2990549E-001, 8.9286752E-002, 2.2657533E-003, 8.1394763E-003, 1.0258173E-003, 4.5634584E+002
 3.8004575E+001, 6.7258178E-002, 1.2975785E-001, 8.9517672E-002, 2.4954316E-003, 8.8979992E-003, 1.0749030E-003, 4.5258303E+002
 3.9002536E+001, 6.7303665E-002, 1.2946621E-001, 8.9493066E-002, 2.6072823E-003, 9.4162319E-003, 1.0978975E-003, 4.4622349E+002
 4.0005460E+001, 6.6257903E-002, 1.2977636E-001, 8.9956979E-002, 2.8039076E-003, 1.0857051E-002, 1.1417292E-003, 4.4595524E+002
 4.1000786E+001, 6.6035378E-002, 1.2989935E-001, 9.0057701E-002, 2.8218291E-003, 1.1039108E-002, 1.1461166E-003, 4.4335821E+002
 4.2009397E+001, 6.6066646E-002, 1.2966978E-001, 9.0019153E-002, 2.8968378E-003, 1.1562113E-002, 1.1613967E-003, 4.3887310E+002
 4.3004782E+001, 6.5740751E-002, 1.2944749E-001, 9.0128576E-002, 3.0756214E-003, 1.2827809E-002, 1.1991625E-003, 4.3520474E+002
 4.4010026E+001, 6.5253541E-002, 1.2956179E-001, 9.0397539E-002, 3.2167354E-003, 1.3295163E-002, 1.2301697E-003, 4.2904597E+002
 4.5000804E+001, 6.5366492E-002, 1.2941617E-001, 9.0289201E-002, 3.2054544E-003, 1.3656389E-002, 1.2271266E-003, 4.2729005E+002
 4.6011311E+001, 6.5620484E-002, 1.2888967E-001, 9.0097581E-002, 3.3039452E-003, 1.4608069E-002, 1.2462588E-003, 4.2503693E+002
 4.7004554E+001, 6.5098615E-002, 1.2901627E-001, 9.0300965E-002, 3.3953500E-003, 1.5524522E-002, 1.2665626E-003, 4.2161231E+002
 4.8004000E+001, 6.5215889E-002, 1.2871617E-001, 9.0229806E-002, 3.4779585E-003, 1.5991734E-002, 1.2831948E-003, 4.1451352E+002
 4.9004374E+001, 6.5059325E-002, 1.2846960E-001, 9.0233569E-002, 3.5925157E-003, 1.7124967E-002, 1.3069630E-003, 4.1257724E+002
 5.0009028E+001, 6.5007383E-002, 1.2833136E-001, 9.0216193E-002, 3.6428374E-003, 1.7707567E-002, 1.3172800E-003, 4.1460210E+002
 5.1000003E+001, 6.5211331E-002, 1.2811595E-001, 9.0091940E-002, 3.6501528E-003, 1.7906944E-002, 1.3179712E-003, 4.1014111E+002
 5.2003014E+001, 6.5020645E-002, 1.2797115E-001, 9.0119944E-002, 3.7366824E-003, 1.8857519E-002, 1.3360961E-003, 4.0664599E+002
 5.3004368E+001, 6.5219412E-002, 1.2764679E-001, 8.9949692E-002, 3.7609893E-003, 1.9527833E-002, 1.3400137E-003, 4.0780899E+002
 5.4009978E+001, 6.5292412E-002, 1.2746829E-001, 8.9798595E-002, 3.7357289E-003, 2.0336822E-002, 1.3338109E-003, 4.0119905E+002
 5.5003556E+001, 6.5367762E-002, 1.2706210E-001, 8.9655764E-002, 3.8171184E-003, 2.1551942E-002, 1.3497417E-003, 4.0221200E+002
 5.6001611E+001, 6.5703240E-002, 1.2658341E-001, 8.9367938E-002, 3.8273009E-003, 2.2547526E-002, 1.3499649E-003, 3.9723109E+002
 5.7008790E+001, 6.5647249E-002, 1.2641990E-001, 8.9315248E-002, 3.8647696E-003, 2.3374737E-002, 1.3573968E-003, 3.9936294E+002
 5.8004956E+001, 6.5940206E-002, 1.2622349E-001, 8.9139689E-002, 3.8271240E-003, 2.3419476E-002, 1.3484381E-003, 3.9079472E+002
 5.9008278E+001, 6.5999076E-002, 1.2597868E-001, 8.8998498E-002, 3.8382898E-003, 2.4371336E-002, 1.3498425E-003, 3.8795566E+002
 6.0002048E+001, 6.6904175E-002, 1.2496141E-001, 8.8211076E-002, 3.7366572E-003, 2.6561134E-002, 1.3236446E-003, 3.8846121E+002
 6.1008848E+001, 6.6723374E-002, 1.2512297E-001, 8.8346254E-002, 3.7603266E-003, 2.6318129E-002, 1.3294344E-003, 3.8489361E+002
 6.2010683E+001, 6.7211194E-002, 1.2461649E-001, 8.8050690E-002, 3.7750470E-003, 2.6769198E-002, 1.3305230E-003, 3.8699706E+002
 6.3010810E+001, 6.7900276E-002, 1.2400443E-001, 8.7592852E-002, 3.7224092E-003, 2.7400713E-002, 1.3166005E-003, 3.8099428E+002
 6.4005350E+001, 6.8319565E-002, 1.2338692E-001, 8.7177969E-002, 3.7059808E-003, 2.8959874E-002, 1.3104923E-003, 3.8020433E+002
 6.5012761E+001, 6.8532188E-002, 1.2319614E-001, 8.7048991E-002, 3.6989959E-003, 2.9097044E-002, 1.3081911E-003, 3.7063376E+002
 6.6004891E+001, 6.9215984E-002, 1.2247903E-001, 8.6513410E-002, 3.6399235E-003, 3.0351076E-002, 1.2924429E-003, 3.7356816E+002
 6.7000161E+001, 6.9371184E-002, 1.2221619E-001, 8.6280117E-002, 3.5945611E-003, 3.1396276E-002, 1.2815418E-003, 3.7801478E+002
 6.8004775E+001, 6.9526428E-002, 1.2211447E-001, 8.6241856E-002, 3.6109994E-003, 3.1140959E-002, 1.2846767E-003, 3.7003559E+002
 6.9003958E+001, 7.0538701E-002, 1.2120112E-001, 8.5461519E-002, 3.4663273E-003, 3.2636903E-002, 1.2495951E-003, 3.6877950E+002
 7.0005981E+001, 7.0338305E-002, 1.2132775E-001, 8.5526677E-002, 3.4579627E-003, 3.2896918E-002, 1.2483103E-003, 3.7031951E+002
 7.1002074E+001, 7.1133995E-002, 1.2064929E-001, 8.4975501E-002, 3.3692429E-003, 3.3682005E-002, 1.2263062E-003, 3.6929282E+002
 7.2003500E+001, 7.2002796E-002, 1.1979370E-001, 8.4368770E-002, 3.3199523E-003, 3.4794412E-002, 1.2121005E-003, 3.6260673E+002
 7.3007427E+001, 7.2048163E-002, 1.1962500E-001, 8.4312817E-002, 3.3558276E-003, 3.5223182E-002, 1.2191651E-003, 3.6208201E+002
 7.4000232E+001, 7.2490394E-002, 1.1906395E-001, 8.3923540E-002, 3.3314694E-003, 3.6444447E-002, 1.2115742E-003, 3.6407886E+002
 7.5008789E+001, 7.2920330E-002, 1.1875690E-001, 8.3701550E-002, 3.3089339E-003, 3.6369309E-002, 1.2054263E-003, 3.5505749E+002
 7.6007774E+001, 7.3119310E-002, 1.1831565E-001, 8.3439104E-002, 3.3220936E-003, 3.7735221E-002, 1.2064496E-003, 3.5281403E+002
 7.7012039E+001, 7.3335737E-002, 1.1830476E-001, 8.3367972E-002, 3.2747558E-003, 3.7205400E-002, 1.1961607E-003, 3.5669882E+002
 7.8012113E+001, 7.3978092E-002, 1.1749013E-001, 8.2811523E-002, 3.2453748E-003, 3.8933670E-002, 1.1864340E-003, 3.6111024E+002
 7.9010009E+001, 7.3996587E-002, 1.1744355E-001, 8.2774911E-002, 3.2407196E-003, 3.9133003E-002, 1.1852343E-003, 3.4924442E+002
 8.0008412E+001, 7.4478097E-002, 1.1701105E-001, 8.2470661E-002, 3.2167833E-003, 3.9505458E-002, 1.1782650E-003, 3.5186961E+002
 8.1001969E+001, 7.4822836E-002, 1.1654621E-001, 8.2105599E-002, 3.1678837E-003, 4.0821182E-002, 1.1657627E-003, 3.5067581E+002
 8.2003526E+001, 7.4898084E-002, 1.1648756E-001, 8.2073540E-002, 3.1707624E-003, 4.0783871E-002, 1.1661425E-003, 3.4663498E+002
 8.3002594E+001, 7.5160304E-002, 1.1618593E-001, 8.1897394E-002, 3.1799127E-003, 4.1171854E-002, 1.1668741E-003, 3.4284287E+002
 8.4008645E+001, 7.5004078E-002, 1.1596146E-001, 8.1858350E-002, 3.2554036E-003, 4.2473665E-002, 1.1822816E-003, 3.4527684E+002
 8.5004037E+001, 7.5451977E-002, 1.1565902E-001, 8.1582755E-002, 3.1938889E-003, 4.2582356E-002, 1.1677194E-003, 3.4323560E+002
 8.6000633E+001, 7.5709813E-002, 1.1543562E-001, 8.1385030E-002, 3.1536490E-003, 4.2939656E-002, 1.1580884E-003, 3.3965269E+002
 8.7011683E+001, 7.5800972E-002, 1.1534177E-001, 8.1308836E-002, 3.1417221E-003, 4.3127338E-002, 1.1551195E-003, 3.4197043E+002
 8.8012967E+001, 7.6655262E-002, 1.1433975E-001, 8.0586784E-002, 3.0788305E-003, 4.5172265E-002, 1.1373669E-003, 3.3890327E+002
 8.9012247E+001, 7.6246190E-002, 1.1463011E-001, 8.0887832E-002, 3.1624622E-003, 4.4797481E-002, 1.1566638E-003, 3.4101499E+002
 9.0008020E+001, 7.6883478E-002, 1.1382967E-001, 8.0366619E-002, 3.1509500E-003, 4.6342045E-002, 1.1508617E-003, 3.4348112E+002
 9.1011165E+001, 7.6957300E-002, 1.1380078E-001, 8.0289377E-002, 3.1097693E-003, 4.6477229E-002, 1.1418321E-003, 3.4112653E+002
 9.2009056E+001, 7.6774400E-002, 1.1397106E-001, 8.0406406E-002, 3.1171975E-003, 4.6316389E-002, 1.1441442E-003, 3.3851432E+002
 9.3002534E+001, 7.7095449E-002, 1.1347218E-001, 8.0098944E-002, 3.1231608E-003, 4.7511425E-002, 1.1433712E-003, 3.3686162E+002
 9.4003687E+001, 7.7246531E-002, 1.1344072E-001, 8.0018067E-002, 3.0793581E-003, 4.7345825E-002, 1.1337630E-003, 3.3893108E+002
 9.5003497E+001, 7.7399471E-002, 1.1308464E-001, 7.9831702E-002, 3.1074855E-003, 4.8352813E-002, 1.1383766E-003, 3.3970319E+002
 9.6006343E+001, 7.7611690E-002, 1.1285843E-001, 7.9589233E-002, 3.0386606E-003, 4.9131196E-002, 1.1225501E-003, 3.3783702E+002
 9.7007559E+001, 7.7637337E-002, 1.1286119E-001, 7.9570020E-002, 3.0238806E-003, 4.9114264E-002, 1.1193635E-003, 3.3747627E+002
 9.8012320E+001, 7.7547174E-002, 1.1289378E-001, 7.9585313E-002, 3.0213555E-003, 4.9350467E-002, 1.1189527E-003, 3.3797318E+002
 9.9004805E+001, 7.7853519E-002, 1.1250576E-001, 7.9303636E-002, 2.9959869E-003, 5.0255354E-002, 1.1118590E-003, 3.3401405E+002
 1.0000005E+002, 7.7786067E-002, 1.1229548E-001, 7.9168615E-002, 2.9981296E-003, 5.1636901E-002, 1.1114551E-003, 3.4310100E+002
 1.0100741E+002, 7.8445676E-002, 1.1165156E-001, 7.8737995E-002, 2.9787137E-003, 5.2319748E-002, 1.1045889E-003, 3.3852779E+002
 1.0200291E+002, 7.8648208E-002, 1.1148195E-001, 7.8610609E-002, 2.9635841E-003, 5.2448741E-002, 1.1006132E-003, 3.3319234E+002
 1.0300198E+002, 7.8451420E-002, 1.1140522E-001, 7.8635745E-002, 3.0180478E-003, 5.3302535E-002, 1.1120818E-003, 3.3713434E+002
 1.0401050E+002, 7.8478384E-002, 1.1119872E-001, 7.8565366E-002, 3.0611348E-003, 5.3956665E-002, 1.1205509E-003, 3.4083701E+002
 1.0500579E+002, 7.8623095E-002, 1.1113229E-001, 7.8438404E-002, 3.0014650E-003, 5.4118861E-002, 1.1073654E-003, 3.3997363E+002
 1.0600716E+002, 7.8593937E-002, 1.1124030E-001, 7.8491451E-002, 2.9902671E-003, 5.3758550E-002, 1.1053890E-003, 3.3715750E+002
 1.0701208E+002, 7.8867599E-002, 1.1086713E-001, 7.8175855E-002, 2.9356663E-003, 5.4940591E-002, 1.0920325E-003, 3.3205600E+002
 1.0801064E+002, 7.8731040E-002, 1.1104125E-001, 7.8357228E-002, 2.9846087E-003, 5.4255420E-002, 1.1033416E-003, 3.3246611E+002
 1.0901101E+002, 7.8707689E-002, 1.1075424E-001, 7.8232424E-002, 3.0270543E-003, 5.5554907E-002, 1.1113400E-003, 3.4110121E+002
 1.1001073E+002, 7.8792893E-002, 1.1060453E-001, 7.8114461E-002, 3.0114631E-003, 5.6088939E-002, 1.1073479E-003, 3.3168359E+002
 1.1100012E+002, 7.8855158E-002, 1.1039613E-001, 7.8049554E-002, 3.0585539E-003, 5.6571398E-002, 1.1166749E-003, 3.3577518E+002
 1.1200763E+002, 7.8931566E-002, 1.1017945E-001, 7.7982635E-002, 3.1077153E-003, 5.7021239E-002, 1.1264156E-003, 3.3683864E+002
 1.1301198E+002, 7.8734640E-002, 1.1019363E-001, 7.8057833E-002, 3.1560562E-003, 5.7442301E-002, 1.1369349E-003, 3.4262325E+002
 1.1400223E+002, 7.9071168E-002, 1.0988856E-001, 7.7808685E-002, 3.1156165E-003, 5.7891047E-002, 1.1269226E-003, 3.3657209E+002
 1.1500096E+002, 7.8881721E-002, 1.1018839E-001, 7.7951552E-002, 3.0833219E-003, 5.7368043E-002, 1.1211756E-003, 3.3394679E+002
 1.1601077E+002, 7.9085163E-002, 1.0981340E-001, 7.7666372E-002, 3.0514741E-003, 5.8696011E-002, 1.1127349E-003, 3.3726178E+002
 1.1700247E+002, 7.9553767E-002, 1.0926607E-001, 7.7399145E-002, 3.1040074E-003, 5.9167850E-002, 1.1218358E-003, 3.3324633E+002
 1.1800119E+002, 7.9143615E-002, 1.0966741E-001, 7.7662777E-002, 3.1128352E-003, 5.8762039E-002, 1.1254071E-003, 3.3277682E+002
 1.1900492E+002, 7.9300371E-002, 1.0929626E-001, 7.7595059E-002, 3.2286742E-003, 5.9189107E-002, 1.1489350E-003, 3.3341702E+002
 1.2000861E+002, 7.9132196E-002, 1.0937220E-001, 7.7658531E-002, 3.2411196E-003, 5.9424202E-002, 1.1519429E-003, 3.3948248E+002
 1.2100624E+002, 7.9341037E-002, 1.0905453E-001, 7.7430602E-002, 3.2228754E-003, 6.0327667E-002, 1.1466819E-003, 3.3449230E+002
 1.2201375E+002, 7.9187457E-002, 1.0929381E-001, 7.7546555E-002, 3.1984671E-003, 5.9910614E-002, 1.1423907E-003, 3.3335198E+002
 1.2300449E+002, 7.9451509E-002, 1.0889587E-001, 7.7279779E-002, 3.1883817E-003, 6.0938233E-002, 1.1385630E-003, 3.3625304E+002
 1.2400364E+002, 7.9274030E-002, 1.0898830E-001, 7.7411856E-002, 3.2405527E-003, 6.0835679E-002, 1.1502337E-003, 3.3626906E+002
 1.2500246E+002, 7.9553734E-002, 1.0844321E-001, 7.7129941E-002, 3.2851620E-003, 6.2169050E-002, 1.1576315E-003, 3.3288128E+002
 1.2601569E+002, 7.9485260E-002, 1.0850234E-001, 7.7218807E-002, 3.3207832E-003, 6.1892487E-002, 1.1655831E-003, 3.3761433E+002
 1.2700551E+002, 7.9414876E-002, 1.0837562E-001, 7.7173346E-002, 3.3471007E-003, 6.2669961E-002, 1.1707545E-003, 3.3631308E+002
 1.2801298E+002, 7.9421960E-002, 1.0857143E-001, 7.7188360E-002, 3.2703569E-003, 6.2171729E-002, 1.1549592E-003, 3.3206886E+002
 1.2900656E+002, 7.9287722E-002, 1.0826537E-001, 7.7285096E-002, 3.4744922E-003, 6.2865217E-002, 1.1978619E-003, 3.3880467E+002
 1.3000817E+002, 7.9745573E-002, 1.0783171E-001, 7.6896380E-002, 3.3937313E-003, 6.3762251E-002, 1.1785939E-003, 3.3135033E+002
 1.3100891E+002, 7.9369011E-002, 1.0820997E-001, 7.7277448E-002, 3.4925103E-003, 6.2673777E-002, 1.2015306E-003, 3.4001579E+002
 1.3201273E+002, 7.9418938E-002, 1.0794074E-001, 7.7109597E-002, 3.4964438E-003, 6.3845732E-002, 1.2012695E-003, 3.3592365E+002
 1.3301246E+002, 7.9354592E-002, 1.0798278E-001, 7.7085826E-002, 3.4625995E-003, 6.4150266E-002, 1.1941215E-003, 3.3274209E+002
 1.3400863E+002, 7.9294294E-002, 1.0776171E-001, 7.7200332E-002, 3.6399491E-003, 6.4273850E-002, 1.2315792E-003, 3.3468950E+002
 1.3501322E+002, 7.9243266E-002, 1.0801423E-001, 7.7211306E-002, 3.5362294E-003, 6.3925703E-002, 1.2101825E-003, 3.3251119E+002
 1.3601069E+002, 7.9353036E-002, 1.0761409E-001, 7.7075564E-002, 3.6192137E-003, 6.4948769E-002, 1.2264830E-003, 3.3251435E+002
 1.3700081E+002, 7.9633627E-002, 1.0706135E-001, 7.6936672E-002, 3.7649519E-003, 6.5577527E-002, 1.2557286E-003, 3.3272717E+002
 1.3800640E+002, 7.9745147E-002, 1.0701365E-001, 7.6758541E-002, 3.6625424E-003, 6.6097582E-002, 1.2333741E-003, 3.3107931E+002
 1.3900142E+002, 7.9272055E-002, 1.0737458E-001, 7.7124949E-002, 3.7605779E-003, 6.5522277E-002, 1.2560794E-003, 3.3470354E+002
 1.4001428E+002, 7.9279876E-002, 1.0730120E-001, 7.7250129E-002, 3.8785664E-003, 6.5009982E-002, 1.2813033E-003, 3.4151180E+002
 1.4100921E+002, 7.9589067E-002, 1.0701747E-001, 7.6884968E-002, 3.7498193E-003, 6.6111535E-002, 1.2522740E-003, 3.3275072E+002
 1.4200486E+002, 7.9368250E-002, 1.0723191E-001, 7.7072942E-002, 3.7867645E-003, 6.5665776E-002, 1.2611548E-003, 3.3593751E+002
 1.4300253E+002, 7.9358820E-002, 1.0706956E-001, 7.7048459E-002, 3.8422256E-003, 6.6154050E-002, 1.2724837E-003, 3.3795885E+002
 1.4401127E+002, 7.9650180E-002, 1.0672663E-001, 7.6913662E-002, 3.8974831E-003, 6.6295673E-002, 1.2830198E-003, 3.3473042E+002
 1.4500133E+002, 7.9770354E-002, 1.0646951E-001, 7.6751498E-002, 3.8987740E-003, 6.7120127E-002, 1.2822362E-003, 3.3300963E+002
 1.4600498E+002, 7.9302006E-002, 1.0699501E-001, 7.7064497E-002, 3.8872011E-003, 6.6461818E-002, 1.2819070E-003, 3.3354527E+002
 1.4701289E+002, 7.9809912E-002, 1.0623527E-001, 7.6729397E-002, 3.9869609E-003, 6.7535382E-002, 1.3003481E-003, 3.3250360E+002
 1.4800687E+002, 7.9579328E-002, 1.0611571E-001, 7.6900844E-002, 4.1609794E-003, 6.7884260E-002, 1.3375060E-003, 3.3520759E+002
 1.4900104E+002, 7.9583907E-002, 1.0626829E-001, 7.6802836E-002, 4.0262141E-003, 6.8049382E-002, 1.3089793E-003, 3.3255987E+002
 1.5000251E+002, 7.9423822E-002, 1.0632991E-001, 7.6923171E-002, 4.0837452E-003, 6.7994545E-002, 1.3216823E-003, 3.3424245E+002
 1.5100951E+002, 7.9238637E-002, 1.0632687E-001, 7.7123960E-002, 4.2253687E-003, 6.7771983E-002, 1.3523121E-003, 3.3710315E+002
 1.5200060E+002, 7.9369190E-002, 1.0627128E-001, 7.6967075E-002, 4.1406680E-003, 6.8121642E-002, 1.3337561E-003, 3.3389872E+002
 1.5301170E+002, 7.9353999E-002, 1.0610161E-001, 7.6928135E-002, 4.1895956E-003, 6.8721200E-002, 1.3436413E-003, 3.3481084E+002
 1.5401099E+002, 7.9448736E-002, 1.0582467E-001, 7.6877012E-002, 4.2759856E-003, 6.9136075E-002, 1.3611875E-003, 3.3496595E+002
