s,,,,,,,
Time,"O2 EXHAUST","CO2 EXHAUST","H2O EXHAUST","CO EXHAUST","FUEL EXHAUST","SOOT EXHAUST","TEMP EXHAUST"
 0.0000000E+000, 2.3099739E-001, 5.9146498E-004, 5.9412091E-003, 0.0000000E+000, 0.0000000E+000, 0.0000000E+000, 2.0000000E+001
 1.0035497E+000, 2.3099739E-001, 5.9146498E-004, 5.9412091E-003, 3.7177457E-031, 1.6867917E-030, 9.8124334E-031, 2.0399697E+001
 2.0046450E+000, 2.2517372E-001, 5.9081273E-003, 7.4454798E-003, 1.4341506E-005, 6.1301621E-004, 3.5272106E-004, 7.6451056E+001
 3.0005220E+000, 2.2195642E-001, 8.8959618E-003, 8.3078797E-003, 5.0380915E-005, 5.7213291E-004, 5.5698227E-004, 1.0298401E+002
 4.0059906E+000, 2.1821190E-001, 1.2323032E-002, 9.2887587E-003, 7.9298835E-005, 8.2422963E-004, 7.8859525E-004, 1.3727996E+002
 5.0001734E+000, 2.1486950E-001, 1.5399523E-002, 1.0170547E-002, 1.0664438E-004, 9.6098417E-004, 9.9681132E-004, 1.6475579E+002
 6.0013527E+000, 2.1091774E-001, 1.9043775E-002, 1.1215742E-002, 1.3990810E-004, 1.0861759E-003, 1.2436405E-003, 1.9580542E+002
 7.0000850E+000, 2.0475215E-001, 2.4791777E-002, 1.2855683E-002, 1.7395584E-004, 1.0885499E-003, 1.6289652E-003, 2.3794859E+002
 8.0010616E+000, 2.0111900E-001, 2.8188071E-002, 1.3818027E-002, 1.8176585E-004, 1.1114945E-003, 1.8539773E-003, 2.6314200E+002
 9.0033369E+000, 1.9591199E-001, 3.3068015E-002, 1.5203656E-002, 1.9756315E-004, 1.0633305E-003, 2.1782716E-003, 2.9487105E+002
 1.0004522E+001, 1.9165792E-001, 3.7062332E-002, 1.6336644E-002, 2.0804298E-004, 1.0023766E-003, 2.4431808E-003, 3.1644171E+002
 1.1005709E+001, 1.8499659E-001, 4.3348219E-002, 1.8113236E-002, 2.1161123E-004, 8.2991544E-004, 2.8572704E-003, 3.4406670E+002
 1.2004832E+001, 1.7918769E-001, 4.8834987E-002, 1.9661242E-002, 2.0959758E-004, 6.8206831E-004, 3.2176074E-003, 3.6545684E+002
 1.3001566E+001, 1.7397033E-001, 5.3763384E-002, 2.1050693E-002, 2.0594849E-004, 5.5713527E-004, 3.5408760E-003, 3.8116773E+002
 1.4002516E+001, 1.6855715E-001, 5.8875840E-002, 2.2492078E-002, 2.0228519E-004, 4.3112963E-004, 3.8762441E-003, 3.9378527E+002
 1.5003781E+001, 1.6478709E-001, 6.2431705E-002, 2.3495323E-002, 2.0124554E-004, 3.5736439E-004, 4.1098296E-003, 4.0141085E+002
 1.6001880E+001, 1.5953515E-001, 6.7381986E-002, 2.4891966E-002, 1.9991649E-004, 2.6901081E-004, 4.4350408E-003, 4.0986906E+002
 1.7004126E+001, 1.5502451E-001, 7.1626164E-002, 2.6091172E-002, 2.0230655E-004, 2.0864293E-004, 4.7146286E-003, 4.1580840E+002
 1.8005297E+001, 1.5258657E-001, 7.3922039E-002, 2.6739465E-002, 2.0276759E-004, 1.7136604E-004, 4.8656906E-003, 4.1864475E+002
 1.9008472E+001, 1.4724443E-001, 7.8944467E-002, 2.8158351E-002, 2.0540211E-004, 1.1990635E-004, 5.1965049E-003, 4.2531669E+002
 2.0003693E+001, 1.4281248E-001, 8.3105903E-002, 2.9335234E-002, 2.1004588E-004, 8.8623774E-005, 5.4711410E-003, 4.2976948E+002
 2.1005595E+001, 1.4080780E-001, 8.4988315E-002, 2.9867514E-002, 2.1199974E-004, 7.4852642E-005, 5.5953400E-003, 4.3001905E+002
 2.2002555E+001, 1.3655618E-001, 8.8976625E-002, 3.0996164E-002, 2.1793051E-004, 5.4664245E-005, 5.8588713E-003, 4.3237167E+002
 2.3000208E+001, 1.3380298E-001, 9.1555735E-002, 3.1727045E-002, 2.2375995E-004, 4.7672935E-005, 6.0297202E-003, 4.3309600E+002
 2.4009379E+001, 1.3110402E-001, 9.4085833E-002, 3.2443362E-002, 2.2818674E-004, 3.9251233E-005, 6.1970427E-003, 4.3394026E+002
 2.5000932E+001, 1.2925797E-001, 9.5816037E-002, 3.2933279E-002, 2.3134500E-004, 3.4412317E-005, 6.3114944E-003, 4.3212311E+002
 2.6003171E+001, 1.2465774E-001, 1.0012645E-001, 3.4153984E-002, 2.3960495E-004, 2.5580260E-005, 6.5967097E-003, 4.3386518E+002
 2.7005392E+001, 1.2294926E-001, 1.0172965E-001, 3.4607033E-002, 2.4082246E-004, 2.1150815E-005, 6.7023902E-003, 4.3428522E+002
 2.8001226E+001, 1.1857814E-001, 1.0582092E-001, 3.5767272E-002, 2.5172315E-004, 1.7361509E-005, 6.9737679E-003, 4.3643625E+002
 2.9007694E+001, 1.1723977E-001, 1.0706825E-001, 3.6123239E-002, 2.5929798E-004, 1.8675310E-005, 7.0574251E-003, 4.3356658E+002
 3.0002812E+001, 1.1403639E-001, 1.1007308E-001, 3.6972482E-002, 2.6182302E-004, 1.4359132E-005, 7.2555516E-003, 4.3606636E+002
 3.1000273E+001, 1.1150833E-001, 1.1241991E-001, 3.7646573E-002, 2.8429536E-004, 1.6963726E-005, 7.4147291E-003, 4.3640413E+002
 3.2007225E+001, 1.1029094E-001, 1.1356714E-001, 3.7968339E-002, 2.8058655E-004, 1.5277563E-005, 7.4893621E-003, 4.3524167E+002
 3.3008956E+001, 1.0792197E-001, 1.1576828E-001, 3.8599345E-002, 2.9935390E-004, 2.0532330E-005, 7.6381583E-003, 4.3493892E+002
 3.4008905E+001, 1.0542394E-001, 1.1809325E-001, 3.9264515E-002, 3.1660418E-004, 2.1266414E-005, 7.7947682E-003, 4.3601396E+002
 3.5000900E+001, 1.0342790E-001, 1.1995715E-001, 3.9794726E-002, 3.2469120E-004, 2.3320658E-005, 7.9190780E-003, 4.3610285E+002
 3.6001462E+001, 1.0120342E-001, 1.2200188E-001, 4.0390868E-002, 3.6101330E-004, 3.2602452E-005, 8.0613894E-003, 4.3439691E+002
 3.7008518E+001, 9.8967969E-002, 1.2406579E-001, 4.0988229E-002, 3.8941765E-004, 4.2286119E-005, 8.2032484E-003, 4.3433051E+002
 3.8008153E+001, 9.6962339E-002, 1.2591600E-001, 4.1524741E-002, 4.1674937E-004, 4.8339425E-005, 8.3308231E-003, 4.3510157E+002
 3.9002489E+001, 9.5244393E-002, 1.2749787E-001, 4.1984501E-002, 4.4215045E-004, 5.6699507E-005, 8.4403357E-003, 4.3402964E+002
 4.0004994E+001, 9.3711501E-002, 1.2893239E-001, 4.2390581E-002, 4.4467643E-004, 6.3240314E-005, 8.5352080E-003, 4.3448145E+002
 4.1007605E+001, 9.2041113E-002, 1.3046462E-001, 4.2838833E-002, 4.7478152E-004, 7.0055793E-005, 8.6424747E-003, 4.3340208E+002
 4.2003755E+001, 8.9350201E-002, 1.3291396E-001, 4.3563723E-002, 5.3873942E-004, 8.7848839E-005, 8.8173720E-003, 4.3344626E+002
 4.3009316E+001, 8.8861074E-002, 1.3335599E-001, 4.3695611E-002, 5.5234256E-004, 9.5393280E-005, 8.8493821E-003, 4.3454548E+002
 4.4006100E+001, 8.6956892E-002, 1.3510844E-001, 4.4205417E-002, 5.8136917E-004, 1.0431518E-004, 8.9708952E-003, 4.3381506E+002
 4.5004692E+001, 8.5331417E-002, 1.3660439E-001, 4.4640571E-002, 6.0608334E-004, 1.1222095E-004, 9.0746096E-003, 4.3374553E+002
 4.6004664E+001, 8.3261835E-002, 1.3848883E-001, 4.5197394E-002, 6.5367848E-004, 1.3122838E-004, 9.2088211E-003, 4.3490535E+002
 4.7000339E+001, 8.2533615E-002, 1.3914487E-001, 4.5394065E-002, 6.7563456E-004, 1.4309173E-004, 9.2567110E-003, 4.3546622E+002
 4.8007081E+001, 7.9677343E-002, 1.4176961E-001, 4.6159583E-002, 7.2278211E-004, 1.5566999E-004, 9.4395036E-003, 4.3470692E+002
 4.9006441E+001, 7.8948302E-002, 1.4242488E-001, 4.6356974E-002, 7.4649142E-004, 1.6551286E-004, 9.4877218E-003, 4.3457985E+002
 5.0001873E+001, 7.6399022E-002, 1.4477109E-001, 4.7039347E-002, 7.8505124E-004, 1.7866430E-004, 9.6503411E-003, 4.3786098E+002
 5.1005506E+001, 7.4960285E-002, 1.4605352E-001, 4.7430540E-002, 8.4069497E-004, 2.0115959E-004, 9.7467100E-003, 4.3792762E+002
 5.2010782E+001, 7.3647698E-002, 1.4728314E-001, 4.7778115E-002, 8.4189901E-004, 2.0591594E-004, 9.8278234E-003, 4.3756108E+002
 5.3006894E+001, 7.3232775E-002, 1.4769011E-001, 4.7884316E-002, 8.2563208E-004, 2.1018637E-004, 9.8510632E-003, 4.3568581E+002
 5.4004328E+001, 7.0794530E-002, 1.4993872E-001, 4.8536079E-002, 8.5838868E-004, 2.2314779E-004, 1.0006009E-002, 4.3959409E+002
 5.5010877E+001, 6.8903827E-002, 1.5166492E-001, 4.9045124E-002, 8.9993909E-004, 2.2929085E-004, 1.0128506E-002, 4.3790868E+002
 5.6007435E+001, 6.7733163E-002, 1.5273507E-001, 4.9358703E-002, 9.2205542E-004, 2.4573423E-004, 1.0203661E-002, 4.3895436E+002
 5.7009384E+001, 6.6891901E-002, 1.5349033E-001, 4.9587520E-002, 9.5175315E-004, 2.4887978E-004, 1.0259750E-002, 4.3966155E+002
 5.8009035E+001, 6.5917227E-002, 1.5441250E-001, 4.9843759E-002, 9.4430248E-004, 2.5403336E-004, 1.0318774E-002, 4.3708167E+002
 5.9001339E+001, 6.3977678E-002, 1.5618519E-001, 5.0364813E-002, 9.8383834E-004, 2.6770481E-004, 1.0443893E-002, 4.3937872E+002
 6.0011583E+001, 6.2917986E-002, 1.5713659E-001, 5.0651604E-002, 1.0186556E-003, 2.8498628E-004, 1.0513988E-002, 4.4070236E+002
 6.1009509E+001, 6.1853886E-002, 1.5813275E-001, 5.0934331E-002, 1.0217060E-003, 2.8113680E-004, 1.0580150E-002, 4.4009461E+002
 6.2008491E+001, 6.0183415E-002, 1.5967499E-001, 5.1381194E-002, 1.0438136E-003, 2.8402317E-004, 1.0686343E-002, 4.3976030E+002
 6.3003990E+001, 5.9913495E-002, 1.5989926E-001, 5.1456873E-002, 1.0673512E-003, 2.9502165E-004, 1.0706185E-002, 4.3882769E+002
 6.4005335E+001, 5.8257104E-002, 1.6144191E-001, 5.1897592E-002, 1.0776176E-003, 2.9695750E-004, 1.0809843E-002, 4.3951166E+002
 6.5001732E+001, 5.6626506E-002, 1.6293459E-001, 5.2336038E-002, 1.1102510E-003, 3.0074320E-004, 1.0915055E-002, 4.4164615E+002
 6.6008502E+001, 5.5290532E-002, 1.6410875E-001, 5.2703121E-002, 1.1779707E-003, 3.1459788E-004, 1.1006918E-002, 4.4151945E+002
 6.7008523E+001, 5.4554778E-002, 1.6476544E-001, 5.2902990E-002, 1.2056197E-003, 3.2631575E-004, 1.1056083E-002, 4.4248913E+002
 6.8001307E+001, 5.3942518E-002, 1.6541074E-001, 5.3052088E-002, 1.1433047E-003, 3.2652440E-004, 1.1085028E-002, 4.4348834E+002
 6.9003668E+001, 5.2298647E-002, 1.6690163E-001, 5.3497066E-002, 1.1891873E-003, 3.2669769E-004, 1.1192991E-002, 4.4257094E+002
 7.0000565E+001, 5.1298007E-002, 1.6778997E-001, 5.3769915E-002, 1.2312573E-003, 3.4130470E-004, 1.1260508E-002, 4.4471116E+002
 7.1009222E+001, 5.0856603E-002, 1.6821379E-001, 5.3884958E-002, 1.2226778E-003, 3.4231166E-004, 1.1286519E-002, 4.4413418E+002
 7.2003589E+001, 4.9849820E-002, 1.6916204E-001, 5.4150425E-002, 1.2187594E-003, 3.4770063E-004, 1.1348023E-002, 4.4340582E+002
 7.3003814E+001, 4.8122733E-002, 1.7071488E-001, 5.4620005E-002, 1.2781439E-003, 3.5181343E-004, 1.1462981E-002, 4.4527520E+002
 7.4005907E+001, 4.7657439E-002, 1.7119072E-001, 5.4736021E-002, 1.2436624E-003, 3.5180191E-004, 1.1486807E-002, 4.4493762E+002
 7.5000729E+001, 4.6176404E-002, 1.7253180E-001, 5.5137294E-002, 1.2868429E-003, 3.5215688E-004, 1.1584334E-002, 4.4565164E+002
 7.6008370E+001, 4.4566152E-002, 1.7397307E-001, 5.5576768E-002, 1.3487748E-003, 3.5172667E-004, 1.1692508E-002, 4.4755318E+002
 7.7001822E+001, 4.4629372E-002, 1.7389684E-001, 5.5561212E-002, 1.3602181E-003, 3.6972336E-004, 1.1689973E-002, 4.4575592E+002
 7.8008152E+001, 4.3351839E-002, 1.7509867E-001, 5.5899691E-002, 1.3589337E-003, 3.6391022E-004, 1.1768720E-002, 4.4826317E+002
 7.9005682E+001, 4.2098830E-002, 1.7617335E-001, 5.6248901E-002, 1.4459068E-003, 3.7673011E-004, 1.1858209E-002, 4.4815369E+002
 8.0008596E+001, 4.2467921E-002, 1.7593421E-001, 5.6131877E-002, 1.3522581E-003, 3.7171556E-004, 1.1822216E-002, 4.4663846E+002
 8.1011213E+001, 4.1342084E-002, 1.7695073E-001, 5.6438372E-002, 1.3893057E-003, 3.6340105E-004, 1.1897074E-002, 4.4660883E+002
 8.2008673E+001, 4.0514481E-002, 1.7769858E-001, 5.6661401E-002, 1.4121408E-003, 3.7747410E-004, 1.1951191E-002, 4.4624537E+002
 8.3007991E+001, 3.9477578E-002, 1.7865211E-001, 5.6939923E-002, 1.4299889E-003, 3.7510971E-004, 1.2017752E-002, 4.4772075E+002
 8.4005927E+001, 3.8289932E-002, 1.7969141E-001, 5.7267947E-002, 1.4957025E-003, 3.7934266E-004, 1.2100313E-002, 4.4696150E+002
 8.5002051E+001, 3.8116385E-002, 1.7983007E-001, 5.7318004E-002, 1.5163891E-003, 3.8290140E-004, 1.2113908E-002, 4.4664081E+002
 8.6008415E+001, 3.7170257E-002, 1.8083828E-001, 5.7548435E-002, 1.4140597E-003, 3.6397961E-004, 1.2158055E-002, 4.4739387E+002
 8.7005258E+001, 3.6394349E-002, 1.8146612E-001, 5.7771800E-002, 1.5014176E-003, 3.7031308E-004, 1.2218245E-002, 4.4761628E+002
 8.8002986E+001, 3.5816340E-002, 1.8199179E-001, 5.7927226E-002, 1.5149014E-003, 3.7752806E-004, 1.2255728E-002, 4.4775656E+002
 8.9009818E+001, 3.5294711E-002, 1.8246671E-001, 5.8068265E-002, 1.5281653E-003, 3.7593280E-004, 1.2289826E-002, 4.4798036E+002
 9.0007006E+001, 3.4235564E-002, 1.8343090E-001, 5.8353285E-002, 1.5527374E-003, 3.8548530E-004, 1.2358545E-002, 4.4955424E+002
 9.1008842E+001, 3.3935170E-002, 1.8365562E-001, 5.8442742E-002, 1.6020087E-003, 3.9172649E-004, 1.2383985E-002, 4.4761506E+002
 9.2009974E+001, 3.2738842E-002, 1.8472002E-001, 5.8771618E-002, 1.6557794E-003, 3.8028229E-004, 1.2465611E-002, 4.4756052E+002
 9.3002762E+001, 3.2576624E-002, 1.8488065E-001, 5.8810925E-002, 1.6446292E-003, 3.9998661E-004, 1.2473760E-002, 4.5008184E+002
 9.4000505E+001, 3.1610587E-002, 1.8578295E-001, 5.9068049E-002, 1.6493415E-003, 3.9580254E-004, 1.2534110E-002, 4.4940440E+002
 9.5003560E+001, 3.1312121E-002, 1.8612257E-001, 5.9137340E-002, 1.5990800E-003, 3.8442597E-004, 1.2545563E-002, 4.5052759E+002
 9.6000044E+001, 3.0072153E-002, 1.8716182E-001, 5.9487963E-002, 1.7075438E-003, 3.9177252E-004, 1.2637373E-002, 4.5036058E+002
 9.7005726E+001, 3.0634360E-002, 1.8662537E-001, 5.9339756E-002, 1.7136190E-003, 4.0036883E-004, 1.2603414E-002, 4.5002283E+002
 9.8011213E+001, 2.9710457E-002, 1.8756303E-001, 5.9573192E-002, 1.6546029E-003, 3.8407926E-004, 1.2652296E-002, 4.4896070E+002
 9.9010068E+001, 2.8466087E-002, 1.8864956E-001, 5.9918376E-002, 1.7274491E-003, 3.7874561E-004, 1.2739506E-002, 4.5025832E+002
 1.0000137E+002, 2.8568904E-002, 1.8853527E-001, 5.9892591E-002, 1.7398495E-003, 3.9586321E-004, 1.2734676E-002, 4.5065791E+002
 1.0100592E+002, 2.8032083E-002, 1.8896766E-001, 6.0046093E-002, 1.7995381E-003, 4.1334072E-004, 1.2776025E-002, 4.5059306E+002
 1.0200811E+002, 2.8006542E-002, 1.8899042E-001, 6.0053683E-002, 1.8016820E-003, 4.0772974E-004, 1.2777986E-002, 4.5037338E+002
 1.0300008E+002, 2.7592662E-002, 1.8928669E-001, 6.0178137E-002, 1.8790804E-003, 4.2809820E-004, 1.2814219E-002, 4.4842629E+002
 1.0401091E+002, 2.6166237E-002, 1.9054075E-001, 6.0572738E-002, 1.9559261E-003, 4.1735688E-004, 1.2913309E-002, 4.5061719E+002
 1.0501110E+002, 2.5702222E-002, 1.9091457E-001, 6.0705493E-002, 2.0076012E-003, 4.3165244E-004, 1.2949074E-002, 4.5272699E+002
 1.0600036E+002, 2.6574918E-002, 1.9014846E-001, 6.0463772E-002, 1.9594264E-003, 4.3908751E-004, 1.2888273E-002, 4.5089839E+002
 1.0700978E+002, 2.5148982E-002, 1.9141718E-001, 6.0855158E-002, 2.0224074E-003, 4.3107786E-004, 1.2985328E-002, 4.5134153E+002
 1.0800588E+002, 2.5493121E-002, 1.9116080E-001, 6.0751722E-002, 1.9636729E-003, 4.3097756E-004, 1.2955758E-002, 4.5058454E+002
 1.0901016E+002, 2.4005386E-002, 1.9248421E-001, 6.1159960E-002, 2.0293527E-003, 4.2416506E-004, 1.3056992E-002, 4.5143614E+002
 1.1000479E+002, 2.4197812E-002, 1.9234716E-001, 6.1100910E-002, 1.9908628E-003, 4.2458191E-004, 1.3039650E-002, 4.5205971E+002
 1.1100548E+002, 2.3520170E-002, 1.9294753E-001, 6.1287117E-002, 2.0225794E-003, 4.2321605E-004, 1.3085991E-002, 4.5074836E+002
 1.1200988E+002, 2.3154693E-002, 1.9320668E-001, 6.1399143E-002, 2.0960937E-003, 4.2562544E-004, 1.3118942E-002, 4.5221775E+002
 1.1300631E+002, 2.3062374E-002, 1.9335140E-001, 6.1413924E-002, 2.0467679E-003, 4.1584145E-004, 1.3117782E-002, 4.5132963E+002
 1.1400871E+002, 2.1853556E-002, 1.9437182E-001, 6.1755303E-002, 2.1477148E-003, 4.1456055E-004, 1.3206727E-002, 4.5162494E+002
 1.1500910E+002, 2.1916736E-002, 1.9434967E-001, 6.1731025E-002, 2.1137286E-003, 4.2096091E-004, 1.3197915E-002, 4.5288415E+002
 1.1600913E+002, 2.0323614E-002, 1.9536886E-001, 6.2236911E-002, 2.5265127E-003, 4.5783600E-004, 1.3354270E-002, 4.5486313E+002
 1.1700939E+002, 2.0502825E-002, 1.9549877E-001, 6.2137091E-002, 2.2684250E-003, 4.3285079E-004, 1.3306954E-002, 4.5491776E+002
 1.1800921E+002, 2.1104453E-002, 1.9501498E-001, 6.1962973E-002, 2.1973686E-003, 4.3134377E-004, 1.3259764E-002, 4.5266729E+002
 1.1900946E+002, 2.0987363E-002, 1.9494333E-001, 6.2025753E-002, 2.3543390E-003, 4.4765167E-004, 1.3289026E-002, 4.5130122E+002
 1.2001052E+002, 2.0825733E-002, 1.9525728E-001, 6.2040430E-002, 2.2145255E-003, 4.3068337E-004, 1.3279410E-002, 4.5251406E+002
 1.2100174E+002, 2.0328889E-002, 1.9569114E-001, 6.2179291E-002, 2.2454501E-003, 4.1880609E-004, 1.3314630E-002, 4.5259701E+002
 1.2200249E+002, 1.9699045E-002, 1.9621345E-001, 6.2358188E-002, 2.3050472E-003, 4.2470009E-004, 1.3361873E-002, 4.5249114E+002
 1.2300235E+002, 1.9731355E-002, 1.9625990E-001, 6.2335814E-002, 2.2379837E-003, 4.2137217E-004, 1.3350413E-002, 4.5384828E+002
 1.2400458E+002, 1.8281656E-002, 1.9720450E-001, 6.2793612E-002, 2.5995920E-003, 4.4913817E-004, 1.3490787E-002, 4.5296575E+002
 1.2500073E+002, 1.8317490E-002, 1.9707365E-001, 6.2799158E-002, 2.6801146E-003, 4.7627723E-004, 1.3499611E-002, 4.5319373E+002
 1.2600032E+002, 1.8107108E-002, 1.9750302E-001, 6.2813528E-002, 2.4782359E-003, 4.6264469E-004, 1.3484152E-002, 4.5498315E+002
 1.2700409E+002, 1.8498005E-002, 1.9701628E-001, 6.2732351E-002, 2.5843200E-003, 4.6051331E-004, 1.3475106E-002, 4.4989132E+002
 1.2800933E+002, 1.6971381E-002, 1.9838048E-001, 6.3151421E-002, 2.6485811E-003, 4.4134116E-004, 1.3578715E-002, 4.5356789E+002
 1.2900244E+002, 1.8233788E-002, 1.9714443E-001, 6.2823913E-002, 2.6890309E-003, 4.6555810E-004, 1.3506195E-002, 4.5264117E+002
 1.3000818E+002, 1.8827664E-002, 1.9677408E-001, 6.2632081E-002, 2.5240598E-003, 4.6562923E-004, 1.3446138E-002, 4.5166220E+002
 1.3100625E+002, 1.7261105E-002, 1.9803970E-001, 6.3086950E-002, 2.7084920E-003, 4.4551556E-004, 1.3569273E-002, 4.5134586E+002
 1.3200986E+002, 1.5875160E-002, 1.9918830E-001, 6.3480976E-002, 2.8406961E-003, 4.5627876E-004, 1.3673412E-002, 4.5433524E+002
 1.3300844E+002, 1.6881879E-002, 1.9848729E-001, 6.3169118E-002, 2.6252628E-003, 4.5812759E-004, 1.3580692E-002, 4.5283105E+002
 1.3401185E+002, 1.6448816E-002, 1.9862700E-001, 6.3330699E-002, 2.8562698E-003, 4.8016680E-004, 1.3639876E-002, 4.5233412E+002
 1.3501056E+002, 1.6317270E-002, 1.9845498E-001, 6.3419704E-002, 3.1161452E-003, 4.8378064E-004, 1.3684808E-002, 4.5355254E+002
 1.3600671E+002, 1.5924752E-002, 1.9900428E-001, 6.3491898E-002, 2.9595571E-003, 4.6861300E-004, 1.3687037E-002, 4.5296324E+002
 1.3701054E+002, 1.6069490E-002, 1.9871730E-001, 6.3480026E-002, 3.0902497E-003, 4.8201390E-004, 1.3696453E-002, 4.5196208E+002
 1.3800957E+002, 1.5325115E-002, 1.9955890E-001, 6.3651028E-002, 2.9646500E-003, 4.7981161E-004, 1.3724608E-002, 4.5404891E+002
 1.3900074E+002, 1.5784846E-002, 1.9885491E-001, 6.3578992E-002, 3.2038868E-003, 4.8519521E-004, 1.3730095E-002, 4.5282887E+002
 1.4000286E+002, 1.5603564E-002, 1.9923940E-001, 6.3588672E-002, 3.0170978E-003, 4.7368423E-004, 1.3714950E-002, 4.5368473E+002
 1.4100608E+002, 1.4626058E-002, 1.9993514E-001, 6.3885626E-002, 3.2074959E-003, 5.0053116E-004, 1.3801907E-002, 4.5381511E+002
 1.4201070E+002, 1.4952511E-002, 1.9982423E-001, 6.3764838E-002, 3.0382592E-003, 4.8407672E-004, 1.3757986E-002, 4.5425468E+002
 1.4300775E+002, 1.5442425E-002, 1.9872327E-001, 6.3744020E-002, 3.5867611E-003, 5.7189986E-004, 1.3804306E-002, 4.5141577E+002
 1.4400644E+002, 1.4791945E-002, 1.9980023E-001, 6.3838299E-002, 3.1899614E-003, 4.9637024E-004, 1.3789240E-002, 4.5339588E+002
 1.4500621E+002, 1.4120765E-002, 2.0010719E-001, 6.4070954E-002, 3.4663270E-003, 5.4058164E-004, 1.3869239E-002, 4.5326395E+002
 1.4600541E+002, 1.5113632E-002, 1.9950077E-001, 6.3751818E-002, 3.1863032E-003, 5.0404536E-004, 1.3768758E-002, 4.5378723E+002
 1.4700727E+002, 1.4342154E-002, 1.9989368E-001, 6.4016995E-002, 3.4778343E-003, 5.0680568E-004, 1.3857689E-002, 4.5344356E+002
 1.4800900E+002, 1.4169675E-002, 1.9973550E-001, 6.4120892E-002, 3.7585127E-003, 5.1494224E-004, 1.3908034E-002, 4.5293554E+002
 1.4900504E+002, 1.4662189E-002, 1.9939777E-001, 6.3962020E-002, 3.6389698E-003, 5.6561843E-004, 1.3859957E-002, 4.5118102E+002
 1.5000793E+002, 1.3909039E-002, 2.0025431E-001, 6.4139908E-002, 3.5178244E-003, 5.0933665E-004, 1.3890057E-002, 4.5399228E+002
 1.5100940E+002, 1.4976874E-002, 1.9946123E-001, 6.3819224E-002, 3.3346958E-003, 5.0227536E-004, 1.3798274E-002, 4.5336348E+002
 1.5200220E+002, 1.4106512E-002, 2.0007319E-001, 6.4085048E-002, 3.5109148E-003, 5.2591549E-004, 1.3876653E-002, 4.5382202E+002
 1.5301005E+002, 1.3474624E-002, 2.0078220E-001, 6.4235603E-002, 3.4169214E-003, 4.8306397E-004, 1.3902929E-002, 4.5381037E+002
 1.5400629E+002, 1.3462110E-002, 2.0057160E-001, 6.4276001E-002, 3.6058992E-003, 5.2001213E-004, 1.3929982E-002, 4.5374658E+002
