s,,,,,,,
Time,"O2 EXHAUST","CO2 EXHAUST","H2O EXHAUST","CO EXHAUST","FUEL EXHAUST","SOOT EXHAUST","TEMP EXHAUST"
 0.0000000E+000, 2.3099739E-001, 5.9146498E-004, 5.9412092E-003, 0.0000000E+000, 0.0000000E+000, 0.0000000E+000, 2.0000000E+001
 1.0011734E+000, 2.3099739E-001, 5.9146498E-004, 5.9412092E-003, 1.3491013E-028, 8.2117141E-028, 3.8760583E-029, 2.1160828E+001
 2.0031655E+000, 2.2061121E-001, 1.0079322E-002, 9.9592536E-003, 7.6978665E-005, 1.8505203E-004, 7.3675833E-005, 1.1905308E+002
 3.0000168E+000, 2.1432882E-001, 1.5816548E-002, 1.2398334E-002, 1.3304752E-004, 2.4859772E-004, 1.2026803E-004, 1.7614363E+002
 4.0020446E+000, 2.0791865E-001, 2.1699662E-002, 1.4881909E-002, 1.7209590E-004, 2.8577219E-004, 1.6408997E-004, 2.3164333E+002
 5.0001746E+000, 2.0000339E-001, 2.9008727E-002, 1.7938000E-002, 1.8973896E-004, 3.0643004E-004, 2.1191479E-004, 2.9444861E+002
 6.0037059E+000, 1.9122054E-001, 3.7190697E-002, 2.1322013E-002, 1.7023767E-004, 2.2831925E-004, 2.5703523E-004, 3.5118641E+002
 7.0056718E+000, 1.8308872E-001, 4.4772568E-002, 2.4452110E-002, 1.4623722E-004, 1.6168485E-004, 2.9757508E-004, 3.9736383E+002
 8.0029278E+000, 1.7367303E-001, 5.3581284E-002, 2.8071883E-002, 1.0062577E-004, 5.2125873E-005, 3.4087388E-004, 4.4772354E+002
 9.0047624E+000, 1.6797626E-001, 5.8877866E-002, 3.0266606E-002, 9.2398589E-005, 2.3692234E-005, 3.7102530E-004, 4.6308600E+002
 1.0001554E+001, 1.5919194E-001, 6.7026586E-002, 3.3653460E-002, 9.0609079E-005, 1.0620679E-006, 4.1974304E-004, 4.8724845E+002
 1.1002121E+001, 1.5143893E-001, 7.4200735E-002, 3.6645474E-002, 9.9806165E-005, 8.1172340E-008, 4.6494399E-004, 5.0398282E+002
 1.2004445E+001, 1.4343674E-001, 8.1604454E-002, 3.9733809E-002, 1.0990633E-004, 1.3275561E-007, 5.1172187E-004, 5.2310978E+002
 1.3005472E+001, 1.3834406E-001, 8.6316181E-002, 4.1699287E-002, 1.1639877E-004, 1.4526165E-007, 5.4150518E-004, 5.3046022E+002
 1.4004739E+001, 1.3490681E-001, 8.9496368E-002, 4.3025847E-002, 1.2073637E-004, 1.5308890E-007, 5.6159794E-004, 5.2961418E+002
 1.5002087E+001, 1.3116203E-001, 9.2961430E-002, 4.4470992E-002, 1.2520630E-004, 7.4627475E-008, 5.8343563E-004, 5.2884394E+002
 1.6005122E+001, 1.2687824E-001, 9.6924545E-002, 4.6124349E-002, 1.3083305E-004, 2.0055121E-007, 6.0852245E-004, 5.3947112E+002
 1.7006004E+001, 1.2189565E-001, 1.0153436E-001, 4.8047356E-002, 1.3722768E-004, 2.1770780E-007, 6.3767070E-004, 5.4191582E+002
 1.8002996E+001, 1.2220649E-001, 1.0124729E-001, 4.7927235E-002, 1.3644296E-004, 8.1382805E-008, 6.3577270E-004, 5.3146999E+002
 1.9001432E+001, 1.2164425E-001, 1.0176747E-001, 4.8144226E-002, 1.3716031E-004, 9.3528489E-008, 6.3906092E-004, 5.3024056E+002
 2.0008738E+001, 1.1963609E-001, 1.0362558E-001, 4.8919209E-002, 1.3959640E-004, 6.8515335E-008, 6.5077957E-004, 5.2721418E+002
 2.1003302E+001, 1.1860078E-001, 1.0458342E-001, 4.9318792E-002, 1.4094239E-004, 7.8577961E-008, 6.5683976E-004, 5.2809663E+002
 2.2000919E+001, 1.1631374E-001, 1.0669949E-001, 5.0201421E-002, 1.4377121E-004, 5.7415244E-008, 6.7019703E-004, 5.2788568E+002
 2.3004614E+001, 1.1480088E-001, 1.0809923E-001, 5.0785282E-002, 1.4566446E-004, 7.5458160E-008, 6.7903732E-004, 5.2985898E+002
 2.4000645E+001, 1.1295915E-001, 1.0980304E-001, 5.1496120E-002, 1.4811450E-004, 1.3784154E-007, 6.8982925E-004, 5.3030875E+002
 2.5007128E+001, 1.1315185E-001, 1.0962495E-001, 5.1421697E-002, 1.4773308E-004, 7.7061481E-008, 6.8867430E-004, 5.2692546E+002
 2.6001999E+001, 1.1074762E-001, 1.1184939E-001, 5.2349570E-002, 1.5074958E-004, 8.6799504E-008, 7.0272484E-004, 5.2561105E+002
 2.7001631E+001, 1.0897467E-001, 1.1348970E-001, 5.3033827E-002, 1.5301854E-004, 1.0235081E-007, 7.1309528E-004, 5.3254681E+002
 2.8002368E+001, 1.0798953E-001, 1.1440095E-001, 5.3414091E-002, 1.5442261E-004, 1.5871852E-007, 7.1888718E-004, 5.2735933E+002
 2.9007547E+001, 1.0711155E-001, 1.1521335E-001, 5.3752915E-002, 1.5547318E-004, 1.4248345E-007, 7.2400768E-004, 5.3099230E+002
 3.0001997E+001, 1.0560871E-001, 1.1660365E-001, 5.4332960E-002, 1.5747948E-004, 1.6268783E-007, 7.3281534E-004, 5.3086101E+002
 3.1000403E+001, 1.0470960E-001, 1.1743581E-001, 5.4679872E-002, 1.5839438E-004, 7.9246334E-008, 7.3802584E-004, 5.2728643E+002
 3.2000013E+001, 1.0416821E-001, 1.1793640E-001, 5.4888893E-002, 1.5929507E-004, 2.1529062E-007, 7.4123534E-004, 5.3186212E+002
 3.3008297E+001, 1.0499454E-001, 1.1717221E-001, 5.4569894E-002, 1.5801206E-004, 8.6814617E-008, 7.3635550E-004, 5.2264731E+002
 3.4007199E+001, 1.0426157E-001, 1.1785035E-001, 5.4852778E-002, 1.5895018E-004, 1.1153892E-007, 7.4064284E-004, 5.2723093E+002
 3.5003086E+001, 1.0163422E-001, 1.2028118E-001, 5.5866773E-002, 1.6228243E-004, 1.3367074E-007, 7.5600467E-004, 5.3193705E+002
 3.6000564E+001, 1.0114688E-001, 1.2073185E-001, 5.6054931E-002, 1.6307339E-004, 1.1139129E-007, 7.5888983E-004, 5.2787560E+002
 3.7005644E+001, 1.0045565E-001, 1.2137164E-001, 5.6321617E-002, 1.6374333E-004, 1.0210968E-007, 7.6288868E-004, 5.2862216E+002
 3.8001248E+001, 1.0006092E-001, 1.2173669E-001, 5.6474006E-002, 1.6436091E-004, 1.4766256E-007, 7.6522077E-004, 5.2985000E+002
 3.9004483E+001, 9.9184065E-002, 1.2254808E-001, 5.6812382E-002, 1.6538351E-004, 1.1942342E-007, 7.7032918E-004, 5.2762923E+002
 4.0007766E+001, 9.9956544E-002, 1.2183338E-001, 5.6514252E-002, 1.6440518E-004, 1.2951874E-007, 7.6581284E-004, 5.2841018E+002
 4.1007276E+001, 9.9084602E-002, 1.2264015E-001, 5.6850755E-002, 1.6547497E-004, 1.1493347E-007, 7.7090357E-004, 5.2678022E+002
 4.2000527E+001, 9.5968689E-002, 1.2552237E-001, 5.8053504E-002, 1.6991071E-004, 2.2014514E-007, 7.8922188E-004, 5.3385879E+002
 4.3000028E+001, 9.5671812E-002, 1.2579738E-001, 5.8167964E-002, 1.7001683E-004, 2.3693267E-007, 7.9090178E-004, 5.3019175E+002
 4.4003819E+001, 9.6884579E-002, 1.2467527E-001, 5.7699934E-002, 1.6852652E-004, 1.9384308E-007, 7.8382080E-004, 5.2558288E+002
 4.5003651E+001, 9.3546041E-002, 1.2775320E-001, 5.8991660E-002, 1.8089387E-004, 2.4276305E-006, 8.0501900E-004, 5.2858964E+002
 4.6004821E+001, 9.4699833E-002, 1.2669543E-001, 5.8543453E-002, 1.7216405E-004, 5.0618435E-007, 7.9677351E-004, 5.2683900E+002
 4.7001614E+001, 9.5220991E-002, 1.2621355E-001, 5.8342236E-002, 1.7129061E-004, 4.0913788E-007, 7.9368256E-004, 5.3024235E+002
 4.8004955E+001, 9.3277105E-002, 1.2800668E-001, 5.9094012E-002, 1.7770907E-004, 1.7788859E-006, 8.0586354E-004, 5.2379632E+002
 4.9007266E+001, 9.2060196E-002, 1.2913281E-001, 5.9563573E-002, 1.7905311E-004, 1.8552930E-006, 8.1293739E-004, 5.2813182E+002
 5.0005041E+001, 9.1957125E-002, 1.2922623E-001, 5.9603910E-002, 1.8060912E-004, 2.3699775E-006, 8.1383395E-004, 5.2321079E+002
 5.1001815E+001, 9.2610820E-002, 1.2862244E-001, 5.9351330E-002, 1.7903452E-004, 2.1169920E-006, 8.0985810E-004, 5.2843363E+002
 5.2006220E+001, 9.2546877E-002, 1.2868224E-001, 5.9375839E-002, 1.7866250E-004, 1.8679065E-006, 8.1013864E-004, 5.2612992E+002
 5.3000117E+001, 9.3039330E-002, 1.2822982E-001, 5.9184836E-002, 1.7565694E-004, 1.1459638E-006, 8.0676814E-004, 5.2493702E+002
 5.4001336E+001, 9.2078345E-002, 1.2911488E-001, 5.9556869E-002, 1.7984174E-004, 2.3301541E-006, 8.1299842E-004, 5.2622520E+002
 5.5006558E+001, 9.2134943E-002, 1.2906320E-001, 5.9534809E-002, 1.7924621E-004, 2.2690385E-006, 8.1255932E-004, 5.2649083E+002
 5.6000565E+001, 9.0003488E-002, 1.3103044E-001, 6.0358794E-002, 1.8546593E-004, 3.5840440E-006, 8.2574682E-004, 5.2472530E+002
 5.7000295E+001, 9.1135826E-002, 1.2997861E-001, 5.9923132E-002, 1.8725577E-004, 3.8251511E-006, 8.1979259E-004, 5.2609368E+002
 5.8001558E+001, 9.1291619E-002, 1.2984095E-001, 5.9861029E-002, 1.8217891E-004, 2.7466535E-006, 8.1787462E-004, 5.2417203E+002
 5.9000399E+001, 8.9277505E-002, 1.3169402E-001, 6.0641354E-002, 1.9238838E-004, 5.5040749E-006, 8.3122954E-004, 5.2905126E+002
 6.0007818E+001, 9.0453994E-002, 1.3061222E-001, 6.0185408E-002, 1.8600988E-004, 3.5125341E-006, 8.2334337E-004, 5.2901660E+002
 6.1001074E+001, 9.1435721E-002, 1.2970855E-001, 5.9805141E-002, 1.8131323E-004, 2.5575864E-006, 8.1689116E-004, 5.2705517E+002
 6.2002775E+001, 8.8291347E-002, 1.3260382E-001, 6.1022777E-002, 1.9562885E-004, 5.7381913E-006, 8.3740646E-004, 5.2959497E+002
 6.3000726E+001, 9.0797469E-002, 1.3029441E-001, 6.0052818E-002, 1.8555652E-004, 3.7417341E-006, 8.2133114E-004, 5.2216109E+002
 6.4001567E+001, 9.0312196E-002, 1.3074447E-001, 6.0239842E-002, 1.8542145E-004, 3.1393579E-006, 8.2401414E-004, 5.1839468E+002
 6.5001868E+001, 9.0343710E-002, 1.3071665E-001, 6.0227219E-002, 1.8432369E-004, 3.2403908E-006, 8.2361112E-004, 5.2608634E+002
 6.6004028E+001, 8.8781941E-002, 1.3215904E-001, 6.0830713E-002, 1.8819662E-004, 3.8762613E-006, 8.3313289E-004, 5.2384816E+002
 6.7001468E+001, 8.9940821E-002, 1.3108662E-001, 6.0383500E-002, 1.8686944E-004, 4.0509834E-006, 8.2638628E-004, 5.2284478E+002
 6.8007437E+001, 8.7722963E-002, 1.3313152E-001, 6.1241526E-002, 1.9491622E-004, 5.7556825E-006, 8.4043344E-004, 5.3264955E+002
 6.9003648E+001, 8.7710586E-002, 1.3314260E-001, 6.1246347E-002, 1.9514374E-004, 6.2428146E-006, 8.4054896E-004, 5.2392174E+002
 7.0005699E+001, 8.8889887E-002, 1.3205308E-001, 6.0790812E-002, 1.9254820E-004, 5.4772232E-006, 8.3342737E-004, 5.2550199E+002
 7.1001505E+001, 8.8847812E-002, 1.3209143E-001, 6.0807194E-002, 1.9300380E-004, 5.7728248E-006, 8.3375613E-004, 5.2461128E+002
 7.2007774E+001, 8.7417279E-002, 1.3340981E-001, 6.1360808E-002, 1.9864107E-004, 6.9692205E-006, 8.4290891E-004, 5.2828954E+002
 7.3003475E+001, 8.8267673E-002, 1.3262892E-001, 6.1030912E-002, 1.9322621E-004, 5.3686809E-006, 8.3704257E-004, 5.2547252E+002
 7.4005190E+001, 8.6871662E-002, 1.3391486E-001, 6.1571306E-002, 1.9914838E-004, 6.9535213E-006, 8.4606093E-004, 5.2494878E+002
 7.5003242E+001, 8.7957723E-002, 1.3291222E-001, 6.1151516E-002, 1.9615275E-004, 6.3892441E-006, 8.3937711E-004, 5.2426979E+002
 7.6006024E+001, 8.6880130E-002, 1.3390319E-001, 6.1569317E-002, 2.0213174E-004, 6.9090230E-006, 8.4663030E-004, 5.2096342E+002
 7.7004368E+001, 8.6512155E-002, 1.3424383E-001, 6.1711272E-002, 2.0245363E-004, 6.9008259E-006, 8.4875190E-004, 5.3220986E+002
 7.8004924E+001, 8.6943723E-002, 1.3384696E-001, 6.1543946E-002, 2.0005822E-004, 6.6881984E-006, 8.4584687E-004, 5.2793272E+002
 7.9005308E+001, 8.7657865E-002, 1.3319270E-001, 6.1266386E-002, 1.9431270E-004, 5.4572328E-006, 8.4067265E-004, 5.2327413E+002
 8.0002356E+001, 8.8200045E-002, 1.3269232E-001, 6.1056741E-002, 1.9266937E-004, 5.3422311E-006, 8.3730519E-004, 5.2424286E+002
 8.1003258E+001, 8.7064427E-002, 1.3373780E-001, 6.1496471E-002, 1.9788497E-004, 7.0078567E-006, 8.4472319E-004, 5.2545300E+002
 8.2007055E+001, 8.5776321E-002, 1.3491761E-001, 6.1997197E-002, 2.0846485E-004, 9.2836188E-006, 8.5410070E-004, 5.2337452E+002
 8.3005356E+001, 8.8463623E-002, 1.3244809E-001, 6.0955093E-002, 1.9257459E-004, 5.6060020E-006, 8.3581325E-004, 5.2126306E+002
 8.4006450E+001, 8.5816754E-002, 1.3488384E-001, 6.1980396E-002, 2.0558790E-004, 9.2040117E-006, 8.5328038E-004, 5.2660811E+002
 8.5007851E+001, 8.7069372E-002, 1.3372698E-001, 6.1496391E-002, 2.0250174E-004, 8.4979561E-006, 8.4564785E-004, 5.2389168E+002
 8.6006030E+001, 8.6698898E-002, 1.3406245E-001, 6.1641587E-002, 2.0845727E-004, 9.7715681E-006, 8.4894612E-004, 5.2625955E+002
 8.7003350E+001, 8.5997143E-002, 1.3471687E-001, 6.1910925E-002, 2.0554071E-004, 8.4522620E-006, 8.5226417E-004, 5.2383258E+002
 8.8004551E+001, 8.7285250E-002, 1.3353308E-001, 6.1411385E-002, 1.9792797E-004, 6.9952766E-006, 8.4349884E-004, 5.2237712E+002
 8.9003507E+001, 8.6648156E-002, 1.3412069E-001, 6.1657834E-002, 2.0012926E-004, 7.2505173E-006, 8.4751150E-004, 5.2893558E+002
 9.0005733E+001, 8.5465257E-002, 1.3520353E-001, 6.2117796E-002, 2.1024833E-004, 9.7463078E-006, 8.5620594E-004, 5.2705894E+002
 9.1001256E+001, 8.5447980E-002, 1.3522098E-001, 6.2124069E-002, 2.0922078E-004, 9.2026919E-006, 8.5609075E-004, 5.3369891E+002
 9.2006531E+001, 8.7606306E-002, 1.3323402E-001, 6.1288171E-002, 1.9911979E-004, 6.8625769E-006, 8.4195232E-004, 5.1898372E+002
 9.3003222E+001, 8.7985125E-002, 1.3288436E-001, 6.1141630E-002, 1.9793082E-004, 7.2696693E-006, 8.3959044E-004, 5.2399152E+002
 9.4004305E+001, 8.8127298E-002, 1.3275468E-001, 6.1086267E-002, 1.9642215E-004, 6.4990003E-006, 8.3848561E-004, 5.2152964E+002
 9.5003797E+001, 8.6491828E-002, 1.3426836E-001, 6.1717333E-002, 1.9813583E-004, 6.2040818E-006, 8.4797391E-004, 5.2344960E+002
 9.6003763E+001, 8.8206897E-002, 1.3268264E-001, 6.1054986E-002, 1.9504519E-004, 6.6758630E-006, 8.3775624E-004, 5.2120456E+002
 9.7003438E+001, 8.6474739E-002, 1.3427813E-001, 6.1725637E-002, 2.0256746E-004, 7.9997956E-006, 8.4898297E-004, 5.2264545E+002
 9.8002092E+001, 8.6874042E-002, 1.3391311E-001, 6.1570273E-002, 1.9882913E-004, 6.7339951E-006, 8.4598194E-004, 5.2707084E+002
 9.9003427E+001, 8.6767801E-002, 1.3401001E-001, 6.1611619E-002, 1.9992925E-004, 7.4518723E-006, 8.4680172E-004, 5.2757319E+002
 1.0000215E+002, 8.6540348E-002, 1.3421882E-001, 6.1699883E-002, 2.0142598E-004, 7.8110807E-006, 8.4838087E-004, 5.2288938E+002
 1.0100526E+002, 8.7967460E-002, 1.3290410E-001, 6.1147448E-002, 1.9543133E-004, 6.4735739E-006, 8.3917352E-004, 5.2500115E+002
 1.0200762E+002, 8.5895361E-002, 1.3481352E-001, 6.1949475E-002, 2.0383005E-004, 7.9062111E-006, 8.5247973E-004, 5.2330983E+002
 1.0300003E+002, 8.5548700E-002, 1.3513255E-001, 6.2083816E-002, 2.0558204E-004, 7.9961104E-006, 8.5477775E-004, 5.2401262E+002
 1.0400623E+002, 8.5730762E-002, 1.3496649E-001, 6.2012771E-002, 2.0350144E-004, 7.9116415E-006, 8.5333106E-004, 5.2684994E+002
 1.0500196E+002, 8.4939606E-002, 1.3569185E-001, 6.2319953E-002, 2.0931371E-004, 1.0070634E-005, 8.5894799E-004, 5.2461406E+002
 1.0600361E+002, 8.5965545E-002, 1.3474686E-001, 6.1922828E-002, 2.0495116E-004, 8.7110856E-006, 8.5231845E-004, 5.2251758E+002
 1.0700024E+002, 8.4708463E-002, 1.3590666E-001, 6.2408935E-002, 2.0895267E-004, 9.5059222E-006, 8.6016498E-004, 5.2607358E+002
 1.0800567E+002, 8.5070587E-002, 1.3557594E-001, 6.2267918E-002, 2.0530321E-004, 8.4564845E-006, 8.5738968E-004, 5.3037000E+002
 1.0900639E+002, 8.5582881E-002, 1.3510359E-001, 6.2069665E-002, 2.0338618E-004, 8.4453747E-006, 8.5413243E-004, 5.2282538E+002
 1.1000716E+002, 8.6529864E-002, 1.3422804E-001, 6.1704079E-002, 2.0180496E-004, 7.8721173E-006, 8.4851768E-004, 5.2326532E+002
 1.1100573E+002, 8.7292160E-002, 1.3353019E-001, 6.1407743E-002, 1.9537872E-004, 5.8748588E-006, 8.4293481E-004, 5.2982753E+002
 1.1200670E+002, 8.5468060E-002, 1.3520785E-001, 6.2114653E-002, 2.0509016E-004, 8.3359265E-006, 8.5512601E-004, 5.2766444E+002
 1.1300539E+002, 8.5903535E-002, 1.3480432E-001, 6.1946695E-002, 2.0492632E-004, 8.9281507E-006, 8.5265935E-004, 5.2136420E+002
 1.1400146E+002, 8.4464903E-002, 1.3612916E-001, 6.2503663E-002, 2.1126317E-004, 1.0811295E-005, 8.6200107E-004, 5.2842332E+002
 1.1500276E+002, 8.4503924E-002, 1.3609345E-001, 6.2488610E-002, 2.1104737E-004, 9.9989637E-006, 8.6173959E-004, 5.2906860E+002
 1.1600241E+002, 8.4946270E-002, 1.3568733E-001, 6.2316943E-002, 2.0812846E-004, 9.4040845E-006, 8.5866666E-004, 5.3343764E+002
 1.1700202E+002, 8.5009500E-002, 1.3562976E-001, 6.2292399E-002, 2.0749408E-004, 8.4047977E-006, 8.5818372E-004, 5.2452570E+002
 1.1800038E+002, 8.5148846E-002, 1.3550380E-001, 6.2237618E-002, 2.0498754E-004, 8.5007921E-006, 8.5688732E-004, 5.2725909E+002
 1.1900762E+002, 8.5793511E-002, 1.3490576E-001, 6.1989366E-002, 2.0543487E-004, 8.3857190E-006, 8.5337962E-004, 5.2072613E+002
 1.2000299E+002, 8.4347969E-002, 1.3623563E-001, 6.2549358E-002, 2.1274549E-004, 1.0837268E-005, 8.6296045E-004, 5.2729214E+002
 1.2100453E+002, 8.6418472E-002, 1.3433250E-001, 6.1746603E-002, 2.0085139E-004, 7.8774776E-006, 8.4894268E-004, 5.2454355E+002
 1.2200408E+002, 8.6679024E-002, 1.3409079E-001, 6.1646333E-002, 2.0110127E-004, 7.4459969E-006, 8.4753976E-004, 5.2860589E+002
 1.2300427E+002, 8.5876128E-002, 1.3482743E-001, 6.1957980E-002, 2.0667377E-004, 9.1639261E-006, 8.5317327E-004, 5.2401573E+002
 1.2400355E+002, 8.4382210E-002, 1.3620683E-001, 6.2535346E-002, 2.1061838E-004, 9.8814688E-006, 8.6233082E-004, 5.2965418E+002
 1.2500139E+002, 8.4820042E-002, 1.3580756E-001, 6.2364665E-002, 2.0575401E-004, 8.5012811E-006, 8.5888203E-004, 5.2508040E+002
 1.2600675E+002, 8.5732139E-002, 1.3496013E-001, 6.2013626E-002, 2.0716549E-004, 9.7519806E-006, 8.5407829E-004, 5.1953108E+002
 1.2700598E+002, 8.4798810E-002, 1.3582146E-001, 6.2374463E-002, 2.0995744E-004, 1.0350251E-005, 8.5986700E-004, 5.2823674E+002
 1.2800528E+002, 8.5541567E-002, 1.3513573E-001, 6.2087521E-002, 2.0807387E-004, 9.1002834E-006, 8.5533117E-004, 5.2865689E+002
 1.2900086E+002, 8.5053280E-002, 1.3558394E-001, 6.2277001E-002, 2.1131309E-004, 1.0008017E-005, 8.5872647E-004, 5.2448713E+002
 1.3000734E+002, 8.4127394E-002, 1.3643354E-001, 6.2636287E-002, 2.1758947E-004, 1.2354730E-005, 8.6519152E-004, 5.2763401E+002
 1.3100088E+002, 8.5108726E-002, 1.3553620E-001, 6.2254519E-002, 2.0856874E-004, 9.4159799E-006, 8.5785037E-004, 5.2749617E+002
 1.3200390E+002, 8.4593487E-002, 1.3600869E-001, 6.2454616E-002, 2.1235055E-004, 1.0331088E-005, 8.6150831E-004, 5.2560837E+002
 1.3300121E+002, 8.6162662E-002, 1.3456441E-001, 6.1846784E-002, 2.0476588E-004, 8.6665533E-006, 8.5117936E-004, 5.2931754E+002
 1.3400369E+002, 8.5831157E-002, 1.3487251E-001, 6.1974272E-002, 2.0411083E-004, 8.6146392E-006, 8.5289542E-004, 5.2721330E+002
 1.3500652E+002, 8.5628973E-002, 1.3505877E-001, 6.2052530E-002, 2.0495371E-004, 8.8477500E-006, 8.5419848E-004, 5.2290626E+002
 1.3600032E+002, 8.6626065E-002, 1.3414268E-001, 6.1665852E-002, 1.9895047E-004, 7.1887899E-006, 8.4739132E-004, 5.2730941E+002
 1.3700687E+002, 8.6091202E-002, 1.3463371E-001, 6.1873349E-002, 2.0241825E-004, 8.4078159E-006, 8.5109357E-004, 5.2301274E+002
 1.3800647E+002, 8.6798802E-002, 1.3398204E-001, 6.1599405E-002, 1.9932096E-004, 7.5278607E-006, 8.4650276E-004, 5.2716162E+002
 1.3900352E+002, 8.7731594E-002, 1.3312483E-001, 6.1237780E-002, 1.9391017E-004, 5.6612358E-006, 8.4017743E-004, 5.2611896E+002
 1.4000125E+002, 8.4525458E-002, 1.3607910E-001, 6.2478683E-002, 2.0690597E-004, 8.5613914E-006, 8.6076523E-004, 5.2944663E+002
 1.4100047E+002, 8.6290858E-002, 1.3445334E-001, 6.1795117E-002, 1.9904075E-004, 6.7877086E-006, 8.4928256E-004, 5.2679549E+002
 1.4200133E+002, 8.5623110E-002, 1.3506409E-001, 6.2054834E-002, 2.0505018E-004, 8.8145650E-006, 8.5425120E-004, 5.2327003E+002
 1.4300653E+002, 8.5279475E-002, 1.3538482E-001, 6.2186640E-002, 2.0341638E-004, 8.1219807E-006, 8.5583354E-004, 5.3174657E+002
 1.4400216E+002, 8.5005463E-002, 1.3563694E-001, 6.2292828E-002, 2.0482796E-004, 8.3057968E-006, 8.5765535E-004, 5.2410580E+002
 1.4500608E+002, 8.5240626E-002, 1.3541921E-001, 6.2202108E-002, 2.0463818E-004, 8.3913498E-006, 8.5630268E-004, 5.2762353E+002
 1.4600577E+002, 8.6890104E-002, 1.3389560E-001, 6.1564785E-002, 2.0070409E-004, 7.7490881E-006, 8.4627845E-004, 5.1787955E+002
 1.4700685E+002, 8.5254598E-002, 1.3540143E-001, 6.2198097E-002, 2.0817016E-004, 9.7673343E-006, 8.5695287E-004, 5.2588735E+002
 1.4800314E+002, 8.4780666E-002, 1.3584149E-001, 6.2380586E-002, 2.0764711E-004, 9.1398900E-006, 8.5949238E-004, 5.2685389E+002
 1.4900193E+002, 8.5376790E-002, 1.3528482E-001, 6.2152056E-002, 2.1072793E-004, 1.0165522E-005, 8.5679859E-004, 5.2845298E+002
 1.5000629E+002, 8.5911865E-002, 1.3479288E-001, 6.1944646E-002, 2.0774987E-004, 9.3624638E-006, 8.5319584E-004, 5.2447661E+002
 1.5100109E+002, 8.4447353E-002, 1.3614557E-001, 6.2510447E-002, 2.1121963E-004, 1.0400462E-005, 8.6209061E-004, 5.2718088E+002
 1.5200711E+002, 8.5329445E-002, 1.3533326E-001, 6.2168853E-002, 2.0723653E-004, 9.7627823E-006, 8.5634191E-004, 5.2399863E+002
 1.5300640E+002, 8.6013264E-002, 1.3470370E-001, 6.1904081E-002, 2.0411504E-004, 8.7017295E-006, 8.5187915E-004, 5.2577294E+002
 1.5400205E+002, 8.5097785E-002, 1.3554600E-001, 6.2258795E-002, 2.0877659E-004, 9.7282943E-006, 8.5795403E-004, 5.2136594E+002
