s,,,,,,,
Time,O2 EXHAUST,CO2 EXHAUST,H2O EXHAUST,CO EXHAUST,FUEL EXHAUST,SOOT EXHAUST,TEMP EXHAUST
 0.0000000E+000, 2.3099739E-001, 5.9146498E-004, 5.9412092E-003, 0.0000000E+000, 0.0000000E+000, 0.0000000E+000, 2.0000000E+001
 1.0022027E+000, 2.3099739E-001, 5.9146498E-004, 5.9412092E-003, 6.7983975E-025, 4.2305587E-022, 5.3843757E-024, 2.0339460E+001
 2.0033310E+000, 2.2368388E-001, 6.4809491E-003, 9.6077331E-003, 1.0790847E-005, 4.9261353E-004, 2.6715959E-005, 9.8256365E+001
 3.0028159E+000, 2.1888369E-001, 1.0380933E-002, 1.2037173E-002, 1.8246509E-005, 6.3189285E-004, 4.4473131E-005, 1.4702891E+002
 4.0056361E+000, 2.1158870E-001, 1.6316343E-002, 1.5739611E-002, 3.2837281E-005, 7.7483354E-004, 7.2193225E-005, 2.1428052E+002
 5.0056898E+000, 2.0544138E-001, 2.1346952E-002, 1.8868554E-002, 3.8489227E-005, 7.9192687E-004, 9.4247756E-005, 2.6873839E+002
 6.0046215E+000, 1.9840915E-001, 2.7135799E-002, 2.2459338E-002, 3.7723430E-005, 6.8561869E-004, 1.1806752E-004, 3.2097626E+002
 7.0061590E+000, 1.9014934E-001, 3.3963023E-002, 2.6690508E-002, 3.3765116E-005, 4.3691040E-004, 1.4550462E-004, 3.7933148E+002
 8.0065511E+000, 1.8250520E-001, 4.0282643E-002, 3.0605551E-002, 2.9035587E-005, 2.0780713E-004, 1.7067334E-004, 4.1802884E+002
 9.0071048E+000, 1.7383234E-001, 4.7428220E-002, 3.5036660E-002, 2.7127495E-005, 5.1317936E-005, 1.9986924E-004, 4.5347838E+002
 1.0005728E+001, 1.6575655E-001, 5.4059248E-002, 3.9152769E-002, 2.8557968E-005, 9.6152029E-007, 2.2764932E-004, 4.7804079E+002
 1.1007998E+001, 1.5926372E-001, 5.9380590E-002, 4.2458121E-002, 3.1393940E-005, 1.6168150E-007, 2.5030461E-004, 4.9005378E+002
 1.2002326E+001, 1.5122288E-001, 6.5970379E-002, 4.6551427E-002, 3.4949951E-005, 1.7758695E-007, 2.7836968E-004, 5.0656607E+002
 1.3004256E+001, 1.4496556E-001, 7.1098521E-002, 4.9736812E-002, 3.7712858E-005, 1.7073895E-007, 3.0020885E-004, 5.1273427E+002
 1.4007892E+001, 1.3915629E-001, 7.5859440E-002, 5.2694112E-002, 4.0290697E-005, 1.7805365E-007, 3.2048687E-004, 5.1704193E+002
 1.5005769E+001, 1.3414297E-001, 7.9968097E-002, 5.5246202E-002, 4.2480815E-005, 1.8743422E-007, 3.3797933E-004, 5.2338739E+002
 1.6001904E+001, 1.2955497E-001, 8.3728209E-002, 5.7581779E-002, 4.4475328E-005, 1.7574002E-007, 3.5398576E-004, 5.2022116E+002
 1.7000194E+001, 1.2543559E-001, 8.7104339E-002, 5.9678762E-002, 4.6206195E-005, 1.4860160E-007, 3.6834476E-004, 5.2314761E+002
 1.8006787E+001, 1.2158828E-001, 9.0257329E-002, 6.1637309E-002, 4.7935079E-005, 1.6413307E-007, 3.8177883E-004, 5.2221087E+002
 1.9008451E+001, 1.1813763E-001, 9.3085262E-002, 6.3393914E-002, 4.9467979E-005, 1.8581901E-007, 3.9382411E-004, 5.2446548E+002
 2.0009119E+001, 1.1496557E-001, 9.5684920E-002, 6.5008688E-002, 5.0851990E-005, 1.8605138E-007, 4.0489169E-004, 5.2543546E+002
 2.1000438E+001, 1.1205054E-001, 9.8073933E-002, 6.6492619E-002, 5.2123116E-005, 1.8123966E-007, 4.1506232E-004, 5.2488914E+002
 2.2000904E+001, 1.0961963E-001, 1.0006626E-001, 6.7730077E-002, 5.3132917E-005, 1.5983697E-007, 4.2353339E-004, 5.2451247E+002
 2.3009466E+001, 1.0719242E-001, 1.0205555E-001, 6.8965659E-002, 5.4150624E-005, 1.2888724E-007, 4.3199354E-004, 5.2059427E+002
 2.4004788E+001, 1.0480677E-001, 1.0401070E-001, 7.0180106E-002, 5.5195585E-005, 1.2302038E-007, 4.4031813E-004, 5.1916803E+002
 2.5001385E+001, 1.0202577E-001, 1.0628975E-001, 7.1595841E-002, 5.6484987E-005, 1.7917408E-007, 4.5003707E-004, 5.2020321E+002
 2.6007387E+001, 1.0062778E-001, 1.0743556E-001, 7.2307473E-002, 5.7034253E-005, 1.3634918E-007, 4.5490213E-004, 5.1698484E+002
 2.7001319E+001, 9.7637779E-002, 1.0988594E-001, 7.3829598E-002, 5.8391596E-005, 1.5693643E-007, 4.6534550E-004, 5.1960841E+002
 2.8005244E+001, 9.5975267E-002, 1.1124850E-001, 7.4675901E-002, 5.9081055E-005, 1.3815125E-007, 4.7113866E-004, 5.1652457E+002
 2.9002508E+001, 9.3351709E-002, 1.1339857E-001, 7.6011474E-002, 6.0267901E-005, 1.7465086E-007, 4.8030124E-004, 5.2269329E+002
 3.0005409E+001, 9.1331606E-002, 1.1505395E-001, 7.7039900E-002, 6.1282323E-005, 2.3235922E-007, 4.8737725E-004, 5.1930856E+002
 3.1004008E+001, 8.9538125E-002, 1.1652128E-001, 7.7953725E-002, 6.3728144E-005, 1.1449361E-006, 4.9398107E-004, 5.1933087E+002
 3.2002895E+001, 8.7165331E-002, 1.1845783E-001, 7.9164230E-002, 7.0060803E-005, 4.4169181E-006, 5.0336230E-004, 5.2019446E+002
 3.3000675E+001, 8.5744230E-002, 1.1961557E-001, 7.9889842E-002, 7.5191200E-005, 7.4881761E-006, 5.0925899E-004, 5.1584926E+002
 3.4008111E+001, 8.3830650E-002, 1.2117351E-001, 8.0867354E-002, 8.2840879E-005, 1.1458508E-005, 5.1735393E-004, 5.1632519E+002
 3.5000178E+001, 8.1411971E-002, 1.2314094E-001, 8.2103503E-002, 9.3687859E-005, 1.6909202E-005, 5.2783096E-004, 5.2066091E+002
 3.6006163E+001, 7.9721293E-002, 1.2452142E-001, 8.2965713E-002, 9.7713715E-005, 1.9482575E-005, 5.3441371E-004, 5.1473141E+002
 3.7000989E+001, 7.8157737E-002, 1.2579516E-001, 8.3764167E-002, 1.0345394E-004, 2.2454261E-005, 5.4092175E-004, 5.1770560E+002
 3.8008999E+001, 7.6986221E-002, 1.2674674E-001, 8.4363483E-002, 1.0969644E-004, 2.5001302E-005, 5.4620270E-004, 5.1517730E+002
 3.9001760E+001, 7.4893163E-002, 1.2845487E-001, 8.5431451E-002, 1.1544939E-004, 2.7254244E-005, 5.5451325E-004, 5.1624653E+002
 4.0000856E+001, 7.3647070E-002, 1.2946978E-001, 8.6067788E-002, 1.2011603E-004, 3.0044349E-005, 5.5971875E-004, 5.1538199E+002
 4.1006180E+001, 7.1886629E-002, 1.3091282E-001, 8.6963827E-002, 1.2067334E-004, 3.0163187E-005, 5.6581701E-004, 5.1403256E+002
 4.2008608E+001, 7.0906661E-002, 1.3171508E-001, 8.7462789E-002, 1.2154969E-004, 3.1437106E-005, 5.6932880E-004, 5.1199798E+002
 4.3009703E+001, 6.9716361E-002, 1.3268294E-001, 8.8071296E-002, 1.2716003E-004, 3.4047546E-005, 5.7454168E-004, 5.1285257E+002
 4.4003536E+001, 6.8012558E-002, 1.3407638E-001, 8.8939649E-002, 1.2986071E-004, 3.4853510E-005, 5.8089401E-004, 5.1528260E+002
 4.5008884E+001, 6.6347568E-002, 1.3543010E-001, 8.9791051E-002, 1.3791376E-004, 3.7646480E-005, 5.8822928E-004, 5.1652445E+002
 4.6004550E+001, 6.5405407E-002, 1.3620276E-001, 9.0270175E-002, 1.3776284E-004, 3.9064255E-005, 5.9139823E-004, 5.1416560E+002
 4.7005109E+001, 6.4271468E-002, 1.3712262E-001, 9.0850816E-002, 1.4470027E-004, 4.1205316E-005, 5.9669676E-004, 5.1443267E+002
 4.8006759E+001, 6.3003059E-002, 1.3816641E-001, 9.1494824E-002, 1.4224038E-004, 4.1033549E-005, 6.0049397E-004, 5.1449025E+002
 4.9001346E+001, 6.1408046E-002, 1.3946311E-001, 9.2310812E-002, 1.5025768E-004, 4.2102113E-005, 6.0758534E-004, 5.1652581E+002
 5.0005074E+001, 6.0188374E-002, 1.4046123E-001, 9.2932135E-002, 1.5172352E-004, 4.2885526E-005, 6.1203501E-004, 5.1535158E+002
 5.1003589E+001, 5.9334484E-002, 1.4115837E-001, 9.3367681E-002, 1.5384631E-004, 4.3948806E-005, 6.1537853E-004, 5.1379600E+002
 5.2005134E+001, 5.8012027E-002, 1.4224481E-001, 9.4040069E-002, 1.5271775E-004, 4.2774646E-005, 6.1963787E-004, 5.1763744E+002
 5.3004552E+001, 5.7344976E-002, 1.4280172E-001, 9.4375695E-002, 1.4586184E-004, 4.1827580E-005, 6.2047531E-004, 5.1542628E+002
 5.4003049E+001, 5.6122754E-002, 1.4379427E-001, 9.5001209E-002, 1.5264305E-004, 4.3628337E-005, 6.2604152E-004, 5.1770711E+002
 5.5005967E+001, 5.5165294E-002, 1.4457494E-001, 9.5489817E-002, 1.5563039E-004, 4.5722125E-005, 6.2991649E-004, 5.1837865E+002
 5.6002114E+001, 5.4312769E-002, 1.4526909E-001, 9.5925201E-002, 1.5893231E-004, 4.7904871E-005, 6.3350044E-004, 5.1666050E+002
 5.7009296E+001, 5.3373016E-002, 1.4602663E-001, 9.6408052E-002, 1.6789447E-004, 5.1147888E-005, 6.3856056E-004, 5.1495479E+002
 5.8000921E+001, 5.2723309E-002, 1.4656336E-001, 9.6737070E-002, 1.6514482E-004, 5.1144425E-005, 6.4019480E-004, 5.1425045E+002
 5.9005213E+001, 5.1533507E-002, 1.4753849E-001, 9.7342865E-002, 1.6572644E-004, 5.0526153E-005, 6.4435964E-004, 5.1598977E+002
 6.0001888E+001, 5.0656215E-002, 1.4825683E-001, 9.7789737E-002, 1.6657978E-004, 5.0449895E-005, 6.4751880E-004, 5.1794017E+002
 6.1008890E+001, 5.0113923E-002, 1.4870296E-001, 9.8064803E-002, 1.6540100E-004, 5.1995999E-005, 6.4911447E-004, 5.1559383E+002
 6.2003496E+001, 4.8965674E-002, 1.4962915E-001, 9.8655173E-002, 1.7636210E-004, 5.2835596E-005, 6.5530190E-004, 5.1775930E+002
 6.3011042E+001, 4.8344626E-002, 1.5013682E-001, 9.8971631E-002, 1.7741378E-004, 5.3949773E-005, 6.5763075E-004, 5.1679664E+002
 6.4006133E+001, 4.7441414E-002, 1.5087410E-001, 9.9432241E-002, 1.7964993E-004, 5.5785307E-005, 6.6116491E-004, 5.1261986E+002
 6.5001443E+001, 4.6948805E-002, 1.5127681E-001, 9.9683494E-002, 1.8063776E-004, 5.5418155E-005, 6.6304516E-004, 5.1599792E+002
 6.6003495E+001, 4.5833777E-002, 1.5218799E-001, 1.0025217E-001, 1.8299841E-004, 5.5450195E-005, 6.6732647E-004, 5.1577524E+002
 6.7001218E+001, 4.5032820E-002, 1.5283861E-001, 1.0066224E-001, 1.8746163E-004, 5.5522609E-005, 6.7097906E-004, 5.1710265E+002
 6.8009608E+001, 4.4401059E-002, 1.5335345E-001, 1.0098486E-001, 1.8970299E-004, 5.6352105E-005, 6.7359268E-004, 5.1638331E+002
 6.9000399E+001, 4.4645911E-002, 1.5315935E-001, 1.0085736E-001, 1.8478770E-004, 5.7342085E-005, 6.7173465E-004, 5.1460388E+002
 7.0004597E+001, 4.3581163E-002, 1.5401409E-001, 1.0140599E-001, 1.9755449E-004, 6.0430686E-005, 6.7801321E-004, 5.1377976E+002
 7.1008834E+001, 4.3139915E-002, 1.5438097E-001, 1.0162842E-001, 1.9395968E-004, 6.0776367E-005, 6.7876253E-004, 5.1444335E+002
 7.2003197E+001, 4.2375304E-002, 1.5501179E-001, 1.0201665E-001, 1.9178341E-004, 5.7356220E-005, 6.8090950E-004, 5.1743464E+002
 7.3000951E+001, 4.1826154E-002, 1.5546280E-001, 1.0229556E-001, 1.9116549E-004, 5.8632410E-005, 6.8264567E-004, 5.1585864E+002
 7.4009414E+001, 4.1252617E-002, 1.5593320E-001, 1.0258764E-001, 1.9133882E-004, 5.7348520E-005, 6.8463175E-004, 5.1468887E+002
 7.5007843E+001, 4.0234331E-002, 1.5677967E-001, 1.0310193E-001, 1.8379859E-004, 5.3590150E-005, 6.8652219E-004, 5.1995684E+002
 7.6002609E+001, 3.9967667E-002, 1.5698066E-001, 1.0324435E-001, 1.9611218E-004, 5.5755072E-005, 6.8999498E-004, 5.1889676E+002
 7.7006267E+001, 3.9608840E-002, 1.5727401E-001, 1.0342725E-001, 1.9674784E-004, 5.6009249E-005, 6.9134669E-004, 5.1812389E+002
 7.8001876E+001, 3.9667419E-002, 1.5722730E-001, 1.0339663E-001, 1.9561075E-004, 5.7402966E-005, 6.9090937E-004, 5.1432259E+002
 7.9009911E+001, 3.8999855E-002, 1.5778114E-001, 1.0373429E-001, 1.9148346E-004, 5.4648576E-005, 6.9231910E-004, 5.1619054E+002
 8.0008964E+001, 3.9104252E-002, 1.5770846E-001, 1.0367617E-001, 1.8243009E-004, 5.3499824E-005, 6.9007691E-004, 5.1593248E+002
 8.1006276E+001, 3.9025177E-002, 1.5776911E-001, 1.0371752E-001, 1.8502890E-004, 5.6412676E-005, 6.9088538E-004, 5.1642729E+002
 8.2003257E+001, 3.8577596E-002, 1.5813047E-001, 1.0394717E-001, 1.8883156E-004, 5.8408371E-005, 6.9319789E-004, 5.1551653E+002
 8.3008352E+001, 3.7556581E-002, 1.5894267E-001, 1.0447636E-001, 2.0642075E-004, 6.0910630E-005, 7.0033414E-004, 5.1829273E+002
 8.4008338E+001, 3.7381231E-002, 1.5908031E-001, 1.0456789E-001, 2.1068723E-004, 6.1880684E-005, 7.0181913E-004, 5.1613942E+002
 8.5006048E+001, 3.6967630E-002, 1.5942805E-001, 1.0477546E-001, 2.0501320E-004, 5.9005654E-005, 7.0204336E-004, 5.1698132E+002
 8.6006280E+001, 3.6177928E-002, 1.6005724E-001, 1.0518421E-001, 2.1780831E-004, 6.1678608E-005, 7.0739351E-004, 5.1717149E+002
 8.7005125E+001, 3.6135617E-002, 1.6009381E-001, 1.0520489E-001, 2.1641664E-004, 6.2148311E-005, 7.0724665E-004, 5.1608976E+002
 8.8004285E+001, 3.5995233E-002, 1.6021450E-001, 1.0527393E-001, 2.1236755E-004, 6.2886229E-005, 7.0687855E-004, 5.1802543E+002
 8.9008489E+001, 3.5734946E-002, 1.6043791E-001, 1.0540283E-001, 2.0562461E-004, 6.0494408E-005, 7.0635847E-004, 5.1655721E+002
 9.0000152E+001, 3.5302221E-002, 1.6078248E-001, 1.0562645E-001, 2.1247519E-004, 6.4192137E-005, 7.0925488E-004, 5.1254827E+002
 9.1000092E+001, 3.5178344E-002, 1.6088139E-001, 1.0569057E-001, 2.1439310E-004, 6.4152300E-005, 7.1007590E-004, 5.1753126E+002
 9.2008555E+001, 3.5348288E-002, 1.6075984E-001, 1.0559675E-001, 2.0161383E-004, 6.4874613E-005, 7.0683236E-004, 5.1516968E+002
 9.3007699E+001, 3.4192108E-002, 1.6169403E-001, 1.0619082E-001, 2.1168677E-004, 6.4357313E-005, 7.1286256E-004, 5.1588626E+002
 9.4007532E+001, 3.3926241E-002, 1.6191164E-001, 1.0632659E-001, 2.1221743E-004, 6.2771700E-005, 7.1387792E-004, 5.1716671E+002
 9.5000190E+001, 3.3743067E-002, 1.6205621E-001, 1.0642207E-001, 2.1623426E-004, 6.2840346E-005, 7.1533814E-004, 5.1668482E+002
 9.6006940E+001, 3.4263306E-002, 1.6165657E-001, 1.0614698E-001, 1.9737162E-004, 6.0089131E-005, 7.0963814E-004, 5.1541134E+002
 9.7000873E+001, 3.2921440E-002, 1.6272385E-001, 1.0684275E-001, 2.2074313E-004, 6.2292595E-005, 7.1907097E-004, 5.1446598E+002
 9.8003674E+001, 3.3375518E-002, 1.6237743E-001, 1.0660172E-001, 2.0259958E-004, 5.9690048E-005, 7.1374567E-004, 5.1707070E+002
 9.9005717E+001, 3.2734129E-002, 1.6290556E-001, 1.0692793E-001, 2.0158606E-004, 5.6194665E-005, 7.1571650E-004, 5.1675126E+002
 1.0000687E+002, 3.2728609E-002, 1.6291055E-001, 1.0693009E-001, 2.0094903E-004, 5.8449020E-005, 7.1560061E-004, 5.1566498E+002
 1.0100386E+002, 3.2356494E-002, 1.6319620E-001, 1.0712638E-001, 2.1421299E-004, 6.3187568E-005, 7.1962795E-004, 5.1512316E+002
 1.0200380E+002, 3.2038108E-002, 1.6346275E-001, 1.0728668E-001, 2.1068961E-004, 6.0740062E-005, 7.1997687E-004, 5.1911780E+002
 1.0300443E+002, 3.2094636E-002, 1.6342149E-001, 1.0725589E-001, 2.0707802E-004, 6.0601167E-005, 7.1903159E-004, 5.1769178E+002
 1.0400439E+002, 3.1957471E-002, 1.6352208E-001, 1.0733020E-001, 2.1535069E-004, 6.2065844E-005, 7.2122204E-004, 5.1571143E+002
 1.0500753E+002, 3.1612850E-002, 1.6380056E-001, 1.0750704E-001, 2.1818637E-004, 6.3026237E-005, 7.2298380E-004, 5.1094438E+002
 1.0600163E+002, 3.1552882E-002, 1.6383838E-001, 1.0754176E-001, 2.2600788E-004, 6.4958958E-005, 7.2481746E-004, 5.1336055E+002
 1.0700625E+002, 3.1551169E-002, 1.6386171E-001, 1.0753447E-001, 2.1088864E-004, 6.1415799E-005, 7.2167251E-004, 5.1657555E+002
 1.0800702E+002, 3.1094949E-002, 1.6422084E-001, 1.0777224E-001, 2.2129354E-004, 6.3634703E-005, 7.2539128E-004, 5.1522707E+002
 1.0900333E+002, 3.0592589E-002, 1.6461736E-001, 1.0803356E-001, 2.3194056E-004, 6.6412210E-005, 7.2931690E-004, 5.1670182E+002
 1.1000072E+002, 3.0315535E-002, 1.6484100E-001, 1.0817608E-001, 2.3456383E-004, 6.5882937E-005, 7.3080593E-004, 5.1580788E+002
 1.1100799E+002, 3.0294987E-002, 1.6484648E-001, 1.0819079E-001, 2.4242005E-004, 6.7640057E-005, 7.3251301E-004, 5.1533248E+002
 1.1200074E+002, 3.0283023E-002, 1.6487374E-001, 1.0819053E-001, 2.3048235E-004, 6.4111266E-005, 7.3006648E-004, 5.1748567E+002
 1.1300852E+002, 3.0086158E-002, 1.6503456E-001, 1.0829042E-001, 2.3057730E-004, 6.6781286E-005, 7.3075316E-004, 5.1259830E+002
 1.1400799E+002, 2.9423614E-002, 1.6556711E-001, 1.0863194E-001, 2.3831368E-004, 6.6629583E-005, 7.3461830E-004, 5.1880743E+002
 1.1500732E+002, 2.9758499E-002, 1.6531870E-001, 1.0845163E-001, 2.2010619E-004, 6.3203999E-005, 7.2968533E-004, 5.1856556E+002
 1.1600484E+002, 2.9967059E-002, 1.6513069E-001, 1.0835186E-001, 2.3182588E-004, 6.5700961E-005, 7.3141914E-004, 5.1475979E+002
 1.1700424E+002, 2.9582518E-002, 1.6543605E-001, 1.0855147E-001, 2.3888905E-004, 6.6242859E-005, 7.3419864E-004, 5.1705860E+002
 1.1800514E+002, 2.9276815E-002, 1.6567960E-001, 1.0870958E-001, 2.4376917E-004, 6.7883462E-005, 7.3625405E-004, 5.1528728E+002
 1.1900597E+002, 2.9303673E-002, 1.6564732E-001, 1.0869951E-001, 2.5069516E-004, 7.0640027E-005, 7.3760523E-004, 5.1568943E+002
 1.2000926E+002, 2.8814695E-002, 1.6604686E-001, 1.0894946E-001, 2.5212732E-004, 6.7957945E-005, 7.3956764E-004, 5.1887427E+002
 1.2100159E+002, 2.8966888E-002, 1.6592238E-001, 1.0887141E-001, 2.5156298E-004, 7.0276198E-005, 7.3893095E-004, 5.1577165E+002
 1.2200625E+002, 2.9155040E-002, 1.6579219E-001, 1.0876632E-001, 2.3466772E-004, 6.8310320E-005, 7.3476914E-004, 5.1669769E+002
 1.2300034E+002, 2.8782034E-002, 1.6609660E-001, 1.0895713E-001, 2.3602126E-004, 6.6274079E-005, 7.3632056E-004, 5.1857094E+002
 1.2400146E+002, 2.8843646E-002, 1.6603446E-001, 1.0892987E-001, 2.4387427E-004, 6.9268096E-005, 7.3774682E-004, 5.1632372E+002
 1.2500789E+002, 2.8898794E-002, 1.6599389E-001, 1.0890002E-001, 2.4062037E-004, 6.8829525E-005, 7.3688108E-004, 5.1591672E+002
 1.2600519E+002, 2.8921731E-002, 1.6597221E-001, 1.0888899E-001, 2.4230884E-004, 7.1437495E-005, 7.3715327E-004, 5.1546009E+002
 1.2700081E+002, 2.8319709E-002, 1.6646102E-001, 1.0919800E-001, 2.4629734E-004, 6.7959066E-005, 7.4003363E-004, 5.1838662E+002
 1.2800254E+002, 2.8104886E-002, 1.6664847E-001, 1.0930299E-001, 2.3844782E-004, 6.6780333E-005, 7.3912730E-004, 5.1676414E+002
 1.2900507E+002, 2.8390477E-002, 1.6642486E-001, 1.0915412E-001, 2.3138940E-004, 6.3075046E-005, 7.3668751E-004, 5.2124838E+002
 1.3000416E+002, 2.7913397E-002, 1.6680405E-001, 1.0940124E-001, 2.3964317E-004, 6.5656973E-005, 7.4002820E-004, 5.2003257E+002
 1.3101119E+002, 2.8396077E-002, 1.6640598E-001, 1.0915619E-001, 2.4096886E-004, 6.7378572E-005, 7.3866317E-004, 5.1609259E+002
 1.3201054E+002, 2.8242567E-002, 1.6654221E-001, 1.0923058E-001, 2.3393370E-004, 6.5072928E-005, 7.3771924E-004, 5.1746180E+002
 1.3300965E+002, 2.8276052E-002, 1.6652524E-001, 1.0920987E-001, 2.2685244E-004, 6.2250289E-005, 7.3613067E-004, 5.1894284E+002
 1.3400860E+002, 2.8557482E-002, 1.6628950E-001, 1.0906844E-001, 2.3020025E-004, 6.3371768E-005, 7.3587175E-004, 5.1598458E+002
 1.3500023E+002, 2.8200449E-002, 1.6658834E-001, 1.0924791E-001, 2.2608672E-004, 6.2194393E-005, 7.3622790E-004, 5.1742797E+002
 1.3600387E+002, 2.8241041E-002, 1.6654989E-001, 1.0922864E-001, 2.2927865E-004, 6.5684603E-005, 7.3675300E-004, 5.1559174E+002
 1.3700678E+002, 2.8644986E-002, 1.6622532E-001, 1.0902078E-001, 2.2476247E-004, 6.3699946E-005, 7.3443994E-004, 5.1632346E+002
 1.3800450E+002, 2.7686280E-002, 1.6700694E-001, 1.0951098E-001, 2.2843192E-004, 6.1164155E-005, 7.3846506E-004, 5.1747355E+002
 1.3900071E+002, 2.7818612E-002, 1.6688424E-001, 1.0944861E-001, 2.3798542E-004, 6.5007007E-005, 7.4000503E-004, 5.1534307E+002
 1.4000103E+002, 2.7506879E-002, 1.6714220E-001, 1.0960642E-001, 2.3644422E-004, 6.4385811E-005, 7.4074334E-004, 5.1774271E+002
 1.4100952E+002, 2.7986204E-002, 1.6676183E-001, 1.0935722E-001, 2.2726673E-004, 6.5160309E-005, 7.3719972E-004, 5.1581343E+002
 1.4200482E+002, 2.7354366E-002, 1.6724814E-001, 1.0969077E-001, 2.4939764E-004, 6.9304068E-005, 7.4395954E-004, 5.1311041E+002
 1.4300849E+002, 2.7361303E-002, 1.6724326E-001, 1.0968671E-001, 2.4868368E-004, 7.0337015E-005, 7.4378624E-004, 5.2014537E+002
 1.4400367E+002, 2.7069259E-002, 1.6747895E-001, 1.0983718E-001, 2.5162833E-004, 6.8741864E-005, 7.4539407E-004, 5.1902158E+002
 1.4500560E+002, 2.6935532E-002, 1.6759489E-001, 1.0990324E-001, 2.4754021E-004, 6.5999672E-005, 7.4499795E-004, 5.1926070E+002
 1.4600559E+002, 2.7144698E-002, 1.6743683E-001, 1.0979171E-001, 2.3818627E-004, 6.4210880E-005, 7.4233755E-004, 5.1586840E+002
 1.4700531E+002, 2.6916517E-002, 1.6763118E-001, 1.0990547E-001, 2.3344472E-004, 6.1394964E-005, 7.4212615E-004, 5.1726971E+002
 1.4800046E+002, 2.7377674E-002, 1.6725263E-001, 1.0967063E-001, 2.3345471E-004, 6.3010064E-005, 7.4055992E-004, 5.1343279E+002
 1.4900395E+002, 2.7218523E-002, 1.6736671E-001, 1.0975796E-001, 2.4495672E-004, 6.4515263E-005, 7.4349862E-004, 5.1308811E+002
 1.5000464E+002, 2.7349689E-002, 1.6727221E-001, 1.0968646E-001, 2.3600638E-004, 6.1915075E-005, 7.4118810E-004, 5.1440919E+002
 1.5100389E+002, 2.7047344E-002, 1.6751879E-001, 1.0984058E-001, 2.3680386E-004, 6.3310455E-005, 7.4238074E-004, 5.1407662E+002
 1.5200453E+002, 2.7117404E-002, 1.6746767E-001, 1.0980268E-001, 2.3251055E-004, 6.1740646E-005, 7.4124841E-004, 5.1831944E+002
 1.5301003E+002, 2.7436559E-002, 1.6719441E-001, 1.0964379E-001, 2.3991102E-004, 6.7494761E-005, 7.4170296E-004, 5.1468202E+002
 1.5400990E+002, 2.6842582E-002, 1.6768800E-001, 1.0994444E-001, 2.3602932E-004, 6.2348408E-005, 7.4291574E-004, 5.1993612E+002
