s,,,,,,,
Time,"O2 EXHAUST","CO2 EXHAUST","H2O EXHAUST","CO EXHAUST","FUEL EXHAUST","SOOT EXHAUST","TEMP EXHAUST"
 0.0000000E+000, 2.3099739E-001, 5.9146498E-004, 5.9412092E-003, 0.0000000E+000, 0.0000000E+000, 0.0000000E+000, 2.0000000E+001
 1.0043817E+000, 2.3099739E-001, 5.9146498E-004, 5.9412092E-003, 3.9331332E-031, 4.3352551E-030, 1.0594669E-031, 2.0591085E+001
 2.0027059E+000, 2.2205722E-001, 7.8127366E-003, 1.0477980E-002, 4.0557488E-005, 2.8476260E-004, 3.8615321E-005, 1.0705811E+002
 3.0024293E+000, 2.1667393E-001, 1.2175024E-002, 1.3223899E-002, 6.8358664E-005, 3.5741150E-004, 6.2649863E-005, 1.5637947E+002
 4.0034718E+000, 2.1004640E-001, 1.7569989E-002, 1.6598717E-002, 8.7982800E-005, 4.2634436E-004, 8.9209784E-005, 2.1544203E+002
 5.0057520E+000, 2.0354858E-001, 2.2868487E-002, 1.9912995E-002, 1.0694357E-004, 4.4802625E-004, 1.1522768E-004, 2.6650259E+002
 6.0023152E+000, 1.9701359E-001, 2.8257310E-002, 2.3238228E-002, 9.4289359E-005, 3.8868508E-004, 1.3484128E-004, 3.1248589E+002
 7.0004074E+000, 1.8924611E-001, 3.4673548E-002, 2.7194556E-002, 7.7058571E-005, 2.7595584E-004, 1.5773028E-004, 3.6099450E+002
 8.0042415E+000, 1.8077308E-001, 4.1674791E-002, 3.1508964E-002, 5.6430782E-005, 1.5503487E-004, 1.8231472E-004, 4.0667163E+002
 9.0022545E+000, 1.7095323E-001, 4.9780441E-002, 3.6507587E-002, 3.5173244E-005, 3.9803852E-005, 2.1133990E-004, 4.4745640E+002
 1.0001778E+001, 1.6414898E-001, 5.5374842E-002, 3.9971260E-002, 3.0181346E-005, 4.0577316E-006, 2.3344812E-004, 4.6608590E+002
 1.1004849E+001, 1.5623238E-001, 6.1864907E-002, 4.4001263E-002, 3.2725035E-005, 1.7637808E-007, 2.6088296E-004, 4.8342819E+002
 1.2006981E+001, 1.4796410E-001, 6.8641148E-002, 4.8210352E-002, 3.6358028E-005, 8.5069884E-008, 2.8973705E-004, 4.9708270E+002
 1.3001997E+001, 1.4395269E-001, 7.1928686E-002, 5.0252416E-002, 3.8118466E-005, 8.9388007E-008, 3.0373533E-004, 4.9836393E+002
 1.4002346E+001, 1.3440753E-001, 7.9751019E-002, 5.5111629E-002, 4.2549436E-005, 2.0870836E-007, 3.3709464E-004, 5.1643528E+002
 1.5001904E+001, 1.2713786E-001, 8.5708120E-002, 5.8812617E-002, 4.6237491E-005, 3.3542473E-007, 3.6256669E-004, 5.2432071E+002
 1.6002831E+001, 1.2067942E-001, 9.1001813E-002, 6.2100104E-002, 4.8581376E-005, 2.3299111E-007, 3.8500193E-004, 5.2687157E+002
 1.7007379E+001, 1.1429863E-001, 9.6231274E-002, 6.5348294E-002, 5.1308875E-005, 2.2116804E-007, 4.0725328E-004, 5.3343763E+002
 1.8000150E+001, 1.0776918E-001, 1.0158241E-001, 6.8672222E-002, 5.4211463E-005, 1.7518204E-007, 4.3004631E-004, 5.3407683E+002
 1.9005402E+001, 1.0543263E-001, 1.0349711E-001, 6.9861749E-002, 5.5379152E-005, 2.2514619E-007, 4.3822960E-004, 5.2803240E+002
 2.0004386E+001, 9.9952345E-002, 1.0798848E-001, 7.2651552E-002, 5.7766580E-005, 2.1153530E-007, 4.5735002E-004, 5.2789907E+002
 2.1007567E+001, 9.4505746E-002, 1.1245165E-001, 7.5424420E-002, 6.0545153E-005, 3.4924285E-007, 4.7643743E-004, 5.3239741E+002
 2.2006746E+001, 9.1049911E-002, 1.1528405E-001, 7.7183588E-002, 6.1932159E-005, 3.2517940E-007, 4.8846994E-004, 5.3110368E+002
 2.3004216E+001, 8.5601941E-002, 1.1971867E-001, 7.9967693E-002, 8.4838732E-005, 7.7227975E-006, 5.1175459E-004, 5.3040657E+002
 2.4000422E+001, 8.3205931E-002, 1.2168713E-001, 8.1185650E-002, 8.2583610E-005, 6.7882282E-006, 5.1942678E-004, 5.2536599E+002
 2.5008575E+001, 7.9000034E-002, 1.2511632E-001, 8.3332891E-002, 9.6376951E-005, 1.1779087E-005, 5.3659182E-004, 5.2519295E+002
 2.6004420E+001, 7.4064524E-002, 1.2913344E-001, 8.5855581E-002, 1.1760106E-004, 1.6850988E-005, 5.5778599E-004, 5.2718818E+002
 2.7007335E+001, 7.1034109E-002, 1.3159459E-001, 8.7406551E-002, 1.3435976E-004, 2.0661164E-005, 5.7157609E-004, 5.2535126E+002
 2.8003556E+001, 6.5929757E-002, 1.3574751E-001, 9.0015323E-002, 1.5687844E-004, 3.0290749E-005, 5.9361044E-004, 5.3372944E+002
 2.9007259E+001, 6.2523299E-002, 1.3853012E-001, 9.1753130E-002, 1.6487979E-004, 3.0232993E-005, 6.0685481E-004, 5.3001577E+002
 3.0004228E+001, 5.9131475E-002, 1.4130371E-001, 9.3482392E-002, 1.7083389E-004, 2.9658341E-005, 6.1962284E-004, 5.3000432E+002
 3.1006556E+001, 5.7472959E-002, 1.4266324E-001, 9.4326351E-002, 1.7120684E-004, 3.0702664E-005, 6.2533558E-004, 5.2707104E+002
 3.2002983E+001, 5.1894251E-002, 1.4719051E-001, 9.7183087E-002, 2.0463008E-004, 3.7027301E-005, 6.5125887E-004, 5.2981725E+002
 3.3000073E+001, 4.8721702E-002, 1.4978792E-001, 9.8798787E-002, 2.0762984E-004, 3.8982218E-005, 6.6266359E-004, 5.2933995E+002
 3.4002810E+001, 4.5756582E-002, 1.5219616E-001, 1.0031684E-001, 2.2432171E-004, 3.9963958E-005, 6.7622010E-004, 5.2877323E+002
 3.5010835E+001, 4.2695258E-002, 1.5469981E-001, 1.0187739E-001, 2.2940390E-004, 3.9896627E-005, 6.8768281E-004, 5.3042623E+002
 3.6002054E+001, 4.0706004E-002, 1.5630745E-001, 1.0289869E-001, 2.4604501E-004, 4.2443269E-005, 6.9791143E-004, 5.2723582E+002
 3.7004090E+001, 3.4931346E-002, 1.6097707E-001, 1.0586228E-001, 2.9234308E-004, 5.0105032E-005, 7.2718495E-004, 5.3126216E+002
 3.8003416E+001, 3.2387592E-002, 1.6303234E-001, 1.0716895E-001, 3.1430083E-004, 5.0927996E-005, 7.4040810E-004, 5.3361038E+002
 3.9005489E+001, 2.9615291E-002, 1.6521393E-001, 1.0861466E-001, 3.7842490E-004, 6.1539799E-005, 7.6319518E-004, 5.3117729E+002
 4.0002699E+001, 2.7434010E-002, 1.6700362E-001, 1.0972381E-001, 3.7764075E-004, 6.3750650E-005, 7.7044205E-004, 5.2455561E+002
 4.1007544E+001, 2.2329035E-002, 1.7121651E-001, 1.1231239E-001, 3.6023993E-004, 5.5719365E-005, 7.8416601E-004, 5.4064408E+002
 4.2000519E+001, 2.0114962E-002, 1.7301819E-001, 1.1344526E-001, 3.7073956E-004, 5.2894224E-005, 7.9388183E-004, 5.3394267E+002
 4.3009560E+001, 1.6914182E-002, 1.7554407E-001, 1.1511342E-001, 4.4097891E-004, 5.5763739E-005, 8.1940651E-004, 5.3860674E+002
 4.4002462E+001, 1.4995696E-002, 1.7699933E-001, 1.1613583E-001, 5.2404779E-004, 6.3383281E-005, 8.4324609E-004, 5.3419135E+002
 4.5006831E+001, 1.0780610E-002, 1.8017957E-001, 1.1839079E-001, 7.1987254E-004, 7.1587983E-005, 8.9840772E-004, 5.4096578E+002
 4.6004446E+001, 1.0173304E-002, 1.8010103E-001, 1.1892551E-001, 1.1251163E-003, 1.0848491E-004, 9.8496765E-004, 5.3110092E+002
 4.7001027E+001, 8.3673162E-003, 1.8079221E-001, 1.2015960E-001, 1.6843302E-003, 1.2944801E-004, 1.1077282E-003, 5.2792798E+002
 4.8006495E+001, 6.3735651E-003, 1.8215417E-001, 1.2127654E-001, 1.8733397E-003, 1.6923930E-004, 1.1538953E-003, 5.2761004E+002
 4.9005814E+001, 5.1832361E-003, 1.8172715E-001, 1.2242803E-001, 2.8571909E-003, 2.7636875E-004, 1.3630664E-003, 5.2163351E+002
 5.0009897E+001, 4.1231687E-003, 1.8131573E-001, 1.2344735E-001, 3.7428695E-003, 4.6533387E-004, 1.5512540E-003, 5.1698426E+002
 5.1010355E+001, 4.3439349E-003, 1.8144044E-001, 1.2321453E-001, 3.5274442E-003, 4.4973189E-004, 1.5055829E-003, 5.0877808E+002
 5.2007743E+001, 3.6243701E-003, 1.8003372E-001, 1.2433730E-001, 4.9139184E-003, 7.0241795E-004, 1.7970188E-003, 5.0165211E+002
 5.3004676E+001, 3.2371476E-003, 1.7977544E-001, 1.2476236E-001, 5.3203953E-003, 7.2617026E-004, 1.8830984E-003, 5.0123382E+002
 5.4006888E+001, 2.8442764E-003, 1.7931412E-001, 1.2521022E-001, 5.8313897E-003, 1.0696027E-003, 1.9907464E-003, 4.9886077E+002
 5.5000969E+001, 2.6776137E-003, 1.7919182E-001, 1.2542305E-001, 6.0313888E-003, 9.5315245E-004, 2.0331197E-003, 4.9144635E+002
 5.6003909E+001, 2.2657076E-003, 1.7748914E-001, 1.2633826E-001, 7.4025612E-003, 1.5485498E-003, 2.3200494E-003, 4.9016277E+002
 5.7001241E+001, 2.1151103E-003, 1.7762029E-001, 1.2642710E-001, 7.4074570E-003, 1.4722125E-003, 2.3216422E-003, 4.8762364E+002
 5.8005579E+001, 2.1562267E-003, 1.7667970E-001, 1.2672193E-001, 8.0182963E-003, 1.7261066E-003, 2.4487113E-003, 4.8245414E+002
 5.9008727E+001, 2.1728178E-003, 1.7602041E-001, 1.2691434E-001, 8.4370416E-003, 2.0265028E-003, 2.5357605E-003, 4.7531461E+002
 6.0007784E+001, 2.0310305E-003, 1.7488087E-001, 1.2744911E-001, 9.3000585E-003, 2.2514150E-003, 2.7160727E-003, 4.7596481E+002
 6.1006628E+001, 2.2244826E-003, 1.7470360E-001, 1.2732113E-001, 9.2882812E-003, 2.4364773E-003, 2.7128136E-003, 4.7048294E+002
 6.2001478E+001, 2.1305464E-003, 1.7324209E-001, 1.2784453E-001, 1.0284046E-002, 3.1672349E-003, 2.9202544E-003, 4.6630539E+002
 6.3002839E+001, 2.2738713E-003, 1.7255134E-001, 1.2797078E-001, 1.0669868E-002, 3.3296996E-003, 3.0001142E-003, 4.6693553E+002
 6.4001305E+001, 2.1345831E-003, 1.7148469E-001, 1.2839821E-001, 1.1428429E-002, 3.9329475E-003, 3.1583336E-003, 4.5864774E+002
 6.5007487E+001, 2.2278428E-003, 1.7154829E-001, 1.2838353E-001, 1.1389112E-002, 3.4865942E-003, 3.1501665E-003, 4.6107702E+002
 6.6002855E+001, 2.3649601E-003, 1.6967493E-001, 1.2875434E-001, 1.2458760E-002, 4.8409225E-003, 3.3717434E-003, 4.5176967E+002
 6.7009539E+001, 2.3139101E-003, 1.6916141E-001, 1.2902079E-001, 1.2864642E-002, 4.7612960E-003, 3.4566375E-003, 4.5002731E+002
 6.8005788E+001, 2.3621201E-003, 1.6893167E-001, 1.2911587E-001, 1.3028791E-002, 4.5480200E-003, 3.4908792E-003, 4.4861070E+002
 6.9000077E+001, 2.2461543E-003, 1.6834218E-001, 1.2942920E-001, 1.3500693E-002, 4.6600085E-003, 3.5896140E-003, 4.5053964E+002
 7.0004848E+001, 2.2013024E-003, 1.6686187E-001, 1.2994789E-001, 1.4500736E-002, 5.2462601E-003, 3.7978940E-003, 4.5129067E+002
 7.1010441E+001, 2.4236991E-003, 1.6608901E-001, 1.2999711E-001, 1.4869291E-002, 5.6272617E-003, 3.8737120E-003, 4.4557536E+002
 7.2009856E+001, 2.5667835E-003, 1.6592260E-001, 1.2986716E-001, 1.4852228E-002, 6.0116093E-003, 3.8693651E-003, 4.4027769E+002
 7.3007519E+001, 2.6654397E-003, 1.6500140E-001, 1.3011558E-001, 1.5422304E-002, 6.2166557E-003, 3.9877747E-003, 4.3522499E+002
 7.4005932E+001, 2.5473834E-003, 1.6413188E-001, 1.3038827E-001, 1.5989621E-002, 7.1054354E-003, 4.1058083E-003, 4.3775869E+002
 7.5008202E+001, 2.5986052E-003, 1.6318785E-001, 1.3067880E-001, 1.6598902E-002, 7.3453912E-003, 4.2325290E-003, 4.3726201E+002
 7.6007575E+001, 2.6562502E-003, 1.6332807E-001, 1.3062999E-001, 1.6503531E-002, 7.0641888E-003, 4.2126615E-003, 4.3573484E+002
 7.7003306E+001, 2.6193917E-003, 1.6210947E-001, 1.3100635E-001, 1.7292595E-002, 7.7992983E-003, 4.3767917E-003, 4.3559823E+002
 7.8007679E+001, 2.7470141E-003, 1.6149082E-001, 1.3105484E-001, 1.7594561E-002, 8.2703845E-003, 4.4389719E-003, 4.3597351E+002
 7.9001648E+001, 2.8054913E-003, 1.6050622E-001, 1.3126688E-001, 1.8168538E-002, 8.9536090E-003, 4.5579564E-003, 4.2800928E+002
 8.0008982E+001, 2.7524080E-003, 1.6004448E-001, 1.3152434E-001, 1.8545684E-002, 8.8228511E-003, 4.6369040E-003, 4.2984165E+002
 8.1012083E+001, 2.7740180E-003, 1.5914823E-001, 1.3174778E-001, 1.9089205E-002, 9.4255241E-003, 4.7497243E-003, 4.2819206E+002
 8.2010017E+001, 2.7779483E-003, 1.5852460E-001, 1.3196393E-001, 1.9508542E-002, 9.5885227E-003, 4.8370479E-003, 4.3051448E+002
 8.3011013E+001, 2.8942613E-003, 1.5794794E-001, 1.3209500E-001, 1.9848025E-002, 9.6099937E-003, 4.9074448E-003, 4.2884086E+002
 8.4005833E+001, 2.9924977E-003, 1.5686837E-001, 1.3234004E-001, 2.0485278E-002, 1.0153340E-002, 5.0396019E-003, 4.2446582E+002
 8.5008688E+001, 2.9950170E-003, 1.5636959E-001, 1.3246254E-001, 2.0786668E-002, 1.0537843E-002, 5.1021550E-003, 4.2379275E+002
 8.6007150E+001, 3.1133402E-003, 1.5620203E-001, 1.3247803E-001, 2.0868688E-002, 1.0302286E-002, 5.1190454E-003, 4.2378476E+002
 8.7005341E+001, 3.1833179E-003, 1.5436631E-001, 1.3280782E-001, 2.1895220E-002, 1.2067120E-002, 5.3315351E-003, 4.2150289E+002
 8.8005441E+001, 3.2326992E-003, 1.5380805E-001, 1.3304834E-001, 2.2301592E-002, 1.1785895E-002, 5.4163486E-003, 4.2378607E+002
 8.9008677E+001, 3.0896542E-003, 1.5341034E-001, 1.3335258E-001, 2.2683700E-002, 1.1669780E-002, 5.4966253E-003, 4.2145629E+002
 9.0006052E+001, 3.1042413E-003, 1.5332951E-001, 1.3331669E-001, 2.2694686E-002, 1.1950900E-002, 5.4986466E-003, 4.2115538E+002
 9.1001097E+001, 3.3096762E-003, 1.5242028E-001, 1.3335391E-001, 2.3115216E-002, 1.2738222E-002, 5.5850441E-003, 4.2094559E+002
 9.2002639E+001, 3.1932532E-003, 1.5181926E-001, 1.3361560E-001, 2.3557330E-002, 1.3133213E-002, 5.6773453E-003, 4.1868371E+002
 9.3012006E+001, 3.1503545E-003, 1.5132733E-001, 1.3379687E-001, 2.3896120E-002, 1.3401058E-002, 5.7479452E-003, 4.1837744E+002
 9.4000805E+001, 3.2558858E-003, 1.5054573E-001, 1.3407425E-001, 2.4424411E-002, 1.3150960E-002, 5.8579732E-003, 4.1969599E+002
 9.5004786E+001, 3.2003512E-003, 1.5017967E-001, 1.3408640E-001, 2.4594056E-002, 1.4062034E-002, 5.8928310E-003, 4.1698825E+002
 9.6006070E+001, 3.3191857E-003, 1.4959381E-001, 1.3422440E-001, 2.4942205E-002, 1.4056954E-002, 5.9650477E-003, 4.1368939E+002
 9.7006916E+001, 3.2996066E-003, 1.4933304E-001, 1.3423656E-001, 2.5065095E-002, 1.4604658E-002, 5.9903166E-003, 4.1735231E+002
 9.8004515E+001, 3.2482428E-003, 1.4899942E-001, 1.3438766E-001, 2.5314229E-002, 1.4739108E-002, 6.0423497E-003, 4.1475618E+002
 9.9006977E+001, 3.3876122E-003, 1.4820352E-001, 1.3463093E-001, 2.5825216E-002, 1.4546214E-002, 6.1486084E-003, 4.1506749E+002
 1.0001143E+002, 3.5531755E-003, 1.4682294E-001, 1.3497625E-001, 2.6661082E-002, 1.4913915E-002, 6.3221011E-003, 4.1444604E+002
 1.0100206E+002, 3.5061749E-003, 1.4603665E-001, 1.3522875E-001, 2.7177107E-002, 1.5437452E-002, 6.4294818E-003, 4.1537133E+002
 1.0200319E+002, 3.4803739E-003, 1.4592279E-001, 1.3538992E-001, 2.7336253E-002, 1.4970867E-002, 6.4631301E-003, 4.1199711E+002
 1.0300404E+002, 3.6911098E-003, 1.4404022E-001, 1.3578770E-001, 2.8426942E-002, 1.5900291E-002, 6.6891790E-003, 4.1375257E+002
 1.0400313E+002, 3.7014738E-003, 1.4362794E-001, 1.3603203E-001, 2.8772501E-002, 1.5469113E-002, 6.7615584E-003, 4.1223741E+002
 1.0500305E+002, 3.8903427E-003, 1.4179137E-001, 1.3652829E-001, 2.9909847E-002, 1.5905764E-002, 6.9978000E-003, 4.1266842E+002
 1.0600322E+002, 3.7921020E-003, 1.4188581E-001, 1.3660682E-001, 2.9923032E-002, 1.5735288E-002, 7.0010179E-003, 4.0804779E+002
 1.0701266E+002, 4.9858128E-003, 1.3849843E-001, 1.3697923E-001, 3.1640578E-002, 1.5704348E-002, 7.3552293E-003, 4.1510608E+002
 1.0800209E+002, 5.0511504E-003, 1.3879498E-001, 1.3689194E-001, 3.1450536E-002, 1.5267529E-002, 7.3157116E-003, 4.0800972E+002
 1.0900796E+002, 5.1711091E-003, 1.3758953E-001, 1.3733807E-001, 3.2278380E-002, 1.4969853E-002, 7.4882082E-003, 4.1643356E+002
 1.1000321E+002, 6.0816345E-003, 1.3736916E-001, 1.3642154E-001, 3.1741589E-002, 1.6170207E-002, 7.3722088E-003, 3.9508867E+002
 1.1100232E+002, 8.4214293E-003, 1.3502885E-001, 1.3538438E-001, 3.2029871E-002, 1.6254821E-002, 7.4243210E-003, 4.0327624E+002
 1.1200512E+002, 1.0431198E-002, 1.3519373E-001, 1.3329656E-001, 3.0515652E-002, 1.7913357E-002, 7.1003561E-003, 3.8536138E+002
 1.1300555E+002, 1.1089920E-002, 1.3441253E-001, 1.3314892E-001, 3.0747899E-002, 1.7463449E-002, 7.1469125E-003, 3.8725270E+002
 1.1400810E+002, 1.1042148E-002, 1.3460142E-001, 1.3318875E-001, 3.0692715E-002, 1.7083822E-002, 7.1358625E-003, 3.8158426E+002
 1.1500761E+002, 1.0819804E-002, 1.3595754E-001, 1.3311899E-001, 3.0054512E-002, 1.5627962E-002, 7.0046453E-003, 3.8016764E+002
 1.1601074E+002, 1.1034821E-002, 1.3466433E-001, 1.3358482E-001, 3.0932594E-002, 1.5010257E-002, 7.1875488E-003, 3.8026352E+002
 1.1701351E+002, 1.1660389E-002, 1.3221455E-001, 1.3408973E-001, 3.2337612E-002, 1.4809174E-002, 7.4786378E-003, 3.7873919E+002
 1.1800588E+002, 1.1882081E-002, 1.3020573E-001, 1.3470938E-001, 3.3633251E-002, 1.4839762E-002, 7.7481032E-003, 3.8017558E+002
 1.1900006E+002, 1.2058570E-002, 1.2941442E-001, 1.3489132E-001, 3.4100227E-002, 1.4788042E-002, 7.8449453E-003, 3.8040680E+002
 1.2000544E+002, 1.2597222E-002, 1.2691685E-001, 1.3539846E-001, 3.5529120E-002, 1.5036932E-002, 8.1409563E-003, 3.7761559E+002
 1.2101144E+002, 1.3170796E-002, 1.2568894E-001, 1.3535440E-001, 3.6028568E-002, 1.5328683E-002, 8.2429524E-003, 3.7382756E+002
 1.2200931E+002, 1.3552388E-002, 1.2391018E-001, 1.3572486E-001, 3.7052520E-002, 1.5468139E-002, 8.4551208E-003, 3.7625606E+002
 1.2301125E+002, 1.3540012E-002, 1.2275555E-001, 1.3628300E-001, 3.7935832E-002, 1.5063940E-002, 8.6397203E-003, 3.7904601E+002
 1.2401466E+002, 1.3434082E-002, 1.2224508E-001, 1.3668449E-001, 3.8432423E-002, 1.4534226E-002, 8.7440744E-003, 3.7770302E+002
 1.2500867E+002, 1.4385901E-002, 1.1968199E-001, 1.3670771E-001, 3.9556696E-002, 1.5597821E-002, 8.9745046E-003, 3.7389473E+002
 1.2600142E+002, 1.4760840E-002, 1.1836135E-001, 1.3694813E-001, 4.0292067E-002, 1.5489826E-002, 9.1266980E-003, 3.7280896E+002
 1.2700392E+002, 1.5048795E-002, 1.1737539E-001, 1.3713447E-001, 4.0845565E-002, 1.5341367E-002, 9.2412841E-003, 3.7454239E+002
 1.2800108E+002, 1.5341669E-002, 1.1559060E-001, 1.3758240E-001, 4.1925887E-002, 1.5478459E-002, 9.4655133E-003, 3.7486592E+002
 1.2900310E+002, 1.5615952E-002, 1.1487321E-001, 1.3771005E-001, 4.2322216E-002, 1.5138265E-002, 9.5475141E-003, 3.7684034E+002
 1.3000653E+002, 1.6640953E-002, 1.1372081E-001, 1.3717221E-001, 4.2447921E-002, 1.5848815E-002, 9.5696927E-003, 3.7163586E+002
 1.3100006E+002, 1.7112509E-002, 1.1152694E-001, 1.3760082E-001, 4.3691704E-002, 1.6158327E-002, 9.8272742E-003, 3.6947884E+002
 1.3200396E+002, 1.7181616E-002, 1.1057253E-001, 1.3793811E-001, 4.4336811E-002, 1.6110727E-002, 9.9616323E-003, 3.7249693E+002
 1.3300159E+002, 1.7338222E-002, 1.0898167E-001, 1.3846419E-001, 4.5387054E-002, 1.6038004E-002, 1.0180215E-002, 3.7887806E+002
 1.3400970E+002, 1.7212617E-002, 1.0867300E-001, 1.3878171E-001, 4.5738784E-002, 1.5602769E-002, 1.0254347E-002, 3.7769245E+002
 1.3500228E+002, 1.7770888E-002, 1.0697040E-001, 1.3887427E-001, 4.6538880E-002, 1.6234655E-002, 1.0418837E-002, 3.7424293E+002
 1.3601352E+002, 1.7821393E-002, 1.0631565E-001, 1.3907700E-001, 4.6962045E-002, 1.6332090E-002, 1.0506852E-002, 3.7170654E+002
 1.3700547E+002, 1.8268927E-002, 1.0474350E-001, 1.3932890E-001, 4.7814284E-002, 1.6369873E-002, 1.0683061E-002, 3.7843185E+002
 1.3801086E+002, 1.8605372E-002, 1.0461044E-001, 1.3912997E-001, 4.7732896E-002, 1.6219997E-002, 1.0665059E-002, 3.7997819E+002
 1.3900069E+002, 1.8124547E-002, 1.0347197E-001, 1.3999475E-001, 4.8823706E-002, 1.6217638E-002, 1.0894215E-002, 3.7777517E+002
 1.4000803E+002, 1.8415020E-002, 1.0244882E-001, 1.4013003E-001, 4.9359017E-002, 1.6388513E-002, 1.1004748E-002, 3.8051961E+002
 1.4100813E+002, 1.9085186E-002, 1.0136917E-001, 1.3994009E-001, 4.9693411E-002, 1.6704075E-002, 1.1071971E-002, 3.8057040E+002
 1.4200985E+002, 1.9659810E-002, 1.0041744E-001, 1.3978851E-001, 4.9999148E-002, 1.6970804E-002, 1.1133579E-002, 3.8036268E+002
 1.4300593E+002, 1.9562864E-002, 9.9972581E-002, 1.4005144E-001, 5.0373297E-002, 1.6962713E-002, 1.1211954E-002, 3.7960607E+002
 1.4400602E+002, 2.0085951E-002, 9.8433758E-002, 1.4008291E-001, 5.1060897E-002, 1.7716737E-002, 1.1353004E-002, 3.8107598E+002
 1.4500944E+002, 1.9837129E-002, 9.7873609E-002, 1.4065629E-001, 5.1697627E-002, 1.7028591E-002, 1.1487198E-002, 3.8100018E+002
 1.4601117E+002, 2.0373685E-002, 9.7031143E-002, 1.4040090E-001, 5.1885995E-002, 1.7752775E-002, 1.1524096E-002, 3.7694567E+002
 1.4700520E+002, 2.0364896E-002, 9.5868505E-002, 1.4085238E-001, 5.2700766E-002, 1.7882141E-002, 1.1693968E-002, 3.7641073E+002
 1.4801194E+002, 2.0168369E-002, 9.5992552E-002, 1.4100022E-001, 5.2749344E-002, 1.7718260E-002, 1.1704897E-002, 3.7987857E+002
 1.4900962E+002, 1.9801165E-002, 9.5684929E-002, 1.4152455E-001, 5.3244143E-002, 1.7261995E-002, 1.1809707E-002, 3.8854552E+002
 1.5000428E+002, 2.0124698E-002, 9.4718722E-002, 1.4164088E-001, 5.3741141E-002, 1.7273917E-002, 1.1912261E-002, 3.9213262E+002
 1.5100963E+002, 1.8629219E-002, 9.7669523E-002, 1.4195052E-001, 5.2680346E-002, 1.6046919E-002, 1.1697047E-002, 3.9629354E+002
 1.5200870E+002, 1.8858285E-002, 9.6077653E-002, 1.4233269E-001, 5.3632709E-002, 1.6390703E-002, 1.1894642E-002, 3.9404244E+002
 1.5300221E+002, 1.8994544E-002, 9.6392757E-002, 1.4200827E-001, 5.3273324E-002, 1.6802712E-002, 1.1818895E-002, 3.8959324E+002
 1.5400596E+002, 1.9220102E-002, 9.5427861E-002, 1.4211549E-001, 5.3765196E-002, 1.7268474E-002, 1.1920357E-002, 3.9077516E+002
