s,,,,,,,
Time,"O2 EXHAUST","CO2 EXHAUST","H2O EXHAUST","CO EXHAUST","FUEL EXHAUST","SOOT EXHAUST","TEMP EXHAUST"
 0.0000000E+000, 2.3099739E-001, 5.9146498E-004, 5.9412091E-003, 0.0000000E+000, 0.0000000E+000, 0.0000000E+000, 2.0000000E+001
 1.0050250E+000, 2.3099739E-001, 5.9146498E-004, 5.9412091E-003, 4.7311643E-031, 5.3301006E-030, 1.5456392E-031, 2.0440508E+001
 2.0056102E+000, 2.2327959E-001, 6.8856133E-003, 9.4842521E-003, 3.5972044E-005, 2.6235068E-004, 5.0047626E-005, 9.5710935E+001
 3.0013577E+000, 2.1824334E-001, 1.0996327E-002, 1.1816381E-002, 7.3330939E-005, 3.1597675E-004, 8.5733397E-005, 1.4020548E+002
 4.0017002E+000, 2.1289924E-001, 1.5367099E-002, 1.4281524E-002, 1.0170319E-004, 4.0787916E-004, 1.2122109E-004, 1.8779526E+002
 5.0052863E+000, 2.0767614E-001, 1.9658785E-002, 1.6694043E-002, 1.2295389E-004, 4.4060434E-004, 1.5463661E-004, 2.2950876E+002
 6.0065189E+000, 2.0197640E-001, 2.4378595E-002, 1.9319647E-002, 1.2432656E-004, 4.4267689E-004, 1.8662571E-004, 2.7510183E+002
 7.0034583E+000, 1.9591165E-001, 2.9401077E-002, 2.2117983E-002, 1.2912236E-004, 4.1874707E-004, 2.2138773E-004, 3.1639064E+002
 8.0034792E+000, 1.8852140E-001, 3.5558686E-002, 2.5527155E-002, 1.1756886E-004, 3.1938878E-004, 2.6023398E-004, 3.6089896E+002
 9.0003643E+000, 1.8100974E-001, 4.1822508E-002, 2.8992904E-002, 1.0399391E-004, 2.0516048E-004, 2.9935598E-004, 3.9689357E+002
 1.0000899E+001, 1.7523868E-001, 4.6633380E-002, 3.1654504E-002, 9.3418863E-005, 1.2625780E-004, 3.2937109E-004, 4.2024458E+002
 1.1007825E+001, 1.6638650E-001, 5.3997408E-002, 3.5736706E-002, 8.3774267E-005, 3.7956004E-005, 3.7673115E-004, 4.5468138E+002
 1.2006839E+001, 1.6128784E-001, 5.8224844E-002, 3.8087950E-002, 8.4533277E-005, 1.5172909E-005, 4.0528123E-004, 4.6516996E+002
 1.3003822E+001, 1.5452597E-001, 6.3822816E-002, 4.1206131E-002, 8.9308917E-005, 2.1405409E-006, 4.4390317E-004, 4.7990925E+002
 1.4003578E+001, 1.4902801E-001, 6.8369773E-002, 4.3741531E-002, 9.5330174E-005, 4.5238433E-007, 4.7573743E-004, 4.8709188E+002
 1.5000105E+001, 1.4307095E-001, 7.3295698E-002, 4.6488630E-002, 1.0216578E-004, 1.6217515E-007, 5.1029254E-004, 4.9490926E+002
 1.6005504E+001, 1.3722518E-001, 7.8129505E-002, 4.9184397E-002, 1.0890662E-004, 1.3296255E-007, 5.4420861E-004, 5.0310168E+002
 1.7003360E+001, 1.3378960E-001, 8.0970328E-002, 5.0768716E-002, 1.1288400E-004, 8.3349944E-008, 5.6414446E-004, 5.0046853E+002
 1.8005848E+001, 1.2642046E-001, 8.7063605E-002, 5.4167029E-002, 1.2150182E-004, 1.5887200E-007, 6.0692361E-004, 5.1081428E+002
 1.9005463E+001, 1.2484316E-001, 8.8367978E-002, 5.4894372E-002, 1.2324637E-004, 5.8110923E-008, 6.1605955E-004, 5.0400912E+002
 2.0009683E+001, 1.1960134E-001, 9.2702136E-002, 5.7311672E-002, 1.2943612E-004, 2.4051492E-007, 6.4650138E-004, 5.1051525E+002
 2.1001388E+001, 1.1801448E-001, 9.4014407E-002, 5.8043439E-002, 1.3120669E-004, 1.0118523E-007, 6.5569599E-004, 5.0264992E+002
 2.2004972E+001, 1.1491577E-001, 9.6576695E-002, 5.9472402E-002, 1.3478017E-004, 7.0551708E-008, 6.7367417E-004, 5.0227788E+002
 2.3000138E+001, 1.1253282E-001, 9.8547138E-002, 6.0571295E-002, 1.3752445E-004, 3.3924213E-008, 6.8749888E-004, 4.9800327E+002
 2.4003048E+001, 1.0817757E-001, 1.0214836E-001, 6.2579737E-002, 1.4260649E-004, 5.9773632E-008, 7.1277960E-004, 5.0690596E+002
 2.5002964E+001, 1.0574865E-001, 1.0415663E-001, 6.3699865E-002, 1.4551334E-004, 1.9421680E-007, 7.2689350E-004, 5.0905262E+002
 2.6001279E+001, 1.0252693E-001, 1.0682057E-001, 6.5185562E-002, 1.4926331E-004, 2.5094236E-007, 7.4559244E-004, 5.0596072E+002
 2.7008122E+001, 1.0049665E-001, 1.0849954E-001, 6.6121797E-002, 1.5151817E-004, 6.1588666E-008, 7.5735407E-004, 5.0309613E+002
 2.8004449E+001, 9.9797667E-002, 1.0907749E-001, 6.6444141E-002, 1.5234502E-004, 8.2520124E-008, 7.6141374E-004, 4.9668265E+002
 2.9000965E+001, 9.7871556E-002, 1.1067019E-001, 6.7332361E-002, 1.5455607E-004, 4.7695236E-008, 7.7258664E-004, 5.0109160E+002
 3.0000767E+001, 9.5096228E-002, 1.1295692E-001, 6.8613567E-002, 1.6247251E-004, 8.7290353E-006, 7.8965426E-004, 4.9839287E+002
 3.1001007E+001, 9.3043272E-002, 1.1463303E-001, 6.9563131E-002, 1.7666278E-004, 3.5740003E-005, 8.0397932E-004, 5.0174899E+002
 3.2000933E+001, 9.0337976E-002, 1.1672276E-001, 7.0831678E-002, 2.6205676E-004, 2.1314869E-004, 8.3648864E-004, 4.9724812E+002
 3.3002071E+001, 8.8644953E-002, 1.1813915E-001, 7.1613561E-002, 2.5750326E-004, 1.7409472E-004, 8.4501385E-004, 4.9829277E+002
 3.4003117E+001, 8.8103752E-002, 1.1859754E-001, 7.1860520E-002, 2.5123505E-004, 1.6683927E-004, 8.4673550E-004, 4.9008287E+002
 3.5008920E+001, 8.5253178E-002, 1.2074820E-001, 7.3199612E-002, 3.6611518E-004, 4.4249348E-004, 8.8603428E-004, 4.9416797E+002
 3.6009077E+001, 8.4616913E-002, 1.2119540E-001, 7.3509340E-002, 4.1482575E-004, 5.0974820E-004, 8.9957691E-004, 4.9411223E+002
 3.7006791E+001, 8.3438861E-002, 1.2205785E-001, 7.4070565E-002, 4.8014409E-004, 6.3306961E-004, 9.1950142E-004, 4.8517171E+002
 3.8002272E+001, 8.2056296E-002, 1.2307471E-001, 7.4708609E-002, 5.3887089E-004, 8.8187691E-004, 9.3903706E-004, 4.8534569E+002
 3.9004995E+001, 8.0646557E-002, 1.2414225E-001, 7.5376323E-002, 5.9811183E-004, 9.8024080E-004, 9.5902369E-004, 4.8807070E+002
 4.0006526E+001, 8.0362496E-002, 1.2426669E-001, 7.5539334E-002, 6.7263728E-004, 1.0238487E-003, 9.7598450E-004, 4.8486641E+002
 4.1006779E+001, 7.8938562E-002, 1.2529189E-001, 7.6208421E-002, 7.5221834E-004, 1.2582876E-003, 1.0000883E-003, 4.8562438E+002
 4.2000637E+001, 7.7830193E-002, 1.2606273E-001, 7.6738812E-002, 8.3371901E-004, 1.4420685E-003, 1.0228994E-003, 4.8728596E+002
 4.3001666E+001, 7.7316853E-002, 1.2623507E-001, 7.6995571E-002, 9.6295657E-004, 1.8335219E-003, 1.0520213E-003, 4.7813391E+002
 4.4008280E+001, 7.6529165E-002, 1.2669964E-001, 7.7371192E-002, 1.0572644E-003, 2.1369923E-003, 1.0755474E-003, 4.7249792E+002
 4.5007341E+001, 7.6888337E-002, 1.2663058E-001, 7.7202859E-002, 9.5238243E-004, 1.6983412E-003, 1.0523886E-003, 4.7325154E+002
 4.6008008E+001, 7.5035818E-002, 1.2780860E-001, 7.8085942E-002, 1.1355644E-003, 2.2438611E-003, 1.0999360E-003, 4.7511323E+002
 4.7008171E+001, 7.4782763E-002, 1.2775405E-001, 7.8234701E-002, 1.2789776E-003, 2.5923314E-003, 1.1306014E-003, 4.7007259E+002
 4.8004398E+001, 7.4466896E-002, 1.2806714E-001, 7.8360082E-002, 1.2404568E-003, 2.6006431E-003, 1.1243690E-003, 4.6175627E+002
 4.9000823E+001, 7.3763884E-002, 1.2856269E-001, 7.8707352E-002, 1.2975088E-003, 2.6443075E-003, 1.1400410E-003, 4.7259140E+002
 5.0006889E+001, 7.2956397E-002, 1.2877892E-001, 7.9102804E-002, 1.5189707E-003, 3.4156048E-003, 1.1894138E-003, 4.6036041E+002
 5.1004790E+001, 7.2762532E-002, 1.2899058E-001, 7.9200440E-002, 1.5024462E-003, 3.2681087E-003, 1.1872591E-003, 4.6677356E+002
 5.2001720E+001, 7.2212826E-002, 1.2930662E-001, 7.9438859E-002, 1.5537265E-003, 3.6266437E-003, 1.2004781E-003, 4.6436321E+002
 5.3004960E+001, 7.1711351E-002, 1.2954970E-001, 7.9712460E-002, 1.6638952E-003, 3.7350596E-003, 1.2259480E-003, 4.6336332E+002
 5.4009416E+001, 7.1524230E-002, 1.2953283E-001, 7.9823987E-002, 1.7605720E-003, 3.9376492E-003, 1.2467535E-003, 4.6145837E+002
 5.5008831E+001, 7.0709120E-002, 1.3008177E-001, 8.0191044E-002, 1.8109123E-003, 4.2350484E-003, 1.2613328E-003, 4.6282788E+002
 5.6002563E+001, 7.0834369E-002, 1.2990452E-001, 8.0132091E-002, 1.8429546E-003, 4.3882440E-003, 1.2670762E-003, 4.5675886E+002
 5.7005917E+001, 7.0824210E-002, 1.2980962E-001, 8.0146875E-002, 1.8971214E-003, 4.5382013E-003, 1.2781597E-003, 4.5409328E+002
 5.8005612E+001, 6.9950030E-002, 1.3037389E-001, 8.0575049E-002, 1.9885989E-003, 4.7159307E-003, 1.3017423E-003, 4.5140257E+002
 5.9007478E+001, 7.0123920E-002, 1.3004256E-001, 8.0516728E-002, 2.0894313E-003, 4.9687469E-003, 1.3213357E-003, 4.5302336E+002
 6.0009637E+001, 6.9500054E-002, 1.3053651E-001, 8.0782117E-002, 2.0828734E-003, 5.1350801E-003, 1.3232342E-003, 4.5121915E+002
 6.1003875E+001, 6.9379063E-002, 1.3033578E-001, 8.0867212E-002, 2.2406214E-003, 5.5723305E-003, 1.3560201E-003, 4.5162167E+002
 6.2008013E+001, 6.8693611E-002, 1.3057636E-001, 8.1197661E-002, 2.3989748E-003, 6.1424212E-003, 1.3919007E-003, 4.5083938E+002
 6.3008470E+001, 6.8893601E-002, 1.3058972E-001, 8.1093129E-002, 2.3090073E-003, 5.8545169E-003, 1.3725230E-003, 4.5069044E+002
 6.4007520E+001, 6.8854858E-002, 1.3054491E-001, 8.1093529E-002, 2.3301655E-003, 6.1035147E-003, 1.3768011E-003, 4.5099478E+002
 6.5002355E+001, 6.8656502E-002, 1.3049386E-001, 8.1199943E-002, 2.4384794E-003, 6.4492231E-003, 1.3998956E-003, 4.4505754E+002
 6.6007192E+001, 6.8405492E-002, 1.3059734E-001, 8.1327277E-002, 2.4944107E-003, 6.5925729E-003, 1.4126929E-003, 4.4862626E+002
 6.7002085E+001, 6.7998560E-002, 1.3080218E-001, 8.1497866E-002, 2.5409189E-003, 6.9484233E-003, 1.4241327E-003, 4.4652275E+002
 6.8006758E+001, 6.7959825E-002, 1.3085034E-001, 8.1514290E-002, 2.5326134E-003, 6.9242451E-003, 1.4226590E-003, 4.4414095E+002
 6.9005712E+001, 6.7900683E-002, 1.3086201E-001, 8.1529366E-002, 2.5400444E-003, 7.0654316E-003, 1.4243457E-003, 4.4549778E+002
 7.0007674E+001, 6.7600353E-002, 1.3076891E-001, 8.1685035E-002, 2.7069570E-003, 7.6503141E-003, 1.4598379E-003, 4.4034824E+002
 7.1007649E+001, 6.7037900E-002, 1.3120959E-001, 8.1961871E-002, 2.7319726E-003, 7.6027914E-003, 1.4682094E-003, 4.4232508E+002
 7.2009614E+001, 6.6916468E-002, 1.3125723E-001, 8.1986190E-002, 2.7315007E-003, 7.8820908E-003, 1.4684282E-003, 4.4353485E+002
 7.3002976E+001, 6.7191559E-002, 1.3084849E-001, 8.1884482E-002, 2.8319210E-003, 8.1043968E-003, 1.4874125E-003, 4.4035530E+002
 7.4007782E+001, 6.6885259E-002, 1.3085261E-001, 8.1990321E-002, 2.9170166E-003, 8.7949651E-003, 1.5058551E-003, 4.4119697E+002
 7.5000800E+001, 6.7018152E-002, 1.3089065E-001, 8.1950979E-002, 2.8672559E-003, 8.3799170E-003, 1.4953421E-003, 4.4105929E+002
 7.6002188E+001, 6.6420259E-002, 1.3124552E-001, 8.2211663E-002, 2.9190810E-003, 8.7402301E-003, 1.5089398E-003, 4.4168892E+002
 7.7005749E+001, 6.6244580E-002, 1.3123865E-001, 8.2291173E-002, 2.9864704E-003, 9.0512065E-003, 1.5234760E-003, 4.3810412E+002
 7.8001589E+001, 6.6265211E-002, 1.3126324E-001, 8.2275246E-002, 2.9628127E-003, 9.0036134E-003, 1.5185221E-003, 4.3939338E+002
 7.9007652E+001, 6.6249716E-002, 1.3120539E-001, 8.2309096E-002, 3.0150741E-003, 8.9972860E-003, 1.5294415E-003, 4.3977213E+002
 8.0002321E+001, 6.6009457E-002, 1.3130400E-001, 8.2417344E-002, 3.0583449E-003, 9.2103870E-003, 1.5394670E-003, 4.4469232E+002
 8.1001869E+001, 6.5920987E-002, 1.3099346E-001, 8.2455108E-002, 3.2284846E-003, 9.9905177E-003, 1.5741981E-003, 4.3938409E+002
 8.2009714E+001, 6.6182597E-002, 1.3091205E-001, 8.2335994E-002, 3.1687470E-003, 9.7136784E-003, 1.5607249E-003, 4.3627446E+002
 8.3009287E+001, 6.6032943E-002, 1.3111151E-001, 8.2374712E-002, 3.1116509E-003, 9.7297126E-003, 1.5497104E-003, 4.3746455E+002
 8.4007878E+001, 6.6060592E-002, 1.3090108E-001, 8.2343419E-002, 3.1816459E-003, 1.0204936E-002, 1.5634441E-003, 4.3605278E+002
 8.5009797E+001, 6.5917735E-002, 1.3099441E-001, 8.2423308E-002, 3.2037061E-003, 1.0177196E-002, 1.5688438E-003, 4.3405100E+002
 8.6002719E+001, 6.5319799E-002, 1.3130112E-001, 8.2710515E-002, 3.2975278E-003, 1.0487586E-002, 1.5912048E-003, 4.4037884E+002
 8.7008421E+001, 6.5369833E-002, 1.3115017E-001, 8.2676025E-002, 3.3379305E-003, 1.0768427E-002, 1.5989343E-003, 4.3627803E+002
 8.8009069E+001, 6.5375922E-002, 1.3097268E-001, 8.2677974E-002, 3.4190431E-003, 1.1085373E-002, 1.6152941E-003, 4.3893376E+002
 8.9000236E+001, 6.5574757E-002, 1.3100350E-001, 8.2571678E-002, 3.3199000E-003, 1.0777272E-002, 1.5940482E-003, 4.3330412E+002
 9.0002345E+001, 6.5590927E-002, 1.3090663E-001, 8.2554762E-002, 3.3501294E-003, 1.0995452E-002, 1.5999394E-003, 4.3490863E+002
 9.1000931E+001, 6.5483050E-002, 1.3077499E-001, 8.2581676E-002, 3.4319308E-003, 1.1560484E-002, 1.6167571E-003, 4.3712555E+002
 9.2008534E+001, 6.5395245E-002, 1.3093822E-001, 8.2617534E-002, 3.3877661E-003, 1.1405664E-002, 1.6082966E-003, 4.3337866E+002
 9.3002743E+001, 6.5504183E-002, 1.3065322E-001, 8.2584978E-002, 3.4887742E-003, 1.1696206E-002, 1.6282393E-003, 4.3261240E+002
 9.4002972E+001, 6.5330716E-002, 1.3077650E-001, 8.2649913E-002, 3.4864731E-003, 1.1819192E-002, 1.6285696E-003, 4.3620227E+002
 9.5005206E+001, 6.5543656E-002, 1.3050152E-001, 8.2558709E-002, 3.5360238E-003, 1.1977495E-002, 1.6374451E-003, 4.3524197E+002
 9.6003369E+001, 6.5430548E-002, 1.3051807E-001, 8.2619566E-002, 3.5774111E-003, 1.2082801E-002, 1.6465117E-003, 4.3705603E+002
 9.7002992E+001, 6.5121541E-002, 1.3080148E-001, 8.2735298E-002, 3.5446881E-003, 1.2174563E-002, 1.6413347E-003, 4.3644717E+002
 9.8000917E+001, 6.5160197E-002, 1.3063945E-001, 8.2687419E-002, 3.5800030E-003, 1.2598709E-002, 1.6478895E-003, 4.3482161E+002
 9.9005033E+001, 6.4938492E-002, 1.3084462E-001, 8.2803009E-002, 3.5806924E-003, 1.2481777E-002, 1.6494159E-003, 4.3555394E+002
 1.0000913E+002, 6.5372972E-002, 1.3056741E-001, 8.2577610E-002, 3.5241099E-003, 1.2456284E-002, 1.6353116E-003, 4.3463610E+002
 1.0100015E+002, 6.5171663E-002, 1.3038455E-001, 8.2690728E-002, 3.6968363E-003, 1.3039718E-002, 1.6714590E-003, 4.2918503E+002
 1.0200113E+002, 6.5002159E-002, 1.3063077E-001, 8.2713764E-002, 3.6070633E-003, 1.3132009E-002, 1.6536884E-003, 4.3144157E+002
 1.0300437E+002, 6.5099528E-002, 1.3067959E-001, 8.2676410E-002, 3.5546452E-003, 1.2833143E-002, 1.6426733E-003, 4.3188717E+002
 1.0400277E+002, 6.4893317E-002, 1.3065189E-001, 8.2767035E-002, 3.6404933E-003, 1.3252110E-002, 1.6610640E-003, 4.3579398E+002
 1.0500319E+002, 6.4883512E-002, 1.3063520E-001, 8.2782267E-002, 3.6598670E-003, 1.3242525E-002, 1.6651438E-003, 4.3163628E+002
 1.0600004E+002, 6.4893022E-002, 1.3069237E-001, 8.2757759E-002, 3.6151958E-003, 1.3223853E-002, 1.6558620E-003, 4.3230263E+002
 1.0700727E+002, 6.4483683E-002, 1.3088098E-001, 8.2919205E-002, 3.6620173E-003, 1.3672347E-002, 1.6672611E-003, 4.3242162E+002
 1.0800625E+002, 6.4689923E-002, 1.3056971E-001, 8.2870900E-002, 3.7609308E-003, 1.3694862E-002, 1.6865730E-003, 4.3490202E+002
 1.0900314E+002, 6.4667189E-002, 1.3059477E-001, 8.2846719E-002, 3.7315312E-003, 1.3873123E-002, 1.6803808E-003, 4.3355211E+002
 1.1000274E+002, 6.5009037E-002, 1.3029636E-001, 8.2687946E-002, 3.7373386E-003, 1.3910655E-002, 1.6796338E-003, 4.2831432E+002
 1.1100791E+002, 6.5067357E-002, 1.3031787E-001, 8.2632426E-002, 3.6839691E-003, 1.3929400E-002, 1.6682308E-003, 4.3362057E+002
 1.1201026E+002, 6.4939414E-002, 1.3037438E-001, 8.2687790E-002, 3.7034645E-003, 1.4047471E-002, 1.6728289E-003, 4.2930215E+002
 1.1300049E+002, 6.5103376E-002, 1.3017480E-001, 8.2626186E-002, 3.7427821E-003, 1.4097764E-002, 1.6799961E-003, 4.2871319E+002
 1.1400551E+002, 6.4725880E-002, 1.3034311E-001, 8.2790647E-002, 3.8004481E-003, 1.4436894E-002, 1.6936048E-003, 4.3382914E+002
 1.1500454E+002, 6.4563702E-002, 1.3038532E-001, 8.2891144E-002, 3.8616487E-003, 1.4478265E-002, 1.7071304E-003, 4.3123530E+002
 1.1600453E+002, 6.4801327E-002, 1.3034620E-001, 8.2755561E-002, 3.7707191E-003, 1.4308221E-002, 1.6871926E-003, 4.2700699E+002
 1.1700917E+002, 6.5006688E-002, 1.3008278E-001, 8.2677618E-002, 3.8253999E-003, 1.4402268E-002, 1.6972555E-003, 4.2746372E+002
 1.1800055E+002, 6.4673751E-002, 1.3036682E-001, 8.2785311E-002, 3.7866664E-003, 1.4637086E-002, 1.6907829E-003, 4.3255494E+002
 1.1900945E+002, 6.4793353E-002, 1.3015853E-001, 8.2766154E-002, 3.8633040E-003, 1.4656694E-002, 1.7059665E-003, 4.2910535E+002
 1.2000571E+002, 6.5069288E-002, 1.2995221E-001, 8.2570663E-002, 3.8007853E-003, 1.4988711E-002, 1.6910552E-003, 4.2887378E+002
 1.2100117E+002, 6.4834993E-002, 1.3011134E-001, 8.2702141E-002, 3.8345876E-003, 1.4928624E-002, 1.6994373E-003, 4.3082352E+002
 1.2200302E+002, 6.4826318E-002, 1.3006846E-001, 8.2692774E-002, 3.8468225E-003, 1.5101772E-002, 1.7017973E-003, 4.3122169E+002
 1.2300975E+002, 6.4756587E-002, 1.3008286E-001, 8.2747695E-002, 3.8838129E-003, 1.5062590E-002, 1.7098975E-003, 4.2902929E+002
 1.2400857E+002, 6.4953341E-002, 1.2986327E-001, 8.2597491E-002, 3.8634910E-003, 1.5503011E-002, 1.7040277E-003, 4.2864807E+002
 1.2500193E+002, 6.4651212E-002, 1.3004953E-001, 8.2764811E-002, 3.9138819E-003, 1.5475454E-002, 1.7161814E-003, 4.3004731E+002
 1.2600404E+002, 6.4984624E-002, 1.2972016E-001, 8.2608125E-002, 3.9353583E-003, 1.5598397E-002, 1.7186171E-003, 4.2930206E+002
 1.2700724E+002, 6.5039823E-002, 1.2970315E-001, 8.2540320E-002, 3.8899229E-003, 1.5774448E-002, 1.7086727E-003, 4.2751817E+002
 1.2800071E+002, 6.5456548E-002, 1.2942207E-001, 8.2339084E-002, 3.8539523E-003, 1.5697949E-002, 1.6990021E-003, 4.2882462E+002
 1.2901018E+002, 6.4996176E-002, 1.2959900E-001, 8.2558899E-002, 3.9517816E-003, 1.6061994E-002, 1.7213589E-003, 4.2827874E+002
 1.3000620E+002, 6.4977793E-002, 1.2982475E-001, 8.2569573E-002, 3.8589048E-003, 1.5630974E-002, 1.7027773E-003, 4.2847459E+002
 1.3100498E+002, 6.4976082E-002, 1.2966326E-001, 8.2570625E-002, 3.9322907E-003, 1.5953665E-002, 1.7175727E-003, 4.3042647E+002
 1.3200881E+002, 6.5155958E-002, 1.2962422E-001, 8.2478216E-002, 3.8755435E-003, 1.5787455E-002, 1.7050315E-003, 4.2659473E+002
 1.3300269E+002, 6.5086981E-002, 1.2960007E-001, 8.2487900E-002, 3.8951062E-003, 1.6070701E-002, 1.7091033E-003, 4.3001786E+002
 1.3400423E+002, 6.5288013E-002, 1.2945906E-001, 8.2382319E-002, 3.8736638E-003, 1.6091376E-002, 1.7035169E-003, 4.2702134E+002
 1.3500452E+002, 6.5161802E-002, 1.2943015E-001, 8.2453393E-002, 3.9435602E-003, 1.6285727E-002, 1.7184471E-003, 4.2779546E+002
 1.3601085E+002, 6.5001674E-002, 1.2958361E-001, 8.2529379E-002, 3.9359315E-003, 1.6232036E-002, 1.7178267E-003, 4.2704683E+002
 1.3700505E+002, 6.5047550E-002, 1.2951670E-001, 8.2467104E-002, 3.9173287E-003, 1.6515930E-002, 1.7133535E-003, 4.2673697E+002
 1.3800090E+002, 6.5233624E-002, 1.2933785E-001, 8.2398768E-002, 3.9417510E-003, 1.6469511E-002, 1.7174367E-003, 4.2434223E+002
 1.3900231E+002, 6.5076708E-002, 1.2946950E-001, 8.2467337E-002, 3.9381660E-003, 1.6486602E-002, 1.7175450E-003, 4.3062550E+002
 1.4000667E+002, 6.5017585E-002, 1.2941077E-001, 8.2498140E-002, 3.9892973E-003, 1.6681260E-002, 1.7282147E-003, 4.2730851E+002
 1.4100228E+002, 6.4897346E-002, 1.2953271E-001, 8.2537314E-002, 3.9668280E-003, 1.6726002E-002, 1.7241720E-003, 4.3006036E+002
 1.4200688E+002, 6.5251602E-002, 1.2925722E-001, 8.2363339E-002, 3.9504394E-003, 1.6749680E-002, 1.7187763E-003, 4.2584050E+002
 1.4300300E+002, 6.5554870E-002, 1.2906578E-001, 8.2189907E-002, 3.8976588E-003, 1.6816390E-002, 1.7060709E-003, 4.2913451E+002
 1.4400635E+002, 6.5253778E-002, 1.2919124E-001, 8.2334514E-002, 3.9579092E-003, 1.7030451E-002, 1.7199506E-003, 4.2763729E+002
 1.4500100E+002, 6.5188347E-002, 1.2941720E-001, 8.2368068E-002, 3.8833796E-003, 1.6669911E-002, 1.7053404E-003, 4.3077763E+002
 1.4600470E+002, 6.5427133E-002, 1.2910035E-001, 8.2245665E-002, 3.9273102E-003, 1.6975091E-002, 1.7127193E-003, 4.2676654E+002
 1.4700619E+002, 6.5210578E-002, 1.2915331E-001, 8.2355486E-002, 3.9918532E-003, 1.7171225E-002, 1.7270409E-003, 4.2634237E+002
 1.4800258E+002, 6.5013288E-002, 1.2933974E-001, 8.2444528E-002, 3.9801273E-003, 1.7135528E-002, 1.7257555E-003, 4.3043558E+002
 1.4900716E+002, 6.5263754E-002, 1.2923102E-001, 8.2307467E-002, 3.9190889E-003, 1.7058386E-002, 1.7118183E-003, 4.2715574E+002
 1.5000783E+002, 6.5431560E-002, 1.2904401E-001, 8.2228417E-002, 3.9392933E-003, 1.7163558E-002, 1.7149346E-003, 4.2486409E+002
 1.5100887E+002, 6.5647684E-002, 1.2887393E-001, 8.2091261E-002, 3.9063870E-003, 1.7352668E-002, 1.7066734E-003, 4.2719619E+002
 1.5200642E+002, 6.5178470E-002, 1.2911468E-001, 8.2321034E-002, 3.9833535E-003, 1.7571917E-002, 1.7249441E-003, 4.2783133E+002
 1.5300464E+002, 6.5483645E-002, 1.2899316E-001, 8.2168027E-002, 3.9148083E-003, 1.7379165E-002, 1.7092962E-003, 4.2699216E+002
 1.5400953E+002, 6.5465351E-002, 1.2900712E-001, 8.2167755E-002, 3.9086708E-003, 1.7429408E-002, 1.7080621E-003, 4.2669460E+002
