s,,,,,,,
Time,"O2 EXHAUST","CO2 EXHAUST","H2O EXHAUST","CO EXHAUST","FUEL EXHAUST","SOOT EXHAUST","TEMP EXHAUST"
 0.0000000E+000, 2.3099739E-001, 5.9146498E-004, 5.9412092E-003, 0.0000000E+000, 0.0000000E+000, 0.0000000E+000, 2.0000000E+001
 1.0005657E+000, 2.3099739E-001, 5.9146498E-004, 5.9412092E-003, 3.6633748E-030, 4.2729275E-029, 1.0130701E-030, 2.0675071E+001
 2.0029768E+000, 2.2208896E-001, 7.7890596E-003, 1.0461388E-002, 3.9226026E-005, 2.8219459E-004, 3.8231748E-005, 1.0764952E+002
 3.0049078E+000, 2.1643789E-001, 1.2376395E-002, 1.3345771E-002, 6.6142514E-005, 3.3285079E-004, 6.3008968E-005, 1.5855140E+002
 4.0026303E+000, 2.1238365E-001, 1.5652878E-002, 1.5405073E-002, 8.5082130E-005, 4.4879085E-004, 8.0645000E-005, 1.9649704E+002
 5.0034573E+000, 2.0443839E-001, 2.2133513E-002, 1.9460297E-002, 1.0925136E-004, 4.5823597E-004, 1.1267737E-004, 2.6086677E+002
 6.0012370E+000, 1.9691688E-001, 2.8325028E-002, 2.3290226E-002, 1.0126065E-004, 3.9815342E-004, 1.3661653E-004, 3.1349863E+002
 7.0037871E+000, 1.8964018E-001, 3.4341851E-002, 2.6995099E-002, 8.1494141E-005, 2.8784065E-004, 1.5730703E-004, 3.5902145E+002
 8.0016309E+000, 1.8207136E-001, 4.0601532E-002, 3.0848390E-002, 6.0146570E-005, 1.7205111E-004, 1.7866473E-004, 4.0073202E+002
 9.0058405E+000, 1.7494536E-001, 4.6491375E-002, 3.4475478E-002, 4.1115657E-005, 7.4095810E-005, 1.9898687E-004, 4.2807470E+002
 1.0001807E+001, 1.6711841E-001, 5.2938504E-002, 3.8459651E-002, 3.0098367E-005, 9.5264526E-006, 2.2333617E-004, 4.6244372E+002
 1.1000821E+001, 1.5796544E-001, 6.0444411E-002, 4.3119065E-002, 3.2067086E-005, 3.3500516E-007, 2.5485653E-004, 4.8579369E+002
 1.2002030E+001, 1.5009717E-001, 6.6892705E-002, 4.7124583E-002, 3.5617550E-005, 2.0028033E-007, 2.8233418E-004, 5.0228954E+002
 1.3007573E+001, 1.4621719E-001, 7.0072885E-002, 4.9099621E-002, 3.7083871E-005, 6.8126301E-008, 2.9582461E-004, 5.0157645E+002
 1.4000939E+001, 1.3956602E-001, 7.5523580E-002, 5.2485561E-002, 4.0158960E-005, 1.9685423E-007, 3.1906710E-004, 5.1467853E+002
 1.5006054E+001, 1.3217696E-001, 8.1579442E-002, 5.6247002E-002, 4.3279836E-005, 1.0777824E-007, 3.4482672E-004, 5.1913534E+002
 1.6002650E+001, 1.2748112E-001, 8.5427772E-002, 5.8637521E-002, 4.5422375E-005, 1.4846148E-007, 3.6123039E-004, 5.1982948E+002
 1.7002151E+001, 1.2337332E-001, 8.8794278E-002, 6.0728666E-002, 4.7245201E-005, 1.3462997E-007, 3.7556924E-004, 5.2121637E+002
 1.8008291E+001, 1.1930621E-001, 9.2127319E-002, 6.2799127E-002, 4.9122841E-005, 2.1045198E-007, 3.8978119E-004, 5.2315667E+002
 1.9006202E+001, 1.1633194E-001, 9.4565285E-002, 6.4313074E-002, 5.0148559E-005, 9.5615854E-008, 4.0010202E-004, 5.2002879E+002
 2.0005167E+001, 1.1316360E-001, 9.7161714E-002, 6.5926021E-002, 5.1654906E-005, 1.1547435E-007, 4.1118245E-004, 5.2248326E+002
 2.1008239E+001, 1.1002769E-001, 9.9731618E-002, 6.7522434E-002, 5.3107124E-005, 1.7330713E-007, 4.2214137E-004, 5.2163976E+002
 2.2002591E+001, 1.0781159E-001, 1.0154810E-001, 6.8650471E-002, 5.3889493E-005, 9.3689404E-008, 4.2983510E-004, 5.1790003E+002
 2.3007343E+001, 1.0532765E-001, 1.0358383E-001, 6.9914941E-002, 5.4959313E-005, 9.2504906E-008, 4.3849886E-004, 5.1824507E+002
 2.4001897E+001, 1.0201232E-001, 1.0630055E-001, 7.1602769E-002, 5.6641072E-005, 2.3067149E-007, 4.5011530E-004, 5.2125028E+002
 2.5004699E+001, 9.9814679E-002, 1.0810194E-001, 7.2721403E-002, 5.7395702E-005, 8.8756922E-008, 4.5774056E-004, 5.1849843E+002
 2.6001124E+001, 9.7837021E-002, 1.0972258E-001, 7.3728205E-002, 5.8354783E-005, 1.1637233E-007, 4.6466081E-004, 5.1421684E+002
 2.7006088E+001, 9.4256383E-002, 1.1265606E-001, 7.5551331E-002, 6.0613578E-005, 4.0616923E-007, 4.7729901E-004, 5.2201563E+002
 2.8008248E+001, 9.2557374E-002, 1.1404766E-001, 7.6416548E-002, 6.1928843E-005, 4.8581944E-007, 4.8334665E-004, 5.1525462E+002
 2.9007805E+001, 9.0574146E-002, 1.1567070E-001, 7.7426935E-002, 6.4350039E-005, 1.1504348E-006, 4.9059030E-004, 5.1403137E+002
 3.0008284E+001, 8.9932182E-002, 1.1619634E-001, 7.7753913E-002, 6.4962033E-005, 1.2360069E-006, 4.9289932E-004, 5.1593786E+002
 3.1003792E+001, 8.8328261E-002, 1.1750676E-001, 7.8571731E-002, 6.8341196E-005, 2.8543074E-006, 4.9905313E-004, 5.0663130E+002
 3.2007346E+001, 8.4561345E-002, 1.2057745E-001, 8.0495132E-002, 8.1132741E-005, 7.1165550E-006, 5.1451810E-004, 5.1804850E+002
 3.3008321E+001, 8.3818237E-002, 1.2118376E-001, 8.0874006E-002, 8.3037814E-005, 9.6472014E-006, 5.1743861E-004, 5.1300968E+002
 3.4007102E+001, 8.2308226E-002, 1.2241868E-001, 8.1643734E-002, 8.5544494E-005, 9.7335639E-006, 5.2309251E-004, 5.0941084E+002
 3.5006850E+001, 7.9311419E-002, 1.2486685E-001, 8.3171794E-002, 9.1987000E-005, 1.3116507E-005, 5.3461701E-004, 5.1646362E+002
 3.6007642E+001, 7.7261967E-002, 1.2652999E-001, 8.4221284E-002, 1.0429152E-004, 1.5483142E-005, 5.4414582E-004, 5.1762382E+002
 3.7008806E+001, 7.7029369E-002, 1.2672302E-001, 8.4338451E-002, 1.0249819E-004, 1.6807317E-005, 5.4456111E-004, 5.1282459E+002
 3.8001312E+001, 7.3919129E-002, 1.2925719E-001, 8.5926868E-002, 1.1380854E-004, 2.1203255E-005, 5.5748560E-004, 5.1432474E+002
 3.9000164E+001, 7.2419168E-002, 1.3048930E-001, 8.6689502E-002, 1.1259391E-004, 2.0203839E-005, 5.6233002E-004, 5.1659171E+002
 4.0004001E+001, 7.0562275E-002, 1.3199118E-001, 8.7641754E-002, 1.2686007E-004, 2.5608164E-005, 5.7161126E-004, 5.1503117E+002
 4.1007632E+001, 6.9911503E-002, 1.3253192E-001, 8.7970157E-002, 1.2195287E-004, 2.5049706E-005, 5.7279954E-004, 5.1745903E+002
 4.2005967E+001, 6.8366800E-002, 1.3379508E-001, 8.8757539E-002, 1.2454922E-004, 2.5532979E-005, 5.7858972E-004, 5.1654199E+002
 4.3006306E+001, 6.6204193E-002, 1.3555303E-001, 8.9863567E-002, 1.3527781E-004, 2.9037648E-005, 5.8817344E-004, 5.1191508E+002
 4.4006011E+001, 6.4980951E-002, 1.3654139E-001, 9.0490937E-002, 1.4516347E-004, 3.4299456E-005, 5.9438792E-004, 5.1454884E+002
 4.5008954E+001, 6.3144415E-002, 1.3804358E-001, 9.1427291E-002, 1.4823115E-004, 3.3037498E-005, 6.0126945E-004, 5.1578430E+002
 4.6004808E+001, 6.3067041E-002, 1.3811888E-001, 9.1462087E-002, 1.3994774E-004, 3.1950350E-005, 5.9980548E-004, 5.1250326E+002
 4.7007707E+001, 6.1780433E-002, 1.3917672E-001, 9.2115905E-002, 1.3824814E-004, 3.0822278E-005, 6.0382386E-004, 5.1737181E+002
 4.8000022E+001, 6.1844456E-002, 1.3912429E-001, 9.2083677E-002, 1.3844503E-004, 2.8910673E-005, 6.0364888E-004, 5.1078267E+002
 4.9004186E+001, 5.9575707E-002, 1.4096857E-001, 9.3243980E-002, 1.4967226E-004, 3.2537364E-005, 6.1369718E-004, 5.1081011E+002
 5.0000233E+001, 5.7330162E-002, 1.4281643E-001, 9.4384566E-002, 1.4563687E-004, 2.9993902E-005, 6.2048802E-004, 5.1436411E+002
 5.1000590E+001, 5.6209675E-002, 1.4373198E-001, 9.4956257E-002, 1.4820648E-004, 2.9086129E-005, 6.2483219E-004, 5.1685644E+002
 5.2006345E+001, 5.5738351E-002, 1.4412331E-001, 9.5193843E-002, 1.4460694E-004, 3.0585364E-005, 6.2568183E-004, 5.1233204E+002
 5.3005410E+001, 5.4684821E-002, 1.4498232E-001, 9.5731847E-002, 1.4814173E-004, 3.1038121E-005, 6.2999873E-004, 5.1740365E+002
 5.4002102E+001, 5.3255379E-002, 1.4612623E-001, 9.6469432E-002, 1.6755542E-004, 3.7242411E-005, 6.3890050E-004, 5.1632751E+002
 5.5005630E+001, 5.3950575E-002, 1.4556898E-001, 9.6111042E-002, 1.5874141E-004, 3.4461379E-005, 6.3470194E-004, 5.0510038E+002
 5.6001672E+001, 5.2866316E-002, 1.4645528E-001, 9.6663810E-002, 1.6077091E-004, 3.5038505E-005, 6.3880919E-004, 5.0676547E+002
 5.7001919E+001, 4.9951705E-002, 1.4882164E-001, 9.8156360E-002, 1.7778885E-004, 3.5962226E-005, 6.5226212E-004, 5.1445858E+002
 5.8007727E+001, 4.9334990E-002, 1.4932064E-001, 9.8472531E-002, 1.8237806E-004, 3.7821959E-005, 6.5531352E-004, 5.1616872E+002
 5.9000420E+001, 4.9613542E-002, 1.4910313E-001, 9.8326556E-002, 1.7471112E-004, 3.6918132E-005, 6.5276853E-004, 5.0856412E+002
 6.0004703E+001, 4.6794561E-002, 1.5141358E-001, 9.9761726E-002, 1.7596732E-004, 3.5949315E-005, 6.6261042E-004, 5.1798429E+002
 6.1004261E+001, 4.7206218E-002, 1.5107309E-001, 9.9553095E-002, 1.7777998E-004, 3.7602973E-005, 6.6158836E-004, 5.1344787E+002
 6.2000172E+001, 4.6851904E-002, 1.5135732E-001, 9.9735630E-002, 1.8209098E-004, 3.9173193E-005, 6.6369030E-004, 5.1353188E+002
 6.3002298E+001, 4.5227305E-002, 1.5267672E-001, 1.0056711E-001, 1.9109401E-004, 4.1224484E-005, 6.7108704E-004, 5.1221737E+002
 6.4006769E+001, 4.4635792E-002, 1.5316099E-001, 1.0086856E-001, 1.9179750E-004, 4.0563554E-005, 6.7324430E-004, 5.1478177E+002
 6.5000420E+001, 4.5289626E-002, 1.5263912E-001, 1.0053036E-001, 1.8176505E-004, 3.9116122E-005, 6.6893110E-004, 5.1274518E+002
 6.6007306E+001, 4.3356658E-002, 1.5421184E-001, 1.0151866E-001, 1.9052686E-004, 4.0754649E-005, 6.7732572E-004, 5.1788953E+002
 6.7003531E+001, 4.2966288E-002, 1.5452792E-001, 1.0171903E-001, 1.9349565E-004, 4.0296977E-005, 6.7927182E-004, 5.0901503E+002
 6.8002651E+001, 4.2627479E-002, 1.5482131E-001, 1.0188552E-001, 1.8271362E-004, 3.8419582E-005, 6.7817569E-004, 5.1879580E+002
 6.9008596E+001, 4.1492626E-002, 1.5572173E-001, 1.0247413E-001, 2.0356402E-004, 4.3883243E-005, 6.8637667E-004, 5.1110466E+002
 7.0001651E+001, 4.0458247E-002, 1.5657289E-001, 1.0299977E-001, 2.0188605E-004, 4.1558230E-005, 6.8954340E-004, 5.1856417E+002
 7.1007026E+001, 4.0962115E-002, 1.5616855E-001, 1.0273992E-001, 1.9563392E-004, 4.0887622E-005, 6.8652769E-004, 5.1380003E+002
 7.2000172E+001, 3.9395318E-002, 1.5744468E-001, 1.0354073E-001, 2.0196609E-004, 4.0868038E-005, 6.9317255E-004, 5.1670298E+002
 7.3006435E+001, 3.8637168E-002, 1.5803119E-001, 1.0393964E-001, 2.2632446E-004, 4.6437426E-005, 7.0082507E-004, 5.1521151E+002
 7.4005029E+001, 3.7242404E-002, 1.5918213E-001, 1.0464712E-001, 2.2176918E-004, 4.3275653E-005, 7.0461694E-004, 5.2110377E+002
 7.5008560E+001, 3.8924352E-002, 1.5781190E-001, 1.0378693E-001, 2.1475319E-004, 4.6509367E-005, 6.9743562E-004, 5.0414172E+002
 7.6007390E+001, 3.8111924E-002, 1.5848107E-001, 1.0419961E-001, 2.1303968E-004, 4.4236354E-005, 6.9984070E-004, 5.0888127E+002
 7.7002746E+001, 3.7469661E-002, 1.5900121E-001, 1.0452882E-001, 2.1757013E-004, 4.5527223E-005, 7.0296710E-004, 5.1499744E+002
 7.8003677E+001, 3.6837968E-002, 1.5953397E-001, 1.0484530E-001, 2.0780329E-004, 4.0587009E-005, 7.0308037E-004, 5.2000950E+002
 7.9006711E+001, 3.6371214E-002, 1.5989489E-001, 1.0509063E-001, 2.2270166E-004, 4.5601400E-005, 7.0776998E-004, 5.1410347E+002
 8.0005780E+001, 3.6532179E-002, 1.5977183E-001, 1.0500500E-001, 2.1625296E-004, 4.6167821E-005, 7.0587750E-004, 5.1408071E+002
 8.1007679E+001, 3.6788462E-002, 1.5957269E-001, 1.0487101E-001, 2.0898792E-004, 4.1755151E-005, 7.0349476E-004, 5.1217186E+002
 8.2004237E+001, 3.4738771E-002, 1.6124554E-001, 1.0591708E-001, 2.1472870E-004, 4.2593067E-005, 7.1165652E-004, 5.1477892E+002
 8.3000198E+001, 3.5546410E-002, 1.6057970E-001, 1.0550693E-001, 2.1676387E-004, 4.5654511E-005, 7.0933419E-004, 5.1813882E+002
 8.4000115E+001, 3.4294205E-002, 1.6160809E-001, 1.0614418E-001, 2.1623871E-004, 4.2265833E-005, 7.1348240E-004, 5.1726062E+002
 8.5007410E+001, 3.5633576E-002, 1.6050819E-001, 1.0546314E-001, 2.1715062E-004, 4.2887146E-005, 7.0912083E-004, 5.1558556E+002
 8.6002401E+001, 3.3920550E-002, 1.6188072E-001, 1.0634647E-001, 2.3928742E-004, 4.9829018E-005, 7.1955365E-004, 5.1206228E+002
 8.7000315E+001, 3.3379015E-002, 1.6235480E-001, 1.0661121E-001, 2.1887127E-004, 4.3326138E-005, 7.1714056E-004, 5.1300397E+002
 8.8008413E+001, 3.4027404E-002, 1.6184462E-001, 1.0627343E-001, 2.0408238E-004, 3.9033348E-005, 7.1185600E-004, 5.1795450E+002
 8.9005161E+001, 3.1957685E-002, 1.6352160E-001, 1.0733480E-001, 2.1866282E-004, 3.9169911E-005, 7.2193013E-004, 5.2021034E+002
 9.0009739E+001, 3.3659086E-002, 1.6212061E-001, 1.0647031E-001, 2.2191755E-004, 4.4382182E-005, 7.1682341E-004, 5.1034129E+002
 9.1002580E+001, 3.2844839E-002, 1.6276328E-001, 1.0689390E-001, 2.3921852E-004, 4.8725354E-005, 7.2319549E-004, 5.0878154E+002
 9.2002155E+001, 3.2247666E-002, 1.6328477E-001, 1.0718619E-001, 2.1750899E-004, 4.2447780E-005, 7.2070151E-004, 5.0929319E+002
 9.3007544E+001, 3.1276312E-002, 1.6407117E-001, 1.0768425E-001, 2.2458873E-004, 4.4080326E-005, 7.2547765E-004, 5.1650783E+002
 9.4004730E+001, 3.1568169E-002, 1.6379861E-001, 1.0754824E-001, 2.4757868E-004, 4.8698871E-005, 7.2927749E-004, 5.1242151E+002
 9.5009371E+001, 3.2260219E-002, 1.6323879E-001, 1.0719338E-001, 2.4232101E-004, 4.6673234E-005, 7.2583080E-004, 5.1091211E+002
 9.6006706E+001, 3.1600809E-002, 1.6377445E-001, 1.0753096E-001, 2.4598088E-004, 4.6809064E-005, 7.2883479E-004, 5.1447275E+002
 9.7008791E+001, 3.1339825E-002, 1.6399192E-001, 1.0766247E-001, 2.4361548E-004, 4.6312699E-005, 7.2922865E-004, 5.1206279E+002
 9.8002291E+001, 3.0310178E-002, 1.6482685E-001, 1.0818941E-001, 2.4985214E-004, 5.0428617E-005, 7.3402508E-004, 5.1180752E+002
 9.9001227E+001, 3.0557881E-002, 1.6463838E-001, 1.0805870E-001, 2.4025484E-004, 4.4090413E-005, 7.3118654E-004, 5.1796264E+002
 1.0000689E+002, 3.0776650E-002, 1.6445883E-001, 1.0794656E-001, 2.3975170E-004, 4.8467281E-005, 7.3033477E-004, 5.1441466E+002
 1.0100025E+002, 3.0626520E-002, 1.6458755E-001, 1.0802180E-001, 2.3652506E-004, 4.2952650E-005, 7.3017625E-004, 5.1481154E+002
 1.0200259E+002, 2.9603738E-002, 1.6542118E-001, 1.0854384E-001, 2.3991650E-004, 4.5294886E-005, 7.3435728E-004, 5.1435919E+002
 1.0300730E+002, 2.8796340E-002, 1.6608409E-001, 1.0895433E-001, 2.3938491E-004, 4.5517357E-005, 7.3698983E-004, 5.1533173E+002
 1.0400222E+002, 2.9682133E-002, 1.6536779E-001, 1.0849969E-001, 2.3225656E-004, 4.4565178E-005, 7.3249376E-004, 5.1343163E+002
 1.0500094E+002, 2.9958737E-002, 1.6515421E-001, 1.0835388E-001, 2.2301551E-004, 4.3056189E-005, 7.2962754E-004, 5.1136554E+002
 1.0600280E+002, 2.8472728E-002, 1.6630098E-001, 1.0913724E-001, 2.7298269E-004, 5.2322621E-005, 7.4509193E-004, 5.1259233E+002
 1.0700807E+002, 2.8475109E-002, 1.6633734E-001, 1.0912151E-001, 2.4638366E-004, 4.7468308E-005, 7.3953966E-004, 5.1403374E+002
 1.0800451E+002, 2.8679531E-002, 1.6619548E-001, 1.0900795E-001, 2.2862311E-004, 4.3046014E-005, 7.3514401E-004, 5.1680660E+002
 1.0900005E+002, 2.8015289E-002, 1.6671211E-001, 1.0935704E-001, 2.4847161E-004, 4.4404967E-005, 7.4154007E-004, 5.1523598E+002
 1.1000274E+002, 2.8531556E-002, 1.6631451E-001, 1.0908461E-001, 2.3056840E-004, 4.0931506E-005, 7.3605425E-004, 5.1784947E+002
 1.1100569E+002, 2.8322713E-002, 1.6646072E-001, 1.0919986E-001, 2.4763139E-004, 4.6684021E-005, 7.4031838E-004, 5.1324175E+002
 1.1200214E+002, 2.7969188E-002, 1.6675300E-001, 1.0937903E-001, 2.4613426E-004, 4.5500954E-005, 7.4120834E-004, 5.1772207E+002
 1.1300422E+002, 2.8250119E-002, 1.6650414E-001, 1.0924257E-001, 2.5859974E-004, 5.0379679E-005, 7.4284992E-004, 5.1134829E+002
 1.1400007E+002, 2.8724956E-002, 1.6611895E-001, 1.0899924E-001, 2.5557390E-004, 5.0396063E-005, 7.4060525E-004, 5.1189277E+002
 1.1500537E+002, 2.7490602E-002, 1.6713197E-001, 1.0962787E-001, 2.5567267E-004, 4.6242309E-005, 7.4482354E-004, 5.1521538E+002
 1.1600550E+002, 2.7337633E-002, 1.6724488E-001, 1.0971032E-001, 2.6429341E-004, 4.8510630E-005, 7.4713966E-004, 5.1243479E+002
 1.1700692E+002, 2.8100903E-002, 1.6664867E-001, 1.0931073E-001, 2.4365256E-004, 4.4425719E-005, 7.4024398E-004, 5.1521727E+002
 1.1800822E+002, 2.7268221E-002, 1.6729541E-001, 1.0974762E-001, 2.6843820E-004, 5.1536783E-005, 7.4823767E-004, 5.1493548E+002
 1.1900611E+002, 2.6826252E-002, 1.6765696E-001, 1.0997310E-001, 2.6925035E-004, 5.0448003E-005, 7.4990977E-004, 5.1379515E+002
 1.2000133E+002, 2.6456249E-002, 1.6796158E-001, 1.1016218E-001, 2.6929811E-004, 4.4008131E-005, 7.5118208E-004, 5.1469291E+002
 1.2100007E+002, 2.7182491E-002, 1.6737497E-001, 1.0978827E-001, 2.6237732E-004, 4.7700221E-005, 7.4726783E-004, 5.1384580E+002
 1.2200778E+002, 2.7234054E-002, 1.6732965E-001, 1.0976325E-001, 2.6452593E-004, 4.7771846E-005, 7.4754071E-004, 5.1133087E+002
 1.2300224E+002, 2.5881713E-002, 1.6843762E-001, 1.1045131E-001, 2.6502459E-004, 5.0240944E-005, 7.5223815E-004, 5.1484636E+002
 1.2401009E+002, 2.5911779E-002, 1.6841545E-001, 1.1043549E-001, 2.6357545E-004, 4.7821161E-005, 7.5183562E-004, 5.1525220E+002
 1.2500248E+002, 2.7208265E-002, 1.6735682E-001, 1.0977380E-001, 2.6015229E-004, 4.8439833E-005, 7.4671557E-004, 5.1477157E+002
 1.2600968E+002, 2.6307901E-002, 1.6808180E-001, 1.1023770E-001, 2.6995833E-004, 4.6767048E-005, 7.5182172E-004, 5.1563285E+002
 1.2700790E+002, 2.7400762E-002, 1.6717520E-001, 1.0968473E-001, 2.7655280E-004, 5.2035069E-005, 7.4947943E-004, 5.1071852E+002
 1.2800552E+002, 2.6261963E-002, 1.6809465E-001, 1.1026985E-001, 2.8677433E-004, 5.3015120E-005, 7.5548038E-004, 5.1531699E+002
 1.2900969E+002, 2.5641081E-002, 1.6863727E-001, 1.1057325E-001, 2.6367965E-004, 4.8110619E-005, 7.5277698E-004, 5.1738718E+002
 1.3000102E+002, 2.5803265E-002, 1.6850675E-001, 1.1048981E-001, 2.6196768E-004, 4.7633916E-005, 7.5186915E-004, 5.0928278E+002
 1.3100552E+002, 2.5523178E-002, 1.6875229E-001, 1.1062651E-001, 2.5110204E-004, 4.4748433E-005, 7.5055684E-004, 5.1891673E+002
 1.3200725E+002, 2.5933944E-002, 1.6841153E-001, 1.1041839E-001, 2.5338735E-004, 4.8137046E-005, 7.4963503E-004, 5.1366101E+002
 1.3300060E+002, 2.5459096E-002, 1.6878027E-001, 1.1066830E-001, 2.6807913E-004, 4.8507641E-005, 7.5431270E-004, 5.1206446E+002
 1.3400185E+002, 2.5017035E-002, 1.6914804E-001, 1.1089126E-001, 2.6447046E-004, 4.7800336E-005, 7.5506272E-004, 5.1701231E+002
 1.3500797E+002, 2.6235138E-002, 1.6815356E-001, 1.1026971E-001, 2.6128164E-004, 4.7369867E-005, 7.5025873E-004, 5.1970991E+002
 1.3600140E+002, 2.4911568E-002, 1.6922662E-001, 1.1094809E-001, 2.7007809E-004, 4.7971365E-005, 7.5659061E-004, 5.1849635E+002
 1.3700795E+002, 2.7575842E-002, 1.6707807E-001, 1.0957826E-001, 2.4444200E-004, 4.5066684E-005, 7.4219233E-004, 5.1708919E+002
 1.3800212E+002, 2.5533733E-002, 1.6871708E-001, 1.1063094E-001, 2.6936052E-004, 4.9398767E-005, 7.5432565E-004, 5.1583048E+002
 1.3900836E+002, 2.4657931E-002, 1.6943237E-001, 1.1107803E-001, 2.7167302E-004, 4.8161064E-005, 7.5778500E-004, 5.2313192E+002
 1.4000081E+002, 2.5677051E-002, 1.6860371E-001, 1.1055628E-001, 2.6635531E-004, 4.9654208E-005, 7.5321162E-004, 5.2020659E+002
 1.4100032E+002, 2.5248319E-002, 1.6895151E-001, 1.1077664E-001, 2.6953068E-004, 4.6328566E-005, 7.5533341E-004, 5.1479689E+002
 1.4200489E+002, 2.5777140E-002, 1.6854441E-001, 1.1049720E-001, 2.5086258E-004, 4.4366389E-005, 7.4964421E-004, 5.1427993E+002
 1.4300047E+002, 2.4885915E-002, 1.6926254E-001, 1.1095524E-001, 2.5957150E-004, 4.7395164E-005, 7.5448678E-004, 5.1863933E+002
 1.4400239E+002, 2.5691832E-002, 1.6854357E-001, 1.1056696E-001, 2.9970452E-004, 5.5671491E-005, 7.6011261E-004, 5.1136735E+002
 1.4500103E+002, 2.4705574E-002, 1.6938556E-001, 1.1105712E-001, 2.7731275E-004, 4.7130952E-005, 7.5880025E-004, 5.1429137E+002
 1.4601021E+002, 2.5603303E-002, 1.6867381E-001, 1.1059044E-001, 2.5987065E-004, 4.7014289E-005, 7.5211173E-004, 5.1694443E+002
 1.4700351E+002, 2.5422083E-002, 1.6878557E-001, 1.1069665E-001, 2.8548994E-004, 5.1534972E-005, 7.5806762E-004, 5.1541633E+002
 1.4800895E+002, 2.5797494E-002, 1.6851400E-001, 1.1049174E-001, 2.6017909E-004, 4.7585677E-005, 7.5151574E-004, 5.1488665E+002
 1.4900561E+002, 2.3724710E-002, 1.7018093E-001, 1.1155918E-001, 2.8331844E-004, 5.0604373E-005, 7.6338323E-004, 5.1676065E+002
 1.5000383E+002, 2.5803782E-002, 1.6849835E-001, 1.1049243E-001, 2.6741230E-004, 4.9349709E-005, 7.5300169E-004, 5.1630856E+002
 1.5100226E+002, 2.5613764E-002, 1.6865685E-001, 1.1058855E-001, 2.6586179E-004, 4.6835500E-005, 7.5332595E-004, 5.1024835E+002
 1.5200049E+002, 2.4936188E-002, 1.6919535E-001, 1.1094058E-001, 2.7832476E-004, 4.5288974E-005, 7.5822913E-004, 5.1380981E+002
 1.5300431E+002, 2.4963794E-002, 1.6918081E-001, 1.1092330E-001, 2.7258569E-004, 4.5073977E-005, 7.5693844E-004, 5.1746695E+002
 1.5400589E+002, 2.3736209E-002, 1.7016969E-001, 1.1155410E-001, 2.8462963E-004, 5.0413581E-005, 7.6361779E-004, 5.1419870E+002
