s,,,,,,,
Time,"O2 EXHAUST","CO2 EXHAUST","H2O EXHAUST","CO EXHAUST","FUEL EXHAUST","SOOT EXHAUST","TEMP EXHAUST"
 0.0000000E+000, 2.3099739E-001, 5.9146498E-004, 5.9412091E-003, 0.0000000E+000, 0.0000000E+000, 0.0000000E+000, 2.0000000E+001
 1.0043380E+000, 2.3099739E-001, 5.9146498E-004, 5.9412091E-003, 1.7055293E-026, 5.4185321E-026, 5.2170936E-027, 2.2020626E+001
 2.0021402E+000, 2.1898324E-001, 9.5800299E-003, 1.1134684E-002, 1.3504688E-004, 1.3894778E-004, 1.0029081E-004, 1.3645021E+002
 3.0039391E+000, 2.1028079E-001, 1.6178632E-002, 1.4882424E-002, 1.8249918E-004, 1.5426282E-004, 1.6273144E-004, 2.1116792E+002
 4.0038559E+000, 2.0156725E-001, 2.2808816E-002, 1.8629064E-002, 2.1507664E-004, 1.6029529E-004, 2.2220327E-004, 2.8031278E+002
 5.0062630E+000, 1.9322867E-001, 2.9215512E-002, 2.2199376E-002, 2.0684213E-004, 1.3772845E-004, 2.7107743E-004, 3.4207573E+002
 6.0057660E+000, 1.8080166E-001, 3.8842440E-002, 2.7500894E-002, 1.4418497E-004, 6.7988098E-005, 3.3363743E-004, 4.0964547E+002
 7.0018594E+000, 1.6751476E-001, 4.9118073E-002, 3.3173159E-002, 8.8035424E-005, 3.6415281E-006, 4.0273465E-004, 4.7458711E+002
 8.0066230E+000, 1.5505358E-001, 5.8651062E-002, 3.8516855E-002, 1.0057655E-004, 2.2975038E-007, 4.8082285E-004, 5.1135649E+002
 9.0010855E+000, 1.4221822E-001, 6.8463519E-002, 4.4022568E-002, 1.1774428E-004, 3.9960799E-007, 5.6212179E-004, 5.3338514E+002
 1.0005365E+001, 1.3413321E-001, 7.4643054E-002, 4.7490860E-002, 1.2934483E-004, 1.7122927E-006, 6.1349168E-004, 5.4109057E+002
 1.1005747E+001, 1.2385850E-001, 8.2499865E-002, 5.1897748E-002, 1.4187980E-004, 7.2799264E-007, 6.7832548E-004, 5.4902808E+002
 1.2003828E+001, 1.1165565E-001, 9.1827692E-002, 5.7132448E-002, 1.5892078E-004, 1.1903061E-006, 7.5576518E-004, 5.6960249E+002
 1.3000910E+001, 1.0071063E-001, 1.0019226E-001, 6.1827765E-002, 1.7515349E-004, 3.8959802E-006, 8.2541377E-004, 5.8099902E+002
 1.4001141E+001, 9.6192763E-002, 1.0351531E-001, 6.3785484E-002, 2.5528134E-004, 1.3930006E-004, 8.6902610E-004, 5.7038216E+002
 1.5003974E+001, 8.8323092E-002, 1.0946883E-001, 6.7178852E-002, 3.0759736E-004, 1.5358931E-004, 9.2741861E-004, 5.7951788E+002
 1.6003409E+001, 8.4054039E-002, 1.1188921E-001, 6.9149417E-002, 7.9995861E-004, 9.5315016E-004, 1.0530917E-003, 5.6309842E+002
 1.7002308E+001, 8.1162177E-002, 1.1358445E-001, 7.0503644E-002, 1.1231692E-003, 1.2650594E-003, 1.1364300E-003, 5.5454060E+002
 1.8003586E+001, 7.8514325E-002, 1.1518411E-001, 7.1721309E-002, 1.3806774E-003, 1.5951356E-003, 1.2047967E-003, 5.5178749E+002
 1.9004539E+001, 7.5839976E-002, 1.1651829E-001, 7.2993436E-002, 1.7999748E-003, 2.2217121E-003, 1.3060719E-003, 5.4729389E+002
 2.0004855E+001, 7.4499837E-002, 1.1682917E-001, 7.3736637E-002, 2.2521134E-003, 2.5860663E-003, 1.4063608E-003, 5.3766258E+002
 2.1007966E+001, 7.2374014E-002, 1.1852466E-001, 7.4658810E-002, 2.2311125E-003, 2.3835863E-003, 1.4152216E-003, 5.3745732E+002
 2.2000711E+001, 7.0937369E-002, 1.1928003E-001, 7.5327620E-002, 2.4278045E-003, 2.7342249E-003, 1.4637539E-003, 5.3389118E+002
 2.3006879E+001, 6.9650570E-002, 1.1959001E-001, 7.6000738E-002, 2.8258406E-003, 3.3123415E-003, 1.5523306E-003, 5.2858123E+002
 2.4000593E+001, 6.8692523E-002, 1.2031001E-001, 7.6430241E-002, 2.8468840E-003, 3.2219193E-003, 1.5625762E-003, 5.3382127E+002
 2.5000647E+001, 6.8058556E-002, 1.2002689E-001, 7.6809172E-002, 3.2756317E-003, 4.0731092E-003, 1.6531097E-003, 5.1529224E+002
 2.6002415E+001, 6.7521846E-002, 1.1948583E-001, 7.7189354E-002, 3.8198457E-003, 5.0201416E-003, 1.7665876E-003, 5.1412382E+002
 2.7000765E+001, 6.6463557E-002, 1.2044436E-001, 7.7655242E-002, 3.7629740E-003, 4.6514618E-003, 1.7618594E-003, 5.1151140E+002
 2.8004564E+001, 6.6195572E-002, 1.1955400E-001, 7.7947707E-002, 4.3927385E-003, 5.7114892E-003, 1.8910865E-003, 5.0281567E+002
 2.9007530E+001, 6.5753545E-002, 1.2003562E-001, 7.8094400E-002, 4.2957629E-003, 5.6939776E-003, 1.8739119E-003, 4.9565239E+002
 3.0003709E+001, 6.5066639E-002, 1.1969930E-001, 7.8528379E-002, 4.7915168E-003, 6.5295485E-003, 1.9785228E-003, 4.8947681E+002
 3.1008501E+001, 6.5298836E-002, 1.1911130E-001, 7.8477385E-002, 5.0134175E-003, 7.0378790E-003, 2.0218886E-003, 4.8596493E+002
 3.2001970E+001, 6.4428881E-002, 1.1926485E-001, 7.8936043E-002, 5.3105113E-003, 7.5169370E-003, 2.0873871E-003, 4.8759835E+002
 3.3007595E+001, 6.4704444E-002, 1.1937243E-001, 7.8726254E-002, 5.0967074E-003, 7.4567589E-003, 2.0419767E-003, 4.8438589E+002
 3.4007784E+001, 6.4844680E-002, 1.1863379E-001, 7.8717672E-002, 5.4206183E-003, 8.3823845E-003, 2.1062254E-003, 4.7904449E+002
 3.5000898E+001, 6.3950680E-002, 1.1876394E-001, 7.9213606E-002, 5.7571784E-003, 8.7768267E-003, 2.1800777E-003, 4.7759363E+002
 3.6000883E+001, 6.4043116E-002, 1.1847701E-001, 7.9145134E-002, 5.8325570E-003, 9.3818020E-003, 2.1941216E-003, 4.7624521E+002
 3.7003278E+001, 6.3991854E-002, 1.1801764E-001, 7.9240362E-002, 6.1133606E-003, 9.9112099E-003, 2.2512493E-003, 4.7109504E+002
 3.8003725E+001, 6.4225307E-002, 1.1768589E-001, 7.9080886E-002, 6.1368489E-003, 1.0581022E-002, 2.2537116E-003, 4.6815893E+002
 3.9007451E+001, 6.4454645E-002, 1.1745462E-001, 7.9026663E-002, 6.1954865E-003, 1.0417840E-002, 2.2645696E-003, 4.6913715E+002
 4.0009578E+001, 6.4041964E-002, 1.1675742E-001, 7.9368427E-002, 6.7784719E-003, 1.1394193E-002, 2.3852021E-003, 4.6113989E+002
 4.1006525E+001, 6.4232505E-002, 1.1661972E-001, 7.9284482E-002, 6.7729384E-003, 1.1392200E-002, 2.3829160E-003, 4.6264199E+002
 4.2001083E+001, 6.4567666E-002, 1.1598701E-001, 7.9135252E-002, 6.9380768E-003, 1.2168410E-002, 2.4136479E-003, 4.5635470E+002
 4.3002922E+001, 6.4481420E-002, 1.1590643E-001, 7.9193842E-002, 7.0207467E-003, 1.2323546E-002, 2.4308988E-003, 4.5549092E+002
 4.4004421E+001, 6.5141392E-002, 1.1524323E-001, 7.8886079E-002, 7.0725665E-003, 1.2789208E-002, 2.4368695E-003, 4.4989465E+002
 4.5001754E+001, 6.5672011E-002, 1.1493880E-001, 7.8622667E-002, 6.9988753E-003, 1.2811401E-002, 2.4185180E-003, 4.4784286E+002
 4.6006305E+001, 6.5697952E-002, 1.1436793E-001, 7.8647193E-002, 7.2745327E-003, 1.3677115E-002, 2.4736523E-003, 4.4768438E+002
 4.7008827E+001, 6.5682287E-002, 1.1399787E-001, 7.8668706E-002, 7.4581142E-003, 1.4338804E-002, 2.5104509E-003, 4.4325659E+002
 4.8009763E+001, 6.5947535E-002, 1.1386223E-001, 7.8479893E-002, 7.3701879E-003, 1.4671233E-002, 2.4903554E-003, 4.4387000E+002
 4.9008894E+001, 6.6103489E-002, 1.1361536E-001, 7.8341655E-002, 7.3730542E-003, 1.5364859E-002, 2.4890269E-003, 4.4267453E+002
 5.0007660E+001, 6.6414042E-002, 1.1301254E-001, 7.8246594E-002, 7.5665385E-003, 1.5849072E-002, 2.5261270E-003, 4.3650647E+002
 5.1003303E+001, 6.6473680E-002, 1.1268575E-001, 7.8233481E-002, 7.7027709E-003, 1.6326304E-002, 2.5530220E-003, 4.3681293E+002
 5.2008213E+001, 6.6373630E-002, 1.1240759E-001, 7.8364550E-002, 7.9301345E-003, 1.6479548E-002, 2.6000180E-003, 4.3650524E+002
 5.3003557E+001, 6.6964826E-002, 1.1212957E-001, 7.8002477E-002, 7.7680763E-003, 1.6808559E-002, 2.5627568E-003, 4.3331725E+002
 5.4000141E+001, 6.6917698E-002, 1.1186066E-001, 7.7986691E-002, 7.8781451E-003, 1.7632875E-002, 2.5844500E-003, 4.3300253E+002
 5.5004585E+001, 6.7028062E-002, 1.1114793E-001, 7.8011034E-002, 8.2160672E-003, 1.8427854E-002, 2.6519346E-003, 4.3025923E+002
 5.6004442E+001, 6.6976435E-002, 1.1155774E-001, 7.7974971E-002, 8.0046967E-003, 1.8058169E-002, 2.6094389E-003, 4.2959032E+002
 5.7004306E+001, 6.7188603E-002, 1.1093513E-001, 7.7910456E-002, 8.2322508E-003, 1.8801930E-002, 2.6537553E-003, 4.2631129E+002
 5.8003166E+001, 6.7210735E-002, 1.1101601E-001, 7.7837893E-002, 8.1399595E-003, 1.8999772E-002, 2.6344267E-003, 4.2675666E+002
 5.9001098E+001, 6.7479872E-002, 1.1068342E-001, 7.7680788E-002, 8.1649772E-003, 1.9507931E-002, 2.6372125E-003, 4.2736132E+002
 6.0009628E+001, 6.7556043E-002, 1.1058164E-001, 7.7573263E-002, 8.1273542E-003, 2.0057496E-002, 2.6282698E-003, 4.2737669E+002
 6.1002511E+001, 6.7550591E-002, 1.1044612E-001, 7.7591600E-002, 8.2025627E-003, 2.0233827E-002, 2.6434720E-003, 4.2577262E+002
 6.2009368E+001, 6.7574167E-002, 1.1025604E-001, 7.7593694E-002, 8.2894354E-003, 2.0497490E-002, 2.6607669E-003, 4.2466749E+002
 6.3004177E+001, 6.8183517E-002, 1.1001507E-001, 7.7197396E-002, 8.0841958E-003, 2.0889832E-002, 2.6144558E-003, 4.2395018E+002
 6.4003816E+001, 6.8251961E-002, 1.0983338E-001, 7.7138563E-002, 8.1199287E-003, 2.1327516E-002, 2.6207528E-003, 4.2281460E+002
 6.5002367E+001, 6.8380867E-002, 1.0991618E-001, 7.6927353E-002, 7.9189206E-003, 2.1935758E-002, 2.5779183E-003, 4.2050088E+002
 6.6008716E+001, 6.8680474E-002, 1.0974805E-001, 7.6755234E-002, 7.8577551E-003, 2.2085738E-002, 2.5633552E-003, 4.2202559E+002
 6.7008963E+001, 6.8804113E-002, 1.0951245E-001, 7.6611279E-002, 7.8517729E-003, 2.2927150E-002, 2.5602020E-003, 4.2293658E+002
 6.8003485E+001, 6.9062718E-002, 1.0958715E-001, 7.6440512E-002, 7.6829049E-003, 2.2760687E-002, 2.5242539E-003, 4.1680169E+002
 6.9001631E+001, 6.9301532E-002, 1.0962981E-001, 7.6270757E-002, 7.5296201E-003, 2.2733555E-002, 2.4914249E-003, 4.1477786E+002
 7.0001361E+001, 6.9296449E-002, 1.0938304E-001, 7.6226788E-002, 7.6074106E-003, 2.3513710E-002, 2.5063089E-003, 4.2014691E+002
 7.1004564E+001, 6.9439580E-002, 1.0950586E-001, 7.6014030E-002, 7.3869117E-003, 2.3993385E-002, 2.4595729E-003, 4.2244397E+002
 7.2004763E+001, 6.9844639E-002, 1.0939432E-001, 7.5714228E-002, 7.2007765E-003, 2.4383558E-002, 2.4184188E-003, 4.1767613E+002
 7.3001795E+001, 7.0191862E-002, 1.0907527E-001, 7.5483111E-002, 7.1617299E-003, 2.4998316E-002, 2.4074505E-003, 4.1488087E+002
 7.4007376E+001, 7.0281199E-002, 1.0899947E-001, 7.5405400E-002, 7.1349133E-003, 2.5257110E-002, 2.4010501E-003, 4.1921307E+002
 7.5008753E+001, 7.0673836E-002, 1.0893596E-001, 7.5074604E-002, 6.9036826E-003, 2.5796316E-002, 2.3505191E-003, 4.1681298E+002
 7.6009046E+001, 7.0996295E-002, 1.0888060E-001, 7.4769904E-002, 6.6899986E-003, 2.6450032E-002, 2.3038497E-003, 4.1308135E+002
 7.7008830E+001, 7.1160401E-002, 1.0881819E-001, 7.4741879E-002, 6.6937043E-003, 2.6063258E-002, 2.3041563E-003, 4.1430399E+002
 7.8003526E+001, 7.1186064E-002, 1.0880550E-001, 7.4649594E-002, 6.6284802E-003, 2.6553080E-002, 2.2899457E-003, 4.1681875E+002
 7.9000511E+001, 7.1621010E-002, 1.0868481E-001, 7.4329259E-002, 6.4302389E-003, 2.6964027E-002, 2.2460999E-003, 4.1052670E+002
 8.0010181E+001, 7.1658555E-002, 1.0869852E-001, 7.4217981E-002, 6.3383843E-003, 2.7469948E-002, 2.2263361E-003, 4.1611530E+002
 8.1002174E+001, 7.1783011E-002, 1.0878175E-001, 7.4097314E-002, 6.2064084E-003, 2.7535005E-002, 2.1984389E-003, 4.1219699E+002
 8.2003875E+001, 7.2122357E-002, 1.0855797E-001, 7.3813146E-002, 6.0840374E-003, 2.8323335E-002, 2.1701958E-003, 4.1244175E+002
 8.3005467E+001, 7.2461959E-002, 1.0848192E-001, 7.3532882E-002, 5.8980294E-003, 2.8795099E-002, 2.1293502E-003, 4.1518485E+002
 8.4010696E+001, 7.2471701E-002, 1.0862368E-001, 7.3504395E-002, 5.8121760E-003, 2.8651471E-002, 2.1118942E-003, 4.1241320E+002
 8.5004530E+001, 7.2584329E-002, 1.0862111E-001, 7.3403772E-002, 5.7344098E-003, 2.8810792E-002, 2.0950484E-003, 4.1276313E+002
 8.6010655E+001, 7.2867208E-002, 1.0841557E-001, 7.3209461E-002, 5.6734755E-003, 2.9241682E-002, 2.0802410E-003, 4.1175715E+002
 8.7000774E+001, 7.3267080E-002, 1.0835744E-001, 7.2921110E-002, 5.4720980E-003, 2.9477205E-002, 2.0362104E-003, 4.0790714E+002
 8.8011038E+001, 7.3314366E-002, 1.0824785E-001, 7.2914879E-002, 5.5158822E-003, 2.9534976E-002, 2.0448178E-003, 4.0791478E+002
 8.9002906E+001, 7.3231498E-002, 1.0847854E-001, 7.2780751E-002, 5.3109699E-003, 3.0256094E-002, 2.0023083E-003, 4.0817584E+002
 9.0005752E+001, 7.3481816E-002, 1.0813613E-001, 7.2610245E-002, 5.3305277E-003, 3.0944999E-002, 2.0038359E-003, 4.1096526E+002
 9.1008680E+001, 7.3779703E-002, 1.0801565E-001, 7.2454668E-002, 5.2605446E-003, 3.0905734E-002, 1.9877408E-003, 4.0862169E+002
 9.2010236E+001, 7.3748642E-002, 1.0805577E-001, 7.2459105E-002, 5.2464133E-003, 3.0928477E-002, 1.9850006E-003, 4.0712600E+002
 9.3008768E+001, 7.3815889E-002, 1.0818855E-001, 7.2369358E-002, 5.1167650E-003, 3.0942548E-002, 1.9579986E-003, 4.0750386E+002
 9.4004680E+001, 7.3970873E-002, 1.0826248E-001, 7.2186411E-002, 4.9408604E-003, 3.1284612E-002, 1.9205242E-003, 4.0891398E+002
 9.5008909E+001, 7.3825272E-002, 1.0828709E-001, 7.2255304E-002, 4.9850611E-003, 3.1415676E-002, 1.9302832E-003, 4.0852501E+002
 9.6007106E+001, 7.3980121E-002, 1.0817966E-001, 7.2111987E-002, 4.9211992E-003, 3.1870431E-002, 1.9156181E-003, 4.0766976E+002
 9.7008496E+001, 7.3929990E-002, 1.0820084E-001, 7.2089201E-002, 4.8951733E-003, 3.2178591E-002, 1.9101558E-003, 4.0978074E+002
 9.8004838E+001, 7.4148331E-002, 1.0820222E-001, 7.1949116E-002, 4.7835420E-003, 3.2134341E-002, 1.8860128E-003, 4.0977900E+002
 9.9002711E+001, 7.4179232E-002, 1.0814346E-001, 7.1922676E-002, 4.7892740E-003, 3.2285294E-002, 1.8867892E-003, 4.0925914E+002
 1.0000082E+002, 7.4410657E-002, 1.0779246E-001, 7.1731720E-002, 4.7974408E-003, 3.3196518E-002, 1.8857852E-003, 4.0681124E+002
 1.0100814E+002, 7.4214668E-002, 1.0789546E-001, 7.1858348E-002, 4.8513220E-003, 3.3025237E-002, 1.8982570E-003, 4.0903206E+002
 1.0200239E+002, 7.4140400E-002, 1.0801965E-001, 7.1845284E-002, 4.7867198E-003, 3.3170573E-002, 1.8852617E-003, 4.0668369E+002
 1.0300193E+002, 7.4152771E-002, 1.0798705E-001, 7.1783975E-002, 4.7543707E-003, 3.3563115E-002, 1.8780065E-003, 4.0620828E+002
 1.0401062E+002, 7.4216447E-002, 1.0794683E-001, 7.1725510E-002, 4.7266827E-003, 3.3739412E-002, 1.8716984E-003, 4.0903844E+002
 1.0500462E+002, 7.4189457E-002, 1.0802272E-001, 7.1720238E-002, 4.6889366E-003, 3.3734828E-002, 1.8641313E-003, 4.1054798E+002
 1.0600019E+002, 7.4228500E-002, 1.0792033E-001, 7.1674927E-002, 4.6997820E-003, 3.4054811E-002, 1.8656698E-003, 4.1143275E+002
 1.0701016E+002, 7.4191266E-002, 1.0801871E-001, 7.1661504E-002, 4.6458598E-003, 3.4099036E-002, 1.8547808E-003, 4.1093918E+002
 1.0800697E+002, 7.4138721E-002, 1.0790122E-001, 7.1727675E-002, 4.7503416E-003, 3.4139646E-002, 1.8764587E-003, 4.0946803E+002
 1.0900094E+002, 7.4053424E-002, 1.0812104E-001, 7.1722741E-002, 4.6490284E-003, 3.4091981E-002, 1.8562755E-003, 4.1134472E+002
 1.1000636E+002, 7.4051985E-002, 1.0803670E-001, 7.1723484E-002, 4.6876548E-003, 3.4259687E-002, 1.8639669E-003, 4.0791538E+002
 1.1100070E+002, 7.3851572E-002, 1.0814296E-001, 7.1752099E-002, 4.6652966E-003, 3.4707542E-002, 1.8599716E-003, 4.1305199E+002
 1.1200871E+002, 7.4131657E-002, 1.0792539E-001, 7.1646971E-002, 4.6779431E-003, 3.4621338E-002, 1.8609872E-003, 4.0895258E+002
 1.1300952E+002, 7.4157412E-002, 1.0778810E-001, 7.1642278E-002, 4.7357889E-003, 3.4813865E-002, 1.8724187E-003, 4.1029408E+002
 1.1400066E+002, 7.4178815E-002, 1.0774202E-001, 7.1591683E-002, 4.7175348E-003, 3.5129013E-002, 1.8681062E-003, 4.0990246E+002
 1.1500950E+002, 7.4033593E-002, 1.0774710E-001, 7.1705124E-002, 4.8045574E-003, 3.5021075E-002, 1.8869749E-003, 4.0876401E+002
 1.1600537E+002, 7.3916609E-002, 1.0780638E-001, 7.1720435E-002, 4.7916797E-003, 3.5296521E-002, 1.8846586E-003, 4.0986410E+002
 1.1701012E+002, 7.3564383E-002, 1.0815077E-001, 7.1862946E-002, 4.7517309E-003, 3.5201537E-002, 1.8787374E-003, 4.1342910E+002
 1.1800161E+002, 7.3761109E-002, 1.0789967E-001, 7.1769644E-002, 4.7900701E-003, 3.5455359E-002, 1.8850486E-003, 4.0919921E+002
 1.1900255E+002, 7.3926675E-002, 1.0776364E-001, 7.1730919E-002, 4.8187730E-003, 3.5273941E-002, 1.8901827E-003, 4.1240351E+002
 1.2000549E+002, 7.3887488E-002, 1.0764253E-001, 7.1703730E-002, 4.8533417E-003, 3.5844375E-002, 1.8967074E-003, 4.1115632E+002
 1.2100274E+002, 7.3936946E-002, 1.0761644E-001, 7.1702847E-002, 4.8635209E-003, 3.5695331E-002, 1.8987029E-003, 4.0872042E+002
 1.2201018E+002, 7.3856430E-002, 1.0782963E-001, 7.1707191E-002, 4.7721978E-003, 3.5583364E-002, 1.8806284E-003, 4.1020252E+002
 1.2300990E+002, 7.3858762E-002, 1.0763142E-001, 7.1719094E-002, 4.8706180E-003, 3.5890752E-002, 1.9003578E-003, 4.1094131E+002
 1.2400806E+002, 7.4009205E-002, 1.0754319E-001, 7.1626843E-002, 4.8371747E-003, 3.6009655E-002, 1.8924246E-003, 4.0905277E+002
 1.2500545E+002, 7.3921665E-002, 1.0747577E-001, 7.1678349E-002, 4.9085216E-003, 3.6188099E-002, 1.9073298E-003, 4.1122328E+002
 1.2600785E+002, 7.4106301E-002, 1.0736223E-001, 7.1542649E-002, 4.8526822E-003, 3.6483665E-002, 1.8943514E-003, 4.0928236E+002
 1.2700638E+002, 7.4180305E-002, 1.0750210E-001, 7.1488796E-002, 4.7471177E-003, 3.6233245E-002, 1.8726152E-003, 4.1126019E+002
 1.2800717E+002, 7.4132559E-002, 1.0735964E-001, 7.1554195E-002, 4.8621796E-003, 3.6307883E-002, 1.8963851E-003, 4.0920867E+002
 1.2900676E+002, 7.4045112E-002, 1.0739322E-001, 7.1607556E-002, 4.8894019E-003, 3.6275291E-002, 1.9025406E-003, 4.0848063E+002
 1.3000186E+002, 7.3952806E-002, 1.0744417E-001, 7.1612172E-002, 4.8716633E-003, 3.6530675E-002, 1.8991064E-003, 4.0966313E+002
 1.3100747E+002, 7.4023117E-002, 1.0738709E-001, 7.1559726E-002, 4.8560497E-003, 3.6675282E-002, 1.8952775E-003, 4.1064635E+002
 1.3200300E+002, 7.4045739E-002, 1.0730557E-001, 7.1535550E-002, 4.8739252E-003, 3.6891575E-002, 1.8985017E-003, 4.1130398E+002
 1.3300223E+002, 7.3793812E-002, 1.0752265E-001, 7.1645616E-002, 4.8647501E-003, 3.6830890E-002, 1.8982326E-003, 4.1225330E+002
 1.3400290E+002, 7.3959083E-002, 1.0743632E-001, 7.1609830E-002, 4.8732970E-003, 3.6534514E-002, 1.8993979E-003, 4.0398443E+002
 1.3501126E+002, 7.3870162E-002, 1.0729191E-001, 7.1636603E-002, 4.9605016E-003, 3.7023752E-002, 1.9171268E-003, 4.0823942E+002
 1.3600819E+002, 7.3984177E-002, 1.0711122E-001, 7.1596128E-002, 5.0089591E-003, 3.7155943E-002, 1.9261835E-003, 4.1049205E+002
 1.3700129E+002, 7.3953233E-002, 1.0717544E-001, 7.1603623E-002, 4.9862963E-003, 3.7111744E-002, 1.9217875E-003, 4.0721496E+002
 1.3800816E+002, 7.3617300E-002, 1.0755602E-001, 7.1785381E-002, 4.9597007E-003, 3.6634426E-002, 1.9190399E-003, 4.1088850E+002
 1.3901075E+002, 7.3864526E-002, 1.0711128E-001, 7.1581581E-002, 5.0000354E-003, 3.7744247E-002, 1.9242559E-003, 4.1310037E+002
 1.4000105E+002, 7.3755711E-002, 1.0730488E-001, 7.1677346E-002, 4.9878814E-003, 3.7222434E-002, 1.9231545E-003, 4.1050919E+002
 1.4100703E+002, 7.3688101E-002, 1.0726302E-001, 7.1679518E-002, 5.0096650E-003, 3.7573100E-002, 1.9275384E-003, 4.1064434E+002
 1.4200846E+002, 7.3701123E-002, 1.0728674E-001, 7.1711035E-002, 5.0227938E-003, 3.7276850E-002, 1.9305653E-003, 4.0656443E+002
 1.4300273E+002, 7.3925110E-002, 1.0702299E-001, 7.1587423E-002, 5.0431877E-003, 3.7629841E-002, 1.9328942E-003, 4.1055876E+002
 1.4401023E+002, 7.3772122E-002, 1.0719921E-001, 7.1653193E-002, 5.0167819E-003, 3.7512075E-002, 1.9285735E-003, 4.1230998E+002
 1.4500480E+002, 7.3364650E-002, 1.0715569E-001, 7.1964487E-002, 5.2816550E-003, 3.7366525E-002, 1.9855393E-003, 4.1172849E+002
 1.4600566E+002, 7.3836109E-002, 1.0684552E-001, 7.1685705E-002, 5.1999079E-003, 3.7741625E-002, 1.9654010E-003, 4.1375014E+002
 1.4700474E+002, 7.3725546E-002, 1.0695623E-001, 7.1781441E-002, 5.2251373E-003, 3.7390720E-002, 1.9717336E-003, 4.1525763E+002
 1.4801011E+002, 7.3625047E-002, 1.0709736E-001, 7.1831627E-002, 5.2016826E-003, 3.7220091E-002, 1.9677738E-003, 4.0752076E+002
 1.4900116E+002, 7.3708194E-002, 1.0676633E-001, 7.1767422E-002, 5.3003819E-003, 3.7924289E-002, 1.9865153E-003, 4.1051873E+002
 1.5000178E+002, 7.3705297E-002, 1.0691749E-001, 7.1728053E-002, 5.2022144E-003, 3.7882171E-002, 1.9664697E-003, 4.1070746E+002
 1.5100995E+002, 7.3708816E-002, 1.0697305E-001, 7.1746363E-002, 5.1910785E-003, 3.7644532E-002, 1.9644985E-003, 4.0903684E+002
 1.5200043E+002, 7.3524003E-002, 1.0708690E-001, 7.1837091E-002, 5.2124430E-003, 3.7627699E-002, 1.9700212E-003, 4.1385116E+002
 1.5300398E+002, 7.3350217E-002, 1.0719327E-001, 7.1929355E-002, 5.2381487E-003, 3.7570155E-002, 1.9764239E-003, 4.1062578E+002
 1.5400669E+002, 7.3585403E-002, 1.0704538E-001, 7.1779477E-002, 5.1860326E-003, 3.7810750E-002, 1.9639794E-003, 4.0810461E+002
