s,,,,,,,
Time,"O2 EXHAUST","CO2 EXHAUST","H2O EXHAUST","CO EXHAUST","FUEL EXHAUST","SOOT EXHAUST","TEMP EXHAUST"
 0.0000000E+000, 2.3099739E-001, 5.9146498E-004, 5.9412091E-003, 0.0000000E+000, 0.0000000E+000, 0.0000000E+000, 2.0000000E+001
 1.0022164E+000, 2.3099739E-001, 5.9146498E-004, 5.9412091E-003, 3.5962808E-026, 8.4899188E-026, 3.5727227E-026, 2.4518720E+001
 2.0012316E+000, 2.1378968E-001, 1.4340580E-002, 1.2463330E-002, 3.0273886E-004, 1.2668209E-004, 5.1955297E-004, 1.7446798E+002
 3.0044644E+000, 2.0357582E-001, 2.2637475E-002, 1.6306279E-002, 3.8660907E-004, 1.4542846E-004, 8.1169036E-004, 2.6511767E+002
 4.0046215E+000, 1.9330123E-001, 3.1062925E-002, 2.0156114E-002, 4.1569235E-004, 1.2745928E-004, 1.0962157E-003, 3.4660448E+002
 5.0006188E+000, 1.7776311E-001, 4.3954728E-002, 2.5945571E-002, 3.5252986E-004, 4.6947933E-005, 1.5082679E-003, 4.3769103E+002
 6.0011229E+000, 1.5977531E-001, 5.8766665E-002, 3.2671187E-002, 3.5859788E-004, 5.0354388E-007, 1.9987113E-003, 5.0827139E+002
 7.0058690E+000, 1.4640456E-001, 6.9688749E-002, 3.7689177E-002, 4.2547456E-004, 1.6161223E-007, 2.3738617E-003, 5.4861175E+002
 8.0046633E+000, 1.2733513E-001, 8.5263302E-002, 4.4846455E-002, 5.2272882E-004, 2.9154868E-007, 2.9092236E-003, 5.9444201E+002
 9.0010057E+000, 1.2126287E-001, 9.0223128E-002, 4.7125416E-002, 5.5335590E-004, 4.0367788E-007, 3.0796389E-003, 5.9835447E+002
 1.0001948E+001, 1.1400002E-001, 9.6156475E-002, 4.9850965E-002, 5.8922042E-004, 3.1442799E-007, 3.2833359E-003, 6.0791016E+002
 1.1002755E+001, 1.0621623E-001, 1.0251512E-001, 5.2772083E-002, 6.2786992E-004, 2.1302061E-007, 3.5016803E-003, 6.1773509E+002
 1.2005721E+001, 9.8573683E-002, 1.0874357E-001, 5.5643943E-002, 6.7693382E-004, 1.6580870E-006, 3.7179790E-003, 6.2158014E+002
 1.3001130E+001, 8.9750337E-002, 1.1595915E-001, 5.8953249E-002, 7.1497237E-004, 6.3876775E-007, 3.9644895E-003, 6.2895025E+002
 1.4005900E+001, 8.3637805E-002, 1.2093507E-001, 6.1251570E-002, 7.5840542E-004, 2.5476119E-006, 4.1382075E-003, 6.3193526E+002
 1.5004806E+001, 8.0453205E-002, 1.2354915E-001, 6.2443479E-002, 7.6476014E-004, 1.4620438E-006, 4.2259068E-003, 6.3292426E+002
 1.6001344E+001, 7.4022225E-002, 1.2880607E-001, 6.4856130E-002, 7.9422279E-004, 4.7340176E-007, 4.4058810E-003, 6.2906035E+002
 1.7002756E+001, 7.1635498E-002, 1.3074979E-001, 6.5753333E-002, 8.1057131E-004, 1.1714411E-006, 4.4736062E-003, 6.2743020E+002
 1.8004396E+001, 7.0209394E-002, 1.3192408E-001, 6.6286125E-002, 8.1063233E-004, 5.1926809E-007, 4.5123976E-003, 6.2785481E+002
 1.9001606E+001, 6.5221209E-002, 1.3599789E-001, 6.8158368E-002, 8.3620401E-004, 6.1638980E-007, 4.6524602E-003, 6.2687474E+002
 2.0003991E+001, 5.9868247E-002, 1.4036843E-001, 7.0167824E-002, 8.6453398E-004, 8.4853656E-007, 4.8029184E-003, 6.3477443E+002
 2.1004074E+001, 5.6137595E-002, 1.4341038E-001, 7.1569366E-002, 8.8736630E-004, 9.4436410E-007, 4.9083132E-003, 6.3112245E+002
 2.2003322E+001, 5.4946702E-002, 1.4438178E-001, 7.2016634E-002, 8.9434822E-004, 1.2288034E-006, 4.9419024E-003, 6.2961015E+002
 2.3000051E+001, 5.0106995E-002, 1.4831234E-001, 7.3838835E-002, 9.3578225E-004, 2.7600514E-006, 5.0806674E-003, 6.3856538E+002
 2.4000178E+001, 4.9697361E-002, 1.4866836E-001, 7.3987073E-002, 9.2168900E-004, 1.0637941E-006, 5.0893742E-003, 6.2914650E+002
 2.5000993E+001, 4.5784069E-002, 1.5186587E-001, 7.5455447E-002, 9.4055369E-004, 1.1911738E-006, 5.1990473E-003, 6.2979896E+002
 2.6004462E+001, 4.7465177E-002, 1.5049974E-001, 7.4822737E-002, 9.2681099E-004, 4.6959381E-007, 5.1509600E-003, 6.2751720E+002
 2.7004860E+001, 4.1465456E-002, 1.5525845E-001, 7.7111706E-002, 1.0648838E-003, 6.1484242E-006, 5.3379865E-003, 6.3207323E+002
 2.8006472E+001, 4.1578045E-002, 1.5530517E-001, 7.7033100E-002, 9.5897462E-004, 3.7796827E-007, 5.3166090E-003, 6.3413963E+002
 2.9007387E+001, 3.8899536E-002, 1.5745652E-001, 7.8047859E-002, 1.0001153E-003, 2.3484385E-006, 5.3965561E-003, 6.3653260E+002
 3.0006141E+001, 3.9169542E-002, 1.5728065E-001, 7.7934857E-002, 9.6486703E-004, 2.0237216E-007, 5.3831200E-003, 6.3223026E+002
 3.1004265E+001, 3.4447110E-002, 1.6110826E-001, 7.9714948E-002, 1.0111745E-003, 1.8507326E-006, 5.5195400E-003, 6.3717432E+002
 3.2006492E+001, 3.0933603E-002, 1.6393528E-001, 8.1044931E-002, 1.0615372E-003, 2.8639264E-006, 5.6237952E-003, 6.4054107E+002
 3.3002221E+001, 3.3477512E-002, 1.6193005E-001, 8.0071100E-002, 9.9348794E-004, 1.2382604E-007, 5.5428501E-003, 6.2980308E+002
 3.4001002E+001, 3.2693631E-002, 1.6256555E-001, 8.0366551E-002, 1.0010728E-003, 3.1583379E-007, 5.5654774E-003, 6.2979507E+002
 3.5002860E+001, 3.0275615E-002, 1.6453186E-001, 8.1276288E-002, 1.0198483E-003, 1.0584503E-006, 5.6344737E-003, 6.3980942E+002
 3.6004901E+001, 2.7067251E-002, 1.6708481E-001, 8.2498245E-002, 1.0875179E-003, 3.1771293E-006, 5.7334239E-003, 6.4471810E+002
 3.7004187E+001, 2.5642189E-002, 1.6832307E-001, 8.3013554E-002, 1.0382337E-003, 5.4364927E-007, 5.7636487E-003, 6.4099740E+002
 3.8004418E+001, 2.9712107E-002, 1.6499918E-001, 8.1485954E-002, 1.0173617E-003, 5.9579271E-007, 5.6493679E-003, 6.3443197E+002
 3.9006749E+001, 2.1801633E-002, 1.7133744E-001, 8.4487115E-002, 1.1507670E-003, 5.4198789E-006, 5.8875455E-003, 6.5503272E+002
 4.0003935E+001, 2.8355415E-002, 1.6610755E-001, 8.1995111E-002, 1.0240761E-003, 3.3804335E-007, 5.6874223E-003, 6.3234074E+002
 4.1000684E+001, 2.5616805E-002, 1.6834396E-001, 8.3023041E-002, 1.0382451E-003, 5.2780335E-007, 5.7643410E-003, 6.4226131E+002
 4.2007379E+001, 2.0960874E-002, 1.7151958E-001, 8.4936968E-002, 1.5403807E-003, 1.2118272E-005, 5.9778780E-003, 6.4994007E+002
 4.3004556E+001, 2.3267325E-002, 1.7023461E-001, 8.3912266E-002, 1.0716725E-003, 1.7164542E-006, 5.8340098E-003, 6.4717843E+002
 4.4003755E+001, 2.1611103E-002, 1.7156383E-001, 8.4540012E-002, 1.0979162E-003, 2.9218095E-006, 5.8835837E-003, 6.4372277E+002
 4.5003108E+001, 2.2261710E-002, 1.7105350E-001, 8.4290314E-002, 1.0786216E-003, 1.9873765E-006, 5.8625557E-003, 6.4117115E+002
 4.6002469E+001, 2.3955686E-002, 1.6963698E-001, 8.3663464E-002, 1.0953529E-003, 1.2842249E-006, 5.8193990E-003, 6.3851891E+002
 4.7002792E+001, 2.3181952E-002, 1.7033233E-001, 8.3936993E-002, 1.0508699E-003, 4.0946612E-007, 5.8327347E-003, 6.3378561E+002
 4.8003777E+001, 2.0818060E-002, 1.7225400E-001, 8.4826516E-002, 1.0696814E-003, 1.2533477E-006, 5.9002649E-003, 6.4197781E+002
 4.9007336E+001, 2.0254188E-002, 1.7270971E-001, 8.5039480E-002, 1.0762857E-003, 1.0197050E-006, 5.9167428E-003, 6.4666974E+002
 5.0007323E+001, 1.8190023E-002, 1.7431607E-001, 8.5835252E-002, 1.1474042E-003, 2.9877029E-006, 5.9851801E-003, 6.4945040E+002
 5.1002961E+001, 1.8366891E-002, 1.7419843E-001, 8.5761672E-002, 1.1259623E-003, 3.0385428E-006, 5.9766551E-003, 6.4433522E+002
 5.2003947E+001, 2.1863072E-002, 1.7141169E-001, 8.4431422E-002, 1.0559208E-003, 3.8354200E-007, 5.8694713E-003, 6.3954265E+002
 5.3004668E+001, 2.0223337E-002, 1.7214743E-001, 8.5202811E-002, 1.5204116E-003, 4.1033194E-005, 5.9942901E-003, 6.3922322E+002
 5.4000952E+001, 2.3644078E-002, 1.6995485E-001, 8.3763566E-002, 1.0485551E-003, 3.3929196E-007, 5.8197685E-003, 6.4162962E+002
 5.5001664E+001, 1.5939534E-002, 1.7620668E-001, 8.6665916E-002, 1.1187161E-003, 2.3840242E-006, 6.0414050E-003, 6.4688826E+002
 5.6002385E+001, 2.1229091E-002, 1.7187023E-001, 8.4684803E-002, 1.1040563E-003, 3.5372288E-006, 5.8950309E-003, 6.4007380E+002
 5.7000966E+001, 1.7380983E-002, 1.7502797E-001, 8.6125348E-002, 1.1125303E-003, 1.9441638E-006, 6.0011419E-003, 6.3735777E+002
 5.8001972E+001, 1.6544176E-002, 1.7562108E-001, 8.6463150E-002, 1.1854633E-003, 5.3782610E-006, 6.0365118E-003, 6.4466086E+002
 5.9004807E+001, 1.5529957E-002, 1.7654023E-001, 8.6819895E-002, 1.1215408E-003, 2.4318196E-006, 6.0530308E-003, 6.4799423E+002
 6.0006587E+001, 1.7560060E-002, 1.7491758E-001, 8.6048699E-002, 1.0843341E-003, 6.9484020E-007, 5.9913946E-003, 6.4225274E+002
 6.1001117E+001, 1.8256078E-002, 1.7435902E-001, 8.5784867E-002, 1.0732660E-003, 3.1361998E-007, 5.9705539E-003, 6.3861071E+002
 6.2004543E+001, 1.8707394E-002, 1.7395369E-001, 8.5625120E-002, 1.0988800E-003, 1.7070921E-006, 5.9627121E-003, 6.4377602E+002
 6.3007881E+001, 1.7689731E-002, 1.7480765E-001, 8.6001093E-002, 1.0867399E-003, 8.1390352E-007, 5.9882849E-003, 6.4733544E+002
 6.4002782E+001, 1.7625071E-002, 1.7482496E-001, 8.6034407E-002, 1.1137708E-003, 4.1008674E-006, 5.9947064E-003, 6.3905728E+002
 6.5005614E+001, 1.5400030E-002, 1.7653254E-001, 8.6899201E-002, 1.2093728E-003, 2.2078015E-006, 6.0717849E-003, 6.4618270E+002
 6.6006562E+001, 1.7477694E-002, 1.7459550E-001, 8.6183672E-002, 1.3825451E-003, 2.9036127E-006, 6.0452954E-003, 6.4338796E+002
 6.7002534E+001, 1.7086027E-002, 1.7524587E-001, 8.6242192E-002, 1.1316163E-003, 2.1406687E-006, 6.0124680E-003, 6.4568276E+002
 6.8001850E+001, 1.6173570E-002, 1.7603378E-001, 8.6573324E-002, 1.1036980E-003, 1.4267083E-006, 6.0324450E-003, 6.4662928E+002
 6.9002896E+001, 1.8729933E-002, 1.7393961E-001, 8.5615547E-002, 1.0954959E-003, 1.3682251E-006, 5.9615149E-003, 6.3944851E+002
 7.0003358E+001, 1.4993472E-002, 1.7683723E-001, 8.7059218E-002, 1.2324836E-003, 1.5620219E-006, 6.0868483E-003, 6.4089650E+002
 7.1005259E+001, 1.3588333E-002, 1.7810133E-001, 8.7555262E-002, 1.1503428E-003, 2.3877828E-006, 6.1108161E-003, 6.5081459E+002
 7.2004208E+001, 1.8745739E-002, 1.7385971E-001, 8.5627392E-002, 1.1465237E-003, 2.6410929E-006, 5.9699194E-003, 6.4248257E+002
 7.3004188E+001, 1.7466444E-002, 1.7494962E-001, 8.6095613E-002, 1.1186919E-003, 1.6201277E-006, 5.9998879E-003, 6.4007334E+002
 7.4000440E+001, 1.6905043E-002, 1.7529544E-001, 8.6336168E-002, 1.2074662E-003, 4.1549452E-006, 6.0305200E-003, 6.4015129E+002
 7.5002699E+001, 1.3435990E-002, 1.7819711E-001, 8.7620052E-002, 1.1729851E-003, 2.8649219E-006, 6.1188789E-003, 6.5118295E+002
 7.6004805E+001, 1.6196443E-002, 1.7587920E-001, 8.6600731E-002, 1.2071841E-003, 4.4801196E-006, 6.0497364E-003, 6.4100135E+002
 7.7000373E+001, 1.4515709E-002, 1.7693074E-001, 8.7314654E-002, 1.4586069E-003, 2.5415086E-005, 6.1388726E-003, 6.4437649E+002
 7.8004036E+001, 1.4291001E-002, 1.7665544E-001, 8.7524494E-002, 1.8136074E-003, 7.9630659E-006, 6.2066080E-003, 6.5087545E+002
 7.9000075E+001, 1.2144968E-002, 1.7885337E-001, 8.8211299E-002, 1.4843769E-003, 3.1801427E-006, 6.2079398E-003, 6.4931203E+002
 8.0000229E+001, 1.7752730E-002, 1.7458588E-001, 8.6021782E-002, 1.2154761E-003, 1.0042581E-005, 6.0088218E-003, 6.4364381E+002
 8.1005976E+001, 1.3298463E-002, 1.7834584E-001, 8.7662011E-002, 1.1459121E-003, 2.1621371E-006, 6.1179315E-003, 6.5037086E+002
 8.2004193E+001, 1.6371465E-002, 1.7587784E-001, 8.6497564E-002, 1.0983739E-003, 1.1434523E-006, 6.0261433E-003, 6.4400614E+002
 8.3000600E+001, 1.8232763E-002, 1.7437433E-001, 8.5794605E-002, 1.0762265E-003, 3.9275473E-007, 5.9717003E-003, 6.4042965E+002
 8.4003891E+001, 1.5501639E-002, 1.7635777E-001, 8.6885469E-002, 1.2789248E-003, 3.5973817E-006, 6.0810656E-003, 6.4072281E+002
 8.5004739E+001, 2.0125530E-002, 1.7279978E-001, 8.5091796E-002, 1.0884392E-003, 9.9468745E-007, 5.9223473E-003, 6.3979146E+002
 8.6004028E+001, 1.5168990E-002, 1.7668960E-001, 8.6994041E-002, 1.2344106E-003, 4.6947178E-006, 6.0823901E-003, 6.5244156E+002
 8.7000577E+001, 2.4189388E-002, 1.6951097E-001, 8.3558488E-002, 1.0446252E-003, 3.9554416E-007, 5.8042598E-003, 6.3545641E+002
 8.8002962E+001, 1.2659121E-002, 1.7820319E-001, 8.8076900E-002, 1.6548442E-003, 2.5142110E-005, 6.2233609E-003, 6.4772257E+002
 8.9005950E+001, 2.0826982E-002, 1.7223362E-001, 8.4826717E-002, 1.0797054E-003, 9.8963522E-007, 5.9017609E-003, 6.3846622E+002
 9.0002539E+001, 1.6420572E-002, 1.7521080E-001, 8.6646595E-002, 1.5775275E-003, 5.3342897E-006, 6.1078113E-003, 6.4711489E+002
 9.1007099E+001, 1.9547463E-002, 1.7329672E-001, 8.5302121E-002, 1.0723970E-003, 8.9713919E-007, 5.9352860E-003, 6.3599913E+002
 9.2006815E+001, 1.4432793E-002, 1.7712468E-001, 8.7314294E-002, 1.3647877E-003, 8.9779870E-006, 6.1249731E-003, 6.5058899E+002
 9.3001976E+001, 1.6060870E-002, 1.7612077E-001, 8.6616876E-002, 1.1080376E-003, 2.1397349E-006, 6.0362569E-003, 6.4474251E+002
 9.4000916E+001, 1.3248485E-002, 1.7835370E-001, 8.7689542E-002, 1.1713373E-003, 2.5877129E-006, 6.1236935E-003, 6.4959988E+002
 9.5006789E+001, 1.9564686E-002, 1.7324379E-001, 8.5305844E-002, 1.1018312E-003, 2.5142419E-006, 5.9399080E-003, 6.4366457E+002
 9.6002131E+001, 1.7655493E-002, 1.7482472E-001, 8.6016818E-002, 1.0952096E-003, 1.1358052E-006, 5.9906815E-003, 6.3950476E+002
 9.7002132E+001, 1.8816393E-002, 1.7383224E-001, 8.5592818E-002, 1.1230628E-003, 2.2866676E-006, 5.9639351E-003, 6.3519377E+002
 9.8002262E+001, 1.8345909E-002, 1.7427900E-001, 8.5752903E-002, 1.0778656E-003, 5.1367686E-007, 5.9689071E-003, 6.4106218E+002
 9.9002792E+001, 1.1426281E-002, 1.7790591E-001, 8.8887575E-002, 2.6580032E-003, 3.6728309E-005, 6.4306410E-003, 6.5382471E+002
 1.0000236E+002, 1.4650362E-002, 1.7715644E-001, 8.7177233E-002, 1.2040657E-003, 3.7522648E-006, 6.0912395E-003, 6.4577528E+002
 1.0100389E+002, 1.8029943E-002, 1.7452391E-001, 8.5874928E-002, 1.0894544E-003, 1.1540686E-006, 5.9795026E-003, 6.4384007E+002
 1.0200096E+002, 2.0430007E-002, 1.7256166E-001, 8.4974601E-002, 1.0787149E-003, 1.6020811E-006, 5.9123794E-003, 6.4695270E+002
 1.0300451E+002, 1.9800112E-002, 1.7305682E-001, 8.5216169E-002, 1.0966800E-003, 1.7551750E-006, 5.9326188E-003, 6.3778651E+002
 1.0400068E+002, 1.6280665E-002, 1.7593609E-001, 8.6535881E-002, 1.1109874E-003, 1.3270870E-006, 6.0307968E-003, 6.4720381E+002
 1.0500598E+002, 1.5032128E-002, 1.7694828E-001, 8.7006419E-002, 1.1230282E-003, 1.9683308E-006, 6.0668278E-003, 6.5141818E+002
 1.0600323E+002, 1.9434728E-002, 1.7338582E-001, 8.5345291E-002, 1.0753112E-003, 4.7874028E-007, 5.9388590E-003, 6.4451736E+002
 1.0700195E+002, 1.2787686E-002, 1.7836068E-001, 8.7960435E-002, 1.4554040E-003, 1.0099107E-005, 6.1853999E-003, 6.5139213E+002
 1.0800445E+002, 1.9355652E-002, 1.7330889E-001, 8.5412388E-002, 1.1835386E-003, 4.1048794E-006, 5.9597404E-003, 6.4587096E+002
 1.0900220E+002, 1.6665922E-002, 1.7560774E-001, 8.6394869E-002, 1.1194253E-003, 1.9332427E-006, 6.0217798E-003, 6.4274446E+002
 1.1000195E+002, 1.8026028E-002, 1.7447269E-001, 8.5890859E-002, 1.1310109E-003, 2.0382124E-006, 5.9868045E-003, 6.4460623E+002
 1.1100502E+002, 1.0922579E-002, 1.7837442E-001, 8.9045987E-002, 2.6012180E-003, 1.4364508E-004, 6.4338255E-003, 6.5154176E+002
 1.1200421E+002, 1.5514442E-002, 1.7617569E-001, 8.6926526E-002, 1.4101165E-003, 4.6121934E-006, 6.1034445E-003, 6.4929804E+002
 1.1300275E+002, 1.6566238E-002, 1.7569321E-001, 8.6431024E-002, 1.1166546E-003, 3.1365939E-006, 6.0240025E-003, 6.4985404E+002
 1.1400148E+002, 1.6173308E-002, 1.7582459E-001, 8.6628969E-002, 1.2634318E-003, 5.5343735E-006, 6.0601056E-003, 6.4858714E+002
 1.1500077E+002, 1.6675865E-002, 1.7544647E-001, 8.6432187E-002, 1.2366316E-003, 1.9839940E-006, 6.0418190E-003, 6.4552753E+002
 1.1600076E+002, 1.4030696E-002, 1.7775085E-001, 8.7386422E-002, 1.1398995E-003, 1.7632366E-006, 6.0969822E-003, 6.4448571E+002
 1.1700295E+002, 1.9345576E-002, 1.7340792E-001, 8.5392292E-002, 1.1145402E-003, 8.7766921E-007, 5.9480783E-003, 6.4098780E+002
 1.1800410E+002, 2.0812402E-002, 1.7227116E-001, 8.4825412E-002, 1.0602488E-003, 3.2601232E-007, 5.8987900E-003, 6.3798690E+002
 1.1900419E+002, 1.8053848E-002, 1.7447907E-001, 8.5872739E-002, 1.1087134E-003, 1.1768108E-006, 5.9821897E-003, 6.4120129E+002
 1.2000680E+002, 1.6501908E-002, 1.7565469E-001, 8.6479829E-002, 1.1869562E-003, 1.3908405E-006, 6.0379448E-003, 6.4592438E+002
 1.2100623E+002, 2.2759334E-002, 1.7051755E-001, 8.4138144E-002, 1.1751334E-003, 2.8147405E-006, 5.8657437E-003, 6.4211151E+002
 1.2200690E+002, 1.5531012E-002, 1.7649521E-001, 8.6831480E-002, 1.1554879E-003, 1.4214439E-006, 6.0588910E-003, 6.4772196E+002
 1.2300162E+002, 1.8608710E-002, 1.7405720E-001, 8.5656050E-002, 1.0818712E-003, 1.4696498E-006, 5.9624495E-003, 6.4168570E+002
 1.2400350E+002, 1.4584435E-002, 1.7727695E-001, 8.7184336E-002, 1.1535927E-003, 2.1513120E-006, 6.0842961E-003, 6.4926648E+002
 1.2500601E+002, 1.7262307E-002, 1.7516957E-001, 8.6158145E-002, 1.0791659E-003, 3.5121323E-007, 5.9985973E-003, 6.4151110E+002
 1.2600383E+002, 1.3796304E-002, 1.7799695E-001, 8.7459869E-002, 1.0993711E-003, 8.8243805E-007, 6.0963381E-003, 6.3923714E+002
 1.2700186E+002, 1.4943214E-002, 1.7688993E-001, 8.7074748E-002, 1.2236054E-003, 3.0338921E-006, 6.0866671E-003, 6.4831777E+002
 1.2800637E+002, 1.3668922E-002, 1.7796775E-001, 8.7543301E-002, 1.2019377E-003, 1.5490292E-006, 6.1175706E-003, 6.4740181E+002
 1.2900580E+002, 1.1487797E-002, 1.7979756E-001, 8.8348899E-002, 1.1759289E-003, 1.9678129E-006, 6.1723673E-003, 6.5417467E+002
 1.3000106E+002, 1.5640000E-002, 1.7632290E-001, 8.6812740E-002, 1.2185440E-003, 2.5620776E-006, 6.0668470E-003, 6.4177363E+002
 1.3100709E+002, 1.4248708E-002, 1.7701504E-001, 8.7453650E-002, 1.5653653E-003, 5.0113281E-006, 6.1647602E-003, 6.4766754E+002
 1.3200109E+002, 1.5423935E-002, 1.7663648E-001, 8.6857213E-002, 1.1148016E-003, 1.6363086E-006, 6.0547508E-003, 6.4067986E+002
 1.3300460E+002, 2.0147804E-002, 1.7281663E-001, 8.5074155E-002, 1.0616071E-003, 2.0122443E-007, 5.9170970E-003, 6.3356434E+002
 1.3400565E+002, 1.4383270E-002, 1.7738801E-001, 8.7273674E-002, 1.1949406E-003, 5.2067758E-006, 6.0969116E-003, 6.4305657E+002
 1.3500122E+002, 1.4866468E-002, 1.7706151E-001, 8.7074466E-002, 1.1407237E-003, 2.2837401E-006, 6.0743966E-003, 6.4689564E+002
 1.3600193E+002, 1.5304006E-002, 1.7617276E-001, 8.7051879E-002, 1.5445291E-003, 8.0182770E-006, 6.1324365E-003, 6.4297952E+002
 1.3700652E+002, 2.0503153E-002, 1.7252441E-001, 8.4941296E-002, 1.0613045E-003, 3.6242272E-007, 5.9073814E-003, 6.3908636E+002
 1.3800020E+002, 1.7141255E-002, 1.7526277E-001, 8.6205007E-002, 1.0840249E-003, 9.6705760E-007, 6.0027269E-003, 6.4089250E+002
 1.3900675E+002, 1.9088424E-002, 1.7366781E-001, 8.5475447E-002, 1.0776767E-003, 8.2709207E-007, 5.9486829E-003, 6.3286459E+002
 1.4000347E+002, 1.4401092E-002, 1.7742296E-001, 8.7254234E-002, 1.1574720E-003, 1.5655990E-006, 6.0899571E-003, 6.4793395E+002
 1.4100491E+002, 1.4030833E-002, 1.7733574E-001, 8.7496925E-002, 1.4569395E-003, 6.6212828E-006, 6.1518859E-003, 6.4754194E+002
 1.4200458E+002, 1.1704935E-002, 1.7966879E-001, 8.8254508E-002, 1.1377637E-003, 1.0771659E-006, 6.1598554E-003, 6.5180857E+002
 1.4300170E+002, 1.5557788E-002, 1.7655074E-001, 8.6800789E-002, 1.0962032E-003, 6.8009626E-007, 6.0478945E-003, 6.4403938E+002
 1.4400190E+002, 1.8855795E-002, 1.7387233E-001, 8.5558963E-002, 1.0678405E-003, 1.3840473E-007, 5.9533081E-003, 6.3429951E+002
 1.4500515E+002, 1.5296436E-002, 1.7669319E-001, 8.6917716E-002, 1.1516966E-003, 2.0790537E-006, 6.0646082E-003, 6.4600180E+002
 1.4600609E+002, 1.4810818E-002, 1.7661052E-001, 8.7228343E-002, 1.5210186E-003, 2.9313604E-006, 6.1418046E-003, 6.4834964E+002
 1.4700014E+002, 1.3533254E-002, 1.7813565E-001, 8.7578814E-002, 1.1588097E-003, 2.2430705E-006, 6.1137818E-003, 6.4661725E+002
 1.4800441E+002, 1.7462225E-002, 1.7496742E-001, 8.6093221E-002, 1.1075904E-003, 2.4963986E-006, 5.9980734E-003, 6.4637978E+002
 1.4900070E+002, 1.1463158E-002, 1.7955648E-001, 8.8428258E-002, 1.3761420E-003, 1.3462260E-006, 6.2077349E-003, 6.4507952E+002
 1.5000532E+002, 1.7295700E-002, 1.7514499E-001, 8.6144900E-002, 1.0769426E-003, 2.6301052E-007, 5.9973046E-003, 6.3748750E+002
 1.5100112E+002, 1.9350648E-002, 1.7345671E-001, 8.5376251E-002, 1.0740380E-003, 4.9664487E-007, 5.9409244E-003, 6.3709339E+002
 1.5200666E+002, 1.5956383E-002, 1.7619385E-001, 8.6659315E-002, 1.1178889E-003, 2.5712479E-006, 6.0408024E-003, 6.3802035E+002
 1.5300027E+002, 1.5333317E-002, 1.7668285E-001, 8.6898372E-002, 1.1361585E-003, 3.4564773E-006, 6.0609042E-003, 6.3638094E+002
 1.5400239E+002, 1.2646850E-002, 1.7888234E-001, 8.7905501E-002, 1.1460156E-003, 1.6272785E-006, 6.1356706E-003, 6.4957499E+002
