s,,,,,,,
Time,"O2 EXHAUST","CO2 EXHAUST","H2O EXHAUST","CO EXHAUST","FUEL EXHAUST","SOOT EXHAUST","TEMP EXHAUST"
 0.0000000E+000, 2.3099739E-001, 5.9146498E-004, 5.9412091E-003, 0.0000000E+000, 0.0000000E+000, 0.0000000E+000, 2.0000000E+001
 1.0055209E+000, 2.3099739E-001, 5.9146498E-004, 5.9412091E-003, 1.2193927E-029, 1.3899618E-028, 3.6268100E-030, 2.0440498E+001
 2.0026265E+000, 2.2287127E-001, 8.0057160E-003, 9.0592141E-003, 4.3636029E-005, 3.0539841E-004, 5.4089165E-005, 9.8173421E+001
 3.0014611E+000, 2.1642584E-001, 1.3905736E-002, 1.1554741E-002, 9.2521683E-005, 3.7386515E-004, 1.0019507E-004, 1.5491378E+002
 4.0023211E+000, 2.1153837E-001, 1.8413718E-002, 1.3436951E-002, 1.0376656E-004, 4.1948490E-004, 1.2977410E-004, 1.9778625E+002
 5.0043094E+000, 2.0747232E-001, 2.2131838E-002, 1.5005479E-002, 1.3045050E-004, 5.0515298E-004, 1.5793749E-004, 2.3244865E+002
 6.0057124E+000, 2.0020370E-001, 2.8863770E-002, 1.7809490E-002, 1.3954764E-004, 4.8906126E-004, 2.0044359E-004, 2.8530490E+002
 7.0026455E+000, 1.9167791E-001, 3.6802248E-002, 2.1099160E-002, 1.3178709E-004, 3.8246302E-004, 2.4656737E-004, 3.3922934E+002
 8.0014277E+000, 1.8552216E-001, 4.2535963E-002, 2.3473521E-002, 1.2441825E-004, 3.0654464E-004, 2.7949954E-004, 3.6986929E+002
 9.0050223E+000, 1.7702800E-001, 5.0465512E-002, 2.6749518E-002, 1.0587791E-004, 1.6856263E-004, 3.2323701E-004, 4.1134430E+002
 1.0001390E+001, 1.6988137E-001, 5.7125039E-002, 2.9505161E-002, 9.5084974E-005, 8.0278895E-005, 3.6100326E-004, 4.3669905E+002
 1.1001823E+001, 1.6074376E-001, 6.5615705E-002, 3.3028247E-002, 9.1970348E-005, 1.6720151E-005, 4.1145754E-004, 4.6585923E+002
 1.2005939E+001, 1.5444562E-001, 7.1452863E-002, 3.5456529E-002, 9.6634488E-005, 2.8997568E-006, 4.4761642E-004, 4.7254103E+002
 1.3007658E+001, 1.4913087E-001, 7.6373727E-002, 3.7505663E-002, 1.0278608E-004, 8.9421603E-007, 4.7857950E-004, 4.8050322E+002
 1.4000853E+001, 1.4146395E-001, 8.3471264E-002, 4.0461723E-002, 1.1222572E-004, 1.4793389E-007, 5.2336135E-004, 4.8989319E+002
 1.5001968E+001, 1.3306185E-001, 9.1248862E-002, 4.3701248E-002, 1.2281541E-004, 3.0619247E-007, 5.7248717E-004, 5.0180410E+002
 1.6001490E+001, 1.2652668E-001, 9.7298412E-002, 4.6220942E-002, 1.3098309E-004, 2.7339517E-007, 6.1068311E-004, 5.0893790E+002
 1.7002200E+001, 1.2262733E-001, 1.0090757E-001, 4.7724418E-002, 1.3610152E-004, 8.5470419E-007, 6.3352394E-004, 5.0869735E+002
 1.8001703E+001, 1.1634867E-001, 1.0672012E-001, 5.0145168E-002, 1.4369820E-004, 1.6380658E-007, 6.7016921E-004, 5.0999845E+002
 1.9007397E+001, 1.1211647E-001, 1.1063767E-001, 5.1776940E-002, 1.4906992E-004, 4.4184126E-007, 6.9492189E-004, 5.0773021E+002
 2.0005144E+001, 1.0636818E-001, 1.1595869E-001, 5.3993257E-002, 1.5632484E-004, 5.7966490E-007, 7.2853329E-004, 5.1633958E+002
 2.1005384E+001, 1.0253856E-001, 1.1950336E-001, 5.5469848E-002, 1.6132981E-004, 1.0394943E-006, 7.5096122E-004, 5.1427057E+002
 2.2006663E+001, 9.7588823E-002, 1.2406324E-001, 5.7380271E-002, 1.7956923E-004, 3.2540076E-005, 7.8236613E-004, 5.1626500E+002
 2.3002075E+001, 9.3668118E-002, 1.2755385E-001, 5.8897984E-002, 2.5357111E-004, 2.7080549E-004, 8.1939825E-004, 5.1834561E+002
 2.4000174E+001, 9.1141864E-002, 1.2984219E-001, 5.9878060E-002, 2.8569331E-004, 3.3357150E-004, 8.4012851E-004, 5.1282664E+002
 2.5002577E+001, 8.8902577E-002, 1.3181561E-001, 6.0744742E-002, 3.3697036E-004, 5.1062582E-004, 8.6310735E-004, 5.0904332E+002
 2.6002883E+001, 8.5891457E-002, 1.3417003E-001, 6.1924239E-002, 5.5600273E-004, 1.2562054E-003, 9.2467967E-004, 5.0664733E+002
 2.7002676E+001, 8.3998594E-002, 1.3574953E-001, 6.2656169E-002, 6.3883205E-004, 1.5855535E-003, 9.5211390E-004, 5.0058437E+002
 2.8002096E+001, 8.2758177E-002, 1.3676317E-001, 6.3137640E-002, 7.0469948E-004, 1.8327671E-003, 9.7247035E-004, 4.9276167E+002
 2.9001468E+001, 8.0969642E-002, 1.3816350E-001, 6.3836927E-002, 8.3261744E-004, 2.2798568E-003, 1.0085819E-003, 4.8802012E+002
 3.0010055E+001, 8.0184943E-002, 1.3873189E-001, 6.4141043E-002, 9.0682525E-004, 2.5833843E-003, 1.0280620E-003, 4.8262857E+002
 3.1006208E+001, 7.9029337E-002, 1.3945621E-001, 6.4598517E-002, 1.0770765E-003, 3.1955883E-003, 1.0692631E-003, 4.7792368E+002
 3.2006835E+001, 7.7246797E-002, 1.4079530E-001, 6.5295067E-002, 1.2297926E-003, 3.7555872E-003, 1.1103719E-003, 4.7721844E+002
 3.3006572E+001, 7.7321742E-002, 1.4058384E-001, 6.5266432E-002, 1.2943732E-003, 4.0355238E-003, 1.1230728E-003, 4.7136906E+002
 3.4001418E+001, 7.6304037E-002, 1.4130823E-001, 6.5654021E-002, 1.3894013E-003, 4.4958620E-003, 1.1479977E-003, 4.7019187E+002
 3.5000625E+001, 7.6213474E-002, 1.4111246E-001, 6.5678834E-002, 1.5058892E-003, 5.1110125E-003, 1.1720255E-003, 4.5707337E+002
 3.6005088E+001, 7.5272287E-002, 1.4175812E-001, 6.6034661E-002, 1.6020849E-003, 5.6006838E-003, 1.1967291E-003, 4.5789684E+002
 3.7007803E+001, 7.4192838E-002, 1.4234858E-001, 6.6431539E-002, 1.7689107E-003, 6.5275066E-003, 1.2363841E-003, 4.5363265E+002
 3.8003740E+001, 7.4011748E-002, 1.4235341E-001, 6.6486857E-002, 1.8280518E-003, 6.9378666E-003, 1.2492110E-003, 4.4747073E+002
 3.9000986E+001, 7.3453087E-002, 1.4246865E-001, 6.6718267E-002, 2.0273655E-003, 7.6372110E-003, 1.2930329E-003, 4.5051339E+002
 4.0007112E+001, 7.3130702E-002, 1.4236505E-001, 6.6786794E-002, 2.1527797E-003, 8.7713965E-003, 1.3195489E-003, 4.3963386E+002
 4.1007614E+001, 7.2590316E-002, 1.4256529E-001, 6.6956502E-002, 2.2497845E-003, 9.5996988E-003, 1.3417466E-003, 4.3856566E+002
 4.2004374E+001, 7.2255218E-002, 1.4273283E-001, 6.7066850E-002, 2.2955244E-003, 9.9964731E-003, 1.3526536E-003, 4.3503615E+002
 4.3003646E+001, 7.2277444E-002, 1.4248055E-001, 6.7015107E-002, 2.3562285E-003, 1.0716936E-002, 1.3642715E-003, 4.3161224E+002
 4.4007122E+001, 7.2146774E-002, 1.4248468E-001, 6.7028830E-002, 2.3717315E-003, 1.1170330E-002, 1.3676524E-003, 4.2906751E+002
 4.5008893E+001, 7.2181662E-002, 1.4236232E-001, 6.6991203E-002, 2.3877090E-003, 1.1495140E-002, 1.3703738E-003, 4.2279444E+002
 4.6009388E+001, 7.1693953E-002, 1.4233289E-001, 6.7108053E-002, 2.5332562E-003, 1.2878930E-002, 1.4016935E-003, 4.2079890E+002
 4.7004297E+001, 7.1430997E-002, 1.4232220E-001, 6.7184283E-002, 2.6229601E-003, 1.3534689E-002, 1.4210407E-003, 4.1844952E+002
 4.8003755E+001, 7.1649818E-002, 1.4207893E-001, 6.7066359E-002, 2.6067064E-003, 1.3818487E-002, 1.4160600E-003, 4.1241716E+002
 4.9008701E+001, 7.1136586E-002, 1.4223573E-001, 6.7219084E-002, 2.7052930E-003, 1.4722497E-002, 1.4383386E-003, 4.1466679E+002
 5.0000104E+001, 7.1159738E-002, 1.4200306E-001, 6.7153265E-002, 2.7426387E-003, 1.5485454E-002, 1.4450207E-003, 4.0787828E+002
 5.1004778E+001, 7.1509883E-002, 1.4164493E-001, 6.6999174E-002, 2.7380281E-003, 1.5668401E-002, 1.4418672E-003, 4.0364831E+002
 5.2007980E+001, 7.1484211E-002, 1.4141444E-001, 6.6949905E-002, 2.7925987E-003, 1.6530349E-002, 1.4522898E-003, 4.0321801E+002
 5.3000093E+001, 7.1596745E-002, 1.4102287E-001, 6.6844214E-002, 2.8588018E-003, 1.7476945E-002, 1.4642596E-003, 3.9846413E+002
 5.4010930E+001, 7.1832176E-002, 1.4062688E-001, 6.6692081E-002, 2.8762559E-003, 1.8201200E-002, 1.4656542E-003, 3.9596418E+002
 5.5010190E+001, 7.1574423E-002, 1.4058638E-001, 6.6754457E-002, 2.9651232E-003, 1.8978200E-002, 1.4846413E-003, 4.0073288E+002
 5.6001663E+001, 7.1616276E-002, 1.4037575E-001, 6.6660019E-002, 2.9626402E-003, 1.9792807E-002, 1.4828386E-003, 3.9673195E+002
 5.7003324E+001, 7.1858766E-002, 1.4011971E-001, 6.6534938E-002, 2.9442375E-003, 2.0046591E-002, 1.4773159E-003, 3.9060669E+002
 5.8002971E+001, 7.2571398E-002, 1.3916532E-001, 6.6129958E-002, 2.9433190E-003, 2.1418863E-002, 1.4713749E-003, 3.8649208E+002
 5.9001252E+001, 7.2638813E-002, 1.3891270E-001, 6.5991712E-002, 2.9142698E-003, 2.2475309E-002, 1.4635721E-003, 3.8496231E+002
 6.0009302E+001, 7.2575487E-002, 1.3885150E-001, 6.6008705E-002, 2.9610496E-003, 2.2757671E-002, 1.4733263E-003, 3.8192880E+002
 6.1007005E+001, 7.2991795E-002, 1.3833837E-001, 6.5762949E-002, 2.9309692E-003, 2.3526864E-002, 1.4637307E-003, 3.7817108E+002
 6.2011297E+001, 7.3701722E-002, 1.3761736E-001, 6.5407957E-002, 2.8756210E-003, 2.4145378E-002, 1.4474155E-003, 3.7379940E+002
 6.3003294E+001, 7.4102129E-002, 1.3690189E-001, 6.5132388E-002, 2.9070710E-003, 2.5562254E-002, 1.4499170E-003, 3.7526433E+002
 6.4010841E+001, 7.4226433E-002, 1.3688599E-001, 6.5106371E-002, 2.8844454E-003, 2.5233128E-002, 1.4449246E-003, 3.7021462E+002
 6.5002275E+001, 7.4731507E-002, 1.3640010E-001, 6.4866866E-002, 2.8461930E-003, 2.5540525E-002, 1.4337231E-003, 3.6709321E+002
 6.6002311E+001, 7.5055814E-002, 1.3595640E-001, 6.4652639E-002, 2.8193119E-003, 2.6364765E-002, 1.4252380E-003, 3.6782733E+002
 6.7005454E+001, 7.6159432E-002, 1.3460139E-001, 6.4029759E-002, 2.7665371E-003, 2.8220236E-002, 1.4056662E-003, 3.6413618E+002
 6.8003872E+001, 7.6198643E-002, 1.3464045E-001, 6.4009418E-002, 2.7269705E-003, 2.8102554E-002, 1.3973400E-003, 3.6189822E+002
 6.9010970E+001, 7.6472217E-002, 1.3435070E-001, 6.3874566E-002, 2.7130373E-003, 2.8352711E-002, 1.3925813E-003, 3.6233247E+002
 7.0000672E+001, 7.7725691E-002, 1.3282844E-001, 6.3181323E-002, 2.6600899E-003, 3.0340887E-002, 1.3719656E-003, 3.5576986E+002
 7.1004110E+001, 7.7497719E-002, 1.3298861E-001, 6.3253396E-002, 2.6671931E-003, 3.0537447E-002, 1.3744677E-003, 3.6087100E+002
 7.2004192E+001, 7.7932949E-002, 1.3250041E-001, 6.3056540E-002, 2.6755146E-003, 3.0882355E-002, 1.3733296E-003, 3.5152531E+002
 7.3008169E+001, 7.8191110E-002, 1.3210020E-001, 6.2914441E-002, 2.7046020E-003, 3.1459482E-002, 1.3772154E-003, 3.5464263E+002
 7.4001783E+001, 7.8721453E-002, 1.3155499E-001, 6.2628304E-002, 2.6447517E-003, 3.2061392E-002, 1.3609846E-003, 3.5041069E+002
 7.5007790E+001, 7.9196570E-002, 1.3092397E-001, 6.2342396E-002, 2.6254283E-003, 3.3062125E-002, 1.3530073E-003, 3.4369943E+002
 7.6006437E+001, 7.9256477E-002, 1.3080710E-001, 6.2286012E-002, 2.6190352E-003, 3.3385326E-002, 1.3509214E-003, 3.4847630E+002
 7.7008894E+001, 7.9497562E-002, 1.3051526E-001, 6.2137139E-002, 2.5924789E-003, 3.3859922E-002, 1.3434198E-003, 3.5225212E+002
 7.8009258E+001, 8.0479362E-002, 1.2929636E-001, 6.1608565E-002, 2.5778483E-003, 3.5382547E-002, 1.3329197E-003, 3.4304773E+002
 7.9008924E+001, 8.0138991E-002, 1.2971404E-001, 6.1785286E-002, 2.5784407E-003, 3.4903875E-002, 1.3355613E-003, 3.4272494E+002
 8.0005330E+001, 8.0556641E-002, 1.2906039E-001, 6.1488393E-002, 2.5595537E-003, 3.6255492E-002, 1.3275435E-003, 3.3962533E+002
 8.1005558E+001, 8.1085927E-002, 1.2860611E-001, 6.1293716E-002, 2.5523591E-003, 3.6127934E-002, 1.3232508E-003, 3.3849929E+002
 8.2004238E+001, 8.1095578E-002, 1.2831040E-001, 6.1221900E-002, 2.6124684E-003, 3.7108381E-002, 1.3344794E-003, 3.4070722E+002
 8.3001890E+001, 8.2071869E-002, 1.2720864E-001, 6.0633228E-002, 2.4832056E-003, 3.8785702E-002, 1.2998824E-003, 3.3737492E+002
 8.4013159E+001, 8.1918623E-002, 1.2750916E-001, 6.0806773E-002, 2.5289285E-003, 3.7778414E-002, 1.3115814E-003, 3.3157763E+002
 8.5004429E+001, 8.1951363E-002, 1.2734259E-001, 6.0694775E-002, 2.4886848E-003, 3.8650014E-002, 1.3018740E-003, 3.3953801E+002
 8.6009230E+001, 8.2319536E-002, 1.2670962E-001, 6.0354905E-002, 2.4175684E-003, 4.0427062E-002, 1.2826813E-003, 3.4177659E+002
 8.7000246E+001, 8.2666594E-002, 1.2620241E-001, 6.0185086E-002, 2.4644720E-003, 4.1013461E-002, 1.2897777E-003, 3.3621303E+002
 8.8009034E+001, 8.2568906E-002, 1.2649679E-001, 6.0259538E-002, 2.4098928E-003, 4.0386661E-002, 1.2797388E-003, 3.4111954E+002
 8.9007981E+001, 8.3328652E-002, 1.2551490E-001, 5.9802183E-002, 2.3665113E-003, 4.1934122E-002, 1.2644452E-003, 3.3166857E+002
 9.0000250E+001, 8.2915653E-002, 1.2586888E-001, 6.0040950E-002, 2.4614759E-003, 4.1508754E-002, 1.2871227E-003, 3.3433258E+002
 9.1002950E+001, 8.3602666E-002, 1.2513995E-001, 5.9647674E-002, 2.3710153E-003, 4.2470251E-002, 1.2631638E-003, 3.2780227E+002
 9.2007988E+001, 8.3665306E-002, 1.2476447E-001, 5.9491114E-002, 2.3789872E-003, 4.3900910E-002, 1.2626327E-003, 3.3157746E+002
 9.3009456E+001, 8.3384952E-002, 1.2509197E-001, 5.9631014E-002, 2.3811602E-003, 4.3573659E-002, 1.2650738E-003, 3.3219887E+002
 9.4002477E+001, 8.3870971E-002, 1.2464902E-001, 5.9417015E-002, 2.3500952E-003, 4.3720985E-002, 1.2556855E-003, 3.2764101E+002
 9.5003815E+001, 8.4250289E-002, 1.2410089E-001, 5.9157676E-002, 2.3228782E-003, 4.4795960E-002, 1.2464997E-003, 3.2990351E+002
 9.6011567E+001, 8.3900292E-002, 1.2448372E-001, 5.9322901E-002, 2.3277147E-003, 4.4496059E-002, 1.2498504E-003, 3.2754118E+002
 9.7006893E+001, 8.4438895E-002, 1.2383477E-001, 5.9019755E-002, 2.2972267E-003, 4.5372044E-002, 1.2393490E-003, 3.2481347E+002
 9.8003189E+001, 8.4129223E-002, 1.2413533E-001, 5.9124273E-002, 2.2760467E-003, 4.5434586E-002, 1.2365764E-003, 3.2841114E+002
 9.9008894E+001, 8.4562974E-002, 1.2349859E-001, 5.8811017E-002, 2.2322933E-003, 4.6784638E-002, 1.2232801E-003, 3.2816479E+002
 1.0000391E+002, 8.4462065E-002, 1.2374729E-001, 5.8918350E-002, 2.2322425E-003, 4.6062705E-002, 1.2247641E-003, 3.2254946E+002
 1.0100374E+002, 8.4520626E-002, 1.2350496E-001, 5.8804872E-002, 2.2241714E-003, 4.6985749E-002, 1.2215618E-003, 3.2997712E+002
 1.0200406E+002, 8.4645918E-002, 1.2330122E-001, 5.8721566E-002, 2.2278820E-003, 4.7371508E-002, 1.2211392E-003, 3.2706983E+002
 1.0300191E+002, 8.4997169E-002, 1.2271809E-001, 5.8448269E-002, 2.2029130E-003, 4.8717315E-002, 1.2122300E-003, 3.2389101E+002
 1.0401095E+002, 8.4692442E-002, 1.2288680E-001, 5.8558134E-002, 2.2468612E-003, 4.8988102E-002, 1.2227559E-003, 3.3037058E+002
 1.0500433E+002, 8.4737941E-002, 1.2284819E-001, 5.8492422E-002, 2.1957873E-003, 4.9272774E-002, 1.2114736E-003, 3.2778575E+002
 1.0600661E+002, 8.4783496E-002, 1.2292971E-001, 5.8528272E-002, 2.1944722E-003, 4.8704335E-002, 1.2116779E-003, 3.2536474E+002
 1.0701433E+002, 8.4864847E-002, 1.2253934E-001, 5.8369744E-002, 2.2067012E-003, 5.0098416E-002, 1.2119782E-003, 3.2442231E+002
 1.0801119E+002, 8.4987914E-002, 1.2228920E-001, 5.8253007E-002, 2.1971956E-003, 5.0787772E-002, 1.2084177E-003, 3.2578569E+002
 1.0900649E+002, 8.4916371E-002, 1.2231421E-001, 5.8288492E-002, 2.2240769E-003, 5.0821601E-002, 1.2143847E-003, 3.2448193E+002
 1.1000977E+002, 8.4918019E-002, 1.2231460E-001, 5.8302353E-002, 2.2380800E-003, 5.0730038E-002, 1.2174166E-003, 3.2760975E+002
 1.1100061E+002, 8.5186267E-002, 1.2183575E-001, 5.8089365E-002, 2.2298232E-003, 5.1850109E-002, 1.2127505E-003, 3.2472448E+002
 1.1200690E+002, 8.5059436E-002, 1.2186646E-001, 5.8110425E-002, 2.2407114E-003, 5.2190424E-002, 1.2152925E-003, 3.2735231E+002
 1.1301043E+002, 8.5053730E-002, 1.2192887E-001, 5.8080199E-002, 2.1815487E-003, 5.2273538E-002, 1.2028676E-003, 3.2604223E+002
 1.1400248E+002, 8.5125312E-002, 1.2159395E-001, 5.7943527E-002, 2.1913186E-003, 5.3466172E-002, 1.2029690E-003, 3.2867817E+002
 1.1500668E+002, 8.5002679E-002, 1.2172857E-001, 5.8015145E-002, 2.2068801E-003, 5.3277036E-002, 1.2071460E-003, 3.3039060E+002
 1.1601088E+002, 8.5153279E-002, 1.2156051E-001, 5.7942344E-002, 2.2045601E-003, 5.3423022E-002, 1.2056325E-003, 3.2340569E+002
 1.1701132E+002, 8.5180492E-002, 1.2126978E-001, 5.7834745E-002, 2.2252505E-003, 5.4537026E-002, 1.2083625E-003, 3.2532936E+002
 1.1800598E+002, 8.5138959E-002, 1.2123207E-001, 5.7848988E-002, 2.2580058E-003, 5.4698629E-002, 1.2152233E-003, 3.3189197E+002
 1.1900824E+002, 8.5327269E-002, 1.2115903E-001, 5.7787617E-002, 2.2233909E-003, 5.4429970E-002, 1.2072929E-003, 3.2370999E+002
 1.2000541E+002, 8.5364534E-002, 1.2101478E-001, 5.7752740E-002, 2.2520494E-003, 5.4771581E-002, 1.2126263E-003, 3.2902290E+002
 1.2101255E+002, 8.5482898E-002, 1.2055396E-001, 5.7562026E-002, 2.2622551E-003, 5.6345831E-002, 1.2120652E-003, 3.2775297E+002
 1.2200285E+002, 8.5093522E-002, 1.2103845E-001, 5.7790101E-002, 2.2864926E-003, 5.5628145E-002, 1.2202244E-003, 3.3118368E+002
 1.2300873E+002, 8.5169343E-002, 1.2072671E-001, 5.7661234E-002, 2.2936574E-003, 5.6709918E-002, 1.2199013E-003, 3.3004541E+002
 1.2401204E+002, 8.5153232E-002, 1.2080210E-001, 5.7695486E-002, 2.2950391E-003, 5.6420348E-002, 1.2206532E-003, 3.2771290E+002
 1.2501219E+002, 8.5137016E-002, 1.2058073E-001, 5.7644689E-002, 2.3436700E-003, 5.7234069E-002, 1.2298453E-003, 3.2769678E+002
 1.2600294E+002, 8.5158413E-002, 1.2055180E-001, 5.7615972E-002, 2.3267770E-003, 5.7376058E-002, 1.2260165E-003, 3.2539108E+002
 1.2701067E+002, 8.5183365E-002, 1.2050109E-001, 5.7597057E-002, 2.3297225E-003, 5.7487025E-002, 1.2263488E-003, 3.2898905E+002
 1.2800030E+002, 8.5200489E-002, 1.2046254E-001, 5.7582955E-002, 2.3322970E-003, 5.7577411E-002, 1.2266740E-003, 3.2402979E+002
 1.2901397E+002, 8.5306257E-002, 1.2003330E-001, 5.7463011E-002, 2.4011232E-003, 5.8713140E-002, 1.2389852E-003, 3.2613697E+002
 1.3000407E+002, 8.5017832E-002, 1.2040975E-001, 5.7612079E-002, 2.3907196E-003, 5.8267045E-002, 1.2389995E-003, 3.2772001E+002
 1.3100639E+002, 8.5076605E-002, 1.2036776E-001, 5.7566387E-002, 2.3613815E-003, 5.8381872E-002, 1.2323992E-003, 3.2334532E+002
 1.3201139E+002, 8.5064521E-002, 1.2015620E-001, 5.7531349E-002, 2.4216362E-003, 5.9063544E-002, 1.2441649E-003, 3.3258165E+002
 1.3300171E+002, 8.5210414E-002, 1.1976687E-001, 5.7389975E-002, 2.4493676E-003, 6.0082677E-002, 1.2478244E-003, 3.2633181E+002
 1.3400677E+002, 8.4850576E-002, 1.2032302E-001, 5.7630329E-002, 2.4529791E-003, 5.9025558E-002, 1.2519510E-003, 3.2334265E+002
 1.3500937E+002, 8.5216695E-002, 1.1980072E-001, 5.7417557E-002, 2.4621674E-003, 5.9822450E-002, 1.2507968E-003, 3.3108459E+002
 1.3601449E+002, 8.5100118E-002, 1.1978541E-001, 5.7448072E-002, 2.5033612E-003, 6.0153967E-002, 1.2596189E-003, 3.2987563E+002
 1.3700994E+002, 8.4928551E-002, 1.1995274E-001, 5.7491524E-002, 2.4764243E-003, 6.0274502E-002, 1.2547986E-003, 3.2935025E+002
 1.3801379E+002, 8.4844557E-002, 1.1993536E-001, 5.7503896E-002, 2.4991187E-003, 6.0584150E-002, 1.2596054E-003, 3.3105055E+002
 1.3900595E+002, 8.5030452E-002, 1.1964295E-001, 5.7410446E-002, 2.5310865E-003, 6.0954392E-002, 1.2647628E-003, 3.2985584E+002
 1.4001411E+002, 8.4728136E-002, 1.1989395E-001, 5.7570068E-002, 2.5887297E-003, 6.0750866E-002, 1.2787458E-003, 3.3403716E+002
 1.4100253E+002, 8.4917584E-002, 1.1964727E-001, 5.7445921E-002, 2.5683784E-003, 6.1201538E-002, 1.2728585E-003, 3.2719281E+002
 1.4200217E+002, 8.5277270E-002, 1.1928179E-001, 5.7269913E-002, 2.5443659E-003, 6.1491950E-002, 1.2654632E-003, 3.2458430E+002
 1.4300352E+002, 8.5237272E-002, 1.1906796E-001, 5.7221045E-002, 2.5921592E-003, 6.2378185E-002, 1.2745197E-003, 3.2202709E+002
 1.4401002E+002, 8.5188356E-002, 1.1903556E-001, 5.7253148E-002, 2.6410198E-003, 6.2451914E-002, 1.2848969E-003, 3.2678657E+002
 1.4500913E+002, 8.5122631E-002, 1.1905668E-001, 5.7319550E-002, 2.7012440E-003, 6.2282030E-002, 1.2980541E-003, 3.3086711E+002
 1.4600307E+002, 8.5067776E-002, 1.1909935E-001, 5.7312891E-002, 2.6764533E-003, 6.2466455E-002, 1.2929478E-003, 3.2351656E+002
 1.4700292E+002, 8.4838503E-002, 1.1928168E-001, 5.7420670E-002, 2.7101825E-003, 6.2408377E-002, 1.3013435E-003, 3.3367704E+002
 1.4800850E+002, 8.5018377E-002, 1.1884593E-001, 5.7272167E-002, 2.7507847E-003, 6.3420998E-002, 1.3075082E-003, 3.2842036E+002
 1.4900880E+002, 8.4906153E-002, 1.1907910E-001, 5.7406968E-002, 2.7862433E-003, 6.2610707E-002, 1.3165816E-003, 3.2729378E+002
 1.5000446E+002, 8.4758288E-002, 1.1921309E-001, 5.7426034E-002, 2.7488004E-003, 6.2846147E-002, 1.3092878E-003, 3.2692701E+002
 1.5101169E+002, 8.5033885E-002, 1.1861939E-001, 5.7250567E-002, 2.8309198E-003, 6.3935977E-002, 1.3234847E-003, 3.2842865E+002
 1.5201580E+002, 8.4962109E-002, 1.1854283E-001, 5.7294247E-002, 2.9122568E-003, 6.4122404E-002, 1.3406232E-003, 3.3194419E+002
 1.5301101E+002, 8.4832146E-002, 1.1867741E-001, 5.7350216E-002, 2.9119596E-003, 6.4058633E-002, 1.3413691E-003, 3.2582643E+002
 1.5400405E+002, 8.4859656E-002, 1.1858790E-001, 5.7271891E-002, 2.8714685E-003, 6.4595490E-002, 1.3320710E-003, 3.2882243E+002
