s,,,,,,,
Time,"O2 EXHAUST","CO2 EXHAUST","H2O EXHAUST","CO EXHAUST","FUEL EXHAUST","SOOT EXHAUST","TEMP EXHAUST"
 0.0000000E+000, 2.3099739E-001, 5.9146498E-004, 5.9412091E-003, 0.0000000E+000, 0.0000000E+000, 0.0000000E+000, 2.0000000E+001
 1.0001730E+000, 2.3099739E-001, 5.9146498E-004, 5.9412091E-003, 2.6428002E-030, 3.4406806E-029, 4.3604854E-030, 2.0402337E+001
 2.0060070E+000, 2.2489193E-001, 6.2396309E-003, 7.5417370E-003, 1.6014920E-005, 2.9608926E-004, 3.7486858E-004, 7.9092906E+001
 3.0059858E+000, 2.2104175E-001, 9.7963360E-003, 8.5704551E-003, 6.3614255E-005, 3.1063122E-004, 6.1903821E-004, 1.0962491E+002
 4.0044740E+000, 2.1721508E-001, 1.3334833E-002, 9.5786274E-003, 8.3488872E-005, 4.5203828E-004, 8.5601606E-004, 1.4479880E+002
 5.0044395E+000, 2.1402565E-001, 1.6298193E-002, 1.0423292E-002, 1.0009327E-004, 5.0475807E-004, 1.0544650E-003, 1.7143840E+002
 6.0059998E+000, 2.0997131E-001, 2.0062178E-002, 1.1499239E-002, 1.2682108E-004, 5.5617951E-004, 1.3077492E-003, 2.0176843E+002
 7.0015158E+000, 2.0599458E-001, 2.3772608E-002, 1.2552578E-002, 1.3923617E-004, 5.9354154E-004, 1.5544141E-003, 2.3065305E+002
 8.0052419E+000, 2.0208723E-001, 2.7410973E-002, 1.3586180E-002, 1.5304864E-004, 6.5551700E-004, 1.7966439E-003, 2.5629866E+002
 9.0021046E+000, 1.9785541E-001, 3.1365981E-002, 1.4711509E-002, 1.7053849E-004, 6.4271575E-004, 2.0604871E-003, 2.8068912E+002
 1.0001203E+001, 1.9332549E-001, 3.5610539E-002, 1.5915249E-002, 1.8168293E-004, 6.1819899E-004, 2.3419959E-003, 3.0650207E+002
 1.1005821E+001, 1.8828488E-001, 4.0336917E-002, 1.7255947E-002, 1.9449779E-004, 5.7355429E-004, 2.6555472E-003, 3.2539085E+002
 1.2000061E+001, 1.8339619E-001, 4.4932352E-002, 1.8556018E-002, 2.0018498E-004, 5.1251299E-004, 2.9589454E-003, 3.4610177E+002
 1.3004654E+001, 1.7807429E-001, 4.9942501E-002, 1.9970858E-002, 2.0146163E-004, 4.3723304E-004, 3.2886578E-003, 3.6479650E+002
 1.4005843E+001, 1.7447976E-001, 5.3332541E-002, 2.0926458E-002, 1.9894730E-004, 3.7604152E-004, 3.5110213E-003, 3.7310860E+002
 1.5007086E+001, 1.6981945E-001, 5.7723665E-002, 2.2165121E-002, 1.9744211E-004, 3.0628963E-004, 3.7994284E-003, 3.8527118E+002
 1.6006950E+001, 1.6604492E-001, 6.1276845E-002, 2.3167692E-002, 1.9687904E-004, 2.6164670E-004, 4.0329419E-003, 3.9160236E+002
 1.7003420E+001, 1.6022580E-001, 6.6750295E-002, 2.4713148E-002, 1.9811083E-004, 2.0222938E-004, 4.3931093E-003, 4.0259545E+002
 1.8000035E+001, 1.5735440E-001, 6.9456095E-002, 2.5475712E-002, 1.9592511E-004, 1.6464066E-004, 4.5705531E-003, 4.0712368E+002
 1.9006219E+001, 1.5302387E-001, 7.3527472E-002, 2.6625257E-002, 1.9688236E-004, 1.2897997E-004, 4.8384696E-003, 4.1078362E+002
 2.0010089E+001, 1.4966836E-001, 7.6684022E-002, 2.7516058E-002, 1.9674131E-004, 9.7485887E-005, 5.0459948E-003, 4.1683624E+002
 2.1005514E+001, 1.4755774E-001, 7.8665646E-002, 2.8076290E-002, 1.9862878E-004, 8.5047535E-005, 5.1767032E-003, 4.1710146E+002
 2.2005958E+001, 1.4504296E-001, 8.1028674E-002, 2.8743708E-002, 1.9963929E-004, 6.7758714E-005, 5.3323006E-003, 4.2020362E+002
 2.3006723E+001, 1.4123476E-001, 8.4600151E-002, 2.9754376E-002, 2.0495344E-004, 5.3687325E-005, 5.5682901E-003, 4.2433701E+002
 2.4005817E+001, 1.4007789E-001, 8.5685949E-002, 3.0061393E-002, 2.0608968E-004, 4.8049998E-005, 5.6399317E-003, 4.2141364E+002
 2.5004134E+001, 1.3852275E-001, 8.7144527E-002, 3.0474178E-002, 2.0831106E-004, 4.1540248E-005, 5.7363201E-003, 4.2380558E+002
 2.6008709E+001, 1.3565346E-001, 8.9834540E-002, 3.1235431E-002, 2.1240006E-004, 3.4723940E-005, 5.9140847E-003, 4.2393608E+002
 2.7004375E+001, 1.3341772E-001, 9.1929379E-002, 3.1828694E-002, 2.1642579E-004, 3.0553936E-005, 6.0527005E-003, 4.2560719E+002
 2.8001933E+001, 1.3157675E-001, 9.3654446E-002, 3.2317145E-002, 2.1957460E-004, 2.7494451E-005, 6.1668124E-003, 4.2569423E+002
 2.9002510E+001, 1.3098862E-001, 9.4206405E-002, 3.2473210E-002, 2.2014384E-004, 2.4859429E-005, 6.2032292E-003, 4.2268014E+002
 3.0003849E+001, 1.2900926E-001, 9.6060422E-002, 3.2998378E-002, 2.2392676E-004, 2.2801059E-005, 6.3259574E-003, 4.2484239E+002
 3.1005928E+001, 1.2755422E-001, 9.7423706E-002, 3.3384425E-002, 2.2648217E-004, 2.0694801E-005, 6.4161522E-003, 4.2306588E+002
 3.2009224E+001, 1.2554725E-001, 9.9303514E-002, 3.3916839E-002, 2.3021432E-004, 1.9468512E-005, 6.5405653E-003, 4.2537576E+002
 3.3002113E+001, 1.2482988E-001, 9.9975433E-002, 3.4107114E-002, 2.3149387E-004, 1.9317969E-005, 6.5850238E-003, 4.2391553E+002
 3.4005129E+001, 1.2247102E-001, 1.0218465E-001, 3.4732952E-002, 2.3611271E-004, 1.7528824E-005, 6.7312891E-003, 4.2498125E+002
 3.5001884E+001, 1.2151514E-001, 1.0307936E-001, 3.4986552E-002, 2.3826540E-004, 1.7809420E-005, 6.7905858E-003, 4.2270183E+002
 3.6003874E+001, 1.1964609E-001, 1.0482983E-001, 3.5482393E-002, 2.4185689E-004, 1.6808342E-005, 6.9064637E-003, 4.2352635E+002
 3.7003123E+001, 1.1748806E-001, 1.0685129E-001, 3.6054831E-002, 2.4569221E-004, 1.5672801E-005, 7.0402134E-003, 4.2830952E+002
 3.8002402E+001, 1.1608492E-001, 1.0816427E-001, 3.6427135E-002, 2.4912595E-004, 1.6277510E-005, 7.1272912E-003, 4.2565482E+002
 3.9003082E+001, 1.1473481E-001, 1.0942738E-001, 3.6785401E-002, 2.5263111E-004, 1.7015840E-005, 7.2111045E-003, 4.2680066E+002
 4.0007501E+001, 1.1395790E-001, 1.1015532E-001, 3.6991478E-002, 2.5389525E-004, 1.6299709E-005, 7.2592429E-003, 4.2633262E+002
 4.1008892E+001, 1.1292951E-001, 1.1111802E-001, 3.7264261E-002, 2.5604254E-004, 1.6893332E-005, 7.3230096E-003, 4.2516874E+002
 4.2008325E+001, 1.1060398E-001, 1.1329618E-001, 3.7881152E-002, 2.6032492E-004, 1.5811005E-005, 7.4671599E-003, 4.2775993E+002
 4.3002713E+001, 1.0897788E-001, 1.1481837E-001, 3.8312601E-002, 2.6396842E-004, 1.5689267E-005, 7.5680385E-003, 4.2822241E+002
 4.4002466E+001, 1.0904219E-001, 1.1475786E-001, 3.8295606E-002, 2.6411619E-004, 1.5577382E-005, 7.5640918E-003, 4.2572094E+002
 4.5007658E+001, 1.0737830E-001, 1.1631053E-001, 3.8737198E-002, 2.7074885E-004, 2.2736096E-005, 7.6676225E-003, 4.2695136E+002
 4.6010072E+001, 1.0632654E-001, 1.1729577E-001, 3.9016188E-002, 2.7259695E-004, 2.2133017E-005, 7.7328061E-003, 4.2752371E+002
 4.7005910E+001, 1.0523413E-001, 1.1831924E-001, 3.9305948E-002, 2.7441095E-004, 2.1374751E-005, 7.8004962E-003, 4.2723744E+002
 4.8010313E+001, 1.0381775E-001, 1.1964400E-001, 3.9681823E-002, 2.7831834E-004, 2.2486076E-005, 7.8884508E-003, 4.2900224E+002
 4.9005385E+001, 1.0212557E-001, 1.2122813E-001, 4.0130695E-002, 2.8186965E-004, 2.3227918E-005, 7.9933822E-003, 4.2857716E+002
 5.0005137E+001, 1.0158968E-001, 1.2172819E-001, 4.0272953E-002, 2.8407009E-004, 2.5196496E-005, 8.0267399E-003, 4.2917335E+002
 5.1000803E+001, 1.0025723E-001, 1.2295814E-001, 4.0627235E-002, 2.9796502E-004, 4.7991806E-005, 8.1106220E-003, 4.3005513E+002
 5.2000243E+001, 9.9459227E-002, 1.2371531E-001, 4.0838577E-002, 2.9344538E-004, 3.4074542E-005, 8.1594310E-003, 4.2863377E+002
 5.3007135E+001, 9.9141006E-002, 1.2399052E-001, 4.0924290E-002, 3.0896430E-004, 6.1155641E-005, 8.1808860E-003, 4.2798130E+002
 5.4001820E+001, 9.7203898E-002, 1.2577213E-001, 4.1439500E-002, 3.3301959E-004, 1.0396932E-004, 8.3032420E-003, 4.3178340E+002
 5.5000244E+001, 9.6708599E-002, 1.2626313E-001, 4.1569621E-002, 3.1672185E-004, 6.8930216E-005, 8.3319991E-003, 4.3017182E+002
 5.6003236E+001, 9.5455302E-002, 1.2742386E-001, 4.1902554E-002, 3.2712358E-004, 8.6568264E-005, 8.4105741E-003, 4.3084187E+002
 5.7009799E+001, 9.4694260E-002, 1.2811456E-001, 4.2105153E-002, 3.4201552E-004, 1.1758012E-004, 8.4592142E-003, 4.3301791E+002
 5.8001787E+001, 9.3547331E-002, 1.2911090E-001, 4.2412439E-002, 3.9255663E-004, 2.2278621E-004, 8.5356688E-003, 4.3024580E+002
 5.9003581E+001, 9.2929221E-002, 1.2968632E-001, 4.2578077E-002, 3.9862783E-004, 2.1296642E-004, 8.5748185E-003, 4.3066741E+002
 6.0000139E+001, 9.1930925E-002, 1.3057178E-001, 4.2844147E-002, 4.3006503E-004, 2.8614944E-004, 8.6398468E-003, 4.3030429E+002
 6.1006198E+001, 9.1501773E-002, 1.3096526E-001, 4.2957907E-002, 4.3538697E-004, 3.0130241E-004, 8.6668721E-003, 4.2808968E+002
 6.2010140E+001, 9.1006820E-002, 1.3138475E-001, 4.3090824E-002, 4.6353066E-004, 3.6184432E-004, 8.7005481E-003, 4.2912789E+002
 6.3004292E+001, 9.0491493E-002, 1.3182225E-001, 4.3230429E-002, 4.9460169E-004, 4.1227201E-004, 8.7360409E-003, 4.2839446E+002
 6.4007899E+001, 9.0357503E-002, 1.3192369E-001, 4.3266599E-002, 5.0924288E-004, 4.4777353E-004, 8.7458809E-003, 4.2749112E+002
 6.5003956E+001, 8.9359796E-002, 1.3277727E-001, 4.3533497E-002, 5.5972392E-004, 5.6569804E-004, 8.8129360E-003, 4.2770509E+002
 6.6008109E+001, 8.9382011E-002, 1.3277944E-001, 4.3528696E-002, 5.4895733E-004, 5.1598960E-004, 8.8107466E-003, 4.2605658E+002
 6.7002720E+001, 8.9304070E-002, 1.3280556E-001, 4.3549964E-002, 5.7602996E-004, 5.9110282E-004, 8.8183257E-003, 4.2707588E+002
 6.8002342E+001, 8.8723937E-002, 1.3330678E-001, 4.3706829E-002, 6.0567889E-004, 6.3566930E-004, 8.8577001E-003, 4.2590543E+002
 6.9007944E+001, 8.7807118E-002, 1.3411102E-001, 4.3951771E-002, 6.4053899E-004, 7.1280507E-004, 8.9181289E-003, 4.2699126E+002
 7.0000948E+001, 8.7756148E-002, 1.3411142E-001, 4.3968552E-002, 6.7258399E-004, 7.6386910E-004, 8.9250916E-003, 4.2504292E+002
 7.1009027E+001, 8.7272396E-002, 1.3457375E-001, 4.4094277E-002, 6.6373227E-004, 7.7198461E-004, 8.9535767E-003, 4.2420769E+002
 7.2004810E+001, 8.6958063E-002, 1.3475637E-001, 4.4186008E-002, 7.4092583E-004, 8.8640829E-004, 8.9822936E-003, 4.2373754E+002
 7.3000486E+001, 8.6719926E-002, 1.3500876E-001, 4.4244919E-002, 7.1755667E-004, 8.7550866E-004, 8.9938321E-003, 4.2379507E+002
 7.4008312E+001, 8.6149216E-002, 1.3543304E-001, 4.4402300E-002, 7.9016580E-004, 1.0091881E-003, 9.0374473E-003, 4.2185204E+002
 7.5009221E+001, 8.6170305E-002, 1.3536922E-001, 4.4396681E-002, 8.1439653E-004, 1.0852624E-003, 9.0384977E-003, 4.2279715E+002
 7.6000308E+001, 8.6063150E-002, 1.3543174E-001, 4.4426674E-002, 8.3828127E-004, 1.1357320E-003, 9.0477791E-003, 4.2070046E+002
 7.7000196E+001, 8.5760035E-002, 1.3560800E-001, 4.4513398E-002, 9.0953908E-004, 1.2619752E-003, 9.0747933E-003, 4.2023248E+002
 7.8010326E+001, 8.5474716E-002, 1.3591604E-001, 4.4585786E-002, 8.8165456E-004, 1.2223714E-003, 9.0890125E-003, 4.2091579E+002
 7.9009699E+001, 8.4955350E-002, 1.3635614E-001, 4.4723619E-002, 9.0829584E-004, 1.3013227E-003, 9.1237197E-003, 4.2200687E+002
 8.0010384E+001, 8.4523901E-002, 1.3661159E-001, 4.4841273E-002, 9.9685344E-004, 1.5271174E-003, 9.1596888E-003, 4.2088802E+002
 8.1008744E+001, 8.4432791E-002, 1.3670235E-001, 4.4867900E-002, 9.9842643E-004, 1.4948313E-003, 9.1659953E-003, 4.1980244E+002
 8.2010475E+001, 8.4183228E-002, 1.3678396E-001, 4.4935859E-002, 1.0859845E-003, 1.7401769E-003, 9.1903181E-003, 4.1846373E+002
 8.3002309E+001, 8.3722285E-002, 1.3717124E-001, 4.5058597E-002, 1.1121937E-003, 1.8121471E-003, 9.2214579E-003, 4.1947491E+002
 8.4000676E+001, 8.4040967E-002, 1.3693552E-001, 4.4972886E-002, 1.0748676E-003, 1.7152092E-003, 9.1978775E-003, 4.1867280E+002
 8.5006505E+001, 8.3554487E-002, 1.3733427E-001, 4.5103454E-002, 1.1098829E-003, 1.7987549E-003, 9.2316772E-003, 4.1887033E+002
 8.6006072E+001, 8.3442031E-002, 1.3735979E-001, 4.5133169E-002, 1.1539280E-003, 1.9371525E-003, 9.2428915E-003, 4.1882611E+002
 8.7009617E+001, 8.3593190E-002, 1.3719323E-001, 4.5099569E-002, 1.1790496E-003, 1.9196255E-003, 9.2373751E-003, 4.1723472E+002
 8.8010150E+001, 8.3585998E-002, 1.3720288E-001, 4.5099122E-002, 1.1732414E-003, 1.9365603E-003, 9.2367537E-003, 4.1603172E+002
 8.9005749E+001, 8.3078234E-002, 1.3757693E-001, 4.5235796E-002, 1.2337520E-003, 2.0926344E-003, 9.2744489E-003, 4.1665588E+002
 9.0009459E+001, 8.2676356E-002, 1.3779225E-001, 4.5349393E-002, 1.3358881E-003, 2.3045212E-003, 9.3107169E-003, 4.1605132E+002
 9.1003311E+001, 8.2820707E-002, 1.3771662E-001, 4.5307860E-002, 1.2969518E-003, 2.2322752E-003, 9.2973156E-003, 4.1657335E+002
 9.2001284E+001, 8.2465431E-002, 1.3800419E-001, 4.5402860E-002, 1.3238993E-003, 2.3028392E-003, 9.3220585E-003, 4.1616429E+002
 9.3000940E+001, 8.2888083E-002, 1.3765011E-001, 4.5289344E-002, 1.2975552E-003, 2.2441516E-003, 9.2930736E-003, 4.1751021E+002
 9.4001634E+001, 8.2561978E-002, 1.3790615E-001, 4.5376784E-002, 1.3270860E-003, 2.3203035E-003, 9.3163028E-003, 4.1518073E+002
 9.5000732E+001, 8.2306649E-002, 1.3789093E-001, 4.5446609E-002, 1.4716722E-003, 2.7384724E-003, 9.3466058E-003, 4.1594044E+002
 9.6006232E+001, 8.2115810E-002, 1.3815224E-001, 4.5497926E-002, 1.4277024E-003, 2.5898103E-003, 9.3542673E-003, 4.1496354E+002
 9.7006757E+001, 8.2409767E-002, 1.3786505E-001, 4.5424139E-002, 1.4411964E-003, 2.5712977E-003, 9.3383026E-003, 4.1411913E+002
 9.8005304E+001, 8.1975303E-002, 1.3827263E-001, 4.5534028E-002, 1.4320560E-003, 2.6199615E-003, 9.3631267E-003, 4.1478042E+002
 9.9007709E+001, 8.2057066E-002, 1.3814211E-001, 4.5515466E-002, 1.4672650E-003, 2.6836836E-003, 9.3621656E-003, 4.1276112E+002
 1.0001078E+002, 8.1646473E-002, 1.3847709E-001, 4.5625763E-002, 1.4978511E-003, 2.7559746E-003, 9.3908140E-003, 4.1533773E+002
 1.0101010E+002, 8.1316822E-002, 1.3869958E-001, 4.5710663E-002, 1.5415177E-003, 2.9280543E-003, 9.4148993E-003, 4.1303053E+002
 1.0200355E+002, 8.1238196E-002, 1.3877961E-001, 4.5734608E-002, 1.5436595E-003, 2.8882396E-003, 9.4206233E-003, 4.1389037E+002
 1.0300915E+002, 8.1203842E-002, 1.3875650E-001, 4.5747789E-002, 1.5814997E-003, 2.9454471E-003, 9.4272948E-003, 4.1392470E+002
 1.0400399E+002, 8.1124508E-002, 1.3878460E-001, 4.5766959E-002, 1.6037996E-003, 3.0424300E-003, 9.4339712E-003, 4.1322310E+002
 1.0500087E+002, 8.0929790E-002, 1.3894202E-001, 4.5820098E-002, 1.6205852E-003, 3.0714326E-003, 9.4479560E-003, 4.1317079E+002
 1.0600106E+002, 8.1021352E-002, 1.3878231E-001, 4.5792896E-002, 1.6560172E-003, 3.2259022E-003, 9.4451279E-003, 4.1392030E+002
 1.0700251E+002, 8.0793961E-002, 1.3901998E-001, 4.5851656E-002, 1.6400233E-003, 3.1978575E-003, 9.4572935E-003, 4.1234213E+002
 1.0800496E+002, 8.0985337E-002, 1.3880595E-001, 4.5801461E-002, 1.6598873E-003, 3.2524798E-003, 9.4475207E-003, 4.1278667E+002
 1.0900718E+002, 8.0767515E-002, 1.3880504E-001, 4.5860729E-002, 1.7760360E-003, 3.5912358E-003, 9.4726077E-003, 4.1135079E+002
 1.1000601E+002, 8.0751313E-002, 1.3889709E-001, 4.5871482E-002, 1.7451794E-003, 3.3987287E-003, 9.4719759E-003, 4.1128535E+002
 1.1100317E+002, 8.0405321E-002, 1.3914995E-001, 4.5963392E-002, 1.7853431E-003, 3.5199225E-003, 9.4972983E-003, 4.1201271E+002
 1.1200047E+002, 8.0331709E-002, 1.3919563E-001, 4.5982609E-002, 1.7977641E-003, 3.5628129E-003, 9.5029917E-003, 4.1172129E+002
 1.1300631E+002, 8.0193802E-002, 1.3925107E-001, 4.6017773E-002, 1.8361695E-003, 3.7028754E-003, 9.5149532E-003, 4.1189628E+002
 1.1400691E+002, 8.0351284E-002, 1.3919765E-001, 4.5971716E-002, 1.7763086E-003, 3.5809547E-003, 9.4984820E-003, 4.1148085E+002
 1.1500145E+002, 8.0126712E-002, 1.3939747E-001, 4.6032151E-002, 1.7840701E-003, 3.5909022E-003, 9.5133011E-003, 4.1326589E+002
 1.1600884E+002, 8.0101779E-002, 1.3934856E-001, 4.6042377E-002, 1.8304527E-003, 3.6816029E-003, 9.5201251E-003, 4.1064688E+002
 1.1700872E+002, 8.0043104E-002, 1.3941904E-001, 4.6055341E-002, 1.8173434E-003, 3.6791007E-003, 9.5219229E-003, 4.1172553E+002
 1.1800273E+002, 8.0166514E-002, 1.3930509E-001, 4.6019513E-002, 1.8106843E-003, 3.7051487E-003, 9.5129905E-003, 4.1341308E+002
 1.1900330E+002, 7.9949693E-002, 1.3941460E-001, 4.6075674E-002, 1.8603005E-003, 3.8787278E-003, 9.5309345E-003, 4.1172667E+002
 1.2000348E+002, 7.9747779E-002, 1.3952867E-001, 4.6135636E-002, 1.9135309E-003, 3.9481305E-003, 9.5499564E-003, 4.1163725E+002
 1.2100852E+002, 7.9692414E-002, 1.3962517E-001, 4.6152127E-002, 1.8922183E-003, 3.8544479E-003, 9.5516863E-003, 4.1154766E+002
 1.2200943E+002, 7.9683210E-002, 1.3956254E-001, 4.6150914E-002, 1.9250234E-003, 4.0111469E-003, 9.5546730E-003, 4.1087796E+002
 1.2300811E+002, 7.9460373E-002, 1.3983640E-001, 4.6207266E-002, 1.8845544E-003, 3.9246556E-003, 9.5639195E-003, 4.1153511E+002
 1.2400060E+002, 7.9545437E-002, 1.3963509E-001, 4.6191401E-002, 1.9634940E-003, 4.0715676E-003, 9.5677708E-003, 4.0935119E+002
 1.2500202E+002, 7.9603011E-002, 1.3956679E-001, 4.6171784E-002, 1.9635559E-003, 4.1368523E-003, 9.5632955E-003, 4.1084798E+002
 1.2600839E+002, 7.9303116E-002, 1.3994744E-001, 4.6249022E-002, 1.9049170E-003, 3.9865947E-003, 9.5756301E-003, 4.1221457E+002
 1.2700158E+002, 7.9169335E-002, 1.3988994E-001, 4.6289831E-002, 2.0155603E-003, 4.2515576E-003, 9.5958015E-003, 4.1013104E+002
 1.2800283E+002, 7.9256374E-002, 1.3985965E-001, 4.6268925E-002, 1.9910271E-003, 4.1430720E-003, 9.5884968E-003, 4.1096581E+002
 1.2900394E+002, 7.9218544E-002, 1.3992211E-001, 4.6275149E-002, 1.9693693E-003, 4.1320563E-003, 9.5879170E-003, 4.1197203E+002
 1.3000384E+002, 7.8853016E-002, 1.4012804E-001, 4.6380042E-002, 2.0595084E-003, 4.2927803E-003, 9.6209695E-003, 4.0987508E+002
 1.3100907E+002, 7.9112252E-002, 1.3990915E-001, 4.6298747E-002, 2.0234394E-003, 4.3685361E-003, 9.5987743E-003, 4.1178733E+002
 1.3200106E+002, 7.9065783E-002, 1.3991487E-001, 4.6313606E-002, 2.0489111E-003, 4.4099682E-003, 9.6046642E-003, 4.1169521E+002
 1.3300092E+002, 7.9028227E-002, 1.3988172E-001, 4.6333219E-002, 2.1039347E-003, 4.4375689E-003, 9.6143924E-003, 4.1055239E+002
 1.3400721E+002, 7.9138809E-002, 1.3977549E-001, 4.6296531E-002, 2.0920521E-003, 4.5107593E-003, 9.6048388E-003, 4.1056955E+002
 1.3500899E+002, 7.9093994E-002, 1.3988683E-001, 4.6307044E-002, 2.0513999E-003, 4.4041743E-003, 9.6033586E-003, 4.1086360E+002
 1.3600452E+002, 7.9114160E-002, 1.3973199E-001, 4.6304501E-002, 2.1314027E-003, 4.6120104E-003, 9.6104975E-003, 4.1068351E+002
 1.3700914E+002, 7.9078424E-002, 1.3974692E-001, 4.6311600E-002, 2.1374459E-003, 4.6660933E-003, 9.6127891E-003, 4.0953451E+002
 1.3800880E+002, 7.8978848E-002, 1.3987360E-001, 4.6345218E-002, 2.1320670E-003, 4.5413862E-003, 9.6199498E-003, 4.1111934E+002
 1.3900616E+002, 7.8750879E-002, 1.4007639E-001, 4.6398083E-002, 2.1248117E-003, 4.6306919E-003, 9.6317174E-003, 4.1046216E+002
 1.4000809E+002, 7.8646047E-002, 1.4012521E-001, 4.6432194E-002, 2.1635110E-003, 4.6568390E-003, 9.6433033E-003, 4.1014867E+002
 1.4100100E+002, 7.8769745E-002, 1.3989416E-001, 4.6383611E-002, 2.1986658E-003, 5.0021996E-003, 9.6357311E-003, 4.1012495E+002
 1.4201035E+002, 7.8631986E-002, 1.4015347E-001, 4.6425938E-002, 2.1373603E-003, 4.7239686E-003, 9.6395052E-003, 4.1068759E+002
 1.4300878E+002, 7.8660243E-002, 1.4012886E-001, 4.6424402E-002, 2.1469334E-003, 4.6652225E-003, 9.6399565E-003, 4.0915112E+002
 1.4400783E+002, 7.8640629E-002, 1.4007088E-001, 4.6426977E-002, 2.1844092E-003, 4.8211226E-003, 9.6442595E-003, 4.0991882E+002
 1.4501064E+002, 7.8609214E-002, 1.4014072E-001, 4.6430074E-002, 2.1528063E-003, 4.8003768E-003, 9.6420120E-003, 4.1155169E+002
 1.4601109E+002, 7.8585047E-002, 1.4007188E-001, 4.6439752E-002, 2.2091714E-003, 4.9273446E-003, 9.6496875E-003, 4.1145649E+002
 1.4700918E+002, 7.8612520E-002, 1.4015572E-001, 4.6432439E-002, 2.1486048E-003, 4.7389938E-003, 9.6420872E-003, 4.1014907E+002
 1.4800184E+002, 7.8294542E-002, 1.4035506E-001, 4.6517066E-002, 2.2040354E-003, 4.9057771E-003, 9.6671960E-003, 4.0975628E+002
 1.4900857E+002, 7.8268439E-002, 1.4033761E-001, 4.6523009E-002, 2.2254520E-003, 4.9870239E-003, 9.6706862E-003, 4.1053318E+002
 1.5000986E+002, 7.8507311E-002, 1.4021258E-001, 4.6460151E-002, 2.1714488E-003, 4.8125200E-003, 9.6507722E-003, 4.1197368E+002
 1.5100002E+002, 7.8434626E-002, 1.4008832E-001, 4.6478550E-002, 2.2761490E-003, 5.1517471E-003, 9.6652712E-003, 4.0940417E+002
 1.5201021E+002, 7.8760116E-002, 1.3989749E-001, 4.6393717E-002, 2.2153193E-003, 4.9415738E-003, 9.6395516E-003, 4.0896223E+002
 1.5300342E+002, 7.8357415E-002, 1.4022337E-001, 4.6500377E-002, 2.2440780E-003, 5.0312026E-003, 9.6672065E-003, 4.1018220E+002
 1.5400859E+002, 7.8385757E-002, 1.4020567E-001, 4.6489953E-002, 2.2339515E-003, 5.0430877E-003, 9.6638517E-003, 4.0943022E+002
