s,,,,,,,
Time,"O2 EXHAUST","CO2 EXHAUST","H2O EXHAUST","CO EXHAUST","FUEL EXHAUST","SOOT EXHAUST","TEMP EXHAUST"
 0.0000000E+000, 2.3099739E-001, 5.9146498E-004, 5.9412092E-003, 0.0000000E+000, 0.0000000E+000, 0.0000000E+000, 2.0000000E+001
 1.0025796E+000, 2.3099739E-001, 5.9146498E-004, 5.9412092E-003, 5.1127165E-031, 5.2805246E-030, 1.6614540E-031, 2.0509514E+001
 2.0053579E+000, 2.2336254E-001, 6.8150056E-003, 9.4493586E-003, 3.5511465E-005, 2.5675047E-004, 4.9431115E-005, 9.5462334E+001
 3.0000588E+000, 2.1789051E-001, 1.1273718E-002, 1.1986468E-002, 7.8993669E-005, 3.1974468E-004, 8.8712442E-005, 1.4354674E+002
 4.0004680E+000, 2.1395396E-001, 1.4492904E-002, 1.3797923E-002, 9.4730822E-005, 4.1698752E-004, 1.1371682E-004, 1.8190090E+002
 5.0007460E+000, 2.0837197E-001, 1.9065225E-002, 1.6381205E-002, 1.2479593E-004, 4.5949042E-004, 1.5088472E-004, 2.2861317E+002
 6.0039818E+000, 2.0101662E-001, 2.5141336E-002, 1.9774793E-002, 1.3384336E-004, 4.6986950E-004, 1.9365029E-004, 2.8506626E+002
 7.0054892E+000, 1.9489658E-001, 3.0212144E-002, 2.2603114E-002, 1.3818630E-004, 4.2247913E-004, 2.2865227E-004, 3.2592407E+002
 8.0011033E+000, 1.8821175E-001, 3.5780166E-002, 2.5688746E-002, 1.2715388E-004, 3.3245397E-004, 2.6369836E-004, 3.6404466E+002
 9.0005514E+000, 1.8355667E-001, 3.9670360E-002, 2.7837153E-002, 1.1354493E-004, 2.4585573E-004, 2.8691863E-004, 3.8492446E+002
 1.0007473E+001, 1.7255359E-001, 4.8841888E-002, 3.2914401E-002, 9.1182467E-005, 9.3175496E-005, 3.4374742E-004, 4.3531074E+002
 1.1006709E+001, 1.6787196E-001, 5.2734459E-002, 3.5074543E-002, 8.5889572E-005, 4.8593247E-005, 3.6876682E-004, 4.4766923E+002
 1.2006718E+001, 1.5972521E-001, 5.9485971E-002, 3.8833691E-002, 8.6635332E-005, 1.4370480E-005, 4.1429035E-004, 4.6967416E+002
 1.3002286E+001, 1.5413324E-001, 6.4114477E-002, 4.1414088E-002, 8.9778902E-005, 1.9161277E-006, 4.4606348E-004, 4.7900927E+002
 1.4007473E+001, 1.4717435E-001, 6.9866437E-002, 4.4625598E-002, 9.7485761E-005, 4.0550528E-007, 4.8636358E-004, 4.9114458E+002
 1.5007780E+001, 1.4129108E-001, 7.4728846E-002, 4.7340715E-002, 1.0421726E-004, 9.1796457E-008, 5.2047763E-004, 4.9196902E+002
 1.6000164E+001, 1.3585587E-001, 7.9220753E-002, 4.9849069E-002, 1.1053263E-004, 7.0861246E-008, 5.5201303E-004, 4.9899034E+002
 1.7003147E+001, 1.3347514E-001, 8.1188333E-002, 5.0947766E-002, 1.1327397E-004, 7.3739930E-008, 5.6582106E-004, 4.9412731E+002
 1.8008314E+001, 1.2693148E-001, 8.6596303E-002, 5.3967671E-002, 1.2088201E-004, 5.8618472E-008, 6.0378869E-004, 5.0386298E+002
 1.9000458E+001, 1.2240396E-001, 9.0337884E-002, 5.6057174E-002, 1.2625436E-004, 1.1186647E-007, 6.3008042E-004, 5.0580406E+002
 2.0009520E+001, 1.1915075E-001, 9.3026683E-002, 5.7558470E-002, 1.2989935E-004, 7.1509480E-008, 6.4892811E-004, 5.0749741E+002
 2.1005238E+001, 1.1695880E-001, 9.4838194E-002, 5.8570063E-002, 1.3245808E-004, 6.7286250E-008, 6.6164835E-004, 5.0442650E+002
 2.2003979E+001, 1.1391579E-001, 9.7353054E-002, 5.9974422E-002, 1.3600986E-004, 8.3068422E-008, 6.7930735E-004, 5.0321591E+002
 2.3003369E+001, 1.1099274E-001, 9.9768877E-002, 6.1323386E-002, 1.3935061E-004, 4.7691888E-008, 6.9625566E-004, 5.0049502E+002
 2.4006343E+001, 1.0958717E-001, 1.0093048E-001, 6.1972066E-002, 1.4100147E-004, 5.8146404E-008, 7.0441447E-004, 4.9636727E+002
 2.5007274E+001, 1.0582392E-001, 1.0404061E-001, 6.3708802E-002, 1.4536536E-004, 6.1057165E-008, 7.2624723E-004, 5.0088748E+002
 2.6005764E+001, 1.0404727E-001, 1.0550892E-001, 6.4528725E-002, 1.4742639E-004, 5.9938483E-008, 7.3655477E-004, 4.9917497E+002
 2.7004167E+001, 1.0156259E-001, 1.0756242E-001, 6.5675395E-002, 1.5028235E-004, 4.4737006E-008, 7.5096470E-004, 5.0089286E+002
 2.8001592E+001, 9.9315584E-002, 1.0941926E-001, 6.6712438E-002, 1.5301127E-004, 1.3971368E-007, 7.6402602E-004, 4.9782207E+002
 2.9006667E+001, 9.7733058E-002, 1.1072717E-001, 6.7442773E-002, 1.5483295E-004, 7.6121593E-008, 7.7320450E-004, 4.9883224E+002
 3.0005055E+001, 9.6399756E-002, 1.1182916E-001, 6.8058062E-002, 1.5632096E-004, 7.0228496E-008, 7.8092784E-004, 4.9709207E+002
 3.1003375E+001, 9.2843203E-002, 1.1476066E-001, 6.9701871E-002, 1.6576920E-004, 2.2173318E-006, 8.0265053E-004, 4.9907268E+002
 3.2002722E+001, 9.0460673E-002, 1.1672229E-001, 7.0803623E-002, 1.7349787E-004, 4.9303202E-006, 8.1748785E-004, 4.9830540E+002
 3.3006757E+001, 8.7893722E-002, 1.1881713E-001, 7.1996733E-002, 1.9468375E-004, 1.1858749E-005, 8.3610559E-004, 5.0031161E+002
 3.4002868E+001, 8.6518083E-002, 1.1995733E-001, 7.2630399E-002, 1.9391287E-004, 1.1766065E-005, 8.4360136E-004, 4.9793744E+002
 3.5007690E+001, 8.5457070E-002, 1.2082664E-001, 7.3122445E-002, 2.0030519E-004, 1.3826642E-005, 8.5081285E-004, 4.8920987E+002
 3.6005624E+001, 8.2162642E-002, 1.2354782E-001, 7.4643277E-002, 2.0513387E-004, 1.4323406E-005, 8.7013189E-004, 4.9880875E+002
 3.7003861E+001, 8.0698834E-002, 1.2474622E-001, 7.5322046E-002, 2.1431071E-004, 1.9436691E-005, 8.8015156E-004, 4.9332493E+002
 3.8006438E+001, 7.8220947E-002, 1.2677539E-001, 7.6471689E-002, 2.3008292E-004, 2.3414574E-005, 8.9716734E-004, 4.9761780E+002
 3.9008744E+001, 7.7245079E-002, 1.2758256E-001, 7.6921654E-002, 2.3062173E-004, 2.4275158E-005, 9.0270623E-004, 4.9388196E+002
 4.0000700E+001, 7.5985212E-002, 1.2861202E-001, 7.7506869E-002, 2.4016318E-004, 2.7068258E-005, 9.1166897E-004, 4.9669832E+002
 4.1003978E+001, 7.3415401E-002, 1.3072474E-001, 7.8696529E-002, 2.5086154E-004, 2.9061237E-005, 9.2815822E-004, 4.9676719E+002
 4.2004947E+001, 7.1455044E-002, 1.3234240E-001, 7.9602008E-002, 2.5481672E-004, 2.9761272E-005, 9.3987541E-004, 4.9972904E+002
 4.3007673E+001, 6.9963505E-002, 1.3354743E-001, 8.0299330E-002, 2.7560887E-004, 3.5968829E-005, 9.5242998E-004, 4.9504788E+002
 4.4003640E+001, 6.9233402E-002, 1.3415453E-001, 8.0634741E-002, 2.7365195E-004, 3.6934966E-005, 9.5608954E-004, 4.9656258E+002
 4.5003988E+001, 6.6796185E-002, 1.3617085E-001, 8.1758565E-002, 2.7483085E-004, 3.7952370E-005, 9.6989012E-004, 4.9812467E+002
 4.6009267E+001, 6.5559711E-002, 1.3717192E-001, 8.2335868E-002, 2.9054807E-004, 4.3101006E-005, 9.7998617E-004, 4.9843999E+002
 4.7005613E+001, 6.5302749E-002, 1.3739804E-001, 8.2449889E-002, 2.8128629E-004, 4.0562260E-005, 9.7951975E-004, 4.9507207E+002
 4.8001768E+001, 6.2615324E-002, 1.3960269E-001, 8.3695964E-002, 2.9607639E-004, 4.1413499E-005, 9.9750396E-004, 4.9710560E+002
 4.9000278E+001, 6.2608430E-002, 1.3961201E-001, 8.3697645E-002, 2.9334403E-004, 4.2391045E-005, 9.9698072E-004, 4.9773015E+002
 5.0003747E+001, 5.9926396E-002, 1.4179576E-001, 8.4946400E-002, 3.1933378E-004, 4.7860245E-005, 1.0172258E-003, 4.9359755E+002
 5.1004380E+001, 5.7765863E-002, 1.4358345E-001, 8.5942636E-002, 3.2025577E-004, 4.8261472E-005, 1.0294350E-003, 4.9911488E+002
 5.2003536E+001, 5.8643801E-002, 1.4287149E-001, 8.5532670E-002, 3.0956911E-004, 4.7283972E-005, 1.0223601E-003, 4.9320096E+002
 5.3001761E+001, 5.5953729E-002, 1.4509007E-001, 8.6775682E-002, 3.1591104E-004, 4.8090072E-005, 1.0386266E-003, 4.9984831E+002
 5.4009716E+001, 5.4632413E-002, 1.4617984E-001, 8.7386448E-002, 3.1916985E-004, 4.7181501E-005, 1.0466475E-003, 4.9885922E+002
 5.5007598E+001, 5.4736069E-002, 1.4610358E-001, 8.7334970E-002, 3.1212084E-004, 4.8276105E-005, 1.0446238E-003, 4.9568111E+002
 5.6005089E+001, 5.1783464E-002, 1.4851323E-001, 8.8708251E-002, 3.3715216E-004, 5.1054074E-005, 1.0661812E-003, 4.9692767E+002
 5.7001017E+001, 5.1648885E-002, 1.4862315E-001, 8.8770569E-002, 3.3804600E-004, 5.2524840E-005, 1.0671114E-003, 4.9383315E+002
 5.8000247E+001, 4.9885139E-002, 1.5008110E-001, 8.9584920E-002, 3.4024355E-004, 4.9800708E-005, 1.0773786E-003, 4.9933396E+002
 5.9008608E+001, 5.0301816E-002, 1.4976093E-001, 8.9384149E-002, 3.2261513E-004, 4.7775487E-005, 1.0714478E-003, 4.9716329E+002
 6.0004398E+001, 4.7921416E-002, 1.5169027E-001, 9.0495519E-002, 3.5190460E-004, 5.3544591E-005, 1.0906909E-003, 4.9921515E+002
 6.1005638E+001, 4.7395490E-002, 1.5213770E-001, 9.0733845E-002, 3.4352711E-004, 5.2004487E-005, 1.0919010E-003, 4.9773681E+002
 6.2008571E+001, 4.6671012E-002, 1.5272416E-001, 9.1072487E-002, 3.5306576E-004, 5.3063259E-005, 1.0978866E-003, 4.9809929E+002
 6.3006548E+001, 4.5845085E-002, 1.5340438E-001, 9.1454373E-002, 3.5561994E-004, 5.3857548E-005, 1.1030047E-003, 4.9660500E+002
 6.4002550E+001, 4.4961810E-002, 1.5413968E-001, 9.1860338E-002, 3.5302476E-004, 5.2339000E-005, 1.1073887E-003, 4.9702514E+002
 6.5003600E+001, 4.4236176E-002, 1.5473400E-001, 9.2196607E-002, 3.5730324E-004, 5.5494977E-005, 1.1122994E-003, 4.9671291E+002
 6.6000493E+001, 4.2293230E-002, 1.5632845E-001, 9.3097801E-002, 3.6799347E-004, 5.3333431E-005, 1.1253045E-003, 4.9771272E+002
 6.7006295E+001, 4.1937018E-002, 1.5661796E-001, 9.3263423E-002, 3.7149921E-004, 5.6356783E-005, 1.1280015E-003, 4.9622327E+002
 6.8002191E+001, 4.0867607E-002, 1.5750461E-001, 9.3755957E-002, 3.7072697E-004, 5.6154668E-005, 1.1337933E-003, 4.9874979E+002
 6.9007329E+001, 4.0779360E-002, 1.5755126E-001, 9.3805625E-002, 3.8925523E-004, 5.9803365E-005, 1.1380793E-003, 4.9384849E+002
 7.0008217E+001, 4.0099784E-002, 1.5812837E-001, 9.4114390E-002, 3.7949933E-004, 5.5423175E-005, 1.1398653E-003, 4.9946617E+002
 7.1003506E+001, 3.9235321E-002, 1.5884563E-001, 9.4512229E-002, 3.7841067E-004, 5.5852224E-005, 1.1444511E-003, 4.9669385E+002
 7.2002780E+001, 3.8659978E-002, 1.5931889E-001, 9.4778415E-002, 3.8057186E-004, 5.6677154E-005, 1.1480943E-003, 4.9276071E+002
 7.3008146E+001, 3.7215938E-002, 1.6048700E-001, 9.5453588E-002, 4.0009474E-004, 5.9434181E-005, 1.1601288E-003, 4.9759455E+002
 7.4007606E+001, 3.6533759E-002, 1.6104613E-001, 9.5770009E-002, 4.0416278E-004, 6.0037195E-005, 1.1647577E-003, 4.9454048E+002
 7.5006928E+001, 3.6933354E-002, 1.6072830E-001, 9.5581094E-002, 3.9478325E-004, 5.9833866E-005, 1.1606112E-003, 4.9400750E+002
 7.6002947E+001, 3.5310084E-002, 1.6207564E-001, 9.6328576E-002, 3.9284170E-004, 5.7298174E-005, 1.1692478E-003, 5.0230713E+002
 7.7004813E+001, 3.5065767E-002, 1.6226139E-001, 9.6446692E-002, 4.0435610E-004, 6.0291055E-005, 1.1729646E-003, 4.9853954E+002
 7.8000199E+001, 3.4527293E-002, 1.6268368E-001, 9.6703074E-002, 4.2102633E-004, 6.2677740E-005, 1.1793762E-003, 4.9560731E+002
 7.9000771E+001, 3.4783956E-002, 1.6248457E-001, 9.6579828E-002, 4.1132772E-004, 6.2892370E-005, 1.1759589E-003, 4.9739169E+002
 8.0002217E+001, 3.3867983E-002, 1.6324570E-001, 9.7001517E-002, 4.0978112E-004, 6.0291991E-005, 1.1807414E-003, 4.9572887E+002
 8.1001758E+001, 3.2126224E-002, 1.6467449E-001, 9.7809739E-002, 4.1986927E-004, 5.7578776E-005, 1.1925044E-003, 5.0072664E+002
 8.2000535E+001, 3.2106298E-002, 1.6466466E-001, 9.7827296E-002, 4.3788762E-004, 6.4449193E-005, 1.1963016E-003, 4.9306282E+002
 8.3003808E+001, 3.1858442E-002, 1.6484719E-001, 9.7949386E-002, 4.5390254E-004, 6.6927821E-005, 1.2009617E-003, 4.9802612E+002
 8.4001136E+001, 3.1743733E-002, 1.6493513E-001, 9.8004608E-002, 4.5880444E-004, 6.8140218E-005, 1.2026036E-003, 4.9853248E+002
 8.5001822E+001, 3.1195498E-002, 1.6542130E-001, 9.8245969E-002, 4.3595077E-004, 6.5712061E-005, 1.2009703E-003, 4.9795714E+002
 8.6001774E+001, 3.0683076E-002, 1.6583190E-001, 9.8486748E-002, 4.4551521E-004, 6.7986836E-005, 1.2057798E-003, 4.9661072E+002
 8.7008270E+001, 2.8967759E-002, 1.6722148E-001, 9.9287896E-002, 4.6715614E-004, 7.1947240E-005, 1.2197563E-003, 5.0076724E+002
 8.8006138E+001, 2.9531358E-002, 1.6675978E-001, 9.9026802E-002, 4.6393730E-004, 6.9200309E-005, 1.2159640E-003, 4.9495413E+002
 8.9001433E+001, 2.9386432E-002, 1.6689707E-001, 9.9087845E-002, 4.5191678E-004, 6.6120128E-005, 1.2143092E-003, 4.9839455E+002
 9.0006739E+001, 2.9058861E-002, 1.6718527E-001, 9.9232766E-002, 4.3981051E-004, 6.5364333E-005, 1.2136500E-003, 4.9387553E+002
 9.1003616E+001, 2.8295023E-002, 1.6782732E-001, 9.9581961E-002, 4.3340290E-004, 6.1930892E-005, 1.2165902E-003, 4.9770065E+002
 9.2007370E+001, 2.8059961E-002, 1.6797543E-001, 9.9706298E-002, 4.6615177E-004, 6.7518497E-005, 1.2246068E-003, 4.9315986E+002
 9.3005167E+001, 2.6534676E-002, 1.6922169E-001, 1.0041566E-001, 4.7839051E-004, 6.6366866E-005, 1.2356045E-003, 4.9985154E+002
 9.4009149E+001, 2.6705556E-002, 1.6905472E-001, 1.0034524E-001, 4.9600324E-004, 7.1659306E-005, 1.2382589E-003, 4.9782217E+002
 9.5003412E+001, 2.7392931E-002, 1.6851526E-001, 1.0001756E-001, 4.7459437E-004, 7.1659008E-005, 1.2300441E-003, 4.9505466E+002
 9.6006713E+001, 2.6661733E-002, 1.6909802E-001, 1.0036275E-001, 4.9085598E-004, 7.2358980E-005, 1.2374463E-003, 4.9140234E+002
 9.7002202E+001, 2.5718518E-002, 1.6985317E-001, 1.0080633E-001, 5.0902894E-004, 7.5815582E-005, 1.2464165E-003, 4.9859865E+002
 9.8003538E+001, 2.5779907E-002, 1.6979901E-001, 1.0077954E-001, 5.1163959E-004, 7.4215219E-005, 1.2466124E-003, 4.9680707E+002
 9.9000522E+001, 2.5266286E-002, 1.7023133E-001, 1.0101348E-001, 5.0642611E-004, 7.5442085E-005, 1.2483993E-003, 4.9752131E+002
 1.0000635E+002, 2.4218747E-002, 1.7106772E-001, 1.0150707E-001, 5.2833137E-004, 7.8642423E-005, 1.2587157E-003, 4.9951952E+002
 1.0100836E+002, 2.4193648E-002, 1.7109693E-001, 1.0151592E-001, 5.2254292E-004, 7.6637711E-005, 1.2576708E-003, 4.9866080E+002
 1.0200231E+002, 2.4007340E-002, 1.7128851E-001, 1.0158973E-001, 4.9686319E-004, 6.7989805E-005, 1.2534522E-003, 5.0340625E+002
 1.0300929E+002, 2.4503565E-002, 1.7086785E-001, 1.0136377E-001, 5.0327361E-004, 7.2448176E-005, 1.2520002E-003, 4.9349034E+002
 1.0400079E+002, 2.3066732E-002, 1.7204233E-001, 1.0203135E-001, 5.1410217E-004, 7.3888012E-005, 1.2622133E-003, 5.0096708E+002
 1.0500386E+002, 2.2309555E-002, 1.7265435E-001, 1.0238579E-001, 5.2486620E-004, 7.4011255E-005, 1.2686333E-003, 4.9609677E+002
 1.0600352E+002, 2.2663852E-002, 1.7237931E-001, 1.0221625E-001, 5.1200570E-004, 7.1466680E-005, 1.2640280E-003, 5.0042186E+002
 1.0700602E+002, 2.3940365E-002, 1.7130734E-001, 1.0163168E-001, 5.2149756E-004, 8.0653881E-005, 1.2588605E-003, 4.9611737E+002
 1.0800025E+002, 2.1726051E-002, 1.7310635E-001, 1.0266512E-001, 5.4655076E-004, 7.9573428E-005, 1.2763196E-003, 4.9982696E+002
 1.0900153E+002, 2.2395849E-002, 1.7255462E-001, 1.0235471E-001, 5.4398355E-004, 8.3009940E-005, 1.2720621E-003, 4.9626857E+002
 1.1000582E+002, 2.3226124E-002, 1.7189936E-001, 1.0196128E-001, 5.2154228E-004, 7.7273738E-005, 1.2628479E-003, 4.9922919E+002
 1.1100551E+002, 2.1834511E-002, 1.7303387E-001, 1.0260972E-001, 5.3476401E-004, 7.4505350E-005, 1.2733055E-003, 5.0474488E+002
 1.1200719E+002, 2.1009673E-002, 1.7363540E-001, 1.0301791E-001, 5.9211518E-004, 8.4217102E-005, 1.2896436E-003, 5.0249498E+002
 1.1300786E+002, 2.1660952E-002, 1.7313397E-001, 1.0270354E-001, 5.6457958E-004, 8.6146221E-005, 1.2803706E-003, 4.9611880E+002
 1.1400432E+002, 2.1747970E-002, 1.7304323E-001, 1.0267025E-001, 5.7802785E-004, 8.6177574E-005, 1.2826444E-003, 4.9735454E+002
 1.1500592E+002, 2.1236596E-002, 1.7341518E-001, 1.0292402E-001, 6.1454910E-004, 9.0335745E-005, 1.2929738E-003, 4.9510899E+002
 1.1600214E+002, 2.1074478E-002, 1.7361504E-001, 1.0297607E-001, 5.6828427E-004, 8.3101995E-005, 1.2843973E-003, 4.9770512E+002
 1.1700363E+002, 2.0667114E-002, 1.7391949E-001, 1.0317480E-001, 5.9116402E-004, 8.8853383E-005, 1.2913485E-003, 5.0024785E+002
 1.1800876E+002, 2.0222367E-002, 1.7430599E-001, 1.0337429E-001, 5.7892645E-004, 8.2469296E-005, 1.2913215E-003, 4.9850160E+002
 1.1900307E+002, 2.0239292E-002, 1.7432691E-001, 1.0335505E-001, 5.5477049E-004, 7.5127758E-005, 1.2862830E-003, 4.9907909E+002
 1.2000827E+002, 1.8356299E-002, 1.7582203E-001, 1.0424571E-001, 6.0043809E-004, 7.8865580E-005, 1.3061200E-003, 5.0710497E+002
 1.2100119E+002, 1.9648209E-002, 1.7481342E-001, 1.0362802E-001, 5.5647943E-004, 7.8138089E-005, 1.2899182E-003, 5.0512220E+002
 1.2200690E+002, 1.9893526E-002, 1.7459797E-001, 1.0352006E-001, 5.6580890E-004, 7.4808852E-005, 1.2904709E-003, 4.9638144E+002
 1.2300452E+002, 1.9179962E-002, 1.7513061E-001, 1.0386907E-001, 6.0686542E-004, 8.1200887E-005, 1.3028525E-003, 4.9894110E+002
 1.2400794E+002, 1.9475484E-002, 1.7495265E-001, 1.0371001E-001, 5.5996318E-004, 7.2717214E-005, 1.2916006E-003, 4.9585164E+002
 1.2500076E+002, 1.9792693E-002, 1.7470749E-001, 1.0355737E-001, 5.4732090E-004, 7.2900632E-005, 1.2872429E-003, 4.9757566E+002
 1.2600428E+002, 1.7872831E-002, 1.7624588E-001, 1.0446096E-001, 5.8426453E-004, 7.3319732E-005, 1.3055003E-003, 5.0167040E+002
 1.2700168E+002, 1.8417310E-002, 1.7578122E-001, 1.0421335E-001, 5.9292251E-004, 8.2598787E-005, 1.3042345E-003, 4.9701376E+002
 1.2800892E+002, 1.9728706E-002, 1.7473125E-001, 1.0359652E-001, 5.6759547E-004, 7.8514573E-005, 1.2917495E-003, 4.9641950E+002
 1.2900631E+002, 1.8796883E-002, 1.7549525E-001, 1.0402947E-001, 5.7359519E-004, 7.4759545E-005, 1.2981692E-003, 4.9762800E+002
 1.3000363E+002, 1.8304426E-002, 1.7592925E-001, 1.0424735E-001, 5.5507427E-004, 7.2140619E-005, 1.2971143E-003, 5.0171998E+002
 1.3100642E+002, 1.8070952E-002, 1.7610429E-001, 1.0436168E-001, 5.6827148E-004, 7.1948801E-005, 1.3011199E-003, 5.0447517E+002
 1.3200177E+002, 1.7233671E-002, 1.7676246E-001, 1.0475956E-001, 5.9292807E-004, 7.6765295E-005, 1.3108287E-003, 4.9960213E+002
 1.3300637E+002, 1.7799048E-002, 1.7631187E-001, 1.0449199E-001, 5.7984364E-004, 7.9830247E-005, 1.3049958E-003, 5.0186648E+002
 1.3400900E+002, 1.7110868E-002, 1.7682274E-001, 1.0483000E-001, 6.2176578E-004, 8.3897831E-005, 1.3174167E-003, 5.0637873E+002
 1.3500281E+002, 1.7417072E-002, 1.7662468E-001, 1.0466921E-001, 5.8227681E-004, 8.0418894E-005, 1.3076193E-003, 5.0146347E+002
 1.3600201E+002, 1.9421052E-002, 1.7501472E-001, 1.0372833E-001, 5.4729797E-004, 7.5738936E-005, 1.2893023E-003, 4.9881380E+002
 1.3700495E+002, 1.6563149E-002, 1.7729031E-001, 1.0507769E-001, 6.1194294E-004, 8.1883218E-005, 1.3184522E-003, 4.9968805E+002
 1.3800421E+002, 1.7421176E-002, 1.7657853E-001, 1.0468253E-001, 6.1274538E-004, 8.2727895E-005, 1.3138418E-003, 5.0110682E+002
 1.3900928E+002, 1.7560483E-002, 1.7651288E-001, 1.0460152E-001, 5.7798646E-004, 7.5200596E-005, 1.3059482E-003, 5.0134500E+002
 1.4000074E+002, 1.7209752E-002, 1.7676244E-001, 1.0477768E-001, 6.0708930E-004, 7.7606426E-005, 1.3138648E-003, 4.9661791E+002
 1.4100616E+002, 1.7292471E-002, 1.7666261E-001, 1.0475126E-001, 6.2984855E-004, 7.6272823E-005, 1.3180736E-003, 4.9839656E+002
 1.4200950E+002, 1.6313188E-002, 1.7746845E-001, 1.0520493E-001, 6.3384179E-004, 7.3729342E-005, 1.3243443E-003, 4.9773135E+002
 1.4300042E+002, 1.6375166E-002, 1.7740765E-001, 1.0517906E-001, 6.4009173E-004, 7.7940360E-005, 1.3252758E-003, 5.0210629E+002
 1.4400241E+002, 1.7004057E-002, 1.7684318E-001, 1.0490399E-001, 6.7067266E-004, 8.4469164E-005, 1.3280398E-003, 5.0053900E+002
 1.4500107E+002, 1.7245442E-002, 1.7667139E-001, 1.0478186E-001, 6.4998016E-004, 8.7763342E-005, 1.3224490E-003, 4.9624620E+002
 1.4600942E+002, 1.7480948E-002, 1.7651326E-001, 1.0466091E-001, 6.2423591E-004, 8.1828389E-005, 1.3158668E-003, 4.9742945E+002
 1.4700274E+002, 1.6622046E-002, 1.7720681E-001, 1.0506351E-001, 6.3716124E-004, 8.0402493E-005, 1.3232981E-003, 4.9893773E+002
 1.4800012E+002, 1.6653798E-002, 1.7721887E-001, 1.0503517E-001, 6.0977436E-004, 7.8664175E-005, 1.3175073E-003, 4.9856973E+002
 1.4900663E+002, 1.6287345E-002, 1.7742505E-001, 1.0523860E-001, 6.7905930E-004, 8.4316412E-005, 1.3337475E-003, 4.9679551E+002
 1.5000859E+002, 1.7314270E-002, 1.7667136E-001, 1.0473027E-001, 6.0967842E-004, 8.2493029E-005, 1.3138080E-003, 4.9496289E+002
 1.5100339E+002, 1.6575864E-002, 1.7724947E-001, 1.0508293E-001, 6.3378721E-004, 8.1776269E-005, 1.3228613E-003, 4.9790070E+002
 1.5200507E+002, 1.6343536E-002, 1.7741799E-001, 1.0519806E-001, 6.5046364E-004, 8.5483754E-005, 1.3275691E-003, 4.9921987E+002
 1.5300759E+002, 1.6436555E-002, 1.7736994E-001, 1.0514625E-001, 6.3085082E-004, 7.6388545E-005, 1.3230412E-003, 5.0061449E+002
 1.5400358E+002, 1.6322372E-002, 1.7745693E-001, 1.0520155E-001, 6.3622200E-004, 7.6902092E-005, 1.3247773E-003, 4.9832978E+002
