s,,,,,,,
Time,"O2 EXHAUST","CO2 EXHAUST","H2O EXHAUST","CO EXHAUST","FUEL EXHAUST","SOOT EXHAUST","TEMP EXHAUST"
 0.0000000E+000, 2.3099739E-001, 5.9146498E-004, 5.9412092E-003, 0.0000000E+000, 0.0000000E+000, 0.0000000E+000, 2.0000000E+001
 1.0006492E+000, 2.3099739E-001, 5.9146498E-004, 5.9412092E-003, 8.8835907E-032, 1.0851047E-030, 2.7508365E-032, 2.0520894E+001
 2.0033077E+000, 2.2331315E-001, 6.8520037E-003, 9.4708935E-003, 3.6310456E-005, 2.7131850E-004, 4.9851072E-005, 9.5557908E+001
 3.0060287E+000, 2.1911404E-001, 1.0266788E-002, 1.1417549E-002, 7.2461903E-005, 3.3456565E-004, 8.0546449E-005, 1.3381001E+002
 4.0002068E+000, 2.1253731E-001, 1.5647218E-002, 1.4452038E-002, 1.0393205E-004, 4.4814108E-004, 1.2344562E-004, 1.9268852E+002
 5.0034967E+000, 2.0799386E-001, 1.9381185E-002, 1.6551071E-002, 1.2018851E-004, 4.7789106E-004, 1.5201990E-004, 2.3015722E+002
 6.0033928E+000, 2.0091517E-001, 2.5228823E-002, 1.9819296E-002, 1.3059124E-004, 4.7526215E-004, 1.9354087E-004, 2.8528118E+002
 7.0058292E+000, 1.9677291E-001, 2.8656044E-002, 2.1733673E-002, 1.3574890E-004, 4.5259732E-004, 2.1767428E-004, 3.1115763E+002
 8.0049243E+000, 1.8671125E-001, 3.7036836E-002, 2.6379501E-002, 1.2023333E-004, 3.0869861E-004, 2.7065811E-004, 3.7236456E+002
 9.0036886E+000, 1.7893604E-001, 4.3526100E-002, 2.9968091E-002, 1.0135948E-004, 1.7980330E-004, 3.1021269E-004, 4.1285278E+002
 1.0007109E+001, 1.7357485E-001, 4.7984549E-002, 3.2442598E-002, 9.5533433E-005, 1.2256750E-004, 3.3891990E-004, 4.2624541E+002
 1.1000940E+001, 1.6425193E-001, 5.5730683E-002, 3.6744895E-002, 8.7891809E-005, 4.1239600E-005, 3.8932787E-004, 4.5722110E+002
 1.2004079E+001, 1.5815964E-001, 6.0783877E-002, 3.9555951E-002, 8.6468281E-005, 7.6472582E-006, 4.2297521E-004, 4.7320553E+002
 1.3006777E+001, 1.5078649E-001, 6.6880729E-002, 4.2958607E-002, 9.3508002E-005, 1.2672004E-006, 4.6544960E-004, 4.8759611E+002
 1.4004790E+001, 1.4538712E-001, 7.1343657E-002, 4.5450394E-002, 9.9476584E-005, 1.2816794E-007, 4.9671594E-004, 4.9216259E+002
 1.5003739E+001, 1.3897447E-001, 7.6643358E-002, 4.8409844E-002, 1.0693576E-004, 1.0244767E-007, 5.3392419E-004, 5.0130398E+002
 1.6008362E+001, 1.3295768E-001, 8.1615843E-002, 5.1186623E-002, 1.1397517E-004, 8.8006416E-008, 5.6884386E-004, 5.0540192E+002
 1.7005212E+001, 1.2995518E-001, 8.4097233E-002, 5.2572278E-002, 1.1746894E-004, 1.1384833E-007, 5.8626553E-004, 5.0098497E+002
 1.8006093E+001, 1.2326082E-001, 8.9629852E-002, 5.5661698E-002, 1.2518172E-004, 8.5153854E-008, 6.2509314E-004, 5.0775749E+002
 1.9001840E+001, 1.1971203E-001, 9.2562738E-002, 5.7299468E-002, 1.2930348E-004, 7.3878804E-008, 6.4568309E-004, 5.0457272E+002
 2.0008687E+001, 1.1559435E-001, 9.5965768E-002, 5.9199781E-002, 1.3409248E-004, 9.3550325E-008, 6.6957500E-004, 5.0737385E+002
 2.1002654E+001, 1.1131932E-001, 9.9498574E-002, 6.1172800E-002, 1.3924907E-004, 1.4235997E-007, 6.9441771E-004, 5.0963220E+002
 2.2005964E+001, 1.0727900E-001, 1.0283798E-001, 6.3037306E-002, 1.4373055E-004, 1.0091421E-007, 7.1781620E-004, 5.1061097E+002
 2.3004951E+001, 1.0593467E-001, 1.0394896E-001, 6.3657729E-002, 1.4531926E-004, 9.5634989E-008, 7.2562156E-004, 5.0540244E+002
 2.4010037E+001, 1.0241489E-001, 1.0685803E-001, 6.5282059E-002, 1.4929883E-004, 4.5122506E-008, 7.4602096E-004, 5.0408051E+002
 2.5002694E+001, 9.8925238E-002, 1.0974156E-001, 6.6892691E-002, 1.5367882E-004, 1.4884121E-007, 7.6633471E-004, 5.0931910E+002
 2.6000082E+001, 9.6628464E-002, 1.1163872E-001, 6.7952960E-002, 1.5702628E-004, 4.7982162E-007, 7.7979948E-004, 5.0586207E+002
 2.7008335E+001, 9.4112998E-002, 1.1371665E-001, 6.9114137E-002, 1.6059104E-004, 8.2575961E-007, 7.9452556E-004, 5.0285925E+002
 2.8008559E+001, 9.0818092E-002, 1.1642892E-001, 7.0638168E-002, 1.7180207E-004, 3.6494880E-006, 8.1515314E-004, 5.0571939E+002
 2.9003782E+001, 8.9343598E-002, 1.1764071E-001, 7.1320599E-002, 1.7800858E-004, 6.5763675E-006, 8.2462593E-004, 4.9923211E+002
 3.0005510E+001, 8.5540494E-002, 1.2076385E-001, 7.3081997E-002, 1.9600264E-004, 1.2156665E-005, 8.4946850E-004, 5.0373251E+002
 3.1007126E+001, 8.1991675E-002, 1.2367575E-001, 7.4726517E-002, 2.1454653E-004, 1.7338637E-005, 8.7300955E-004, 5.0897429E+002
 3.2001077E+001, 8.0965545E-002, 1.2452326E-001, 7.5200135E-002, 2.1601761E-004, 1.8070731E-005, 8.7901944E-004, 4.9853316E+002
 3.3008742E+001, 7.7819681E-002, 1.2711811E-001, 7.6653546E-002, 2.2310990E-004, 1.9419822E-005, 8.9797503E-004, 5.0359265E+002
 3.4003458E+001, 7.6522386E-002, 1.2818077E-001, 7.7255127E-002, 2.3100504E-004, 2.2662842E-005, 9.0680781E-004, 5.0126885E+002
 3.5009192E+001, 7.3384057E-002, 1.3075498E-001, 7.8709749E-002, 2.4802901E-004, 2.7183745E-005, 9.2775414E-004, 5.0249658E+002
 3.6002997E+001, 7.0306412E-002, 1.3326781E-001, 8.0140028E-002, 2.7273859E-004, 3.4153326E-005, 9.4993583E-004, 5.0121349E+002
 3.7000462E+001, 6.7627327E-002, 1.3548496E-001, 8.1375324E-002, 2.7367439E-004, 3.4140191E-005, 9.6503357E-004, 5.0063136E+002
 3.8002428E+001, 6.5376492E-002, 1.3732660E-001, 8.2420389E-002, 2.8928652E-004, 3.6748909E-005, 9.8075501E-004, 5.0182400E+002
 3.9001756E+001, 6.2549096E-002, 1.3965840E-001, 8.3726866E-002, 2.9597844E-004, 3.7616024E-005, 9.9785723E-004, 5.0247100E+002
 4.0001388E+001, 6.0554401E-002, 1.4129805E-001, 8.4650093E-002, 3.0424732E-004, 4.0698842E-005, 1.0106470E-003, 5.0505057E+002
 4.1004036E+001, 5.8638019E-002, 1.4286315E-001, 8.5540482E-002, 3.1928569E-004, 4.5376893E-005, 1.0243873E-003, 5.0030974E+002
 4.2001648E+001, 5.7051092E-002, 1.4417741E-001, 8.6271805E-002, 3.1911844E-004, 4.5594630E-005, 1.0331821E-003, 4.9971469E+002
 4.3007516E+001, 5.4944954E-002, 1.4592268E-001, 8.7242541E-002, 3.1855564E-004, 4.3099255E-005, 1.0447879E-003, 5.0034190E+002
 4.4005163E+001, 5.2266989E-002, 1.4809963E-001, 8.8490579E-002, 3.4694203E-004, 4.9085638E-005, 1.0655012E-003, 5.0305882E+002
 4.5006314E+001, 5.0583520E-002, 1.4947521E-001, 8.9273016E-002, 3.6004516E-004, 5.0359270E-005, 1.0775531E-003, 5.0250757E+002
 4.6002483E+001, 4.9573467E-002, 1.5031864E-001, 8.9736126E-002, 3.5507655E-004, 4.9581529E-005, 1.0821549E-003, 4.9530776E+002
 4.7004773E+001, 4.6283306E-002, 1.5302354E-001, 9.1259649E-002, 3.6908217E-004, 5.0087660E-005, 1.1033321E-003, 5.0388939E+002
 4.8009790E+001, 4.5436351E-002, 1.5373348E-001, 9.1647261E-002, 3.6317382E-004, 4.7956467E-005, 1.1068355E-003, 5.0344532E+002
 4.9006499E+001, 4.2115275E-002, 1.5645272E-001, 9.3188807E-002, 3.8503445E-004, 5.0356032E-005, 1.1297932E-003, 5.0600783E+002
 5.0005767E+001, 4.1640730E-002, 1.5680977E-001, 9.3419266E-002, 4.0984028E-004, 5.7957359E-005, 1.1375107E-003, 5.0113449E+002
 5.1003762E+001, 3.8710261E-002, 1.5921420E-001, 9.4778306E-002, 4.2599924E-004, 5.6601266E-005, 1.1571307E-003, 5.0382180E+002
 5.2004695E+001, 3.8215197E-002, 1.5961618E-001, 9.5009035E-002, 4.3146115E-004, 5.8589735E-005, 1.1610027E-003, 5.0066354E+002
 5.3006355E+001, 3.5739074E-002, 1.6163165E-001, 9.6162219E-002, 4.5595943E-004, 6.3236369E-005, 1.1797973E-003, 5.0577492E+002
 5.4002852E+001, 3.3805956E-002, 1.6326996E-001, 9.7040790E-002, 4.2988730E-004, 5.6038385E-005, 1.1852152E-003, 5.0878385E+002
 5.5006348E+001, 3.1783323E-002, 1.6488258E-001, 9.7994830E-002, 4.7398328E-004, 6.1330394E-005, 1.2055049E-003, 5.0425118E+002
 5.6007473E+001, 3.1667871E-002, 1.6498711E-001, 9.8044570E-002, 4.6739596E-004, 6.2486165E-005, 1.2047949E-003, 5.0271211E+002
 5.7006312E+001, 3.0054610E-002, 1.6630435E-001, 9.8794432E-002, 4.8042244E-004, 6.5332695E-005, 1.2164384E-003, 5.0224577E+002
 5.8003971E+001, 2.8171391E-002, 1.6782200E-001, 9.9676573E-002, 5.0965683E-004, 7.1501443E-005, 1.2329036E-003, 5.0408732E+002
 5.9006710E+001, 2.6935359E-002, 1.6884266E-001, 1.0024766E-001, 5.1196538E-004, 6.9628021E-005, 1.2402564E-003, 5.0548949E+002
 6.0004357E+001, 2.4467677E-002, 1.7083602E-001, 1.0140272E-001, 5.4754155E-004, 7.2939388E-005, 1.2612776E-003, 5.0707607E+002
 6.1008882E+001, 2.3828824E-002, 1.7133790E-001, 1.0170635E-001, 5.6651653E-004, 7.7052424E-005, 1.2687180E-003, 5.0667176E+002
 6.2002600E+001, 2.1579315E-002, 1.7317037E-001, 1.0275424E-001, 5.8831848E-004, 7.6979681E-005, 1.2857049E-003, 5.0577603E+002
 6.3001744E+001, 2.1457113E-002, 1.7322606E-001, 1.0282607E-001, 6.2023557E-004, 8.3188699E-005, 1.2929223E-003, 5.0512060E+002
 6.4005839E+001, 2.0469643E-002, 1.7395294E-001, 1.0331259E-001, 6.8426734E-004, 9.3124622E-005, 1.3115349E-003, 5.0151378E+002
 6.5006039E+001, 1.8960129E-002, 1.7532742E-001, 1.0396579E-001, 5.9682729E-004, 7.6848218E-005, 1.3020226E-003, 5.0814031E+002
 6.6002624E+001, 1.7455361E-002, 1.7641192E-001, 1.0471658E-001, 7.1179526E-004, 8.6874351E-005, 1.3339590E-003, 5.0825190E+002
 6.7009377E+001, 1.6360079E-002, 1.7728903E-001, 1.0523354E-001, 7.3422283E-004, 8.0185432E-005, 1.3446609E-003, 5.0985120E+002
 6.8004659E+001, 1.5552477E-002, 1.7803605E-001, 1.0557729E-001, 6.7793818E-004, 7.9444614E-005, 1.3376125E-003, 5.0706057E+002
 6.9010206E+001, 1.3995327E-002, 1.7906448E-001, 1.0638766E-001, 8.6384266E-004, 9.4509765E-005, 1.3843812E-003, 5.0576061E+002
 7.0010001E+001, 1.2650007E-002, 1.8020668E-001, 1.0699675E-001, 8.4301690E-004, 9.8226099E-005, 1.3875907E-003, 5.1028735E+002
 7.1004807E+001, 1.1237974E-002, 1.8128521E-001, 1.0767980E-001, 9.0765449E-004, 1.0333074E-004, 1.4086959E-003, 5.0765327E+002
 7.2004759E+001, 1.1050156E-002, 1.8141439E-001, 1.0777666E-001, 9.2712751E-004, 9.9765346E-005, 1.4137389E-003, 5.1077239E+002
 7.3000677E+001, 1.0022919E-002, 1.8214018E-001, 1.0829470E-001, 1.0162386E-003, 1.0554774E-004, 1.4377213E-003, 5.0849691E+002
 7.4009689E+001, 8.7902351E-003, 1.8292407E-001, 1.0894831E-001, 1.1859729E-003, 1.1180120E-004, 1.4793800E-003, 5.0491762E+002
 7.5001870E+001, 8.6397314E-003, 1.8280541E-001, 1.0910584E-001, 1.3606186E-003, 1.1608614E-004, 1.5160275E-003, 5.0228453E+002
 7.6007028E+001, 8.0018419E-003, 1.8314759E-001, 1.0946489E-001, 1.4923631E-003, 1.3239680E-004, 1.5465732E-003, 4.9866018E+002
 7.7002410E+001, 7.9314658E-003, 1.8326285E-001, 1.0947514E-001, 1.4502954E-003, 1.3981432E-004, 1.5383281E-003, 5.0766581E+002
 7.8000729E+001, 7.0319296E-003, 1.8366013E-001, 1.1001745E-001, 1.7011355E-003, 1.3639072E-004, 1.5947786E-003, 5.0350335E+002
 7.9004617E+001, 6.1358670E-003, 1.8341314E-001, 1.1078560E-001, 2.4086412E-003, 1.7163678E-004, 1.7448109E-003, 5.0531025E+002
 8.0003822E+001, 6.1670081E-003, 1.8375689E-001, 1.1063631E-001, 2.1425822E-003, 1.7072136E-004, 1.6900766E-003, 5.0096033E+002
 8.1005355E+001, 5.5864718E-003, 1.8398617E-001, 1.1099184E-001, 2.3206913E-003, 1.9246672E-004, 1.7298045E-003, 4.9808573E+002
 8.2001631E+001, 4.7810846E-003, 1.8444637E-001, 1.1143225E-001, 2.4647601E-003, 2.2740429E-004, 1.7637856E-003, 5.0315085E+002
 8.3006709E+001, 5.4228655E-003, 1.8397992E-001, 1.1111857E-001, 2.4224019E-003, 1.9516654E-004, 1.7515697E-003, 5.0285625E+002
 8.4002618E+001, 4.2044114E-003, 1.8342570E-001, 1.1222380E-001, 3.5272599E-003, 3.4789523E-004, 1.9847321E-003, 4.9473834E+002
 8.5008181E+001, 4.6964544E-003, 1.8358222E-001, 1.1180120E-001, 3.1288940E-003, 2.9102524E-004, 1.9003724E-003, 4.9407241E+002
 8.6009768E+001, 4.4842278E-003, 1.8357682E-001, 1.1196745E-001, 3.2610327E-003, 2.7897192E-004, 1.9286671E-003, 4.9158001E+002
 8.7000460E+001, 3.8460152E-003, 1.8372554E-001, 1.1239530E-001, 3.5306783E-003, 3.0716793E-004, 1.9874795E-003, 4.9237488E+002
 8.8008605E+001, 3.9605909E-003, 1.8400153E-001, 1.1221629E-001, 3.2706557E-003, 2.5572243E-004, 1.9335838E-003, 4.9541675E+002
 8.9002891E+001, 3.8395383E-003, 1.8352782E-001, 1.1246928E-001, 3.6744984E-003, 3.2500146E-004, 2.0169866E-003, 4.8708579E+002
 9.0004161E+001, 3.3020406E-003, 1.8203405E-001, 1.1337716E-001, 5.0341795E-003, 5.9188022E-004, 2.2984716E-003, 4.8706847E+002
 9.1007338E+001, 3.4014467E-003, 1.8305846E-001, 1.1296365E-001, 4.2649672E-003, 3.8953327E-004, 2.1404319E-003, 4.8767934E+002
 9.2009388E+001, 3.3717655E-003, 1.8228834E-001, 1.1325300E-001, 4.8261244E-003, 4.7102764E-004, 2.2555720E-003, 4.8401352E+002
 9.3009382E+001, 2.7666689E-003, 1.8175976E-001, 1.1387484E-001, 5.5424217E-003, 6.5454118E-004, 2.4055979E-003, 4.8633731E+002
 9.4009164E+001, 2.6455224E-003, 1.8267265E-001, 1.1366189E-001, 4.9785409E-003, 4.9952595E-004, 2.2908329E-003, 4.9059183E+002
 9.5005588E+001, 2.6629036E-003, 1.8195763E-001, 1.1390933E-001, 5.4826679E-003, 5.0340508E-004, 2.3941154E-003, 4.8551763E+002
 9.6007777E+001, 2.4148083E-003, 1.8077016E-001, 1.1446643E-001, 6.4356423E-003, 8.6771323E-004, 2.5904594E-003, 4.7764722E+002
 9.7004535E+001, 2.5458793E-003, 1.8119938E-001, 1.1424127E-001, 6.0724168E-003, 6.9318600E-004, 2.5154657E-003, 4.8242445E+002
 9.8003870E+001, 2.9840103E-003, 1.8112287E-001, 1.1393789E-001, 5.8686480E-003, 6.7548867E-004, 2.4712628E-003, 4.8301897E+002
 9.9006943E+001, 2.5211639E-003, 1.8044055E-001, 1.1453419E-001, 6.6311788E-003, 7.1175667E-004, 2.6301679E-003, 4.7560838E+002
 1.0000520E+002, 2.5100488E-003, 1.8001539E-001, 1.1466300E-001, 6.9174707E-003, 9.0412674E-004, 2.6886940E-003, 4.8101346E+002
 1.0100432E+002, 2.4682283E-003, 1.8051166E-001, 1.1454964E-001, 6.6123060E-003, 7.0614036E-004, 2.6265993E-003, 4.8257565E+002
 1.0200678E+002, 2.4520250E-003, 1.7928152E-001, 1.1492724E-001, 7.4440622E-003, 1.1691228E-003, 2.7966673E-003, 4.7610500E+002
 1.0301010E+002, 2.2802294E-003, 1.7880675E-001, 1.1521919E-001, 7.8788036E-003, 1.2393631E-003, 2.8866878E-003, 4.7250104E+002
 1.0400017E+002, 2.3225763E-003, 1.7963889E-001, 1.1493837E-001, 7.2963586E-003, 9.3395316E-004, 2.7673994E-003, 4.7807172E+002
 1.0500006E+002, 2.1241292E-003, 1.7869174E-001, 1.1538266E-001, 8.0564302E-003, 1.2272328E-003, 2.9239988E-003, 4.7590888E+002
 1.0600267E+002, 2.3731143E-003, 1.7857108E-001, 1.1524914E-001, 8.0043022E-003, 1.1587541E-003, 2.9120113E-003, 4.6917327E+002
 1.0700262E+002, 2.2385537E-003, 1.7806349E-001, 1.1551665E-001, 8.4344096E-003, 1.2728357E-003, 3.0008179E-003, 4.7484784E+002
 1.0800999E+002, 2.2930163E-003, 1.7738621E-001, 1.1568731E-001, 8.8630007E-003, 1.4665595E-003, 3.0881595E-003, 4.7474684E+002
 1.0900036E+002, 2.4060048E-003, 1.7751998E-001, 1.1558666E-001, 8.7254067E-003, 1.2773534E-003, 3.0595569E-003, 4.6876013E+002
 1.1000131E+002, 2.0998313E-003, 1.7774560E-001, 1.1571761E-001, 8.7300830E-003, 1.3889589E-003, 3.0620759E-003, 4.7360608E+002
 1.1101000E+002, 1.9979753E-003, 1.7757733E-001, 1.1587632E-001, 8.9267380E-003, 1.2826339E-003, 3.1031084E-003, 4.7551015E+002
 1.1200097E+002, 2.1741744E-003, 1.7592402E-001, 1.1627340E-001, 9.9573955E-003, 1.6815773E-003, 3.3129781E-003, 4.6467460E+002
 1.1300535E+002, 1.9649314E-003, 1.7626477E-001, 1.1631319E-001, 9.8402259E-003, 1.6564969E-003, 3.2901459E-003, 4.6857853E+002
 1.1400024E+002, 2.1087348E-003, 1.7672649E-001, 1.1607267E-001, 9.4507190E-003, 1.4477406E-003, 3.2097357E-003, 4.7324785E+002
 1.1500576E+002, 2.1710070E-003, 1.7589746E-001, 1.1629056E-001, 9.9822257E-003, 1.6540247E-003, 3.3181232E-003, 4.6681808E+002
 1.1600569E+002, 2.0039655E-003, 1.7482307E-001, 1.1675226E-001, 1.0811335E-002, 1.9753932E-003, 3.4886698E-003, 4.6942861E+002
 1.1700876E+002, 1.9903262E-003, 1.7425788E-001, 1.1696916E-001, 1.1226463E-002, 1.9762526E-003, 3.5738771E-003, 4.7106650E+002
 1.1800192E+002, 2.0706622E-003, 1.7477300E-001, 1.1674424E-001, 1.0826249E-002, 1.8405803E-003, 3.4915305E-003, 4.6718395E+002
 1.1901035E+002, 1.9711552E-003, 1.7533564E-001, 1.1664661E-001, 1.0504618E-002, 1.6648399E-003, 3.4263512E-003, 4.7146520E+002
 1.2000199E+002, 1.9489479E-003, 1.7483399E-001, 1.1680955E-001, 1.0850876E-002, 1.8698152E-003, 3.4972204E-003, 4.6634631E+002
 1.2100976E+002, 1.9047743E-003, 1.7432992E-001, 1.1704422E-001, 1.1252904E-002, 1.7786861E-003, 3.5800295E-003, 4.7058221E+002
 1.2200768E+002, 1.9856512E-003, 1.7442941E-001, 1.1694350E-001, 1.1131045E-002, 1.7928251E-003, 3.5545711E-003, 4.6231473E+002
 1.2300989E+002, 2.0146650E-003, 1.7387413E-001, 1.1707616E-001, 1.1477222E-002, 2.0568484E-003, 3.6250628E-003, 4.6661725E+002
 1.2400428E+002, 1.9727216E-003, 1.7385083E-001, 1.1713660E-001, 1.1534086E-002, 1.9478372E-003, 3.6370976E-003, 4.6431137E+002
 1.2500984E+002, 1.9741785E-003, 1.7371835E-001, 1.1716849E-001, 1.1616955E-002, 2.0324384E-003, 3.6539752E-003, 4.6872149E+002
 1.2600753E+002, 2.1008809E-003, 1.7262893E-001, 1.1738381E-001, 1.2260831E-002, 2.5047011E-003, 3.7847066E-003, 4.6280502E+002
 1.2700749E+002, 1.9777885E-003, 1.7184099E-001, 1.1774999E-001, 1.2889768E-002, 2.5918191E-003, 3.9142592E-003, 4.6385330E+002
 1.2800144E+002, 1.9477123E-003, 1.7200344E-001, 1.1774644E-001, 1.2815587E-002, 2.4116896E-003, 3.8994453E-003, 4.6464234E+002
 1.2900116E+002, 1.9391147E-003, 1.7256885E-001, 1.1758895E-001, 1.2445742E-002, 2.1780036E-003, 3.8239472E-003, 4.6164779E+002
 1.3000979E+002, 1.9797558E-003, 1.7122613E-001, 1.1792560E-001, 1.3295385E-002, 2.8530005E-003, 3.9970947E-003, 4.6543212E+002
 1.3100551E+002, 2.0312455E-003, 1.7122849E-001, 1.1791697E-001, 1.3286858E-002, 2.6801811E-003, 3.9952816E-003, 4.6140123E+002
 1.3200777E+002, 1.9374220E-003, 1.7196942E-001, 1.1778841E-001, 1.2862632E-002, 2.2930126E-003, 3.9093028E-003, 4.6422252E+002
 1.3300798E+002, 1.9545954E-003, 1.7034725E-001, 1.1823296E-001, 1.3918337E-002, 3.0347320E-003, 4.1247535E-003, 4.6196974E+002
 1.3400659E+002, 2.0134804E-003, 1.7127256E-001, 1.1792865E-001, 1.3276479E-002, 2.6022572E-003, 3.9933522E-003, 4.6305825E+002
 1.3500809E+002, 1.7713256E-003, 1.7206063E-001, 1.1789827E-001, 1.2908395E-002, 2.2033150E-003, 3.9197271E-003, 4.6607767E+002
 1.3601108E+002, 1.7780486E-003, 1.7079260E-001, 1.1826315E-001, 1.3746902E-002, 2.7159968E-003, 4.0909883E-003, 4.6405486E+002
 1.3700224E+002, 1.8368898E-003, 1.6979006E-001, 1.1850463E-001, 1.4373290E-002, 3.1548831E-003, 4.2185536E-003, 4.6015054E+002
 1.3800830E+002, 1.9099649E-003, 1.7011486E-001, 1.1837921E-001, 1.4132943E-002, 2.8857410E-003, 4.1692037E-003, 4.6104877E+002
 1.3900847E+002, 1.9619497E-003, 1.6967729E-001, 1.1846391E-001, 1.4390187E-002, 3.0806228E-003, 4.2214184E-003, 4.5902074E+002
 1.4000023E+002, 1.9279099E-003, 1.6948271E-001, 1.1856231E-001, 1.4551607E-002, 3.0736723E-003, 4.2547201E-003, 4.6224820E+002
 1.4100403E+002, 1.7862827E-003, 1.7011895E-001, 1.1846477E-001, 1.4198170E-002, 2.9262194E-003, 4.1832163E-003, 4.6236577E+002
 1.4200493E+002, 1.9027877E-003, 1.6922774E-001, 1.1863952E-001, 1.4723603E-002, 3.2664431E-003, 4.2898844E-003, 4.6239208E+002
 1.4300846E+002, 1.9272420E-003, 1.6975360E-001, 1.1843761E-001, 1.4337067E-002, 3.2170533E-003, 4.2105426E-003, 4.5622587E+002
 1.4400312E+002, 1.8554555E-003, 1.7022940E-001, 1.1838679E-001, 1.4088879E-002, 2.8428406E-003, 4.1605257E-003, 4.6592426E+002
 1.4500862E+002, 1.9177691E-003, 1.6868132E-001, 1.1879866E-001, 1.5086157E-002, 3.4263889E-003, 4.3639464E-003, 4.6004167E+002
 1.4600025E+002, 1.9708452E-003, 1.6890099E-001, 1.1868897E-001, 1.4904713E-002, 3.3653018E-003, 4.3265199E-003, 4.5996214E+002
 1.4700516E+002, 2.0176152E-003, 1.6926803E-001, 1.1853662E-001, 1.4625725E-002, 3.2691009E-003, 4.2691697E-003, 4.6136713E+002
 1.4800986E+002, 1.7852770E-003, 1.6853242E-001, 1.1893037E-001, 1.5254336E-002, 3.5573547E-003, 4.3990046E-003, 4.6378928E+002
 1.4900220E+002, 1.9077386E-003, 1.6815129E-001, 1.1897549E-001, 1.5455290E-002, 3.5611927E-003, 4.4395293E-003, 4.6307801E+002
 1.5000341E+002, 1.9754638E-003, 1.6894031E-001, 1.1868963E-001, 1.4887684E-002, 3.2636164E-003, 4.3231327E-003, 4.5953014E+002
 1.5100840E+002, 1.9642526E-003, 1.6797448E-001, 1.1902560E-001, 1.5570606E-002, 3.4044255E-003, 4.4630647E-003, 4.5595221E+002
 1.5201093E+002, 1.9510876E-003, 1.6803991E-001, 1.1899388E-001, 1.5517815E-002, 3.5021877E-003, 4.4521862E-003, 4.5926677E+002
 1.5300683E+002, 2.0032158E-003, 1.6742994E-001, 1.1913793E-001, 1.5896448E-002, 3.7166599E-003, 4.5292690E-003, 4.5586739E+002
 1.5400371E+002, 1.7947413E-003, 1.6773018E-001, 1.1918911E-001, 1.5805852E-002, 3.7070901E-003, 4.5118622E-003, 4.6185859E+002
