s,,,,,,,
Time,"O2 EXHAUST","CO2 EXHAUST","H2O EXHAUST","CO EXHAUST","FUEL EXHAUST","SOOT EXHAUST","TEMP EXHAUST"
 0.0000000E+000, 2.3099739E-001, 5.9146498E-004, 5.9412091E-003, 0.0000000E+000, 0.0000000E+000, 0.0000000E+000, 2.0000000E+001
 1.0008397E+000, 2.3099739E-001, 5.9146498E-004, 5.9412091E-003, 2.6941887E-026, 7.7679068E-026, 1.1898808E-026, 2.1952903E+001
 2.0047704E+000, 2.2021807E-001, 8.6416652E-003, 1.0589996E-002, 1.1938812E-004, 2.2076508E-004, 8.9483717E-005, 1.2448754E+002
 3.0011988E+000, 2.0895819E-001, 1.7109866E-002, 1.5455802E-002, 2.2490466E-004, 2.7428006E-004, 1.7927028E-004, 2.1960813E+002
 4.0049395E+000, 1.9898776E-001, 2.4760553E-002, 1.9726990E-002, 2.2113227E-004, 2.5318567E-004, 2.3894581E-004, 2.9566775E+002
 5.0021262E+000, 1.8798302E-001, 3.3267403E-002, 2.4431079E-002, 1.8101126E-004, 1.6968398E-004, 2.9752574E-004, 3.6662358E+002
 6.0025382E+000, 1.7278002E-001, 4.5054955E-002, 3.0921562E-002, 1.0337495E-004, 3.5387371E-005, 3.7392785E-004, 4.4555694E+002
 7.0081128E+000, 1.5459203E-001, 5.9003552E-002, 3.8714894E-002, 1.0140010E-004, 5.6042447E-007, 4.8378808E-004, 5.0056701E+002
 8.0044490E+000, 1.4428326E-001, 6.6885305E-002, 4.3136648E-002, 1.1467100E-004, 1.6834257E-007, 5.4897833E-004, 5.2806699E+002
 9.0046209E+000, 1.2460517E-001, 8.1927351E-002, 5.1577957E-002, 1.4202112E-004, 1.0275235E-006, 6.7382936E-004, 5.6451740E+002
 1.0007767E+001, 1.1151048E-001, 9.1934256E-002, 5.7195473E-002, 1.6168189E-004, 5.1980603E-006, 7.5720519E-004, 5.7188846E+002
 1.1009327E+001, 1.0244618E-001, 9.8766009E-002, 6.1095371E-002, 2.2688851E-004, 1.2518048E-004, 8.2533128E-004, 5.7148977E+002
 1.2010315E+001, 8.8881651E-002, 1.0823412E-001, 6.7027872E-002, 7.3871839E-004, 1.1973382E-003, 1.0109425E-003, 5.7848719E+002
 1.3000232E+001, 8.2702126E-002, 1.1199659E-001, 6.9773377E-002, 1.2530136E-003, 2.5064715E-003, 1.1519755E-003, 5.5787919E+002
 1.4007148E+001, 7.9738063E-002, 1.1264815E-001, 7.1160365E-002, 2.0731807E-003, 4.9741342E-003, 1.3345981E-003, 5.3374502E+002
 1.5000061E+001, 7.8000580E-002, 1.1339129E-001, 7.2015809E-002, 2.4234659E-003, 5.4456248E-003, 1.4162673E-003, 5.1976324E+002
 1.6007579E+001, 7.7561793E-002, 1.1302771E-001, 7.2173205E-002, 2.7157145E-003, 7.0149594E-003, 1.4766336E-003, 4.9607145E+002
 1.7009959E+001, 7.5880591E-002, 1.1289259E-001, 7.2931727E-002, 3.3869593E-003, 9.5842686E-003, 1.6208144E-003, 4.8571631E+002
 1.8005053E+001, 7.5266805E-002, 1.1259480E-001, 7.3218478E-002, 3.7515550E-003, 1.0951354E-002, 1.6973538E-003, 4.7419913E+002
 1.9001399E+001, 7.4966519E-002, 1.1269595E-001, 7.3293930E-002, 3.7691178E-003, 1.1535108E-002, 1.7019563E-003, 4.6620198E+002
 2.0011046E+001, 7.6143434E-002, 1.1128763E-001, 7.2678260E-002, 3.9122317E-003, 1.3224536E-002, 1.7217946E-003, 4.4960991E+002
 2.1005089E+001, 7.7045699E-002, 1.1049610E-001, 7.2183311E-002, 3.8744911E-003, 1.4093723E-002, 1.7073744E-003, 4.3703274E+002
 2.2007165E+001, 7.7070282E-002, 1.0991973E-001, 7.2011003E-002, 4.0023456E-003, 1.6195265E-002, 1.7304908E-003, 4.2851736E+002
 2.3008261E+001, 7.6645367E-002, 1.0959826E-001, 7.2122828E-002, 4.2405475E-003, 1.7906068E-002, 1.7794968E-003, 4.2125447E+002
 2.4002121E+001, 7.6734863E-002, 1.0948782E-001, 7.1983846E-002, 4.1825609E-003, 1.8612077E-002, 1.7660803E-003, 4.1046677E+002
 2.5007278E+001, 7.6390168E-002, 1.0887296E-001, 7.2076107E-002, 4.5366306E-003, 2.0688518E-002, 1.8378385E-003, 4.0516650E+002
 2.6006095E+001, 7.6660854E-002, 1.0849778E-001, 7.1698085E-002, 4.4121265E-003, 2.2642732E-002, 1.8079422E-003, 4.0049693E+002
 2.7011119E+001, 7.6945323E-002, 1.0839920E-001, 7.1490556E-002, 4.2928388E-003, 2.2937960E-002, 1.7813539E-003, 3.8881269E+002
 2.8001965E+001, 7.7673465E-002, 1.0753151E-001, 7.0983075E-002, 4.2830900E-003, 2.4760130E-002, 1.7723925E-003, 3.7832589E+002
 2.9008675E+001, 7.7831874E-002, 1.0739669E-001, 7.0777996E-002, 4.1843476E-003, 2.5636654E-002, 1.7499657E-003, 3.7500354E+002
 3.0012108E+001, 7.8246356E-002, 1.0681972E-001, 7.0508612E-002, 4.2311303E-003, 2.6716920E-002, 1.7555312E-003, 3.6717647E+002
 3.1002476E+001, 7.9208322E-002, 1.0586711E-001, 6.9883405E-002, 4.1654515E-003, 2.8462016E-002, 1.7337965E-003, 3.5718470E+002
 3.2011136E+001, 7.9955249E-002, 1.0514102E-001, 6.9422253E-002, 4.1268892E-003, 2.9639751E-002, 1.7197172E-003, 3.4878796E+002
 3.3011252E+001, 8.0784334E-002, 1.0411969E-001, 6.8831026E-002, 4.1206037E-003, 3.1863272E-002, 1.7102922E-003, 3.4031376E+002
 3.4010004E+001, 8.1514620E-002, 1.0404732E-001, 6.8543639E-002, 3.9202731E-003, 3.0744840E-002, 1.6663693E-003, 3.3882625E+002
 3.5000851E+001, 8.2769787E-002, 1.0274967E-001, 6.7890515E-002, 3.9834330E-003, 3.2122138E-002, 1.6697815E-003, 3.2840573E+002
 3.6003817E+001, 8.4446606E-002, 1.0127862E-001, 6.6831725E-002, 3.8072089E-003, 3.4598316E-002, 1.6200323E-003, 3.3077158E+002
 3.7007973E+001, 8.4787260E-002, 1.0078235E-001, 6.6545927E-002, 3.8064345E-003, 3.5928604E-002, 1.6159471E-003, 3.1635141E+002
 3.8009187E+001, 8.7241527E-002, 9.9001215E-002, 6.5233836E-002, 3.5622210E-003, 3.7347501E-002, 1.5490304E-003, 3.0951665E+002
 3.9013646E+001, 8.7600554E-002, 9.8792606E-002, 6.5024441E-002, 3.4897439E-003, 3.7560752E-002, 1.5317001E-003, 3.0762775E+002
 4.0001223E+001, 8.8226360E-002, 9.8232104E-002, 6.4712510E-002, 3.4927061E-003, 3.7992020E-002, 1.5279113E-003, 2.9604619E+002
 4.1009844E+001, 8.8133124E-002, 9.8283253E-002, 6.4726548E-002, 3.4820858E-003, 3.8192496E-002, 1.5260188E-003, 2.8794969E+002
 4.2009099E+001, 8.8167989E-002, 9.8193878E-002, 6.4685301E-002, 3.4902438E-003, 3.8479040E-002, 1.5270786E-003, 2.7593445E+002
 4.3001111E+001, 8.8485899E-002, 9.7867993E-002, 6.4508800E-002, 3.4965268E-003, 3.8891019E-002, 1.5258633E-003, 2.6632394E+002
 4.4006393E+001, 9.0390631E-002, 9.6186353E-002, 6.3709526E-002, 3.6092191E-003, 3.9225635E-002, 1.5369518E-003, 2.5856293E+002
 4.5008525E+001, 9.2113966E-002, 9.4789596E-002, 6.2953398E-002, 3.6297574E-003, 3.9486688E-002, 1.5303531E-003, 2.5226198E+002
 4.6002724E+001, 9.2356157E-002, 9.4605049E-002, 6.2911223E-002, 3.6762878E-003, 3.9103204E-002, 1.5389599E-003, 2.4587940E+002
 4.7003915E+001, 9.4843839E-002, 9.2104031E-002, 6.1848407E-002, 3.9464158E-003, 4.0258283E-002, 1.5776380E-003, 2.4241121E+002
 4.8000561E+001, 9.5100831E-002, 9.1749905E-002, 6.1823256E-002, 4.0821365E-003, 4.0042087E-002, 1.6042029E-003, 2.4631235E+002
 4.9011094E+001, 9.5706474E-002, 9.1079265E-002, 6.1505799E-002, 4.1309131E-003, 4.0808740E-002, 1.6094577E-003, 2.4169494E+002
 5.0008599E+001, 9.5701803E-002, 9.1006525E-002, 6.1487860E-002, 4.1500994E-003, 4.1082750E-002, 1.6130352E-003, 2.4174780E+002
 5.1003544E+001, 9.6804783E-002, 8.9785912E-002, 6.0891686E-002, 4.2248288E-003, 4.2589186E-002, 1.6195604E-003, 2.3937063E+002
 5.2006899E+001, 9.7186418E-002, 8.9198816E-002, 6.0727646E-002, 4.3572318E-003, 4.3173655E-002, 1.6435691E-003, 2.4030258E+002
 5.3007835E+001, 9.7848350E-002, 8.8427311E-002, 6.0369068E-002, 4.4190473E-003, 4.4159497E-002, 1.6508487E-003, 2.3929912E+002
 5.4004665E+001, 9.8289286E-002, 8.8026937E-002, 6.0133790E-002, 4.4117588E-003, 4.4570100E-002, 1.6461079E-003, 2.3614920E+002
 5.5008391E+001, 9.8653477E-002, 8.7391383E-002, 5.9932053E-002, 4.5375472E-003, 4.5556287E-002, 1.6683042E-003, 2.3720459E+002
 5.6004643E+001, 9.8824999E-002, 8.7185149E-002, 5.9798534E-002, 4.5254079E-003, 4.6075722E-002, 1.6640494E-003, 2.3445523E+002
 5.7009699E+001, 9.9450671E-002, 8.6203055E-002, 5.9366878E-002, 4.6270441E-003, 4.8080532E-002, 1.6782847E-003, 2.3518760E+002
 5.8007938E+001, 9.9092830E-002, 8.6579054E-002, 5.9595809E-002, 4.6389399E-003, 4.7411250E-002, 1.6838284E-003, 2.2906408E+002
 5.9011904E+001, 1.0021963E-001, 8.5099881E-002, 5.8851141E-002, 4.7164199E-003, 5.0248188E-002, 1.6889105E-003, 2.3010083E+002
 6.0006282E+001, 9.9898261E-002, 8.5343446E-002, 5.9051969E-002, 4.7658959E-003, 4.9862259E-002, 1.7015396E-003, 2.2968284E+002
 6.1007628E+001, 1.0051800E-001, 8.4615687E-002, 5.8669249E-002, 4.7903299E-003, 5.1087124E-002, 1.7010780E-003, 2.2604449E+002
 6.2009991E+001, 1.0058572E-001, 8.4591405E-002, 5.8671549E-002, 4.8017831E-003, 5.0838717E-002, 1.7033630E-003, 2.2778157E+002
 6.3001740E+001, 1.0068428E-001, 8.4474192E-002, 5.8591685E-002, 4.7918265E-003, 5.1154111E-002, 1.7002834E-003, 2.2501278E+002
 6.4006403E+001, 1.0114196E-001, 8.3552229E-002, 5.8272435E-002, 4.9552923E-003, 5.3043672E-002, 1.7283715E-003, 2.2457577E+002
 6.5001748E+001, 1.0110115E-001, 8.3858563E-002, 5.8282209E-002, 4.8253818E-003, 5.2549003E-002, 1.7026826E-003, 2.2532042E+002
 6.6009845E+001, 1.0142682E-001, 8.3422649E-002, 5.8076481E-002, 4.8588153E-003, 5.3326687E-002, 1.7064736E-003, 2.2285010E+002
 6.7007132E+001, 1.0140795E-001, 8.3295491E-002, 5.8105120E-002, 4.9383715E-003, 5.3478623E-002, 1.7226825E-003, 2.2597918E+002
 6.8000074E+001, 1.0153501E-001, 8.2817340E-002, 5.7953444E-002, 5.0357984E-003, 5.4831870E-002, 1.7399884E-003, 2.2374208E+002
 6.9010999E+001, 1.0208195E-001, 8.2616727E-002, 5.7715960E-002, 4.9347922E-003, 5.4420757E-002, 1.7165456E-003, 2.2430150E+002
 7.0006922E+001, 1.0211681E-001, 8.2571098E-002, 5.7671339E-002, 4.9206475E-003, 5.4641953E-002, 1.7131254E-003, 2.2389651E+002
 7.1005345E+001, 1.0227968E-001, 8.2181757E-002, 5.7553206E-002, 5.0029823E-003, 5.5463196E-002, 1.7278656E-003, 2.2643064E+002
 7.2009684E+001, 1.0273810E-001, 8.1699932E-002, 5.7315733E-002, 5.0304215E-003, 5.5975195E-002, 1.7299953E-003, 2.2609572E+002
 7.3010298E+001, 1.0290422E-001, 8.1321546E-002, 5.7213336E-002, 5.1197729E-003, 5.6663774E-002, 1.7463397E-003, 2.2291691E+002
 7.4006695E+001, 1.0310566E-001, 8.1247701E-002, 5.7096768E-002, 5.0603296E-003, 5.6692562E-002, 1.7328942E-003, 2.2512760E+002
 7.5013352E+001, 1.0311276E-001, 8.1155202E-002, 5.7086897E-002, 5.0943687E-003, 5.6906574E-002, 1.7395289E-003, 2.2373010E+002
 7.6011097E+001, 1.0350280E-001, 8.0444075E-002, 5.6875590E-002, 5.2464480E-003, 5.7993408E-002, 1.7668167E-003, 2.2360725E+002
 7.7011364E+001, 1.0353314E-001, 8.0197746E-002, 5.6850053E-002, 5.3374572E-003, 5.8510961E-002, 1.7845631E-003, 2.2340875E+002
 7.8005416E+001, 1.0377339E-001, 8.0238342E-002, 5.6705915E-002, 5.2046414E-003, 5.8323225E-002, 1.7561459E-003, 2.2346155E+002
 7.9002070E+001, 1.0388846E-001, 8.0021555E-002, 5.6598610E-002, 5.2183219E-003, 5.8936210E-002, 1.7573947E-003, 2.2495003E+002
 8.0010771E+001, 1.0390270E-001, 7.9876822E-002, 5.6555587E-002, 5.2504660E-003, 5.9428815E-002, 1.7632077E-003, 2.2462730E+002
 8.1000759E+001, 1.0398429E-001, 7.9587003E-002, 5.6451938E-002, 5.3004881E-003, 6.0302552E-002, 1.7717435E-003, 2.2316706E+002
 8.2002633E+001, 1.0417756E-001, 7.9137176E-002, 5.6303701E-002, 5.3865457E-003, 6.1302946E-002, 1.7868118E-003, 2.2435091E+002
 8.3002042E+001, 1.0411498E-001, 7.9039272E-002, 5.6413891E-002, 5.5159940E-003, 6.1074032E-002, 1.8140453E-003, 2.2333335E+002
 8.4001269E+001, 1.0413627E-001, 7.8712931E-002, 5.6386955E-002, 5.6421806E-003, 6.1795718E-002, 1.8387714E-003, 2.2431376E+002
 8.5008207E+001, 1.0411454E-001, 7.8600749E-002, 5.6370601E-002, 5.6806776E-003, 6.2208714E-002, 1.8462159E-003, 2.2282368E+002
 8.6000986E+001, 1.0430942E-001, 7.8555910E-002, 5.6230367E-002, 5.5902043E-003, 6.2354242E-002, 1.8262864E-003, 2.2108182E+002
 8.7003374E+001, 1.0448483E-001, 7.7990673E-002, 5.6031537E-002, 5.6899961E-003, 6.3969982E-002, 1.8434167E-003, 2.2163003E+002
 8.8004079E+001, 1.0452272E-001, 7.7736441E-002, 5.6056516E-002, 5.8230066E-003, 6.4158756E-002, 1.8701869E-003, 2.2139546E+002
 8.9004660E+001, 1.0471247E-001, 7.7726454E-002, 5.5896688E-002, 5.7019502E-003, 6.4378288E-002, 1.8439160E-003, 2.2136323E+002
 9.0011025E+001, 1.0453358E-001, 7.7560731E-002, 5.5937829E-002, 5.8113998E-003, 6.5195214E-002, 1.8662911E-003, 2.2335608E+002
 9.1004100E+001, 1.0467621E-001, 7.7518485E-002, 5.5895088E-002, 5.7951728E-003, 6.4949279E-002, 1.8624449E-003, 2.2329816E+002
 9.2005043E+001, 1.0462034E-001, 7.7278580E-002, 5.5890135E-002, 5.9005988E-003, 6.5685707E-002, 1.8833625E-003, 2.2321768E+002
 9.3009432E+001, 1.0482971E-001, 7.7036872E-002, 5.5786026E-002, 5.9262140E-003, 6.5935280E-002, 1.8869949E-003, 2.2291924E+002
 9.4005711E+001, 1.0484365E-001, 7.6793816E-002, 5.5776867E-002, 6.0285579E-003, 6.6413262E-002, 1.9072195E-003, 2.2087218E+002
 9.5009774E+001, 1.0514910E-001, 7.6432090E-002, 5.5548932E-002, 6.0119556E-003, 6.7266424E-002, 1.9007711E-003, 2.2088735E+002
 9.6000144E+001, 1.0503655E-001, 7.6208038E-002, 5.5541495E-002, 6.1093831E-003, 6.8223017E-002, 1.9200845E-003, 2.1946614E+002
 9.7005845E+001, 1.0489753E-001, 7.6157328E-002, 5.5600280E-002, 6.1797093E-003, 6.8537812E-002, 1.9349015E-003, 2.2081530E+002
 9.8006263E+001, 1.0489963E-001, 7.6253339E-002, 5.5580317E-002, 6.1211342E-003, 6.8463443E-002, 1.9229864E-003, 2.2195791E+002
 9.9005665E+001, 1.0496236E-001, 7.6039953E-002, 5.5497233E-002, 6.1527455E-003, 6.9137600E-002, 1.9281421E-003, 2.2408477E+002
 1.0000637E+002, 1.0493943E-001, 7.5974459E-002, 5.5415441E-002, 6.1202408E-003, 6.9868921E-002, 1.9205946E-003, 2.2287853E+002
 1.0100179E+002, 1.0506456E-001, 7.5541626E-002, 5.5421058E-002, 6.3173847E-003, 7.0166532E-002, 1.9598297E-003, 2.2085445E+002
 1.0200456E+002, 1.0521918E-001, 7.5261993E-002, 5.5273538E-002, 6.3279628E-003, 7.0987812E-002, 1.9599114E-003, 2.1874458E+002
 1.0301319E+002, 1.0515065E-001, 7.5172956E-002, 5.5330817E-002, 6.4131173E-003, 7.1093941E-002, 1.9776327E-003, 2.1928868E+002
 1.0400764E+002, 1.0515117E-001, 7.5245112E-002, 5.5353888E-002, 6.3981903E-003, 7.0806588E-002, 1.9749721E-003, 2.2067055E+002
 1.0500457E+002, 1.0527085E-001, 7.4927257E-002, 5.5266294E-002, 6.4724109E-003, 7.1477528E-002, 1.9885212E-003, 2.2014474E+002
 1.0600714E+002, 1.0537271E-001, 7.4615713E-002, 5.5221401E-002, 6.5767235E-003, 7.1945766E-002, 2.0086302E-003, 2.2019571E+002
 1.0700902E+002, 1.0521728E-001, 7.4624581E-002, 5.5324908E-002, 6.6546404E-003, 7.1934385E-002, 2.0255591E-003, 2.2031882E+002
 1.0800624E+002, 1.0535888E-001, 7.4645717E-002, 5.5185283E-002, 6.5358682E-003, 7.2167950E-002, 2.0000286E-003, 2.2134617E+002
 1.0901366E+002, 1.0549491E-001, 7.4352774E-002, 5.5144237E-002, 6.6340996E-003, 7.2433312E-002, 2.0189679E-003, 2.2072357E+002
 1.1000191E+002, 1.0549409E-001, 7.4142300E-002, 5.5121019E-002, 6.7112884E-003, 7.2995595E-002, 2.0340077E-003, 2.1922892E+002
 1.1100198E+002, 1.0544865E-001, 7.3880510E-002, 5.5105391E-002, 6.8182377E-003, 7.3797851E-002, 2.0550822E-003, 2.2012653E+002
 1.1200210E+002, 1.0566589E-001, 7.3635374E-002, 5.5038164E-002, 6.8734180E-003, 7.3792937E-002, 2.0650833E-003, 2.1976442E+002
 1.1300251E+002, 1.0566560E-001, 7.3535919E-002, 5.5046005E-002, 6.9242560E-003, 7.3941713E-002, 2.0752974E-003, 2.2042920E+002
 1.1400101E+002, 1.0561874E-001, 7.3496870E-002, 5.5135986E-002, 7.0114432E-003, 7.3656472E-002, 2.0938520E-003, 2.2252178E+002
 1.1501290E+002, 1.0563799E-001, 7.3324938E-002, 5.5033607E-002, 7.0104314E-003, 7.4549522E-002, 2.0922779E-003, 2.2009762E+002
 1.1600529E+002, 1.0557744E-001, 7.2961747E-002, 5.4949758E-002, 7.1112860E-003, 7.6037285E-002, 2.1112351E-003, 2.2109086E+002
 1.1700004E+002, 1.0550044E-001, 7.2959793E-002, 5.5005028E-002, 7.1557968E-003, 7.6019421E-002, 2.1208503E-003, 2.2096350E+002
 1.1800293E+002, 1.0562392E-001, 7.2891397E-002, 5.4912964E-002, 7.1140503E-003, 7.6210358E-002, 2.1112777E-003, 2.1969242E+002
 1.1900263E+002, 1.0567161E-001, 7.2749995E-002, 5.4818131E-002, 7.1045090E-003, 7.6878023E-002, 2.1080984E-003, 2.1921594E+002
 1.2000456E+002, 1.0593708E-001, 7.2254091E-002, 5.4688442E-002, 7.2241725E-003, 7.7553661E-002, 2.1300721E-003, 2.1871632E+002
 1.2100511E+002, 1.0580992E-001, 7.2078057E-002, 5.4799535E-002, 7.3907337E-003, 7.7742193E-002, 2.1647200E-003, 2.1812496E+002
 1.2200135E+002, 1.0584489E-001, 7.2113744E-002, 5.4711297E-002, 7.3066137E-003, 7.8072781E-002, 2.1468027E-003, 2.1763619E+002
 1.2300706E+002, 1.0563418E-001, 7.1961498E-002, 5.4740813E-002, 7.4016972E-003, 7.9067697E-002, 2.1661768E-003, 2.1823547E+002
 1.2400326E+002, 1.0553313E-001, 7.1916970E-002, 5.4815630E-002, 7.4807767E-003, 7.9112868E-002, 2.1829353E-003, 2.2120328E+002
 1.2500381E+002, 1.0552809E-001, 7.1816350E-002, 5.4822947E-002, 7.5318278E-003, 7.9286913E-002, 2.1931865E-003, 2.1914352E+002
 1.2600730E+002, 1.0587913E-001, 7.1446496E-002, 5.4585120E-002, 7.5104935E-003, 8.0027508E-002, 2.1856495E-003, 2.1706699E+002
 1.2700041E+002, 1.0598458E-001, 7.1327226E-002, 5.4554520E-002, 7.5389561E-003, 8.0013108E-002, 2.1908649E-003, 2.1880818E+002
 1.2801186E+002, 1.0604810E-001, 7.1046157E-002, 5.4541107E-002, 7.6542753E-003, 8.0385882E-002, 2.2135959E-003, 2.1856484E+002
 1.2900982E+002, 1.0597527E-001, 7.0542462E-002, 5.4583773E-002, 7.9153237E-003, 8.1418132E-002, 2.2661011E-003, 2.1908597E+002
 1.3000384E+002, 1.0587697E-001, 7.0588435E-002, 5.4677276E-002, 7.9678146E-003, 8.1157651E-002, 2.2778208E-003, 2.1904600E+002
 1.3100102E+002, 1.0596325E-001, 7.0643613E-002, 5.4615430E-002, 7.8941106E-003, 8.1072606E-002, 2.2623094E-003, 2.1932175E+002
 1.3201177E+002, 1.0597096E-001, 7.0642223E-002, 5.4572706E-002, 7.8619691E-003, 8.1307903E-002, 2.2553450E-003, 2.1874656E+002
 1.3300310E+002, 1.0603563E-001, 7.0390779E-002, 5.4488205E-002, 7.9096225E-003, 8.2057852E-002, 2.2636712E-003, 2.1759054E+002
 1.3401021E+002, 1.0597607E-001, 7.0148982E-002, 5.4517228E-002, 8.0419151E-003, 8.2602889E-002, 2.2903861E-003, 2.1792611E+002
 1.3500288E+002, 1.0601590E-001, 6.9940501E-002, 5.4458765E-002, 8.0905393E-003, 8.3210296E-002, 2.2992613E-003, 2.1753921E+002
 1.3601204E+002, 1.0592851E-001, 6.9861231E-002, 5.4467037E-002, 8.1342150E-003, 8.3679288E-002, 2.3080869E-003, 2.1864112E+002
 1.3700414E+002, 1.0575328E-001, 6.9476050E-002, 5.4550378E-002, 8.3747791E-003, 8.4652319E-002, 2.3570967E-003, 2.1977401E+002
 1.3801356E+002, 1.0583662E-001, 6.9344064E-002, 5.4505581E-002, 8.3985427E-003, 8.4842993E-002, 2.3611957E-003, 2.1827455E+002
 1.3900165E+002, 1.0582339E-001, 6.9290807E-002, 5.4508418E-002, 8.4249677E-003, 8.4985573E-002, 2.3664929E-003, 2.1801212E+002
 1.4001121E+002, 1.0586576E-001, 6.9045269E-002, 5.4496301E-002, 8.5256462E-003, 8.5368346E-002, 2.3863371E-003, 2.1765301E+002
 1.4100649E+002, 1.0581858E-001, 6.8809099E-002, 5.4493344E-002, 8.6307513E-003, 8.6048851E-002, 2.4072145E-003, 2.1748769E+002
 1.4201351E+002, 1.0589061E-001, 6.8819825E-002, 5.4458012E-002, 8.5976020E-003, 8.5946584E-002, 2.4001263E-003, 2.1705182E+002
 1.4301098E+002, 1.0588080E-001, 6.8691292E-002, 5.4444037E-002, 8.6450681E-003, 8.6327463E-002, 2.4093821E-003, 2.1762758E+002
 1.4400565E+002, 1.0601145E-001, 6.8393576E-002, 5.4314915E-002, 8.6782920E-003, 8.7170240E-002, 2.4142207E-003, 2.1618810E+002
 1.4500154E+002, 1.0617779E-001, 6.8314113E-002, 5.4127501E-002, 8.5679303E-003, 8.7795147E-002, 2.3897164E-003, 2.1546418E+002
 1.4601254E+002, 1.0620878E-001, 6.8301171E-002, 5.4157400E-002, 8.5960254E-003, 8.7506422E-002, 2.3956916E-003, 2.1402574E+002
 1.4700764E+002, 1.0646398E-001, 6.8258457E-002, 5.4004705E-002, 8.4939629E-003, 8.7473710E-002, 2.3732705E-003, 2.1576072E+002
 1.4801070E+002, 1.0637708E-001, 6.8194691E-002, 5.3984694E-002, 8.5090406E-003, 8.8085326E-002, 2.3760315E-003, 2.1344742E+002
 1.4900779E+002, 1.0642481E-001, 6.8002068E-002, 5.3839107E-002, 8.4838370E-003, 8.9168200E-002, 2.3690603E-003, 2.1270898E+002
 1.5000827E+002, 1.0642470E-001, 6.7782537E-002, 5.3908419E-002, 8.6357576E-003, 8.9172214E-002, 2.4001956E-003, 2.1486806E+002
 1.5100545E+002, 1.0647300E-001, 6.7784868E-002, 5.3947395E-002, 8.6635768E-003, 8.8724986E-002, 2.4062312E-003, 2.1585632E+002
 1.5200624E+002, 1.0638078E-001, 6.7615160E-002, 5.4024051E-002, 8.8003417E-003, 8.8968842E-002, 2.4344823E-003, 2.1581496E+002
 1.5301289E+002, 1.0628931E-001, 6.7377230E-002, 5.3977974E-002, 8.8741309E-003, 9.0104413E-002, 2.4485721E-003, 2.1496926E+002
 1.5401144E+002, 1.0642892E-001, 6.7205394E-002, 5.3885959E-002, 8.8787655E-003, 9.0431812E-002, 2.4482177E-003, 2.1611615E+002
