s,,,,,,,
Time,"O2 EXHAUST","CO2 EXHAUST","H2O EXHAUST","CO EXHAUST","FUEL EXHAUST","SOOT EXHAUST","TEMP EXHAUST"
 0.0000000E+000, 2.3099739E-001, 5.9146498E-004, 5.9412092E-003, 0.0000000E+000, 0.0000000E+000, 0.0000000E+000, 2.0000000E+001
 1.0023677E+000, 2.3099739E-001, 5.9146498E-004, 5.9412092E-003, 2.7445473E-032, 1.7434993E-031, 3.3936266E-032, 2.0478565E+001
 2.0046666E+000, 2.2507314E-001, 6.0670810E-003, 7.5281546E-003, 1.7488125E-005, 1.6633215E-004, 3.6463525E-004, 7.8114917E+001
 3.0000615E+000, 2.2202322E-001, 8.8769339E-003, 8.3533836E-003, 4.5712539E-005, 1.9242113E-004, 5.5587599E-004, 1.0365532E+002
 4.0022864E+000, 2.1710083E-001, 1.3419053E-002, 9.6786802E-003, 7.5970722E-005, 2.8218338E-004, 8.6172293E-004, 1.4839057E+002
 5.0045041E+000, 2.1415356E-001, 1.6124287E-002, 1.0475732E-002, 1.0802600E-004, 3.2863555E-004, 1.0468908E-003, 1.7308812E+002
 6.0026872E+000, 2.1121393E-001, 1.8845683E-002, 1.1267720E-002, 1.2217760E-004, 3.6196460E-004, 1.2292844E-003, 1.9651752E+002
 7.0048521E+000, 2.0684154E-001, 2.2899442E-002, 1.2444839E-002, 1.3844693E-004, 4.0920826E-004, 1.4999440E-003, 2.2969735E+002
 8.0061215E+000, 2.0369291E-001, 2.5827155E-002, 1.3295201E-002, 1.5018380E-004, 4.0365583E-004, 1.6954159E-003, 2.5119024E+002
 9.0076181E+000, 2.0103686E-001, 2.8275998E-002, 1.4014083E-002, 1.7413838E-004, 4.2113196E-004, 1.8619478E-003, 2.6829534E+002
 1.0006836E+001, 1.9741266E-001, 3.1646820E-002, 1.4992590E-002, 1.8664591E-004, 4.1586972E-004, 2.0867887E-003, 2.9045949E+002
 1.1007254E+001, 1.9115000E-001, 3.7480204E-002, 1.6685448E-002, 2.0702582E-004, 3.7364506E-004, 2.4756152E-003, 3.1985331E+002
 1.2002155E+001, 1.8832007E-001, 4.0125552E-002, 1.7449668E-002, 2.0983784E-004, 3.4494549E-004, 2.6505627E-003, 3.3190029E+002
 1.3000645E+001, 1.8485103E-001, 4.3363747E-002, 1.8386394E-002, 2.1563118E-004, 3.1850473E-004, 2.8652222E-003, 3.4631840E+002
 1.4006818E+001, 1.8088215E-001, 4.7076705E-002, 1.9457155E-002, 2.1618111E-004, 2.8252133E-004, 3.1100468E-003, 3.6370133E+002
 1.5001044E+001, 1.7679489E-001, 5.0902802E-002, 2.0559179E-002, 2.1427452E-004, 2.4751759E-004, 3.3618014E-003, 3.7212610E+002
 1.6002733E+001, 1.7505441E-001, 5.2534505E-002, 2.1028895E-002, 2.1289771E-004, 2.2430749E-004, 3.4690452E-003, 3.7793704E+002
 1.7000238E+001, 1.7071721E-001, 5.6598388E-002, 2.2197895E-002, 2.0807855E-004, 1.8426300E-004, 3.7358467E-003, 3.8815136E+002
 1.8001809E+001, 1.6826591E-001, 5.8894580E-002, 2.2858548E-002, 2.0562748E-004, 1.6313272E-004, 3.8866543E-003, 3.9225619E+002
 1.9002849E+001, 1.6561498E-001, 6.1380720E-002, 2.3572629E-002, 2.0072020E-004, 1.3858501E-004, 4.0494539E-003, 3.9810757E+002
 2.0000629E+001, 1.6293332E-001, 6.3890887E-002, 2.4295558E-002, 1.9935426E-004, 1.1688183E-004, 4.2145966E-003, 4.0208778E+002
 2.1007865E+001, 1.6124916E-001, 6.5467106E-002, 2.4749486E-002, 1.9846765E-004, 1.0448212E-004, 4.3182891E-003, 4.0381394E+002
 2.2002239E+001, 1.6028505E-001, 6.6371051E-002, 2.5009126E-002, 1.9670197E-004, 9.6537746E-005, 4.3774861E-003, 4.0160875E+002
 2.3000201E+001, 1.5907935E-001, 6.7502786E-002, 2.5333756E-002, 1.9367376E-004, 8.5012130E-005, 4.4514250E-003, 4.0294513E+002
 2.4006584E+001, 1.5602511E-001, 7.0356307E-002, 2.6157003E-002, 1.9484933E-004, 7.0807622E-005, 4.6397422E-003, 4.0454862E+002
 2.5004417E+001, 1.5513372E-001, 7.1193443E-002, 2.6396927E-002, 1.9223923E-004, 6.2243021E-005, 4.6943549E-003, 4.0771085E+002
 2.6003387E+001, 1.5408990E-001, 7.2169292E-002, 2.6678209E-002, 1.9217614E-004, 5.6964834E-005, 4.7586560E-003, 4.0683703E+002
 2.7004607E+001, 1.5248018E-001, 7.3674421E-002, 2.7111979E-002, 1.9193917E-004, 4.8488067E-005, 4.8578027E-003, 4.0874961E+002
 2.8004817E+001, 1.5101677E-001, 7.5040500E-002, 2.7506420E-002, 1.9311682E-004, 4.3798076E-005, 4.9480885E-003, 4.0921797E+002
 2.9007520E+001, 1.5151162E-001, 7.4580752E-002, 2.7372796E-002, 1.9110188E-004, 4.3797062E-005, 4.9173561E-003, 4.0864021E+002
 3.0005527E+001, 1.4977902E-001, 7.6196617E-002, 2.7839913E-002, 1.9352109E-004, 3.9771698E-005, 5.0243707E-003, 4.0664097E+002
 3.1005095E+001, 1.4885467E-001, 7.7057513E-002, 2.8089250E-002, 1.9567383E-004, 3.8471169E-005, 5.0815710E-003, 4.0494803E+002
 3.2003606E+001, 1.4768677E-001, 7.8148253E-002, 2.8403837E-002, 1.9598082E-004, 3.5713058E-005, 5.1535235E-003, 4.0775169E+002
 3.3001519E+001, 1.4700662E-001, 7.8782549E-002, 2.8587207E-002, 1.9694275E-004, 3.4155709E-005, 5.1955340E-003, 4.0734440E+002
 3.4000249E+001, 1.4488373E-001, 8.0760566E-002, 2.9159716E-002, 2.0120178E-004, 3.0909002E-005, 5.3268114E-003, 4.0952042E+002
 3.5007649E+001, 1.4477595E-001, 8.0859778E-002, 2.9188829E-002, 2.0215916E-004, 3.2414635E-005, 5.3335554E-003, 4.0707624E+002
 3.6004133E+001, 1.4488402E-001, 8.0761027E-002, 2.9159402E-002, 2.0039380E-004, 3.1795902E-005, 5.3266685E-003, 4.0603092E+002
 3.7002114E+001, 1.4394567E-001, 8.1637391E-002, 2.9412230E-002, 2.0076089E-004, 2.8860039E-005, 5.3845053E-003, 4.0612877E+002
 3.8005431E+001, 1.4231559E-001, 8.3155200E-002, 2.9851839E-002, 2.0459778E-004, 2.8142053E-005, 5.4853614E-003, 4.0759142E+002
 3.9007349E+001, 1.4123019E-001, 8.4166234E-002, 3.0144480E-002, 2.0680704E-004, 2.7639097E-005, 5.5524689E-003, 4.0804260E+002
 4.0006539E+001, 1.3947149E-001, 8.5806087E-002, 3.0618656E-002, 2.0949517E-004, 2.3976662E-005, 5.6611222E-003, 4.0834014E+002
 4.1006223E+001, 1.3955902E-001, 8.5721889E-002, 3.0595299E-002, 2.1118912E-004, 2.6410765E-005, 5.6559363E-003, 4.0534784E+002
 4.2002614E+001, 1.3918960E-001, 8.6067806E-002, 3.0694627E-002, 2.1048375E-004, 2.5589155E-005, 5.6785832E-003, 4.0639248E+002
 4.3001935E+001, 1.3837794E-001, 8.6823685E-002, 3.0913529E-002, 2.1234259E-004, 2.4947161E-005, 5.7287991E-003, 4.0887397E+002
 4.4005866E+001, 1.3770751E-001, 8.7446239E-002, 3.1094517E-002, 2.1516403E-004, 2.5920626E-005, 5.7704345E-003, 4.0688239E+002
 4.5005695E+001, 1.3729646E-001, 8.7829794E-002, 3.1205274E-002, 2.1551704E-004, 2.5200975E-005, 5.7957890E-003, 4.0776937E+002
 4.6000266E+001, 1.3697035E-001, 8.8134671E-002, 3.1293059E-002, 2.1533455E-004, 2.4391036E-005, 5.8158432E-003, 4.0484909E+002
 4.7000886E+001, 1.3631348E-001, 8.8746670E-002, 3.1470089E-002, 2.1647499E-004, 2.4548819E-005, 5.8564225E-003, 4.0685690E+002
 4.8007064E+001, 1.3576347E-001, 8.9259241E-002, 3.1618258E-002, 2.1724960E-004, 2.4990304E-005, 5.8903704E-003, 4.0832566E+002
 4.9003456E+001, 1.3534377E-001, 8.9649421E-002, 3.1731558E-002, 2.1876710E-004, 2.4827608E-005, 5.9164112E-003, 4.0700814E+002
 5.0003881E+001, 1.3526030E-001, 8.9728253E-002, 3.1753810E-002, 2.1790938E-004, 2.5211812E-005, 5.9214228E-003, 4.0612250E+002
 5.1006828E+001, 1.3376938E-001, 9.1115067E-002, 3.2156077E-002, 2.2251777E-004, 2.5291769E-005, 6.0138110E-003, 4.0636841E+002
 5.2006443E+001, 1.3254133E-001, 9.2259870E-002, 3.2487135E-002, 2.2445589E-004, 2.3596693E-005, 6.0896766E-003, 4.0791687E+002
 5.3000514E+001, 1.3258336E-001, 9.2218034E-002, 3.2476159E-002, 2.2645096E-004, 2.5034326E-005, 6.0873472E-003, 4.0832048E+002
 5.4007238E+001, 1.3277566E-001, 9.2040808E-002, 3.2423922E-002, 2.2434982E-004, 2.5363659E-005, 6.0752163E-003, 4.0681333E+002
 5.5002706E+001, 1.3217345E-001, 9.2603785E-002, 3.2586035E-002, 2.2403359E-004, 2.3896025E-005, 6.1122523E-003, 4.0796966E+002
 5.6003312E+001, 1.3161389E-001, 9.3125906E-002, 3.2736881E-002, 2.2464872E-004, 2.2270711E-005, 6.1467953E-003, 4.1100445E+002
 5.7005268E+001, 1.3082044E-001, 9.3864784E-002, 3.2950840E-002, 2.2643332E-004, 2.1976979E-005, 6.1958749E-003, 4.0891922E+002
 5.8001407E+001, 1.3074695E-001, 9.3933149E-002, 3.2970566E-002, 2.2648042E-004, 2.2892733E-005, 6.2003907E-003, 4.0830514E+002
 5.9005696E+001, 1.3033048E-001, 9.4320980E-002, 3.3082799E-002, 2.2729228E-004, 2.3398697E-005, 6.2261254E-003, 4.0772790E+002
 6.0003589E+001, 1.3007251E-001, 9.4559987E-002, 3.3152417E-002, 2.2863292E-004, 2.4917797E-005, 6.2421650E-003, 4.0709250E+002
 6.1003317E+001, 1.2850489E-001, 9.6021420E-002, 3.3575144E-002, 2.3128646E-004, 2.1446556E-005, 6.3390518E-003, 4.0886101E+002
 6.2005757E+001, 1.2788664E-001, 9.6595387E-002, 3.3741985E-002, 2.3385476E-004, 2.3131926E-005, 6.3774308E-003, 4.0955394E+002
 6.3005553E+001, 1.2749878E-001, 9.6954967E-002, 3.3846821E-002, 2.3602993E-004, 2.3525457E-005, 6.4015959E-003, 4.0757154E+002
 6.4000763E+001, 1.2794990E-001, 9.6534970E-002, 3.3725096E-002, 2.3482821E-004, 2.4241230E-005, 6.3736577E-003, 4.0753263E+002
 6.5003716E+001, 1.2761977E-001, 9.6844670E-002, 3.3813950E-002, 2.3403911E-004, 2.1697912E-005, 6.3938997E-003, 4.0984880E+002
 6.6002015E+001, 1.2714311E-001, 9.7288101E-002, 3.3942490E-002, 2.3536492E-004, 2.2229129E-005, 6.4234089E-003, 4.1099175E+002
 6.7004208E+001, 1.2739628E-001, 9.7051555E-002, 3.3874262E-002, 2.3529599E-004, 2.3333282E-005, 6.4078043E-003, 4.0664648E+002
 6.8000133E+001, 1.2609065E-001, 9.8267777E-002, 3.4226362E-002, 2.3807127E-004, 2.1915199E-005, 6.4885563E-003, 4.0992355E+002
 6.9001200E+001, 1.2655044E-001, 9.7839147E-002, 3.4102332E-002, 2.3721051E-004, 2.3320145E-005, 6.4601223E-003, 4.0842060E+002
 7.0004485E+001, 1.2495640E-001, 9.9324119E-002, 3.4532128E-002, 2.4040845E-004, 2.2172627E-005, 6.5586773E-003, 4.1077862E+002
 7.1008904E+001, 1.2500478E-001, 9.9278950E-002, 3.4519169E-002, 2.4051367E-004, 2.1583645E-005, 6.5557229E-003, 4.0621318E+002
 7.2001322E+001, 1.2532157E-001, 9.8985690E-002, 3.4433570E-002, 2.3854769E-004, 2.0275000E-005, 6.5359736E-003, 4.1259703E+002
 7.3007337E+001, 1.2513964E-001, 9.9152961E-002, 3.4482728E-002, 2.4030034E-004, 2.3037913E-005, 6.5473737E-003, 4.0814030E+002
 7.4003834E+001, 1.2513912E-001, 9.9153725E-002, 3.4482846E-002, 2.4010964E-004, 2.2776262E-005, 6.5473832E-003, 4.1020498E+002
 7.5008531E+001, 1.2594738E-001, 9.8400185E-002, 3.4264817E-002, 2.3863338E-004, 2.5258743E-005, 6.4974035E-003, 4.0828308E+002
 7.6008658E+001, 1.2571600E-001, 9.8617099E-002, 3.4327126E-002, 2.3821829E-004, 2.3442971E-005, 6.5116105E-003, 4.0556974E+002
 7.7001755E+001, 1.2463187E-001, 9.9627054E-002, 3.4619485E-002, 2.4047515E-004, 2.2190910E-005, 6.5786570E-003, 4.1012255E+002
 7.8004619E+001, 1.2545020E-001, 9.8863089E-002, 3.4398829E-002, 2.3969973E-004, 2.5742737E-005, 6.5281406E-003, 4.0910853E+002
 7.9004164E+001, 1.2398788E-001, 1.0022626E-001, 3.4793064E-002, 2.4205569E-004, 2.3524977E-005, 6.6184878E-003, 4.0792472E+002
 8.0008453E+001, 1.2402850E-001, 1.0018949E-001, 3.4782100E-002, 2.4137070E-004, 2.1806090E-005, 6.6159175E-003, 4.0847610E+002
 8.1004891E+001, 1.2341360E-001, 1.0076163E-001, 3.4947994E-002, 2.4315765E-004, 2.1680684E-005, 6.6540079E-003, 4.1002816E+002
 8.2008289E+001, 1.2368866E-001, 1.0050361E-001, 3.4873936E-002, 2.4375533E-004, 2.3997583E-005, 6.6371314E-003, 4.0884008E+002
 8.3005131E+001, 1.2374777E-001, 1.0045077E-001, 3.4857782E-002, 2.4205044E-004, 2.2134341E-005, 6.6332831E-003, 4.0827435E+002
 8.4003809E+001, 1.2286351E-001, 1.0127457E-001, 3.5096200E-002, 2.4379533E-004, 2.1440904E-005, 6.6879510E-003, 4.0944663E+002
 8.5006441E+001, 1.2276533E-001, 1.0136546E-001, 3.5122785E-002, 2.4449844E-004, 2.1329792E-005, 6.6940923E-003, 4.0994131E+002
 8.6008564E+001, 1.2325495E-001, 1.0090960E-001, 3.4990711E-002, 2.4327182E-004, 2.1797421E-005, 6.6637851E-003, 4.0849353E+002
 8.7009235E+001, 1.2356996E-001, 1.0061743E-001, 3.4905599E-002, 2.4163494E-004, 2.1374411E-005, 6.6441779E-003, 4.0764467E+002
 8.8002333E+001, 1.2251601E-001, 1.0159836E-001, 3.5189874E-002, 2.4442166E-004, 2.1289509E-005, 6.7094249E-003, 4.0792016E+002
 8.9005040E+001, 1.2179180E-001, 1.0227226E-001, 3.5385278E-002, 2.4652089E-004, 2.0826312E-005, 6.7542898E-003, 4.1117554E+002
 9.0005176E+001, 1.2202498E-001, 1.0205549E-001, 3.5322313E-002, 2.4564288E-004, 2.1040131E-005, 6.7398150E-003, 4.0953510E+002
 9.1008229E+001, 1.2265837E-001, 1.0146421E-001, 3.5151611E-002, 2.4517691E-004, 2.2947897E-005, 6.7007459E-003, 4.0706643E+002
 9.2005892E+001, 1.2155001E-001, 1.0249790E-001, 3.5450406E-002, 2.4668082E-004, 2.0552659E-005, 6.7691951E-003, 4.0999283E+002
 9.3005688E+001, 1.2142585E-001, 1.0261250E-001, 3.5484013E-002, 2.4773503E-004, 2.1172543E-005, 6.7769740E-003, 4.1107877E+002
 9.4004960E+001, 1.2226819E-001, 1.0182775E-001, 3.5256686E-002, 2.4570981E-004, 2.3754537E-005, 6.7248196E-003, 4.1020303E+002
 9.5005610E+001, 1.2141992E-001, 1.0261952E-001, 3.5485340E-002, 2.4645900E-004, 2.1036512E-005, 6.7771634E-003, 4.0991494E+002
 9.6004942E+001, 1.2122021E-001, 1.0280485E-001, 3.5539149E-002, 2.4718732E-004, 2.2459663E-005, 6.7895336E-003, 4.0941150E+002
 9.7003893E+001, 1.2142488E-001, 1.0261495E-001, 3.5483980E-002, 2.4638275E-004, 2.1135813E-005, 6.7768457E-003, 4.1144415E+002
 9.8003079E+001, 1.2046470E-001, 1.0350816E-001, 3.5743059E-002, 2.4933245E-004, 2.0973333E-005, 6.8363462E-003, 4.1038483E+002
 9.9005513E+001, 1.2022041E-001, 1.0373625E-001, 3.5808882E-002, 2.4946177E-004, 2.0288735E-005, 6.8514069E-003, 4.1166478E+002
 1.0000066E+002, 1.2215351E-001, 1.0193320E-001, 3.5287659E-002, 2.4678282E-004, 2.5606142E-005, 6.7319997E-003, 4.0795954E+002
 1.0100414E+002, 1.2116218E-001, 1.0285934E-001, 3.5554741E-002, 2.4697133E-004, 2.2201185E-005, 6.7930789E-003, 4.0797795E+002
 1.0200759E+002, 1.2088390E-001, 1.0311839E-001, 3.5629880E-002, 2.4781982E-004, 2.1338611E-005, 6.8103336E-003, 4.0988976E+002
 1.0300180E+002, 1.2042628E-001, 1.0354307E-001, 3.5753486E-002, 2.5000496E-004, 2.1821770E-005, 6.8387915E-003, 4.0837382E+002
 1.0400693E+002, 1.2059016E-001, 1.0339048E-001, 3.5709222E-002, 2.4950100E-004, 2.2534681E-005, 6.8286266E-003, 4.0799054E+002
 1.0500181E+002, 1.2050765E-001, 1.0346678E-001, 3.5731502E-002, 2.5003020E-004, 2.3154297E-005, 6.8337689E-003, 4.0920752E+002
 1.0600494E+002, 1.2029256E-001, 1.0366875E-001, 3.5789377E-002, 2.4938356E-004, 2.1294384E-005, 6.8469414E-003, 4.1073733E+002
 1.0700718E+002, 1.2062400E-001, 1.0336088E-001, 3.5699942E-002, 2.4811416E-004, 2.0628747E-005, 6.8263783E-003, 4.0840951E+002
 1.0800747E+002, 1.1991871E-001, 1.0401803E-001, 3.5890142E-002, 2.4952533E-004, 1.9602760E-005, 6.8699914E-003, 4.1056774E+002
 1.0900810E+002, 1.2038612E-001, 1.0358121E-001, 3.5764242E-002, 2.4956575E-004, 2.1220731E-005, 6.8412107E-003, 4.1068729E+002
 1.1000323E+002, 1.2032481E-001, 1.0363872E-001, 3.5780679E-002, 2.4930656E-004, 2.1322653E-005, 6.8449459E-003, 4.1078971E+002
 1.1100426E+002, 1.2035679E-001, 1.0360988E-001, 3.5771924E-002, 2.4849984E-004, 2.0920670E-005, 6.8428716E-003, 4.0987440E+002
 1.1200917E+002, 1.1970000E-001, 1.0422108E-001, 3.5949168E-002, 2.5044136E-004, 2.0156270E-005, 6.8835700E-003, 4.1029323E+002
 1.1300289E+002, 1.2003747E-001, 1.0390656E-001, 3.5858184E-002, 2.4984922E-004, 2.0550156E-005, 6.8627145E-003, 4.1280562E+002
 1.1400810E+002, 1.1975620E-001, 1.0416817E-001, 3.5934074E-002, 2.5072885E-004, 2.0621361E-005, 6.8801450E-003, 4.1065323E+002
 1.1500104E+002, 1.2005706E-001, 1.0388898E-001, 3.5852807E-002, 2.4928356E-004, 2.0284406E-005, 6.8614341E-003, 4.1009893E+002
 1.1600434E+002, 1.2004752E-001, 1.0389785E-001, 3.5855352E-002, 2.4926220E-004, 2.0580657E-005, 6.8620145E-003, 4.0789330E+002
 1.1700390E+002, 1.1990621E-001, 1.0402913E-001, 3.5893488E-002, 2.4980573E-004, 2.0754646E-005, 6.8707830E-003, 4.0867176E+002
 1.1800334E+002, 1.1930523E-001, 1.0458852E-001, 3.6055657E-002, 2.5148745E-004, 1.9963041E-005, 6.9080113E-003, 4.1066975E+002
 1.1900190E+002, 1.2006544E-001, 1.0388139E-001, 3.5850492E-002, 2.4905363E-004, 2.0426937E-005, 6.8608846E-003, 4.1000865E+002
 1.2000713E+002, 1.1983867E-001, 1.0409240E-001, 3.5911690E-002, 2.4973050E-004, 2.0192872E-005, 6.8749372E-003, 4.0982200E+002
 1.2100425E+002, 1.1977863E-001, 1.0414821E-001, 3.5927919E-002, 2.4999305E-004, 1.9989276E-005, 6.8786713E-003, 4.1049887E+002
 1.2200592E+002, 1.2003346E-001, 1.0390982E-001, 3.5859166E-002, 2.4994439E-004, 2.2322012E-005, 6.8629499E-003, 4.1035443E+002
 1.2300147E+002, 1.1963787E-001, 1.0427874E-001, 3.5965886E-002, 2.5062390E-004, 2.0784397E-005, 6.8874096E-003, 4.1102346E+002
 1.2400850E+002, 1.1923140E-001, 1.0465736E-001, 3.6075476E-002, 2.5144832E-004, 2.0623818E-005, 6.9125401E-003, 4.1050489E+002
 1.2500340E+002, 1.1933744E-001, 1.0455834E-001, 3.6046944E-002, 2.5147211E-004, 2.0569139E-005, 6.9060186E-003, 4.1007191E+002
 1.2600757E+002, 1.2009013E-001, 1.0385763E-001, 3.5843913E-002, 2.4955249E-004, 2.1047349E-005, 6.8594257E-003, 4.1113552E+002
 1.2700801E+002, 1.1915155E-001, 1.0473023E-001, 3.6097219E-002, 2.5280737E-004, 2.1275938E-005, 6.9176338E-003, 4.1195645E+002
 1.2800552E+002, 1.1927698E-001, 1.0461474E-001, 3.6063212E-002, 2.5148837E-004, 2.0712071E-005, 6.9097398E-003, 4.1041192E+002
 1.2900091E+002, 1.1904348E-001, 1.0483015E-001, 3.6126368E-002, 2.5345579E-004, 2.2399261E-005, 6.9243581E-003, 4.0851449E+002
 1.3000440E+002, 1.1920117E-001, 1.0468602E-001, 3.6083495E-002, 2.5101130E-004, 2.0948148E-005, 6.9143352E-003, 4.1099567E+002
 1.3100189E+002, 1.1908894E-001, 1.0478959E-001, 3.6113917E-002, 2.5205107E-004, 2.1079202E-005, 6.9213839E-003, 4.0971314E+002
 1.3200920E+002, 1.1952166E-001, 1.0438690E-001, 3.5997142E-002, 2.5077481E-004, 2.1610941E-005, 6.8945706E-003, 4.1067820E+002
 1.3300089E+002, 1.2009022E-001, 1.0385547E-001, 3.5843994E-002, 2.5086653E-004, 2.3708567E-005, 6.8595652E-003, 4.1199936E+002
 1.3400790E+002, 1.2020833E-001, 1.0374649E-001, 3.5811997E-002, 2.4979252E-004, 2.3340240E-005, 6.8521527E-003, 4.1084805E+002
 1.3500496E+002, 1.1956930E-001, 1.0434172E-001, 3.5984354E-002, 2.5121759E-004, 2.2513800E-005, 6.8916876E-003, 4.0824109E+002
 1.3600549E+002, 1.1832382E-001, 1.0550051E-001, 3.6320463E-002, 2.5502660E-004, 2.1514001E-005, 6.9688761E-003, 4.0967666E+002
 1.3700246E+002, 1.1856444E-001, 1.0527670E-001, 3.6255511E-002, 2.5422407E-004, 2.1760484E-005, 6.9539537E-003, 4.1107740E+002
 1.3800330E+002, 1.1888320E-001, 1.0498037E-001, 3.6169450E-002, 2.5304874E-004, 2.1925345E-005, 6.9341715E-003, 4.0901453E+002
 1.3900502E+002, 1.1852244E-001, 1.0531720E-001, 3.6266654E-002, 2.5324527E-004, 2.0994040E-005, 6.9564131E-003, 4.1048723E+002
 1.4000342E+002, 1.1909473E-001, 1.0478474E-001, 3.6112322E-002, 2.5168217E-004, 2.0451155E-005, 6.9209854E-003, 4.1171426E+002
 1.4100074E+002, 1.1876206E-001, 1.0509307E-001, 3.6202151E-002, 2.5344399E-004, 2.1765456E-005, 6.9416837E-003, 4.0871362E+002
 1.4200200E+002, 1.1884900E-001, 1.0501359E-001, 3.6178544E-002, 2.5215361E-004, 2.0690135E-005, 6.9361691E-003, 4.0943663E+002
 1.4300466E+002, 1.2009711E-001, 1.0385057E-001, 3.5842045E-002, 2.4986533E-004, 2.1885940E-005, 6.8590277E-003, 4.1117792E+002
 1.4400266E+002, 1.1895120E-001, 1.0491818E-001, 3.6151057E-002, 2.5218205E-004, 2.0516769E-005, 6.9298868E-003, 4.1019298E+002
 1.4500175E+002, 1.1920868E-001, 1.0467824E-001, 3.6081587E-002, 2.5162383E-004, 2.1236160E-005, 6.9139539E-003, 4.1254949E+002
 1.4600429E+002, 1.1838166E-001, 1.0544889E-001, 3.6304652E-002, 2.5330090E-004, 1.9568341E-005, 6.9651041E-003, 4.1032603E+002
 1.4700679E+002, 1.1892802E-001, 1.0493931E-001, 3.6157350E-002, 2.5255387E-004, 2.0904155E-005, 6.9313595E-003, 4.0788954E+002
 1.4800221E+002, 1.1873906E-001, 1.0511397E-001, 3.6208438E-002, 2.5392055E-004, 2.1883283E-005, 6.9431639E-003, 4.1091767E+002
 1.4900133E+002, 1.1930531E-001, 1.0458755E-001, 3.6055603E-002, 2.5191757E-004, 2.1852872E-005, 6.9080398E-003, 4.0944539E+002
 1.5000403E+002, 1.1871210E-001, 1.0514038E-001, 3.6215511E-002, 2.5293153E-004, 2.1418442E-005, 6.9446921E-003, 4.1017809E+002
 1.5100628E+002, 1.1900402E-001, 1.0486801E-001, 3.6136831E-002, 2.5262997E-004, 2.2073853E-005, 6.9266763E-003, 4.1096211E+002
 1.5200024E+002, 1.1872369E-001, 1.0512928E-001, 3.6212317E-002, 2.5295081E-004, 2.2568684E-005, 6.9439651E-003, 4.0876112E+002
 1.5300865E+002, 1.1889768E-001, 1.0496969E-001, 3.6165175E-002, 2.5084822E-004, 2.0462018E-005, 6.9329955E-003, 4.0957975E+002
 1.5400918E+002, 1.1898815E-001, 1.0488375E-001, 3.6140968E-002, 2.5189136E-004, 2.1679667E-005, 6.9275557E-003, 4.1087917E+002
