s,,,,,,,
Time,O2 EXHAUST,CO2 EXHAUST,H2O EXHAUST,CO EXHAUST,FUEL EXHAUST,SOOT EXHAUST,TEMP EXHAUST
 0.0000000E+000, 2.3099739E-001, 5.9146498E-004, 5.9412092E-003, 0.0000000E+000, 0.0000000E+000, 0.0000000E+000, 2.0000000E+001
 1.0039088E+000, 2.3099739E-001, 5.9146498E-004, 5.9412092E-003, 5.6954930E-025, 3.5714643E-025, 1.5081566E-024, 2.2972451E+001
 2.0003371E+000, 2.1662134E-001, 1.1296429E-002, 1.2160467E-002, 1.7883821E-004, 2.6520117E-004, 1.2304595E-004, 1.5899033E+002
 3.0059493E+000, 2.0275916E-001, 2.1836008E-002, 1.8128051E-002, 2.3241811E-004, 2.6951275E-004, 2.1792632E-004, 2.7941295E+002
 4.0003651E+000, 1.8848638E-001, 3.2896844E-002, 2.4227117E-002, 1.6038210E-004, 1.3691515E-004, 2.8999797E-004, 3.7711077E+002
 5.0010073E+000, 1.7186922E-001, 4.5731718E-002, 3.1334191E-002, 1.0022988E-004, 2.9385580E-005, 3.7865443E-004, 4.6801987E+002
 6.0037702E+000, 1.5587968E-001, 5.7985924E-002, 3.8191762E-002, 9.9309118E-005, 1.3123769E-007, 4.7541623E-004, 5.2032457E+002
 7.0072430E+000, 1.3694908E-001, 7.2446732E-002, 4.6320313E-002, 1.2657107E-004, 5.6825399E-007, 5.9568001E-004, 5.6601316E+002
 8.0080083E+000, 1.2828446E-001, 7.9063409E-002, 5.0041456E-002, 1.4048776E-004, 8.0615866E-007, 6.5101714E-004, 5.7470925E+002
 9.0059788E+000, 1.0601031E-001, 9.6077973E-002, 5.9605725E-002, 1.7274393E-004, 1.6899394E-006, 7.9255785E-004, 6.0428750E+002
 1.0008456E+001, 9.0608052E-002, 1.0785028E-001, 6.6217274E-002, 1.9043246E-004, 7.6473373E-007, 8.8949670E-004, 6.0702413E+002
 1.1006316E+001, 8.1557863E-002, 1.1473970E-001, 7.0110589E-002, 2.1958705E-004, 3.6186737E-006, 9.5025893E-004, 6.2251252E+002
 1.2003545E+001, 7.3375441E-002, 1.2096507E-001, 7.3632046E-002, 2.4857682E-004, 4.1608002E-006, 1.0057317E-003, 6.2101653E+002
 1.3008286E+001, 6.3671075E-002, 1.2842309E-001, 7.7784742E-002, 2.3180033E-004, 2.5254344E-006, 1.0611450E-003, 6.1776776E+002
 1.4008799E+001, 5.3411529E-002, 1.3619637E-001, 8.2210056E-002, 2.9006027E-004, 6.5366873E-006, 1.1351410E-003, 6.2801383E+002
 1.5007571E+001, 4.3460743E-002, 1.4384854E-001, 8.6466932E-002, 2.6977699E-004, 3.1707981E-006, 1.1913387E-003, 6.3230269E+002
 1.6009862E+001, 3.4434890E-002, 1.5072322E-001, 9.0349050E-002, 2.9661901E-004, 2.9730151E-006, 1.2514884E-003, 6.3833560E+002
 1.7000191E+001, 3.6772540E-002, 1.4896855E-001, 8.9335344E-002, 2.7194273E-004, 2.4830048E-006, 1.2323142E-003, 6.2265558E+002
 1.8006732E+001, 2.8465003E-002, 1.5480043E-001, 9.3067315E-002, 6.3698433E-004, 1.0225560E-005, 1.3567241E-003, 6.3662621E+002
 1.9002036E+001, 1.9980759E-002, 1.6171265E-001, 9.6572236E-002, 3.5316558E-004, 3.1676554E-006, 1.3505642E-003, 6.4335082E+002
 2.0000990E+001, 2.1326143E-002, 1.6040836E-001, 9.6080206E-002, 5.3889846E-004, 2.5711368E-005, 1.3800661E-003, 6.2148913E+002
 2.1005514E+001, 1.6239570E-002, 1.6417640E-001, 9.8301730E-002, 6.2673644E-004, 2.9154623E-005, 1.4287128E-003, 6.2393046E+002
 2.2010139E+001, 1.1235433E-002, 1.6841423E-001, 1.0032042E-001, 3.5110484E-004, 4.0452693E-006, 1.4031475E-003, 6.3672299E+002
 2.3002155E+001, 8.0103214E-003, 1.7028195E-001, 1.0189648E-001, 7.6513430E-004, 1.1626464E-005, 1.5066948E-003, 6.3174738E+002
 2.4007880E+001, 8.9334804E-003, 1.6954138E-001, 1.0151238E-001, 7.8882114E-004, 6.2645606E-006, 1.5059137E-003, 6.2285101E+002
 2.5003588E+001, 4.7835941E-003, 1.6978585E-001, 1.0418903E-001, 2.7714241E-003, 3.1535208E-004, 1.9329257E-003, 6.1935822E+002
 2.6006848E+001, 2.2504336E-003, 1.7276104E-001, 1.0497378E-001, 2.0837244E-003, 1.1214825E-004, 1.8090205E-003, 6.1473726E+002
 2.7005586E+001, 1.4405625E-003, 1.7101456E-001, 1.0604589E-001, 3.6836403E-003, 3.5561223E-004, 2.1382299E-003, 6.0656351E+002
 2.8003491E+001, 2.0292218E-004, 1.6843565E-001, 1.0769380E-001, 6.0956810E-003, 4.8991478E-004, 2.6349744E-003, 6.0580581E+002
 2.9000901E+001, 8.5995633E-004, 1.6967286E-001, 1.0685276E-001, 4.8993621E-003, 4.7284257E-004, 2.3882690E-003, 5.9374059E+002
 3.0002198E+001, 9.0778874E-004, 1.6936673E-001, 1.0689726E-001, 5.0683275E-003, 6.0856201E-004, 2.4220742E-003, 5.9798745E+002
 3.1004455E+001, 4.6061499E-004, 1.6502836E-001, 1.0839547E-001, 8.1367242E-003, 1.8735896E-003, 3.0456273E-003, 5.8515570E+002
 3.2006066E+001, 4.0637132E-004, 1.6691709E-001, 1.0795614E-001, 6.9657817E-003, 1.0478914E-003, 2.8095139E-003, 5.8746779E+002
 3.3004387E+001, 5.9406854E-004, 1.6680875E-001, 1.0788267E-001, 6.9552700E-003, 9.3428073E-004, 2.8064025E-003, 5.7654208E+002
 3.4001138E+001, 6.2161872E-004, 1.6372822E-001, 1.0873214E-001, 8.9663094E-003, 1.7157764E-003, 3.2132051E-003, 5.6883389E+002
 3.5009916E+001, 5.6190428E-004, 1.6455895E-001, 1.0855584E-001, 8.4646914E-003, 1.3976640E-003, 3.1122281E-003, 5.6490629E+002
 3.6000122E+001, 4.8896002E-004, 1.6227441E-001, 1.0928551E-001, 1.0032877E-002, 1.7519218E-003, 3.4303777E-003, 5.6304091E+002
 3.7009207E+001, 4.8716874E-004, 1.6154903E-001, 1.0939985E-001, 1.0442042E-002, 2.4983256E-003, 3.5123681E-003, 5.5644870E+002
 3.8004909E+001, 4.8747657E-004, 1.6121498E-001, 1.0956182E-001, 1.0712771E-002, 2.1639023E-003, 3.5677685E-003, 5.5630642E+002
 3.9010576E+001, 4.9404061E-004, 1.6084127E-001, 1.0965913E-001, 1.0952357E-002, 2.2806322E-003, 3.6161800E-003, 5.5798626E+002
 4.0000539E+001, 4.8261179E-004, 1.5874277E-001, 1.1028532E-001, 1.2358640E-002, 2.6460446E-003, 3.9010891E-003, 5.5509231E+002
 4.1009616E+001, 4.6107894E-004, 1.5724274E-001, 1.1061333E-001, 1.3274045E-002, 3.6996671E-003, 4.0854912E-003, 5.4338763E+002
 4.2010515E+001, 5.4568771E-004, 1.5890393E-001, 1.1016302E-001, 1.2193617E-002, 2.8160720E-003, 3.8669837E-003, 5.4534483E+002
 4.3007299E+001, 5.3627639E-004, 1.5746911E-001, 1.1056396E-001, 1.3134688E-002, 3.2401452E-003, 4.0574015E-003, 5.4010408E+002
 4.4008774E+001, 4.0689158E-004, 1.5733760E-001, 1.1048275E-001, 1.3134447E-002, 4.5411356E-003, 4.0563154E-003, 5.4960468E+002
 4.5002094E+001, 4.7045178E-004, 1.5686629E-001, 1.1072737E-001, 1.3527399E-002, 3.7071128E-003, 4.1368324E-003, 5.4033562E+002
 4.6005653E+001, 4.7783732E-004, 1.5392202E-001, 1.1147721E-001, 1.5403088E-002, 4.9153146E-003, 4.5156957E-003, 5.3402953E+002
 4.7007757E+001, 5.1269238E-004, 1.5319513E-001, 1.1169666E-001, 1.5891419E-002, 4.8644509E-003, 4.6146438E-003, 5.3018546E+002
 4.8004960E+001, 4.1590220E-004, 1.5304923E-001, 1.1173930E-001, 1.5990264E-002, 5.2952807E-003, 4.6346841E-003, 5.3768694E+002
 4.9006634E+001, 3.8223047E-004, 1.5339347E-001, 1.1174551E-001, 1.5842264E-002, 4.7122850E-003, 4.6056733E-003, 5.4134142E+002
 5.0002159E+001, 4.5448928E-004, 1.5170084E-001, 1.1210580E-001, 1.6866036E-002, 5.5596390E-003, 4.8117845E-003, 5.2990074E+002
 5.1004119E+001, 4.2735497E-004, 1.5193175E-001, 1.1209787E-001, 1.6757726E-002, 5.2620311E-003, 4.7903883E-003, 5.3193503E+002
 5.2000912E+001, 4.2184556E-004, 1.5113511E-001, 1.1227630E-001, 1.7246957E-002, 5.7709214E-003, 4.8889800E-003, 5.2935253E+002
 5.3002731E+001, 4.7547366E-004, 1.4973778E-001, 1.1267119E-001, 1.8165625E-002, 5.8950954E-003, 5.0748896E-003, 5.2582670E+002
 5.4003411E+001, 3.7515922E-004, 1.4998628E-001, 1.1260785E-001, 1.8009095E-002, 6.2086634E-003, 5.0432969E-003, 5.3462479E+002
 5.5005022E+001, 4.4659501E-004, 1.4883847E-001, 1.1280762E-001, 1.8669369E-002, 6.9643451E-003, 5.1757834E-003, 5.2315214E+002
 5.6004059E+001, 4.2774823E-004, 1.4747730E-001, 1.1324900E-001, 1.9608273E-002, 7.0320236E-003, 5.3663176E-003, 5.2438407E+002
 5.7010846E+001, 4.4021820E-004, 1.4818435E-001, 1.1305418E-001, 1.9146465E-002, 6.7734179E-003, 5.2728978E-003, 5.2622034E+002
 5.8000405E+001, 4.0543660E-004, 1.4755417E-001, 1.1325029E-001, 1.9575417E-002, 6.9640450E-003, 5.3598811E-003, 5.2334745E+002
 5.9010263E+001, 3.8993991E-004, 1.4672476E-001, 1.1351756E-001, 2.0146328E-002, 7.0323678E-003, 5.4757239E-003, 5.2348509E+002
 6.0007657E+001, 3.7294542E-004, 1.4593100E-001, 1.1365714E-001, 2.0605231E-002, 7.8226736E-003, 5.5678374E-003, 5.2455462E+002
 6.1001738E+001, 3.5208144E-004, 1.4551020E-001, 1.1384576E-001, 2.0935052E-002, 7.5848149E-003, 5.6352215E-003, 5.2721981E+002
 6.2007878E+001, 3.8219205E-004, 1.4534407E-001, 1.1382517E-001, 2.0992975E-002, 7.9168021E-003, 5.6463273E-003, 5.2181421E+002
 6.3005900E+001, 3.6188239E-004, 1.4446245E-001, 1.1406732E-001, 2.1568301E-002, 8.2638690E-003, 5.7627051E-003, 5.2159398E+002
 6.4003934E+001, 3.5426762E-004, 1.4395454E-001, 1.1415422E-001, 2.1860069E-002, 8.7708424E-003, 5.8212445E-003, 5.2107741E+002
 6.5000296E+001, 3.1719057E-004, 1.4366957E-001, 1.1428673E-001, 2.2087439E-002, 8.6759321E-003, 5.8677384E-003, 5.2668330E+002
 6.6007616E+001, 3.1711403E-004, 1.4388335E-001, 1.1419237E-001, 2.1921175E-002, 8.8322340E-003, 5.8337830E-003, 5.2110443E+002
 6.7008718E+001, 3.1808440E-004, 1.4358501E-001, 1.1428584E-001, 2.2124406E-002, 8.8459575E-003, 5.8749959E-003, 5.1820646E+002
 6.8008430E+001, 3.0387228E-004, 1.4380480E-001, 1.1425610E-001, 2.2004394E-002, 8.6510790E-003, 5.8510029E-003, 5.2034834E+002
 6.9008182E+001, 3.1252197E-004, 1.4208504E-001, 1.1468419E-001, 2.3092463E-002, 9.3996719E-003, 6.0706847E-003, 5.1763816E+002
 7.0004482E+001, 2.9809393E-004, 1.4246619E-001, 1.1464066E-001, 2.2890212E-002, 8.9695183E-003, 6.0303352E-003, 5.2115744E+002
 7.1006674E+001, 2.8770524E-004, 1.4141592E-001, 1.1488469E-001, 2.3541878E-002, 9.5992141E-003, 6.1617473E-003, 5.1675235E+002
 7.2004977E+001, 2.7796468E-004, 1.4188655E-001, 1.1473202E-001, 2.3217510E-002, 9.6438566E-003, 6.0959257E-003, 5.2087709E+002
 7.3002936E+001, 2.8950332E-004, 1.4165662E-001, 1.1484233E-001, 2.3402764E-002, 9.3737199E-003, 6.1338242E-003, 5.1946918E+002
 7.4004573E+001, 2.7498912E-004, 1.4182390E-001, 1.1480814E-001, 2.3302786E-002, 9.3119825E-003, 6.1137119E-003, 5.2223697E+002
 7.5011200E+001, 2.6335082E-004, 1.4155111E-001, 1.1479145E-001, 2.3411900E-002, 1.0006101E-002, 6.1349511E-003, 5.2129981E+002
 7.6000252E+001, 2.7765019E-004, 1.4120683E-001, 1.1493210E-001, 2.3670879E-002, 9.7650552E-003, 6.1877519E-003, 5.1795198E+002
 7.7000026E+001, 2.9553572E-004, 1.4109397E-001, 1.1498528E-001, 2.3760864E-002, 9.5874940E-003, 6.2061511E-003, 5.1424393E+002
 7.8003704E+001, 2.9416353E-004, 1.3998564E-001, 1.1516982E-001, 2.4393421E-002, 1.0661629E-002, 6.3330090E-003, 5.1963568E+002
 7.9003681E+001, 2.9313106E-004, 1.4049072E-001, 1.1512028E-001, 2.4131213E-002, 9.9661447E-003, 6.2807836E-003, 5.1776124E+002
 8.0003720E+001, 2.8851892E-004, 1.4026222E-001, 1.1519819E-001, 2.4291720E-002, 9.9600476E-003, 6.3133889E-003, 5.1998895E+002
 8.1005910E+001, 2.9254182E-004, 1.4008302E-001, 1.1514833E-001, 2.4333903E-002, 1.0607029E-002, 6.3210183E-003, 5.1900712E+002
 8.2000588E+001, 2.9216012E-004, 1.4054395E-001, 1.1501168E-001, 2.4025737E-002, 1.0533334E-002, 6.2585932E-003, 5.1941124E+002
 8.3000292E+001, 2.9102681E-004, 1.3977782E-001, 1.1524236E-001, 2.4540652E-002, 1.0641323E-002, 6.3629313E-003, 5.2026791E+002
 8.4000153E+001, 3.0397549E-004, 1.3992101E-001, 1.1517975E-001, 2.4429498E-002, 1.0688218E-002, 6.3402326E-003, 5.1667510E+002
 8.5002657E+001, 3.1535222E-004, 1.3978047E-001, 1.1528289E-001, 2.4569558E-002, 1.0285017E-002, 6.3691480E-003, 5.1892626E+002
 8.6009934E+001, 3.6325444E-004, 1.3929310E-001, 1.1534625E-001, 2.4833431E-002, 1.0664933E-002, 6.4218687E-003, 5.1555265E+002
 8.7008729E+001, 3.6535538E-004, 1.3868386E-001, 1.1548942E-001, 2.5212511E-002, 1.0986437E-002, 6.4983257E-003, 5.1804076E+002
 8.8006415E+001, 3.6323901E-004, 1.3867611E-001, 1.1548966E-001, 2.5216189E-002, 1.1009154E-002, 6.4990531E-003, 5.1894132E+002
 8.9003611E+001, 3.7997682E-004, 1.3928252E-001, 1.1538511E-001, 2.4867102E-002, 1.0376884E-002, 6.4290029E-003, 5.2129421E+002
 9.0000626E+001, 3.7696993E-004, 1.3922322E-001, 1.1535364E-001, 2.4869862E-002, 1.0701336E-002, 6.4291270E-003, 5.2290273E+002
 9.1005804E+001, 4.2063187E-004, 1.3948301E-001, 1.1528261E-001, 2.4699886E-002, 1.0440113E-002, 6.3947379E-003, 5.2235127E+002
 9.2005949E+001, 4.0416754E-004, 1.4044083E-001, 1.1501033E-001, 2.4068600E-002, 1.0280298E-002, 6.2669661E-003, 5.2557549E+002
 9.3004944E+001, 4.8330916E-004, 1.3930843E-001, 1.1530870E-001, 2.4796135E-002, 1.0365655E-002, 6.4139924E-003, 5.1841853E+002
 9.4004392E+001, 4.4563738E-004, 1.3933715E-001, 1.1521480E-001, 2.4713311E-002, 1.1043995E-002, 6.3964651E-003, 5.2023146E+002
 9.5000027E+001, 5.4545850E-004, 1.3858318E-001, 1.1536314E-001, 2.5158964E-002, 1.1214559E-002, 6.4860495E-003, 5.1964543E+002
 9.6007384E+001, 5.4505029E-004, 1.3979534E-001, 1.1510404E-001, 2.4424050E-002, 1.0400538E-002, 6.3380688E-003, 5.2346940E+002
 9.7004911E+001, 5.6311046E-004, 1.3844035E-001, 1.1545249E-001, 2.5289533E-002, 1.0874769E-002, 6.5129122E-003, 5.2108833E+002
 9.8003193E+001, 6.1352080E-004, 1.3877701E-001, 1.1532563E-001, 2.5043160E-002, 1.0776450E-002, 6.4627522E-003, 5.1912998E+002
 9.9010290E+001, 5.1776621E-004, 1.3907513E-001, 1.1531753E-001, 2.4906046E-002, 1.0632021E-002, 6.4357128E-003, 5.2852383E+002
 1.0000973E+002, 5.6307089E-004, 1.3867601E-001, 1.1538558E-001, 2.5134204E-002, 1.0818232E-002, 6.4814735E-003, 5.2317556E+002
 1.0100716E+002, 5.7383004E-004, 1.3971398E-001, 1.1499267E-001, 2.4375883E-002, 1.1128666E-002, 6.3271013E-003, 5.2993914E+002
 1.0200601E+002, 6.4157428E-004, 1.3950561E-001, 1.1505123E-001, 2.4511536E-002, 1.0900348E-002, 6.3545361E-003, 5.2774383E+002
 1.0300087E+002, 6.0686188E-004, 1.4046138E-001, 1.1483720E-001, 2.3925364E-002, 1.0461744E-002, 6.2364193E-003, 5.3075283E+002
 1.0400620E+002, 6.0049789E-004, 1.3968368E-001, 1.1507136E-001, 2.4448151E-002, 1.0593087E-002, 6.3423536E-003, 5.2608056E+002
 1.0500775E+002, 6.0122979E-004, 1.4125202E-001, 1.1464761E-001, 2.3430605E-002, 1.0079996E-002, 6.1365953E-003, 5.3391902E+002
 1.0600658E+002, 5.9078030E-004, 1.3967365E-001, 1.1500143E-001, 2.4400127E-002, 1.1084366E-002, 6.3319801E-003, 5.2762235E+002
 1.0700820E+002, 6.2673756E-004, 1.4126396E-001, 1.1464342E-001, 2.3421671E-002, 9.9757783E-003, 6.1347738E-003, 5.3535093E+002
 1.0800782E+002, 6.8691105E-004, 1.3973110E-001, 1.1492095E-001, 2.4312187E-002, 1.1065441E-002, 6.3135798E-003, 5.3050332E+002
 1.0900686E+002, 6.9432522E-004, 1.4001312E-001, 1.1486081E-001, 2.4141169E-002, 1.0843891E-002, 6.2791435E-003, 5.3202080E+002
 1.1000934E+002, 6.4062610E-004, 1.4040903E-001, 1.1482937E-001, 2.3942165E-002, 1.0473533E-002, 6.2396073E-003, 5.3273170E+002
 1.1100231E+002, 8.2204746E-004, 1.3908662E-001, 1.1502392E-001, 2.4674259E-002, 1.1150609E-002, 6.3861103E-003, 5.2337288E+002
 1.1200375E+002, 6.9366109E-004, 1.3857271E-001, 1.1519273E-001, 2.5032585E-002, 1.1667972E-002, 6.4588726E-003, 5.3073310E+002
 1.1300838E+002, 7.0405982E-004, 1.3961549E-001, 1.1486097E-001, 2.4318185E-002, 1.1593596E-002, 6.3139536E-003, 5.2765165E+002
 1.1400323E+002, 6.9001273E-004, 1.4065790E-001, 1.1464474E-001, 2.3691399E-002, 1.0910045E-002, 6.1878134E-003, 5.3267790E+002
 1.1500898E+002, 7.5385798E-004, 1.3914091E-001, 1.1499247E-001, 2.4627645E-002, 1.1520330E-002, 6.3765475E-003, 5.2931583E+002
 1.1600724E+002, 8.6509472E-004, 1.3883502E-001, 1.1501578E-001, 2.4779389E-002, 1.1522028E-002, 6.4066616E-003, 5.2917348E+002
 1.1700842E+002, 7.8134870E-004, 1.3829662E-001, 1.1531019E-001, 2.5242393E-002, 1.1128401E-002, 6.5016693E-003, 5.2951029E+002
 1.1800828E+002, 9.5175640E-004, 1.3833578E-001, 1.1510409E-001, 2.5066631E-002, 1.1610403E-002, 6.4642975E-003, 5.2959326E+002
 1.1901118E+002, 1.0261507E-003, 1.3870454E-001, 1.1504653E-001, 2.4857711E-002, 1.0921369E-002, 6.4224189E-003, 5.2845749E+002
 1.2000064E+002, 1.0716513E-003, 1.3851304E-001, 1.1493903E-001, 2.4861204E-002, 1.1775194E-002, 6.4216565E-003, 5.2803392E+002
 1.2100694E+002, 8.3937351E-004, 1.3848616E-001, 1.1524795E-001, 2.5110061E-002, 1.0892976E-002, 6.4747953E-003, 5.3325771E+002
 1.2200427E+002, 1.0364552E-003, 1.3806188E-001, 1.1519363E-001, 2.5254491E-002, 1.1250994E-002, 6.5024063E-003, 5.2479070E+002
 1.2300910E+002, 8.7471783E-004, 1.3855195E-001, 1.1512660E-001, 2.4988722E-002, 1.1362511E-002, 6.4493027E-003, 5.2789016E+002
 1.2400597E+002, 9.4445138E-004, 1.3761651E-001, 1.1535895E-001, 2.5579000E-002, 1.1501934E-002, 6.5684593E-003, 5.2614808E+002
 1.2500616E+002, 9.0591730E-004, 1.3765646E-001, 1.1524161E-001, 2.5473542E-002, 1.2305859E-002, 6.5461687E-003, 5.2539153E+002
 1.2600637E+002, 8.5156712E-004, 1.3743297E-001, 1.1534980E-001, 2.5655533E-002, 1.2310415E-002, 6.5834198E-003, 5.2598160E+002
 1.2700655E+002, 1.0513912E-003, 1.3657916E-001, 1.1538252E-001, 2.6056747E-002, 1.2975428E-002, 6.6626888E-003, 5.1971010E+002
 1.2801248E+002, 9.1710680E-004, 1.3698876E-001, 1.1545691E-001, 2.5932818E-002, 1.2261409E-002, 6.6393556E-003, 5.2313034E+002
 1.2900879E+002, 1.0940179E-003, 1.3634372E-001, 1.1553761E-001, 2.6277619E-002, 1.2310819E-002, 6.7081783E-003, 5.1828157E+002
 1.3000018E+002, 9.3921044E-004, 1.3721344E-001, 1.1540153E-001, 2.5790652E-002, 1.2063470E-002, 6.6106516E-003, 5.2514212E+002
 1.3100247E+002, 1.0074595E-003, 1.3731265E-001, 1.1533730E-001, 2.5696861E-002, 1.1977453E-002, 6.5913271E-003, 5.2523313E+002
 1.3200351E+002, 1.0372237E-003, 1.3631967E-001, 1.1549943E-001, 2.6260611E-002, 1.2830465E-002, 6.7043439E-003, 5.2324113E+002
 1.3300390E+002, 8.8500800E-004, 1.3717204E-001, 1.1558537E-001, 2.5948535E-002, 1.1238961E-002, 6.6441707E-003, 5.3650723E+002
 1.3401212E+002, 9.3930865E-004, 1.3791570E-001, 1.1518249E-001, 2.5312973E-002, 1.2015140E-002, 6.5137919E-003, 5.2769969E+002
 1.3500043E+002, 9.0335648E-004, 1.3617658E-001, 1.1561622E-001, 2.6414723E-002, 1.2953288E-002, 6.7362546E-003, 5.2504756E+002
 1.3600997E+002, 8.7771207E-004, 1.3649179E-001, 1.1564242E-001, 2.6294555E-002, 1.2271482E-002, 6.7129810E-003, 5.2789529E+002
 1.3700217E+002, 9.7064697E-004, 1.3661126E-001, 1.1543947E-001, 2.6086818E-002, 1.2896969E-002, 6.6693896E-003, 5.2655591E+002
 1.3800280E+002, 1.1328626E-003, 1.3579015E-001, 1.1564118E-001, 2.6601419E-002, 1.2612468E-002, 6.7732234E-003, 5.2195050E+002
 1.3901056E+002, 9.3454937E-004, 1.3667656E-001, 1.1549423E-001, 2.6099631E-002, 1.2580066E-002, 6.6726521E-003, 5.2894775E+002
 1.4000057E+002, 9.7258699E-004, 1.3539094E-001, 1.1576769E-001, 2.6877390E-002, 1.3295009E-002, 6.8292371E-003, 5.1880429E+002
 1.4100804E+002, 9.8702391E-004, 1.3735908E-001, 1.1520821E-001, 2.5579339E-002, 1.2765502E-002, 6.5665011E-003, 5.2673660E+002
 1.4201090E+002, 9.1230085E-004, 1.3615800E-001, 1.1561072E-001, 2.6418689E-002, 1.2986903E-002, 6.7369581E-003, 5.2182395E+002
 1.4300985E+002, 8.7369309E-004, 1.3592197E-001, 1.1581126E-001, 2.6675533E-002, 1.2381860E-002, 6.7901556E-003, 5.2362614E+002
 1.4401143E+002, 1.0471357E-003, 1.3464701E-001, 1.1590005E-001, 2.7306993E-002, 1.3649353E-002, 6.9154608E-003, 5.2178856E+002
 1.4500051E+002, 9.6968730E-004, 1.3534623E-001, 1.1570044E-001, 2.6846701E-002, 1.3810399E-002, 6.8223060E-003, 5.1933055E+002
 1.4600379E+002, 9.1398286E-004, 1.3601782E-001, 1.1559149E-001, 2.6466603E-002, 1.3377267E-002, 6.7461236E-003, 5.2085937E+002
 1.4700957E+002, 8.8856130E-004, 1.3671033E-001, 1.1533572E-001, 2.5966059E-002, 1.3681011E-002, 6.6442862E-003, 5.2565298E+002
 1.4800883E+002, 8.9018366E-004, 1.3712630E-001, 1.1536508E-001, 2.5802901E-002, 1.2665662E-002, 6.6125911E-003, 5.2475981E+002
 1.4900869E+002, 8.8467663E-004, 1.3591755E-001, 1.1560501E-001, 2.6521966E-002, 1.3615635E-002, 6.7572012E-003, 5.2619299E+002
 1.5000659E+002, 7.6752848E-004, 1.3762859E-001, 1.1526351E-001, 2.5504970E-002, 1.2802819E-002, 6.5526888E-003, 5.2724693E+002
 1.5100066E+002, 9.0059906E-004, 1.3777367E-001, 1.1518662E-001, 2.5380031E-002, 1.2433594E-002, 6.5270475E-003, 5.1953261E+002
 1.5200912E+002, 9.4970911E-004, 1.3628278E-001, 1.1548942E-001, 2.6271090E-002, 1.3330082E-002, 6.7063013E-003, 5.1961408E+002
 1.5300594E+002, 9.8776324E-004, 1.3527614E-001, 1.1563164E-001, 2.6825770E-002, 1.4298478E-002, 6.8172660E-003, 5.1935173E+002
 1.5401083E+002, 9.4287854E-004, 1.3570482E-001, 1.1555347E-001, 2.6576826E-002, 1.4113993E-002, 6.7672826E-003, 5.2217029E+002
