s,,,,,,,
Time,"O2 EXHAUST","CO2 EXHAUST","H2O EXHAUST","CO EXHAUST","FUEL EXHAUST","SOOT EXHAUST","TEMP EXHAUST"
 0.0000000E+000, 2.3099739E-001, 5.9146498E-004, 5.9412091E-003, 0.0000000E+000, 0.0000000E+000, 0.0000000E+000, 2.0000000E+001
 1.0026287E+000, 2.3099739E-001, 5.9146498E-004, 5.9412091E-003, 2.4595700E-026, 4.6058688E-026, 2.0458389E-026, 2.2847719E+001
 2.0015521E+000, 2.1858823E-001, 9.8519007E-003, 1.1313810E-002, 1.5654178E-004, 1.3833467E-004, 1.0709582E-004, 1.3928732E+002
 3.0003352E+000, 2.0817134E-001, 1.7749640E-002, 1.5800286E-002, 2.1402597E-004, 1.5575858E-004, 1.8198040E-004, 2.3016104E+002
 4.0033391E+000, 1.9873695E-001, 2.4956029E-002, 1.9850420E-002, 2.3187390E-004, 1.4766186E-004, 2.4282122E-004, 3.0395559E+002
 5.0034877E+000, 1.8066108E-001, 3.8949253E-002, 2.7562682E-002, 1.4580091E-004, 6.0127842E-005, 3.3483416E-004, 4.1748556E+002
 6.0016272E+000, 1.6747524E-001, 4.9139090E-002, 3.3192411E-002, 9.3991088E-005, 7.5383269E-006, 4.0418979E-004, 4.7893848E+002
 7.0002226E+000, 1.5508590E-001, 5.8625774E-002, 3.8503167E-002, 1.0092946E-004, 2.7469748E-007, 4.8069928E-004, 5.1663823E+002
 8.0049678E+000, 1.4245327E-001, 6.8284225E-002, 4.3921667E-002, 1.1719120E-004, 7.5289960E-008, 5.6058451E-004, 5.4545799E+002
 9.0047191E+000, 1.2560735E-001, 8.1159890E-002, 5.1148560E-002, 1.4164247E-004, 5.5583742E-007, 6.6767941E-004, 5.8057208E+002
 1.0004858E+001, 1.0792130E-001, 9.4672886E-002, 5.8737329E-002, 1.7059130E-004, 1.4582927E-006, 7.8078676E-004, 6.0785791E+002
 1.1002807E+001, 9.5585125E-002, 1.0409470E-001, 6.4031672E-002, 1.9326296E-004, 2.3861981E-006, 8.6018810E-004, 6.1869870E+002
 1.2001066E+001, 8.9493621E-002, 1.0875069E-001, 6.6644772E-002, 2.0192775E-004, 3.2428588E-006, 8.9887653E-004, 6.1574571E+002
 1.3009566E+001, 8.1330288E-002, 1.1499481E-001, 7.0145526E-002, 2.1064427E-004, 2.2954282E-006, 9.5013296E-004, 6.1543858E+002
 1.4007861E+001, 7.0683902E-002, 1.2314004E-001, 7.4710387E-002, 2.2063365E-004, 1.9203613E-006, 1.0166963E-003, 6.2212759E+002
 1.5009922E+001, 6.2037245E-002, 1.2975101E-001, 7.8419179E-002, 2.3173428E-004, 1.7456310E-006, 1.0713693E-003, 6.2802265E+002
 1.6000670E+001, 5.5863426E-002, 1.3447095E-001, 8.1067422E-002, 2.3992282E-004, 1.6180628E-006, 1.1104603E-003, 6.2614724E+002
 1.7004171E+001, 4.8754915E-002, 1.3988291E-001, 8.4123515E-002, 2.6480091E-004, 3.1084796E-006, 1.1586345E-003, 6.2970468E+002
 1.8009326E+001, 4.4290918E-002, 1.4331500E-001, 8.6032453E-002, 2.5751834E-004, 1.3570637E-006, 1.1841949E-003, 6.2203506E+002
 1.9003115E+001, 3.9937551E-002, 1.4663925E-001, 8.7900986E-002, 2.6595877E-004, 1.7907880E-006, 1.2123052E-003, 6.2383522E+002
 2.0004789E+001, 4.1364792E-002, 1.4555717E-001, 8.7286013E-002, 2.5787193E-004, 1.0661151E-006, 1.2019996E-003, 6.0245670E+002
 2.1005358E+001, 3.1376018E-002, 1.5315040E-001, 9.1584053E-002, 3.0084906E-004, 3.2974604E-006, 1.2713371E-003, 6.1777592E+002
 2.2007931E+001, 2.8664010E-002, 1.5525059E-001, 9.2739040E-002, 2.8599249E-004, 1.8688591E-006, 1.2847275E-003, 6.1676748E+002
 2.3003158E+001, 2.1536297E-002, 1.6050332E-001, 9.5858162E-002, 4.3115258E-004, 6.8938770E-006, 1.3576721E-003, 6.2709531E+002
 2.4000405E+001, 1.8955041E-002, 1.6226182E-001, 9.7032613E-002, 5.8280516E-004, 1.4149978E-005, 1.4043940E-003, 6.1763352E+002
 2.5003148E+001, 1.5059925E-002, 1.6511620E-001, 9.8743933E-002, 6.7458281E-004, 6.5291167E-006, 1.4468235E-003, 6.2593061E+002
 2.6009138E+001, 8.0304228E-003, 1.7028417E-001, 1.0182371E-001, 8.2609483E-004, 1.3422318E-005, 1.5204725E-003, 6.3567282E+002
 2.7003376E+001, 9.3750829E-003, 1.6983350E-001, 1.0106468E-001, 4.2484146E-004, 3.8918436E-006, 1.4300770E-003, 6.2623064E+002
 2.8008307E+001, 3.6274032E-003, 1.7245724E-001, 1.0407606E-001, 1.6475963E-003, 1.1306405E-004, 1.7154295E-003, 6.2681671E+002
 2.9006008E+001, 2.4787768E-003, 1.7217875E-001, 1.0493307E-001, 2.4488117E-003, 1.3709479E-004, 1.8866125E-003, 6.0445144E+002
 3.0009766E+001, 1.0811873E-003, 1.7124606E-001, 1.0613468E-001, 3.8127407E-003, 3.5333474E-004, 2.1743964E-003, 5.9776737E+002
 3.1000794E+001, 2.5982743E-003, 1.7258883E-001, 1.0472377E-001, 2.1018831E-003, 1.2727301E-004, 1.8147787E-003, 6.1822477E+002
 3.2007058E+001, 7.5847382E-004, 1.7002485E-001, 1.0672098E-001, 4.8170362E-003, 4.7358325E-004, 2.3820731E-003, 5.8929437E+002
 3.3005288E+001, 9.1531553E-004, 1.6923593E-001, 1.0679062E-001, 5.2230215E-003, 9.4470914E-004, 2.4636938E-003, 5.7931942E+002
 3.4005488E+001, 7.7249236E-004, 1.6815492E-001, 1.0722036E-001, 6.0412309E-003, 1.0091362E-003, 2.6322092E-003, 5.6832564E+002
 3.5005293E+001, 6.5265483E-004, 1.6570616E-001, 1.0801256E-001, 7.7524881E-003, 1.4296580E-003, 2.9831696E-003, 5.6318579E+002
 3.6005218E+001, 4.8543820E-004, 1.6620222E-001, 1.0799183E-001, 7.5160810E-003, 1.2763016E-003, 2.9359320E-003, 5.7259071E+002
 3.7000278E+001, 3.0818581E-004, 1.6404039E-001, 1.0877277E-001, 9.0904262E-003, 1.4398414E-003, 3.2595319E-003, 5.6414722E+002
 3.8009935E+001, 3.4365403E-004, 1.6182861E-001, 1.0929482E-001, 1.0485675E-002, 2.4197091E-003, 3.5439838E-003, 5.4980925E+002
 3.9002739E+001, 3.9825611E-004, 1.6198401E-001, 1.0925002E-001, 1.0380383E-002, 2.1634329E-003, 3.5224259E-003, 5.4964750E+002
 4.0004805E+001, 3.6960810E-004, 1.6093562E-001, 1.0959003E-001, 1.1113253E-002, 2.2438304E-003, 3.6727317E-003, 5.3851681E+002
 4.1008606E+001, 3.4888198E-004, 1.5946084E-001, 1.0999391E-001, 1.2086998E-002, 2.7364752E-003, 3.8717940E-003, 5.4260489E+002
 4.2003492E+001, 3.8972342E-004, 1.5757217E-001, 1.1049657E-001, 1.3321657E-002, 3.1768927E-003, 4.1240459E-003, 5.3272133E+002
 4.3000580E+001, 3.8220503E-004, 1.5855818E-001, 1.1022046E-001, 1.2666374E-002, 2.9742750E-003, 3.9900365E-003, 5.3308968E+002
 4.4002321E+001, 3.5636516E-004, 1.5587769E-001, 1.1088057E-001, 1.4379511E-002, 4.2785468E-003, 4.3395754E-003, 5.2588072E+002
 4.5000843E+001, 3.6675141E-004, 1.5617838E-001, 1.1087285E-001, 1.4237846E-002, 3.6901489E-003, 4.3112936E-003, 5.2786008E+002
 4.6003327E+001, 3.7624603E-004, 1.5500185E-001, 1.1112758E-001, 1.4962670E-002, 4.3926927E-003, 4.4588479E-003, 5.2336153E+002
 4.7001741E+001, 3.3070232E-004, 1.5387066E-001, 1.1152317E-001, 1.5775623E-002, 4.3624627E-003, 4.6258288E-003, 5.2774608E+002
 4.8004051E+001, 3.2967087E-004, 1.5313036E-001, 1.1163685E-001, 1.6196244E-002, 5.1223657E-003, 4.7110024E-003, 5.2427468E+002
 4.9002708E+001, 3.5034169E-004, 1.5230529E-001, 1.1181273E-001, 1.6702175E-002, 5.5737865E-003, 4.8139655E-003, 5.2227734E+002
 5.0009051E+001, 3.9539054E-004, 1.5233631E-001, 1.1183730E-001, 1.6706114E-002, 5.1727940E-003, 4.8150614E-003, 5.2397518E+002
 5.1001197E+001, 3.8359682E-004, 1.5094715E-001, 1.1213077E-001, 1.7556785E-002, 6.1432943E-003, 4.9881695E-003, 5.2085350E+002
 5.2006639E+001, 4.1887644E-004, 1.5045487E-001, 1.1219559E-001, 1.7827593E-002, 6.5655766E-003, 5.0428826E-003, 5.1977452E+002
 5.3006489E+001, 4.2604983E-004, 1.5098217E-001, 1.1207945E-001, 1.7501024E-002, 6.2153364E-003, 4.9763798E-003, 5.1642703E+002
 5.4001347E+001, 4.0846732E-004, 1.4909516E-001, 1.1254799E-001, 1.8709948E-002, 7.1072167E-003, 5.2230780E-003, 5.1825724E+002
 5.5007999E+001, 4.0343132E-004, 1.4842935E-001, 1.1269689E-001, 1.9123952E-002, 7.5187308E-003, 5.3074070E-003, 5.1551932E+002
 5.6006915E+001, 4.3443905E-004, 1.4798931E-001, 1.1278997E-001, 1.9392859E-002, 7.6807582E-003, 5.3621206E-003, 5.1307831E+002
 5.7000474E+001, 4.5419562E-004, 1.4810921E-001, 1.1280031E-001, 1.9346330E-002, 7.2979770E-003, 5.3529977E-003, 5.1422308E+002
 5.8001947E+001, 4.4133583E-004, 1.4725046E-001, 1.1300869E-001, 1.9892887E-002, 7.7540993E-003, 5.4644864E-003, 5.1099058E+002
 5.9009034E+001, 4.4745103E-004, 1.4595334E-001, 1.1331796E-001, 2.0713784E-002, 8.3706818E-003, 5.6318773E-003, 5.1255598E+002
 6.0009913E+001, 4.6869516E-004, 1.4540845E-001, 1.1340118E-001, 2.1022624E-002, 8.8411524E-003, 5.6944049E-003, 5.0695532E+002
 6.1011156E+001, 4.6245715E-004, 1.4585700E-001, 1.1330182E-001, 2.0744624E-002, 8.5980947E-003, 5.6377904E-003, 5.1058928E+002
 6.2004632E+001, 4.4478409E-004, 1.4457495E-001, 1.1365345E-001, 2.1591512E-002, 9.0216483E-003, 5.8109243E-003, 5.0744727E+002
 6.3000833E+001, 4.5297643E-004, 1.4365445E-001, 1.1385450E-001, 2.2159927E-002, 9.5572621E-003, 5.9266549E-003, 5.0902199E+002
 6.4003862E+001, 5.0122951E-004, 1.4366311E-001, 1.1382998E-001, 2.2136409E-002, 9.4911181E-003, 5.9216337E-003, 5.0904768E+002
 6.5008613E+001, 4.5098264E-004, 1.4264376E-001, 1.1406179E-001, 2.2773958E-002, 1.0274488E-002, 6.0515449E-003, 5.0587906E+002
 6.6010634E+001, 4.4280109E-004, 1.4337377E-001, 1.1397611E-001, 2.2379531E-002, 9.3997807E-003, 5.9719578E-003, 5.1008703E+002
 6.7006362E+001, 4.9078241E-004, 1.4218862E-001, 1.1419515E-001, 2.3080278E-002, 1.0180108E-002, 6.1142340E-003, 5.0474775E+002
 6.8007121E+001, 4.7512774E-004, 1.4185319E-001, 1.1424697E-001, 2.3271378E-002, 1.0585756E-002, 6.1529384E-003, 5.0632797E+002
 6.9004992E+001, 4.9666426E-004, 1.4197892E-001, 1.1422785E-001, 2.3199680E-002, 1.0366602E-002, 6.1384159E-003, 5.0657372E+002
 7.0010043E+001, 5.2890774E-004, 1.4099969E-001, 1.1442606E-001, 2.3791970E-002, 1.0935434E-002, 6.2588489E-003, 5.0669461E+002
 7.1003901E+001, 5.6259987E-004, 1.4064276E-001, 1.1447583E-001, 2.3990281E-002, 1.1190665E-002, 6.2989430E-003, 5.0645806E+002
 7.2007882E+001, 5.7703963E-004, 1.4002806E-001, 1.1460423E-001, 2.4365221E-002, 1.1547278E-002, 6.3752222E-003, 5.0479005E+002
 7.3001049E+001, 6.0025202E-004, 1.4045860E-001, 1.1448590E-001, 2.4080312E-002, 1.1334608E-002, 6.3169705E-003, 5.0858131E+002
 7.4000443E+001, 6.4285230E-004, 1.4018413E-001, 1.1449277E-001, 2.4208528E-002, 1.1655867E-002, 6.3425481E-003, 5.0637475E+002
 7.5010219E+001, 7.4213648E-004, 1.3998473E-001, 1.1451084E-001, 2.4310391E-002, 1.1523673E-002, 6.3630142E-003, 5.0491243E+002
 7.6001409E+001, 6.9316072E-004, 1.3967956E-001, 1.1457832E-001, 2.4500420E-002, 1.1911414E-002, 6.4017258E-003, 5.0471241E+002
 7.7006780E+001, 6.4730576E-004, 1.3930775E-001, 1.1473139E-001, 2.4785802E-002, 1.1887349E-002, 6.4605433E-003, 5.0455456E+002
 7.8003471E+001, 6.7354630E-004, 1.3894209E-001, 1.1477685E-001, 2.4984901E-002, 1.2217504E-002, 6.5007392E-003, 5.0577727E+002
 7.9009647E+001, 6.8471192E-004, 1.3809058E-001, 1.1494163E-001, 2.5494458E-002, 1.2829380E-002, 6.6042787E-003, 5.0400045E+002
 8.0003843E+001, 6.8733376E-004, 1.3804981E-001, 1.1496390E-001, 2.5529793E-002, 1.2760940E-002, 6.6116026E-003, 5.0361828E+002
 8.1008746E+001, 6.8297415E-004, 1.3776082E-001, 1.1499281E-001, 2.5682249E-002, 1.3169865E-002, 6.6423114E-003, 5.0229070E+002
 8.2008496E+001, 6.3370846E-004, 1.3811554E-001, 1.1493560E-001, 2.5479538E-002, 1.3029962E-002, 6.6012482E-003, 5.0453770E+002
 8.3005973E+001, 6.1542734E-004, 1.3784921E-001, 1.1501027E-001, 2.5656980E-002, 1.3168679E-002, 6.6375419E-003, 5.0243716E+002
 8.4009890E+001, 6.0361630E-004, 1.3690798E-001, 1.1515727E-001, 2.6193833E-002, 1.4163325E-002, 6.7462809E-003, 5.0498102E+002
 8.5001310E+001, 6.0497789E-004, 1.3678844E-001, 1.1522952E-001, 2.6302879E-002, 1.3945806E-002, 6.7689325E-003, 5.0371693E+002
 8.6002945E+001, 5.9269993E-004, 1.3705216E-001, 1.1511168E-001, 2.6094216E-002, 1.4206902E-002, 6.7258638E-003, 5.0317627E+002
 8.7001587E+001, 6.0841994E-004, 1.3695254E-001, 1.1519527E-001, 2.6202669E-002, 1.3820063E-002, 6.7485437E-003, 5.0118572E+002
 8.8001359E+001, 5.5281119E-004, 1.3667585E-001, 1.1524024E-001, 2.6362792E-002, 1.4318717E-002, 6.7810094E-003, 5.0350169E+002
 8.9002526E+001, 5.4114202E-004, 1.3651571E-001, 1.1518374E-001, 2.6392070E-002, 1.5033074E-002, 6.7860824E-003, 5.0445370E+002
 9.0010295E+001, 5.1152501E-004, 1.3691608E-001, 1.1516682E-001, 2.6199179E-002, 1.4471718E-002, 6.7475033E-003, 5.0411377E+002
 9.1002787E+001, 5.0881408E-004, 1.3655336E-001, 1.1527169E-001, 2.6442854E-002, 1.4548620E-002, 6.7973676E-003, 5.0309658E+002
 9.2009767E+001, 5.4739822E-004, 1.3568326E-001, 1.1530724E-001, 2.6861601E-002, 1.5883493E-002, 6.8811120E-003, 5.0338132E+002
 9.3007938E+001, 5.2823716E-004, 1.3612257E-001, 1.1530695E-001, 2.6663658E-002, 1.5098808E-002, 6.8417465E-003, 5.0314428E+002
 9.4001169E+001, 5.1252985E-004, 1.3608209E-001, 1.1531131E-001, 2.6685532E-002, 1.5217024E-002, 6.8461606E-003, 5.0206147E+002
 9.5008391E+001, 4.9557618E-004, 1.3653420E-001, 1.1516947E-001, 2.6373683E-002, 1.5274749E-002, 6.7822507E-003, 5.0380036E+002
 9.6009535E+001, 5.2699065E-004, 1.3556133E-001, 1.1540130E-001, 2.6988776E-002, 1.5626297E-002, 6.9076677E-003, 4.9999639E+002
 9.7006128E+001, 5.4785728E-004, 1.3585509E-001, 1.1531955E-001, 2.6793514E-002, 1.5466518E-002, 6.8677344E-003, 5.0425773E+002
 9.8004070E+001, 5.6823881E-004, 1.3594188E-001, 1.1534105E-001, 2.6770428E-002, 1.5077268E-002, 6.8634230E-003, 5.0161813E+002
 9.9009182E+001, 6.0456804E-004, 1.3536211E-001, 1.1540356E-001, 2.7078898E-002, 1.5682012E-002, 6.9255954E-003, 5.0261787E+002
 1.0000259E+002, 6.4313545E-004, 1.3490990E-001, 1.1541869E-001, 2.7293633E-002, 1.6319406E-002, 6.9684922E-003, 5.0231666E+002
 1.0101017E+002, 6.4028766E-004, 1.3531982E-001, 1.1537770E-001, 2.7077558E-002, 1.5776891E-002, 6.9249715E-003, 5.0062389E+002
 1.0200332E+002, 6.2571825E-004, 1.3519387E-001, 1.1540770E-001, 2.7157523E-002, 1.5900062E-002, 6.9412809E-003, 5.0077455E+002
 1.0300817E+002, 6.3745558E-004, 1.3517131E-001, 1.1533211E-001, 2.7109764E-002, 1.6363904E-002, 6.9307695E-003, 4.9999018E+002
 1.0400928E+002, 6.4254740E-004, 1.3487073E-001, 1.1541332E-001, 2.7307203E-002, 1.6432383E-002, 6.9711195E-003, 5.0255015E+002
 1.0500109E+002, 6.5475620E-004, 1.3479253E-001, 1.1535615E-001, 2.7298583E-002, 1.6889898E-002, 6.9686379E-003, 5.0012278E+002
 1.0600648E+002, 6.4922372E-004, 1.3464459E-001, 1.1544226E-001, 2.7431146E-002, 1.6671211E-002, 6.9961542E-003, 5.0154324E+002
 1.0700365E+002, 5.8905506E-004, 1.3485944E-001, 1.1530651E-001, 2.7231719E-002, 1.7339075E-002, 6.9546995E-003, 5.0397549E+002
 1.0800680E+002, 5.8861050E-004, 1.3516784E-001, 1.1526565E-001, 2.7061477E-002, 1.6985871E-002, 6.9202956E-003, 5.0107497E+002
 1.0900072E+002, 6.1179262E-004, 1.3496653E-001, 1.1530404E-001, 2.7181136E-002, 1.7048480E-002, 6.9445985E-003, 5.0107362E+002
 1.1000072E+002, 5.5772317E-004, 1.3486318E-001, 1.1526500E-001, 2.7198916E-002, 1.7719321E-002, 6.9476323E-003, 5.0067573E+002
 1.1100900E+002, 6.0714551E-004, 1.3410916E-001, 1.1547234E-001, 2.7696304E-002, 1.7715989E-002, 7.0493063E-003, 5.0027752E+002
 1.1200745E+002, 5.8918628E-004, 1.3454277E-001, 1.1537516E-001, 2.7426926E-002, 1.7537714E-002, 6.9944399E-003, 5.0217246E+002
 1.1300932E+002, 5.9940999E-004, 1.3432788E-001, 1.1548191E-001, 2.7605141E-002, 1.7257600E-002, 7.0313055E-003, 5.0048130E+002
 1.1401058E+002, 5.8015426E-004, 1.3469333E-001, 1.1541453E-001, 2.7389266E-002, 1.7034547E-002, 6.9874783E-003, 5.0090253E+002
 1.1500430E+002, 5.6760487E-004, 1.3423799E-001, 1.1549478E-001, 2.7656084E-002, 1.7487593E-002, 7.0416201E-003, 5.0284619E+002
 1.1601021E+002, 5.5378591E-004, 1.3410099E-001, 1.1546906E-001, 2.7698472E-002, 1.7974654E-002, 7.0497121E-003, 5.0315293E+002
 1.1700019E+002, 5.4605961E-004, 1.3446872E-001, 1.1538800E-001, 2.7470917E-002, 1.7783781E-002, 7.0033753E-003, 5.0291862E+002
 1.1800468E+002, 5.7226647E-004, 1.3399192E-001, 1.1542200E-001, 2.7711375E-002, 1.8404250E-002, 7.0516440E-003, 5.0159326E+002
 1.1900853E+002, 5.6176258E-004, 1.3398537E-001, 1.1552983E-001, 2.7796865E-002, 1.7792919E-002, 7.0700896E-003, 5.0264656E+002
 1.2000542E+002, 5.4682488E-004, 1.3436027E-001, 1.1540100E-001, 2.7529728E-002, 1.7913913E-002, 7.0152453E-003, 5.0156361E+002
 1.2100938E+002, 5.8345737E-004, 1.3395521E-001, 1.1545844E-001, 2.7755542E-002, 1.8204315E-002, 7.0609106E-003, 5.0063265E+002
 1.2200450E+002, 6.2120242E-004, 1.3416144E-001, 1.1553420E-001, 2.7719708E-002, 1.7171163E-002, 7.0547819E-003, 5.0100430E+002
 1.2300858E+002, 6.5447140E-004, 1.3409481E-001, 1.1537012E-001, 2.7623848E-002, 1.8180394E-002, 7.0335154E-003, 5.0010941E+002
 1.2400220E+002, 6.0797261E-004, 1.3388930E-001, 1.1540735E-001, 2.7745796E-002, 1.8548648E-002, 7.0582821E-003, 5.0177947E+002
 1.2500276E+002, 6.0329865E-004, 1.3357727E-001, 1.1553072E-001, 2.7980779E-002, 1.8419194E-002, 7.1066653E-003, 4.9977851E+002
 1.2601027E+002, 6.4097245E-004, 1.3382869E-001, 1.1546408E-001, 2.7815841E-002, 1.8179302E-002, 7.0729589E-003, 5.0022502E+002
 1.2700121E+002, 5.9035914E-004, 1.3337418E-001, 1.1550973E-001, 2.8056558E-002, 1.9003610E-002, 7.1214610E-003, 5.0124850E+002
 1.2800966E+002, 6.0451650E-004, 1.3329099E-001, 1.1563512E-001, 2.8189562E-002, 1.8331907E-002, 7.1495824E-003, 5.0154651E+002
 1.2900018E+002, 6.1374566E-004, 1.3364048E-001, 1.1545613E-001, 2.7895131E-002, 1.8713062E-002, 7.0886320E-003, 5.0090970E+002
 1.3000625E+002, 6.1939934E-004, 1.3385106E-001, 1.1548987E-001, 2.7825842E-002, 1.8065304E-002, 7.0752995E-003, 5.0048332E+002
 1.3100887E+002, 5.8495706E-004, 1.3365018E-001, 1.1546910E-001, 2.7901193E-002, 1.8733527E-002, 7.0900206E-003, 5.0102368E+002
 1.3200331E+002, 5.5252888E-004, 1.3358923E-001, 1.1556103E-001, 2.7999472E-002, 1.8419296E-002, 7.1108048E-003, 5.0175122E+002
 1.3300228E+002, 5.1521452E-004, 1.3341205E-001, 1.1548701E-001, 2.8023527E-002, 1.9382629E-002, 7.1146140E-003, 5.0164932E+002
 1.3400992E+002, 5.3923718E-004, 1.3385865E-001, 1.1551335E-001, 2.7841830E-002, 1.8238744E-002, 7.0788203E-003, 4.9969639E+002
 1.3500024E+002, 5.4943854E-004, 1.3297709E-001, 1.1559842E-001, 2.8304086E-002, 1.9407613E-002, 7.1718887E-003, 5.0162076E+002
 1.3600545E+002, 5.6006307E-004, 1.3341296E-001, 1.1555650E-001, 2.8075356E-002, 1.8763548E-002, 7.1258342E-003, 4.9635078E+002
 1.3700335E+002, 4.9030956E-004, 1.3374118E-001, 1.1551770E-001, 2.7899020E-002, 1.8647209E-002, 7.0902693E-003, 5.0234100E+002
 1.3800266E+002, 5.3058325E-004, 1.3379407E-001, 1.1550657E-001, 2.7865928E-002, 1.8444140E-002, 7.0835254E-003, 5.0231463E+002
 1.3900590E+002, 5.8071756E-004, 1.3333215E-001, 1.1555989E-001, 2.8113990E-002, 1.8815927E-002, 7.1335562E-003, 5.0076036E+002
 1.4000617E+002, 5.6152736E-004, 1.3328823E-001, 1.1557622E-001, 2.8146618E-002, 1.8881293E-002, 7.1402699E-003, 4.9990733E+002
 1.4100704E+002, 5.7111442E-004, 1.3362407E-001, 1.1542014E-001, 2.7875832E-002, 1.9145958E-002, 7.0843278E-003, 5.0148728E+002
 1.4200875E+002, 5.4997701E-004, 1.3322567E-001, 1.1560158E-001, 2.8194412E-002, 1.8895625E-002, 7.1501181E-003, 5.0067398E+002
 1.4300769E+002, 5.3057340E-004, 1.3293613E-001, 1.1563134E-001, 2.8348043E-002, 1.9363058E-002, 7.1810770E-003, 5.0215060E+002
 1.4400304E+002, 5.8972524E-004, 1.3364050E-001, 1.1547398E-001, 2.7909199E-002, 1.8702511E-002, 7.0916762E-003, 5.0157732E+002
 1.4500824E+002, 5.8414950E-004, 1.3307731E-001, 1.1562543E-001, 2.8278883E-002, 1.8898117E-002, 7.1672248E-003, 4.9967777E+002
 1.4600641E+002, 6.0872091E-004, 1.3305804E-001, 1.1555019E-001, 2.8229661E-002, 1.9299922E-002, 7.1564224E-003, 5.0113289E+002
 1.4700701E+002, 6.4677024E-004, 1.3303010E-001, 1.1556269E-001, 2.8251102E-002, 1.9119084E-002, 7.1608407E-003, 5.0064582E+002
 1.4800207E+002, 6.0182965E-004, 1.3305868E-001, 1.1550257E-001, 2.8193137E-002, 1.9622327E-002, 7.1485253E-003, 5.0117251E+002
 1.4900504E+002, 6.2891618E-004, 1.3309102E-001, 1.1555196E-001, 2.8215772E-002, 1.9139784E-002, 7.1536768E-003, 5.0058481E+002
 1.5000443E+002, 6.2942534E-004, 1.3340439E-001, 1.1554953E-001, 2.8072609E-002, 1.8534787E-002, 7.1251711E-003, 5.0257104E+002
 1.5101118E+002, 5.9372866E-004, 1.3306907E-001, 1.1555040E-001, 2.8225126E-002, 1.9339280E-002, 7.1555286E-003, 5.0076745E+002
 1.5200713E+002, 6.2460946E-004, 1.3284430E-001, 1.1558566E-001, 2.8352825E-002, 1.9435474E-002, 7.1813863E-003, 5.0059900E+002
 1.5301030E+002, 6.1896656E-004, 1.3310209E-001, 1.1557102E-001, 2.8225521E-002, 1.9041316E-002, 7.1558736E-003, 5.0054893E+002
 1.5400879E+002, 6.2812147E-004, 1.3354079E-001, 1.1546893E-001, 2.7949585E-002, 1.8770504E-002, 7.0996280E-003, 5.0058749E+002
