s,,,,,,,
Time,"O2 EXHAUST","CO2 EXHAUST","H2O EXHAUST","CO EXHAUST","FUEL EXHAUST","SOOT EXHAUST","TEMP EXHAUST"
 0.0000000E+000, 2.3099739E-001, 5.9146498E-004, 5.9412092E-003, 0.0000000E+000, 0.0000000E+000, 0.0000000E+000, 2.0000000E+001
 1.0037536E+000, 2.3099739E-001, 5.9146498E-004, 5.9412092E-003, 1.3393953E-029, 8.1159731E-029, 5.0626037E-030, 2.1247938E+001
 2.0036814E+000, 2.2299625E-001, 6.6094000E-003, 9.3970428E-003, 6.8640000E-005, 6.2526573E-005, 6.2332827E-005, 9.8770351E+001
 3.0009039E+000, 2.1689607E-001, 1.1206182E-002, 1.2032700E-002, 1.1779549E-004, 8.7555261E-005, 1.0924330E-004, 1.5369829E+002
 4.0007285E+000, 2.1292523E-001, 1.4206797E-002, 1.3745672E-002, 1.4403779E-004, 1.0366139E-004, 1.3861167E-004, 1.9024461E+002
 5.0007578E+000, 2.0800245E-001, 1.7915246E-002, 1.5873530E-002, 1.8488306E-004, 1.2049226E-004, 1.7671159E-004, 2.2978565E+002
 6.0025645E+000, 2.0353724E-001, 2.1331056E-002, 1.7788693E-002, 1.8751970E-004, 1.2401330E-004, 2.0430393E-004, 2.6584953E+002
 7.0024090E+000, 1.9725480E-001, 2.6135724E-002, 2.0485635E-002, 1.9357818E-004, 1.1703411E-004, 2.4361899E-004, 3.1385987E+002
 8.0016366E+000, 1.9308371E-001, 2.9337892E-002, 2.2273013E-002, 1.8975330E-004, 1.0778986E-004, 2.6813550E-004, 3.4016568E+002
 9.0014057E+000, 1.8687776E-001, 3.4153337E-002, 2.4919274E-002, 1.5144951E-004, 7.3005601E-005, 2.9802429E-004, 3.7667224E+002
 1.0000972E+001, 1.8162898E-001, 3.8213404E-002, 2.7160750E-002, 1.2722562E-004, 4.8081825E-005, 3.2495509E-004, 3.9992139E+002
 1.1006164E+001, 1.7554431E-001, 4.2910963E-002, 2.9761267E-002, 1.0475643E-004, 2.4487809E-005, 3.5730617E-004, 4.2407903E+002
 1.2003601E+001, 1.6981423E-001, 4.7321162E-002, 3.2213569E-002, 9.2165967E-005, 8.8181890E-006, 3.8950162E-004, 4.4389534E+002
 1.3000042E+001, 1.6371207E-001, 5.1999582E-002, 3.4829515E-002, 9.0157556E-005, 1.1068443E-006, 4.2608819E-004, 4.6236582E+002
 1.4003241E+001, 1.6031633E-001, 5.4596205E-002, 3.6286917E-002, 9.3345051E-005, 1.0754428E-007, 4.4731694E-004, 4.7732074E+002
 1.5002068E+001, 1.5652805E-001, 5.7490821E-002, 3.7913317E-002, 9.8263740E-005, 5.3818721E-008, 4.7127468E-004, 4.7155209E+002
 1.6002398E+001, 1.5297582E-001, 6.0204988E-002, 3.9438396E-002, 1.0292821E-004, 3.5472806E-008, 4.9375015E-004, 4.7757078E+002
 1.7002698E+001, 1.5145317E-001, 6.1368471E-002, 4.0092097E-002, 1.0488521E-004, 1.0357966E-008, 5.0337561E-004, 4.7626414E+002
 1.8001636E+001, 1.4657090E-001, 6.5098794E-002, 4.2188224E-002, 1.1135419E-004, 2.0879895E-008, 5.3427813E-004, 4.9126873E+002
 1.9001948E+001, 1.4457016E-001, 6.6627537E-002, 4.3047193E-002, 1.1396231E-004, 8.5156707E-009, 5.4693324E-004, 4.8939186E+002
 2.0000386E+001, 1.4308965E-001, 6.7758729E-002, 4.3682829E-002, 1.1592524E-004, 1.5442963E-008, 5.5630446E-004, 4.8690964E+002
 2.1003589E+001, 1.3925032E-001, 7.0692247E-002, 4.5331175E-002, 1.2097895E-004, 1.0631824E-008, 5.8059897E-004, 4.9334631E+002
 2.2006523E+001, 1.3767646E-001, 7.1894771E-002, 4.6006881E-002, 1.2305558E-004, 1.0781535E-008, 5.9055897E-004, 4.8325549E+002
 2.3004654E+001, 1.3554858E-001, 7.3520629E-002, 4.6920444E-002, 1.2584991E-004, 6.0774304E-009, 6.0402241E-004, 4.8512848E+002
 2.4002777E+001, 1.3460381E-001, 7.4242499E-002, 4.7326064E-002, 1.2709432E-004, 5.3341565E-009, 6.1000090E-004, 4.8624372E+002
 2.5005563E+001, 1.3151856E-001, 7.6599823E-002, 4.8650667E-002, 1.3117103E-004, 8.8423520E-009, 6.2952689E-004, 4.9068712E+002
 2.6003997E+001, 1.3092914E-001, 7.7050180E-002, 4.8903724E-002, 1.3194763E-004, 8.9723422E-009, 6.3325677E-004, 4.8665972E+002
 2.7004474E+001, 1.3050666E-001, 7.7372972E-002, 4.9085111E-002, 1.3251163E-004, 8.5521359E-009, 6.3593173E-004, 4.8590868E+002
 2.8006524E+001, 1.3009911E-001, 7.7684388E-002, 4.9260076E-002, 1.3303294E-004, 5.4769721E-009, 6.3850752E-004, 4.7584138E+002
 2.9001389E+001, 1.2733392E-001, 7.9797180E-002, 5.0447262E-002, 1.3667736E-004, 4.5161027E-009, 6.5600602E-004, 4.8020468E+002
 3.0000381E+001, 1.2621944E-001, 8.0648682E-002, 5.0925753E-002, 1.3816811E-004, 1.1409328E-008, 6.6306300E-004, 4.8925607E+002
 3.1006958E+001, 1.2640572E-001, 8.0506372E-002, 5.0845767E-002, 1.3790620E-004, 6.6170629E-009, 6.6188084E-004, 4.8091172E+002
 3.2004865E+001, 1.2346373E-001, 8.2754222E-002, 5.2108868E-002, 1.4180371E-004, 1.2574646E-008, 6.8050221E-004, 4.8655317E+002
 3.3004508E+001, 1.2166687E-001, 8.4127157E-002, 5.2880315E-002, 1.4416387E-004, 7.7858650E-009, 6.9187136E-004, 4.8311917E+002
 3.4006392E+001, 1.2196665E-001, 8.3898099E-002, 5.2751611E-002, 1.4377267E-004, 8.6245172E-009, 6.8997510E-004, 4.8597914E+002
 3.5000759E+001, 1.2040342E-001, 8.5092496E-002, 5.3422758E-002, 1.4584133E-004, 1.9463233E-008, 6.9986910E-004, 4.8626743E+002
 3.6006346E+001, 1.1915537E-001, 8.6046108E-002, 5.3958578E-002, 1.4747226E-004, 1.0824814E-008, 7.0776407E-004, 4.7885772E+002
 3.7005026E+001, 1.1662093E-001, 8.7982604E-002, 5.5046691E-002, 1.5080351E-004, 5.2860210E-009, 7.2380050E-004, 4.8387059E+002
 3.8006412E+001, 1.1694687E-001, 8.7733531E-002, 5.4906766E-002, 1.5039723E-004, 1.2470045E-008, 7.2174264E-004, 4.8141996E+002
 3.9004765E+001, 1.1605077E-001, 8.8418210E-002, 5.5291487E-002, 1.5157597E-004, 1.2895802E-008, 7.2741278E-004, 4.8238039E+002
 4.0004741E+001, 1.1396301E-001, 9.0013399E-002, 5.6187831E-002, 1.5432904E-004, 1.1344986E-008, 7.4062471E-004, 4.8457485E+002
 4.1005559E+001, 1.1466264E-001, 8.9478854E-002, 5.5887452E-002, 1.5339460E-004, 9.1750613E-009, 7.3619487E-004, 4.7716145E+002
 4.2007641E+001, 1.1362584E-001, 9.0271024E-002, 5.6332584E-002, 1.5476700E-004, 9.5595778E-009, 7.4275703E-004, 4.8352058E+002
 4.3000979E+001, 1.1161168E-001, 9.1809987E-002, 5.7197329E-002, 1.5741909E-004, 9.2190818E-009, 7.5550243E-004, 4.8511708E+002
 4.4002996E+001, 1.1190739E-001, 9.1583977E-002, 5.7070386E-002, 1.5707014E-004, 2.9791900E-008, 7.5363935E-004, 4.9507034E+002
 4.5004108E+001, 1.1312705E-001, 9.0652122E-002, 5.6546734E-002, 1.5543266E-004, 1.8586949E-008, 7.4591512E-004, 4.6967693E+002
 4.6001287E+001, 1.1275086E-001, 9.0939550E-002, 5.6708247E-002, 1.5593315E-004, 1.8131031E-008, 7.4829665E-004, 4.7526564E+002
 4.7002189E+001, 1.1000684E-001, 9.3036181E-002, 5.7886337E-002, 1.5953798E-004, 1.0680668E-008, 7.6565878E-004, 4.8667572E+002
 4.8000775E+001, 1.0821610E-001, 9.4404359E-002, 5.8655182E-002, 1.6194552E-004, 2.0030559E-008, 7.7700044E-004, 4.8564686E+002
 4.9005642E+001, 1.1102492E-001, 9.2258321E-002, 5.7449234E-002, 1.5818028E-004, 7.3828231E-009, 7.5921300E-004, 4.7819177E+002
 5.0003608E+001, 1.0833109E-001, 9.4316553E-002, 5.8605797E-002, 1.6175779E-004, 1.4171747E-008, 7.7626544E-004, 4.8189356E+002
 5.1007324E+001, 1.0548840E-001, 9.6488552E-002, 5.9826254E-002, 1.6550635E-004, 1.6247378E-008, 7.9425472E-004, 4.8402642E+002
 5.2002285E+001, 1.0756732E-001, 9.4900117E-002, 5.8933707E-002, 1.6276667E-004, 1.8893366E-008, 7.8109911E-004, 4.8259370E+002
 5.3006208E+001, 1.0668562E-001, 9.5573806E-002, 5.9312245E-002, 1.6392085E-004, 1.4029531E-008, 7.8667701E-004, 4.8410853E+002
 5.4005280E+001, 1.0662532E-001, 9.5619901E-002, 5.9338129E-002, 1.6398702E-004, 9.7257208E-009, 7.8705592E-004, 4.8410119E+002
 5.5004076E+001, 1.0601002E-001, 9.6090044E-002, 5.9602291E-002, 1.6478751E-004, 3.4328968E-009, 7.9094748E-004, 4.7569505E+002
 5.6006491E+001, 1.0523152E-001, 9.6684838E-002, 5.9936536E-002, 1.6583512E-004, 1.3578201E-008, 7.9587830E-004, 4.8655052E+002
 5.7003684E+001, 1.0448159E-001, 9.7257864E-002, 6.0258497E-002, 1.6680531E-004, 4.0532894E-009, 8.0062028E-004, 4.8303067E+002
 5.8000422E+001, 1.0326917E-001, 9.8184155E-002, 6.0779053E-002, 1.6845687E-004, 2.1766240E-008, 8.0830350E-004, 4.8256219E+002
 5.9000445E+001, 1.0516598E-001, 9.6734933E-002, 5.9964667E-002, 1.6590835E-004, 6.1489132E-009, 7.9629036E-004, 4.8064083E+002
 6.0004990E+001, 1.0217234E-001, 9.9022220E-002, 6.1249949E-002, 1.6989005E-004, 2.0490896E-008, 8.1524183E-004, 4.8660429E+002
 6.1005365E+001, 1.0479245E-001, 9.7020327E-002, 6.0125038E-002, 1.6640649E-004, 6.4290976E-009, 7.9865530E-004, 4.8137116E+002
 6.2000655E+001, 1.0315680E-001, 9.8270035E-002, 6.0827285E-002, 1.6858636E-004, 1.2250952E-008, 8.0901078E-004, 4.8294911E+002
 6.3006759E+001, 1.0238840E-001, 9.8857197E-002, 6.1157171E-002, 1.6956565E-004, 4.6461823E-009, 8.1386656E-004, 4.7663385E+002
 6.4001660E+001, 1.0316630E-001, 9.8262818E-002, 6.0823197E-002, 1.6854868E-004, 9.5749127E-009, 8.0894559E-004, 4.8161087E+002
 6.5002161E+001, 1.0181549E-001, 9.9294905E-002, 6.1403151E-002, 1.7034470E-004, 1.2255663E-008, 8.1749689E-004, 4.8113989E+002
 6.6007008E+001, 1.0071784E-001, 1.0013359E-001, 6.1874405E-002, 1.7178570E-004, 1.0710055E-008, 8.2444181E-004, 4.8003035E+002
 6.7004126E+001, 1.0117945E-001, 9.9780874E-002, 6.1676221E-002, 1.7118490E-004, 1.5132231E-008, 8.2152217E-004, 4.8549530E+002
 6.8005077E+001, 1.0059191E-001, 1.0022982E-001, 6.1928465E-002, 1.7194246E-004, 6.8547530E-009, 8.2523681E-004, 4.7525542E+002
 6.9003433E+001, 1.0146306E-001, 9.9564135E-002, 6.1554476E-002, 1.7084310E-004, 1.9302333E-008, 8.1973398E-004, 4.8236989E+002
 7.0000119E+001, 9.9557934E-002, 1.0101984E-001, 6.2372386E-002, 1.7331109E-004, 1.0070509E-008, 8.3178114E-004, 4.7949199E+002
 7.1000817E+001, 1.0076802E-001, 1.0009527E-001, 6.1852854E-002, 1.7170359E-004, 5.2502684E-009, 8.2412102E-004, 4.7914042E+002
 7.2006425E+001, 9.8621903E-002, 1.0173502E-001, 6.2774257E-002, 1.7455092E-004, 1.3128484E-008, 8.3770570E-004, 4.8433309E+002
 7.3005947E+001, 9.9506961E-002, 1.0105880E-001, 6.2394266E-002, 1.7336716E-004, 4.5193252E-009, 8.3210145E-004, 4.8136957E+002
 7.4003763E+001, 9.8785161E-002, 1.0161028E-001, 6.2704165E-002, 1.7433480E-004, 1.1113960E-008, 8.3667239E-004, 4.8225674E+002
 7.5000466E+001, 1.0209059E-001, 9.9084725E-002, 6.1285034E-002, 1.6996973E-004, 8.2790147E-009, 8.1575347E-004, 4.8582518E+002
 7.6005307E+001, 1.0060296E-001, 1.0022132E-001, 6.1923738E-002, 1.7196872E-004, 2.9362760E-008, 8.2517515E-004, 4.8263765E+002
 7.7004120E+001, 9.9913166E-002, 1.0074842E-001, 6.2219874E-002, 1.7284312E-004, 8.3122829E-009, 8.2953323E-004, 4.7582723E+002
 7.8001482E+001, 9.9742130E-002, 1.0087912E-001, 6.2293300E-002, 1.7305621E-004, 5.6757977E-009, 8.3061307E-004, 4.7942772E+002
 7.9002440E+001, 9.7706340E-002, 1.0243454E-001, 6.3167347E-002, 1.7578006E-004, 2.1297131E-008, 8.4350404E-004, 4.8340923E+002
 8.0005036E+001, 1.0174763E-001, 9.9346790E-002, 6.1432274E-002, 1.7040918E-004, 5.1660134E-009, 8.1792124E-004, 4.6785445E+002
 8.1005007E+001, 9.8239456E-002, 1.0202722E-001, 6.2938457E-002, 1.7506255E-004, 1.4236954E-008, 8.4012741E-004, 4.8173466E+002
 8.2002986E+001, 9.9444754E-002, 1.0110629E-001, 6.2420985E-002, 1.7347549E-004, 1.6903477E-008, 8.3250043E-004, 4.8094598E+002
 8.3003633E+001, 9.8087457E-002, 1.0214333E-001, 6.3003723E-002, 1.7528140E-004, 1.9975763E-008, 8.4109303E-004, 4.8288275E+002
 8.4003370E+001, 9.8128444E-002, 1.0211203E-001, 6.2986123E-002, 1.7522123E-004, 1.7857071E-008, 8.4083242E-004, 4.8325496E+002
 8.5006054E+001, 9.8587346E-002, 1.0176136E-001, 6.2789111E-002, 1.7463689E-004, 2.9046254E-008, 8.3793257E-004, 4.8871225E+002
 8.6000111E+001, 9.7221119E-002, 1.0280529E-001, 6.3375664E-002, 1.7641134E-004, 1.8782332E-008, 8.4657292E-004, 4.8854732E+002
 8.7002738E+001, 9.9250088E-002, 1.0125505E-001, 6.2504555E-002, 1.7371884E-004, 1.2224843E-008, 8.3372963E-004, 4.7395112E+002
 8.8003402E+001, 9.7845638E-002, 1.0232811E-001, 6.3107539E-002, 1.7558988E-004, 1.6357781E-008, 8.4262122E-004, 4.7464032E+002
 8.9001834E+001, 9.7883723E-002, 1.0229890E-001, 6.3091219E-002, 1.7561515E-004, 5.2582803E-008, 8.4239547E-004, 4.7947684E+002
 9.0003563E+001, 9.6745890E-002, 1.0316823E-001, 6.3579741E-002, 1.7714753E-004, 6.6260192E-008, 8.4960245E-004, 4.7575847E+002
 9.1002118E+001, 9.6160593E-002, 1.0361523E-001, 6.3831091E-002, 1.7805737E-004, 8.0558030E-008, 8.5333435E-004, 4.8161487E+002
 9.2001850E+001, 1.0064388E-001, 1.0019012E-001, 6.1906152E-002, 1.7186844E-004, 6.0815415E-009, 8.2490684E-004, 4.8203967E+002
 9.3007148E+001, 9.6905800E-002, 1.0304619E-001, 6.3511048E-002, 1.7684380E-004, 2.6626489E-008, 8.4857171E-004, 4.8325810E+002
 9.4001978E+001, 9.7116056E-002, 1.0288550E-001, 6.3420790E-002, 1.7659383E-004, 2.9435423E-008, 8.4724669E-004, 4.7556988E+002
 9.5001312E+001, 9.7353208E-002, 1.0270410E-001, 6.3319032E-002, 1.7641256E-004, 6.3721190E-008, 8.4577255E-004, 4.8274789E+002
 9.6002696E+001, 9.8002255E-002, 1.0220841E-001, 6.3040308E-002, 1.7540612E-004, 2.5321296E-008, 8.4163472E-004, 4.8003851E+002
 9.7002690E+001, 9.8212142E-002, 1.0204762E-001, 6.2950317E-002, 1.7540785E-004, 1.2930596E-007, 8.4036286E-004, 4.7360569E+002
 9.8004611E+001, 9.8657502E-002, 1.0170781E-001, 6.2758976E-002, 1.7451106E-004, 1.4838881E-008, 8.3748186E-004, 4.8686283E+002
 9.9007154E+001, 9.6974838E-002, 1.0299328E-001, 6.3481453E-002, 1.7685813E-004, 6.2666361E-008, 8.4815615E-004, 4.7962802E+002
 1.0000183E+002, 9.7682441E-002, 1.0245234E-001, 6.3177737E-002, 1.7611269E-004, 1.2975026E-007, 8.4371623E-004, 4.9040877E+002
 1.0100002E+002, 9.7297101E-002, 1.0274630E-001, 6.3343307E-002, 1.7692519E-004, 2.4461396E-007, 8.4621637E-004, 4.7195275E+002
 1.0200366E+002, 9.7665305E-002, 1.0246413E-001, 6.3185474E-002, 1.7700340E-004, 3.9281814E-007, 8.4400046E-004, 4.8160535E+002
 1.0300323E+002, 9.8360578E-002, 1.0193421E-001, 6.2886589E-002, 1.7521315E-004, 1.2810794E-007, 8.3942373E-004, 4.7306085E+002
 1.0400070E+002, 9.6657153E-002, 1.0323500E-001, 6.3618141E-002, 1.7795109E-004, 2.5982662E-007, 8.5030304E-004, 4.7436808E+002
 1.0500372E+002, 9.5585552E-002, 1.0405169E-001, 6.4078807E-002, 1.8073794E-004, 7.4428591E-007, 8.5736249E-004, 4.8361609E+002
 1.0600358E+002, 9.6817005E-002, 1.0311340E-001, 6.3549348E-002, 1.7737579E-004, 1.8302169E-007, 8.4921760E-004, 4.8383000E+002
 1.0700007E+002, 9.7515291E-002, 1.0257971E-001, 6.3249600E-002, 1.7655940E-004, 1.9166516E-007, 8.4481983E-004, 4.8207196E+002
 1.0800029E+002, 9.6425601E-002, 1.0341231E-001, 6.3717431E-002, 1.7798929E-004, 2.3236685E-007, 8.5171420E-004, 4.8109364E+002
 1.0900023E+002, 9.6584391E-002, 1.0329117E-001, 6.3649207E-002, 1.7766066E-004, 1.7880148E-007, 8.5068521E-004, 4.7334137E+002
 1.1000341E+002, 9.7418009E-002, 1.0265438E-001, 6.3291265E-002, 1.7646281E-004, 1.4792716E-007, 8.4538989E-004, 4.8426321E+002
 1.1100350E+002, 9.6174359E-002, 1.0360329E-001, 6.3825593E-002, 1.7898319E-004, 3.8170770E-007, 8.5343836E-004, 4.7230970E+002
 1.1200413E+002, 9.7449217E-002, 1.0263032E-001, 6.3277932E-002, 1.7656679E-004, 1.6901018E-007, 8.4522182E-004, 4.7494441E+002
 1.1300234E+002, 9.5317368E-002, 1.0425786E-001, 6.4193584E-002, 1.8025906E-004, 4.8296548E-007, 8.5889107E-004, 4.7901568E+002
 1.1400465E+002, 9.6644765E-002, 1.0324520E-001, 6.3623242E-002, 1.7747307E-004, 1.2464021E-007, 8.5028131E-004, 4.8561300E+002
 1.1500114E+002, 9.5593967E-002, 1.0404804E-001, 6.4074392E-002, 1.7888537E-004, 1.5424726E-007, 8.5693641E-004, 4.8244373E+002
 1.1600624E+002, 9.4802331E-002, 1.0465245E-001, 6.4414396E-002, 1.8022609E-004, 2.5673511E-007, 8.6200617E-004, 4.8087148E+002
 1.1700540E+002, 9.8456071E-002, 1.0186161E-001, 6.2845485E-002, 1.7484330E-004, 4.2526342E-008, 8.3877005E-004, 4.8440327E+002
 1.1800039E+002, 9.4843842E-002, 1.0461955E-001, 6.4396916E-002, 1.8095576E-004, 5.0141876E-007, 8.6190230E-004, 4.8613527E+002
 1.1900324E+002, 9.6112671E-002, 1.0365152E-001, 6.3851751E-002, 1.7832928E-004, 2.0052885E-007, 8.5367980E-004, 4.8738692E+002
 1.2000438E+002, 9.5294774E-002, 1.0427613E-001, 6.4202996E-002, 1.7962264E-004, 2.5265511E-007, 8.5889919E-004, 4.7849631E+002
 1.2100232E+002, 9.5277012E-002, 1.0428910E-001, 6.4210794E-002, 1.8004001E-004, 3.7502341E-007, 8.5909136E-004, 4.8213546E+002
 1.2200764E+002, 9.6570432E-002, 1.0330204E-001, 6.3655146E-002, 1.7754616E-004, 1.0550277E-007, 8.5074668E-004, 4.8064071E+002
 1.2300420E+002, 9.8149958E-002, 1.0209535E-001, 6.2976954E-002, 1.7534875E-004, 7.3031904E-008, 8.4072782E-004, 4.7578873E+002
 1.2400036E+002, 9.4579743E-002, 1.0482065E-001, 6.4510495E-002, 1.8175789E-004, 6.9451692E-007, 8.6366542E-004, 4.8346030E+002
 1.2500070E+002, 9.6647607E-002, 1.0324313E-001, 6.3621994E-002, 1.7740602E-004, 1.1022464E-007, 8.5025051E-004, 4.8236387E+002
 1.2600471E+002, 9.5054753E-002, 1.0445897E-001, 6.4306195E-002, 1.8029724E-004, 4.1894017E-007, 8.6049054E-004, 4.7838735E+002
 1.2700659E+002, 9.8313537E-002, 1.0197061E-001, 6.2906653E-002, 1.7496817E-004, 1.7311616E-008, 8.3965927E-004, 4.8060833E+002
 1.2800448E+002, 9.6511496E-002, 1.0334706E-001, 6.3680453E-002, 1.7763425E-004, 1.0644635E-007, 8.5112175E-004, 4.7864624E+002
 1.2900040E+002, 9.6227832E-002, 1.0356393E-001, 6.3802198E-002, 1.7791829E-004, 1.0246641E-007, 8.5289859E-004, 4.8866883E+002
 1.3000571E+002, 9.5446674E-002, 1.0416041E-001, 6.4137678E-002, 1.7918957E-004, 1.9466554E-007, 8.5789078E-004, 4.7862167E+002
 1.3100458E+002, 9.5685532E-002, 1.0397713E-001, 6.4035350E-002, 1.7938925E-004, 3.8506942E-007, 8.5648338E-004, 4.9165784E+002
 1.3200224E+002, 9.6152481E-002, 1.0362110E-001, 6.3834658E-002, 1.7827547E-004, 2.1090211E-007, 8.5342759E-004, 4.7969231E+002
 1.3300292E+002, 9.5786609E-002, 1.0390065E-001, 6.3991743E-002, 1.7876311E-004, 1.8640814E-007, 8.5574401E-004, 4.7461823E+002
 1.3400443E+002, 9.4356829E-002, 1.0499220E-001, 6.4605849E-002, 1.8124055E-004, 4.0256581E-007, 8.6491187E-004, 4.8289564E+002
 1.3500627E+002, 9.4721350E-002, 1.0471425E-001, 6.4449190E-002, 1.8038952E-004, 2.5454784E-007, 8.6253015E-004, 4.8762337E+002
 1.3600258E+002, 9.5171461E-002, 1.0437033E-001, 6.4255939E-002, 1.7979405E-004, 2.8466695E-007, 8.5968129E-004, 4.7996610E+002
 1.3700775E+002, 9.5594613E-002, 1.0404728E-001, 6.4074189E-002, 1.7905701E-004, 2.2029324E-007, 8.5696723E-004, 4.7953974E+002
 1.3800239E+002, 9.4787001E-002, 1.0466372E-001, 6.4421101E-002, 1.8053744E-004, 3.7911838E-007, 8.6216209E-004, 4.8117839E+002
 1.3900082E+002, 9.6638847E-002, 1.0324972E-001, 6.3625785E-002, 1.7748738E-004, 1.3288161E-007, 8.5032007E-004, 4.8134360E+002
 1.4000407E+002, 9.6213569E-002, 1.0357457E-001, 6.3808393E-002, 1.7810351E-004, 1.5939432E-007, 8.5302253E-004, 4.7926754E+002
 1.4100330E+002, 9.4322528E-002, 1.0501713E-001, 6.4620970E-002, 1.8215346E-004, 5.1880153E-007, 8.6530484E-004, 4.8453149E+002
 1.4200592E+002, 9.7813390E-002, 1.0235259E-001, 6.3121432E-002, 1.7574130E-004, 5.4161132E-008, 8.4284734E-004, 4.9288131E+002
 1.4300782E+002, 9.4898877E-002, 1.0457748E-001, 6.4373290E-002, 1.8089665E-004, 5.3657787E-007, 8.6155671E-004, 4.8903482E+002
 1.4400587E+002, 9.4307931E-002, 1.0502953E-001, 6.4626856E-002, 1.8132826E-004, 3.7826811E-007, 8.6522606E-004, 4.8268334E+002
 1.4500037E+002, 9.5616356E-002, 1.0403053E-001, 6.4064900E-002, 1.7912377E-004, 2.0742107E-007, 8.5684902E-004, 4.7945215E+002
 1.4600198E+002, 9.4676189E-002, 1.0474818E-001, 6.4468734E-002, 1.8081974E-004, 4.3570427E-007, 8.6289089E-004, 4.7881985E+002
 1.4700526E+002, 9.5212066E-002, 1.0433968E-001, 6.4238403E-002, 1.7949604E-004, 1.7454228E-007, 8.5937488E-004, 4.7921991E+002
 1.4800151E+002, 9.5168584E-002, 1.0437217E-001, 6.4257281E-002, 1.8003786E-004, 3.4069276E-007, 8.5974812E-004, 4.7683455E+002
 1.4900033E+002, 9.6367244E-002, 1.0345675E-001, 6.3742532E-002, 1.7816836E-004, 2.4655349E-007, 8.5210420E-004, 4.8428356E+002
 1.5000666E+002, 9.7423220E-002, 1.0265050E-001, 6.3289003E-002, 1.7639277E-004, 1.0758344E-007, 8.4534416E-004, 4.7341735E+002
 1.5100056E+002, 9.7014762E-002, 1.0296254E-001, 6.3464378E-002, 1.7695781E-004, 1.1867856E-007, 8.4793433E-004, 4.8272577E+002
 1.5200049E+002, 9.5717849E-002, 1.0395331E-001, 6.4021229E-002, 1.7877436E-004, 1.6808056E-007, 8.5616305E-004, 4.8837615E+002
 1.5300372E+002, 9.6319119E-002, 1.0349410E-001, 6.3763029E-002, 1.7784919E-004, 1.0934671E-007, 8.5233130E-004, 4.7887576E+002
 1.5400041E+002, 9.5606220E-002, 1.0403857E-001, 6.4069165E-002, 1.7894039E-004, 1.5327223E-007, 8.5687331E-004, 4.8067781E+002
