s,,,,,,,
Time,"O2 EXHAUST","CO2 EXHAUST","H2O EXHAUST","CO EXHAUST","FUEL EXHAUST","SOOT EXHAUST","TEMP EXHAUST"
 0.0000000E+000, 2.3099739E-001, 5.9146498E-004, 5.9412092E-003, 0.0000000E+000, 0.0000000E+000, 0.0000000E+000, 2.0000000E+001
 1.0013647E+000, 2.3099739E-001, 5.9146498E-004, 5.9412092E-003, 2.1403226E-035, 1.0483635E-033, 8.3556104E-036, 2.0297131E+001
 2.0029134E+000, 2.2498961E-001, 5.2796746E-003, 9.8504441E-003, 4.9051513E-006, 1.7973665E-004, 2.8250406E-005, 8.3319497E+001
 3.0040382E+000, 2.2135240E-001, 8.1292497E-003, 1.2236990E-002, 1.3034770E-005, 1.8619826E-004, 4.6524937E-005, 1.1780279E+002
 4.0017281E+000, 2.1675556E-001, 1.1721404E-002, 1.5241320E-002, 2.1318931E-005, 2.6071573E-004, 6.9140821E-005, 1.6269745E+002
 5.0011064E+000, 2.1375471E-001, 1.4070965E-002, 1.7206867E-002, 2.6906328E-005, 2.8285987E-004, 8.3969572E-005, 1.8932610E+002
 6.0026888E+000, 2.0962553E-001, 1.7314275E-002, 1.9912245E-002, 3.0467629E-005, 2.8929959E-004, 1.0354884E-004, 2.2497313E+002
 7.0022797E+000, 2.0502317E-001, 2.0935763E-002, 2.2930690E-002, 3.3128319E-005, 2.7109005E-004, 1.2512888E-004, 2.6263253E+002
 8.0027909E+000, 2.0114937E-001, 2.3992171E-002, 2.5473839E-002, 3.3052624E-005, 2.2903279E-004, 1.4284389E-004, 2.8978539E+002
 9.0069550E+000, 1.9733921E-001, 2.7002626E-002, 2.7976800E-002, 3.1919066E-005, 1.7262909E-004, 1.6006546E-004, 3.1432936E+002
 1.0002107E+001, 1.9115219E-001, 3.1889591E-002, 3.2039758E-002, 3.0011807E-005, 8.9710106E-005, 1.8800741E-004, 3.5161989E+002
 1.1002919E+001, 1.8765855E-001, 3.4646312E-002, 3.4332580E-002, 2.9447226E-005, 5.4253163E-005, 2.0387903E-004, 3.6535060E+002
 1.2005607E+001, 1.8252910E-001, 3.8692096E-002, 3.7698303E-002, 2.9032181E-005, 8.2564641E-006, 2.2726103E-004, 3.8579239E+002
 1.3003378E+001, 1.7783849E-001, 4.2381757E-002, 4.0772494E-002, 3.1214940E-005, 8.4577730E-007, 2.4913413E-004, 4.0351725E+002
 1.4002224E+001, 1.7148639E-001, 4.7375664E-002, 4.4934668E-002, 3.4871174E-005, 1.4412122E-008, 2.7888961E-004, 4.2558078E+002
 1.5007700E+001, 1.6697027E-001, 5.0925992E-002, 4.7893773E-002, 3.7515211E-005, 9.5597786E-009, 3.0005331E-004, 4.3372110E+002
 1.6005429E+001, 1.6285721E-001, 5.4159414E-002, 5.0588792E-002, 3.9947155E-005, 2.8592051E-008, 3.1933306E-004, 4.4053465E+002
 1.7001172E+001, 1.5893187E-001, 5.7245313E-002, 5.3160783E-002, 4.2232994E-005, 1.5972361E-008, 3.3772563E-004, 4.4699620E+002
 1.8004551E+001, 1.5424765E-001, 6.0927787E-002, 5.6230037E-002, 4.4979474E-005, 1.7447833E-008, 3.5967793E-004, 4.5525517E+002
 1.9002425E+001, 1.5052472E-001, 6.3854532E-002, 5.8669418E-002, 4.7167516E-005, 2.8521831E-008, 3.7712623E-004, 4.5787520E+002
 2.0006539E+001, 1.4661257E-001, 6.6930048E-002, 6.1232777E-002, 4.9456708E-005, 2.5148131E-008, 3.9545929E-004, 4.5758083E+002
 2.1003071E+001, 1.4321317E-001, 6.9602479E-002, 6.3460170E-002, 5.1442368E-005, 1.9049915E-008, 4.1138882E-004, 4.5990625E+002
 2.2001856E+001, 1.3960453E-001, 7.2439382E-002, 6.5824662E-002, 5.3559100E-005, 2.0665880E-008, 4.2830062E-004, 4.6242346E+002
 2.3003480E+001, 1.3606311E-001, 7.5223427E-002, 6.8145120E-002, 5.5647723E-005, 2.7485621E-008, 4.4489974E-004, 4.6282392E+002
 2.4003283E+001, 1.3307276E-001, 7.7574298E-002, 7.0104479E-002, 5.7382778E-005, 1.6893466E-008, 4.5891005E-004, 4.6238379E+002
 2.5004628E+001, 1.2978007E-001, 8.0162805E-002, 7.2261955E-002, 5.9322675E-005, 2.7693268E-008, 4.7434290E-004, 4.6755415E+002
 2.6002094E+001, 1.2720325E-001, 8.2188549E-002, 7.3950370E-002, 6.0837027E-005, 2.8128865E-008, 4.8641970E-004, 4.6328782E+002
 2.7007415E+001, 1.2498056E-001, 8.3935938E-002, 7.5406738E-002, 6.2119775E-005, 1.5592460E-008, 4.9683200E-004, 4.6139696E+002
 2.8000440E+001, 1.2117018E-001, 8.6931413E-002, 7.7903428E-002, 6.4372005E-005, 2.7780421E-008, 5.1469278E-004, 4.6716899E+002
 2.9000645E+001, 1.1875824E-001, 8.8827562E-002, 7.9483803E-002, 6.5775940E-005, 2.8075584E-008, 5.2599408E-004, 4.6383916E+002
 3.0003038E+001, 1.1609438E-001, 9.0921726E-002, 8.1229248E-002, 6.7342936E-005, 3.1442083E-008, 5.3847910E-004, 4.6408208E+002
 3.1002097E+001, 1.1280377E-001, 9.3508637E-002, 8.3385352E-002, 6.9260071E-005, 1.9836589E-008, 5.5389780E-004, 4.6820286E+002
 3.2002002E+001, 1.1098030E-001, 9.4942117E-002, 8.4580157E-002, 7.0347149E-005, 2.9116352E-008, 5.6244704E-004, 4.6420562E+002
 3.3007397E+001, 1.0794691E-001, 9.7326810E-002, 8.6567724E-002, 7.2116685E-005, 3.0917750E-008, 5.7666096E-004, 4.6360330E+002
 3.4003278E+001, 1.0585776E-001, 9.8969203E-002, 8.7936589E-002, 7.3325650E-005, 1.8288679E-008, 5.8644832E-004, 4.5954541E+002
 3.5005121E+001, 1.0372551E-001, 1.0064546E-001, 8.9333707E-002, 7.4575089E-005, 1.5285229E-008, 5.9644081E-004, 4.5909455E+002
 3.6004865E+001, 1.0202154E-001, 1.0198502E-001, 9.0450211E-002, 7.5582667E-005, 2.4713599E-008, 6.0442812E-004, 4.5960144E+002
 3.7008943E+001, 9.7955921E-002, 1.0518117E-001, 9.3114130E-002, 7.7968984E-005, 2.8635782E-008, 6.2348185E-004, 4.6292098E+002
 3.8000915E+001, 9.6600920E-002, 1.0624641E-001, 9.4001962E-002, 7.8750371E-005, 1.8991338E-008, 6.2982928E-004, 4.5975930E+002
 3.9007939E+001, 9.3849325E-002, 1.0840956E-001, 9.5804894E-002, 8.0365912E-005, 2.1112921E-008, 6.4272489E-004, 4.6183557E+002
 4.0002966E+001, 9.1331563E-002, 1.1038885E-001, 9.7454623E-002, 8.1860142E-005, 3.0343704E-008, 6.5452790E-004, 4.6134388E+002
 4.1005721E+001, 9.0172523E-002, 1.1130007E-001, 9.8214043E-002, 8.2510328E-005, 1.3404629E-008, 6.5995362E-004, 4.6079539E+002
 4.2009114E+001, 8.6149934E-002, 1.1446230E-001, 1.0084981E-001, 8.4927742E-005, 6.1447092E-008, 6.7881728E-004, 4.6653851E+002
 4.3005420E+001, 8.4794957E-002, 1.1552757E-001, 1.0173761E-001, 8.5683811E-005, 3.0484171E-008, 6.8515941E-004, 4.6256812E+002
 4.4007557E+001, 8.2778462E-002, 1.1711284E-001, 1.0305887E-001, 8.6859942E-005, 2.4343750E-008, 6.9460830E-004, 4.6417191E+002
 4.5007068E+001, 8.0038975E-002, 1.1926519E-001, 1.0485438E-001, 8.9286921E-005, 5.6652219E-007, 7.0761527E-004, 4.6298066E+002
 4.6005400E+001, 7.8477022E-002, 1.2048687E-001, 1.0588044E-001, 9.4271506E-005, 2.6930649E-006, 7.1577146E-004, 4.6135242E+002
 4.7006530E+001, 7.6872508E-002, 1.2174197E-001, 1.0693417E-001, 9.9195278E-005, 5.7285331E-006, 7.2410848E-004, 4.6104303E+002
 4.8008011E+001, 7.4305152E-002, 1.2374661E-001, 1.0862131E-001, 1.0921410E-004, 1.3616724E-005, 7.3788627E-004, 4.5984108E+002
 4.9003023E+001, 7.2384750E-002, 1.2524356E-001, 1.0988455E-001, 1.1845776E-004, 1.9671816E-005, 7.4855253E-004, 4.6023777E+002
 5.0003421E+001, 7.0754974E-002, 1.2650848E-001, 1.1095925E-001, 1.3005046E-004, 2.5335652E-005, 7.5837638E-004, 4.6052310E+002
 5.1005908E+001, 6.8784982E-002, 1.2803481E-001, 1.1225818E-001, 1.4516387E-004, 3.7982741E-005, 7.7047166E-004, 4.5993740E+002
 5.2007533E+001, 6.6690223E-002, 1.2965951E-001, 1.1363931E-001, 1.6045510E-004, 4.8257632E-005, 7.8317574E-004, 4.6036080E+002
 5.3002641E+001, 6.4614650E-002, 1.3127569E-001, 1.1500458E-001, 1.7118005E-004, 5.8451147E-005, 7.9485132E-004, 4.6253382E+002
 5.4000292E+001, 6.2493019E-002, 1.3289309E-001, 1.1641446E-001, 2.0464640E-004, 8.1509528E-005, 8.1140995E-004, 4.6226665E+002
 5.5001972E+001, 6.1705134E-002, 1.3352056E-001, 1.1692687E-001, 1.9960904E-004, 8.0569432E-005, 8.1397006E-004, 4.6155618E+002
 5.6002896E+001, 5.9767123E-002, 1.3500846E-001, 1.1821017E-001, 2.2324885E-004, 9.8777218E-005, 8.2767051E-004, 4.5800904E+002
 5.7002507E+001, 5.8277481E-002, 1.3617705E-001, 1.1918613E-001, 2.2516346E-004, 1.0418722E-004, 8.3486046E-004, 4.6064970E+002
 5.8002434E+001, 5.6122523E-002, 1.3783878E-001, 1.2061073E-001, 2.4706114E-004, 1.1911524E-004, 8.4919586E-004, 4.5952472E+002
 5.9000746E+001, 5.4519030E-002, 1.3908958E-001, 1.2166453E-001, 2.5389639E-004, 1.2630494E-004, 8.5791774E-004, 4.5959106E+002
 6.0000631E+001, 5.2520294E-002, 1.4062975E-001, 1.2298564E-001, 2.7457717E-004, 1.4326726E-004, 8.7128698E-004, 4.6217423E+002
 6.1004402E+001, 5.1428234E-002, 1.4149074E-001, 1.2369818E-001, 2.7259390E-004, 1.5035343E-004, 8.7585673E-004, 4.5933160E+002
 6.2003983E+001, 4.9712573E-002, 1.4281006E-001, 1.2483393E-001, 2.9243525E-004, 1.6337674E-004, 8.8776473E-004, 4.6271118E+002
 6.3005406E+001, 4.7949665E-002, 1.4416910E-001, 1.2599882E-001, 3.1023796E-004, 1.7853776E-004, 8.9946608E-004, 4.6005134E+002
 6.4003314E+001, 4.5258542E-002, 1.4625866E-001, 1.2777522E-001, 3.2992234E-004, 1.7870626E-004, 9.1580888E-004, 4.6271073E+002
 6.5002711E+001, 4.4049783E-002, 1.4717496E-001, 1.2857968E-001, 3.5187991E-004, 1.9748370E-004, 9.2583258E-004, 4.6523318E+002
 6.6005806E+001, 4.2928392E-002, 1.4801033E-001, 1.2933410E-001, 3.8283194E-004, 2.1216712E-004, 9.3731522E-004, 4.5883598E+002
 6.7005087E+001, 4.1137241E-002, 1.4943411E-001, 1.3050032E-001, 3.7323039E-004, 2.1015404E-004, 9.4351644E-004, 4.6177011E+002
 6.8004786E+001, 3.9536187E-002, 1.5068370E-001, 1.3155139E-001, 3.7917422E-004, 2.2042665E-004, 9.5204023E-004, 4.6507454E+002
 6.9007010E+001, 3.8335185E-002, 1.5157730E-001, 1.3235921E-001, 4.1271620E-004, 2.3896581E-004, 9.6441597E-004, 4.6227558E+002
 7.0003710E+001, 3.7165562E-002, 1.5248265E-001, 1.3313113E-001, 4.2243559E-004, 2.4532505E-004, 9.7175218E-004, 4.6131920E+002
 7.1003361E+001, 3.5286077E-002, 1.5393911E-001, 1.3437060E-001, 4.3685307E-004, 2.5601876E-004, 9.8329290E-004, 4.6867813E+002
 7.2007847E+001, 3.5034875E-002, 1.5414560E-001, 1.3452866E-001, 4.2971830E-004, 2.6399636E-004, 9.8296111E-004, 4.6311775E+002
 7.3002911E+001, 3.3646370E-002, 1.5521335E-001, 1.3544921E-001, 4.4647078E-004, 2.6901339E-004, 9.9274737E-004, 4.6026610E+002
 7.4001011E+001, 3.1962954E-002, 1.5653019E-001, 1.3655590E-001, 4.5220090E-004, 2.6762891E-004, 1.0016154E-003, 4.6440830E+002
 7.5004301E+001, 3.0801327E-002, 1.5737116E-001, 1.3734864E-001, 5.0070181E-004, 2.8698429E-004, 1.0168932E-003, 4.6002218E+002
 7.6001556E+001, 2.9743619E-002, 1.5821741E-001, 1.3803316E-001, 4.9050763E-004, 2.9136960E-004, 1.0196169E-003, 4.6201481E+002
 7.7005000E+001, 2.7864373E-002, 1.5958866E-001, 1.3931535E-001, 5.6410062E-004, 3.0207762E-004, 1.0433508E-003, 4.6158788E+002
 7.8003886E+001, 2.7182512E-002, 1.6014822E-001, 1.3974954E-001, 5.4775964E-004, 3.0498243E-004, 1.0430935E-003, 4.6400111E+002
 7.9005087E+001, 2.6212705E-002, 1.6088802E-001, 1.4039760E-001, 5.6467822E-004, 3.0014286E-004, 1.0510127E-003, 4.6001571E+002
 8.0004470E+001, 2.4755502E-002, 1.6202130E-001, 1.4135761E-001, 5.7358375E-004, 3.0411261E-004, 1.0594967E-003, 4.6034251E+002
 8.1002672E+001, 2.2964519E-002, 1.6338000E-001, 1.4255423E-001, 6.0803605E-004, 3.1110250E-004, 1.0747659E-003, 4.6507465E+002
 8.2005113E+001, 2.1758568E-002, 1.6428430E-001, 1.4336383E-001, 6.3784802E-004, 3.2173993E-004, 1.0864039E-003, 4.6746749E+002
 8.3003932E+001, 2.1336901E-002, 1.6458659E-001, 1.4365227E-001, 6.5710516E-004, 3.3207826E-004, 1.0922865E-003, 4.5958711E+002
 8.4004124E+001, 1.9787115E-002, 1.6575614E-001, 1.4469102E-001, 6.9130305E-004, 3.3740795E-004, 1.1064037E-003, 4.6329209E+002
 8.5009567E+001, 1.8399681E-002, 1.6673043E-001, 1.4565583E-001, 7.7161721E-004, 3.4951465E-004, 1.1292758E-003, 4.6334643E+002
 8.6005621E+001, 1.7181369E-002, 1.6774053E-001, 1.4643201E-001, 7.3810248E-004, 3.3225410E-004, 1.1279499E-003, 4.6698197E+002
 8.7003011E+001, 1.7384602E-002, 1.6744657E-001, 1.4635647E-001, 8.2625256E-004, 3.7262072E-004, 1.1451446E-003, 4.5927761E+002
 8.8006486E+001, 1.5772450E-002, 1.6860328E-001, 1.4746435E-001, 9.0204928E-004, 3.8978282E-004, 1.1681064E-003, 4.6264377E+002
 8.9007464E+001, 1.4430568E-002, 1.6932864E-001, 1.4849812E-001, 1.1262451E-003, 4.3673614E-004, 1.2203834E-003, 4.5966439E+002
 9.0002819E+001, 1.3240389E-002, 1.7023031E-001, 1.4929475E-001, 1.1504153E-003, 4.3815530E-004, 1.2307965E-003, 4.6690822E+002
 9.1002910E+001, 1.3594870E-002, 1.6993915E-001, 1.4905979E-001, 1.1543177E-003, 4.7423416E-004, 1.2299442E-003, 4.6193576E+002
 9.2006475E+001, 1.2280757E-002, 1.7084397E-001, 1.4998560E-001, 1.2443946E-003, 4.7396230E-004, 1.2545064E-003, 4.5877198E+002
 9.3000357E+001, 1.1689502E-002, 1.7093242E-001, 1.5055273E-001, 1.5015370E-003, 5.1454914E-004, 1.3101524E-003, 4.6070402E+002
 9.4009992E+001, 1.0666663E-002, 1.7169504E-001, 1.5124263E-001, 1.5303863E-003, 5.1942181E-004, 1.3207621E-003, 4.5922967E+002
 9.5009578E+001, 9.8882139E-003, 1.7172824E-001, 1.5202055E-001, 1.9214080E-003, 6.1605306E-004, 1.4047922E-003, 4.5730343E+002
 9.6001859E+001, 1.0128459E-002, 1.7199677E-001, 1.5164891E-001, 1.6113163E-003, 5.4988271E-004, 1.3398645E-003, 4.5723221E+002
 9.7002998E+001, 8.8413109E-003, 1.7254731E-001, 1.5271606E-001, 1.9286151E-003, 5.8571710E-004, 1.4110891E-003, 4.5738095E+002
 9.8008906E+001, 8.0370923E-003, 1.7307026E-001, 1.5330134E-001, 2.0067811E-003, 5.7285556E-004, 1.4308821E-003, 4.6235432E+002
 9.9007471E+001, 8.1429596E-003, 1.7216477E-001, 1.5360463E-001, 2.5575782E-003, 7.4173757E-004, 1.5437234E-003, 4.5533041E+002
 1.0000016E+002, 8.3877720E-003, 1.7183835E-001, 1.5349476E-001, 2.6419958E-003, 8.1012477E-004, 1.5599295E-003, 4.4933107E+002
 1.0100361E+002, 7.8780856E-003, 1.7203340E-001, 1.5393065E-001, 2.7845068E-003, 8.1730833E-004, 1.5916162E-003, 4.5039891E+002
 1.0200768E+002, 7.2359499E-003, 1.7216837E-001, 1.5454345E-001, 3.0450974E-003, 7.9523747E-004, 1.6482711E-003, 4.5242252E+002
 1.0300717E+002, 6.9595983E-003, 1.7245272E-001, 1.5469174E-001, 2.9991000E-003, 7.9097476E-004, 1.6400587E-003, 4.5092179E+002
 1.0400513E+002, 6.9984653E-003, 1.7146714E-001, 1.5510937E-001, 3.6441061E-003, 9.4592436E-004, 1.7726342E-003, 4.5007775E+002
 1.0500824E+002, 6.4244254E-003, 1.7153188E-001, 1.5567574E-001, 3.9110636E-003, 9.6491481E-004, 1.8302470E-003, 4.4752123E+002
 1.0600899E+002, 6.2799173E-003, 1.7101268E-001, 1.5603435E-001, 4.3234372E-003, 1.1866812E-003, 1.9156508E-003, 4.4097084E+002
 1.0700378E+002, 6.2010565E-003, 1.7096170E-001, 1.5614077E-001, 4.4009770E-003, 1.1956585E-003, 1.9319800E-003, 4.4162802E+002
 1.0800557E+002, 6.2222108E-003, 1.7147768E-001, 1.5588515E-001, 4.0439592E-003, 1.0877502E-003, 1.8584265E-003, 4.4204097E+002
 1.0900402E+002, 5.8506594E-003, 1.7091746E-001, 1.5651773E-001, 4.6166175E-003, 1.2514103E-003, 1.9779580E-003, 4.3583743E+002
 1.1000824E+002, 5.4821723E-003, 1.7109134E-001, 1.5682872E-001, 4.7031069E-003, 1.2067259E-003, 1.9975104E-003, 4.4235011E+002
 1.1100192E+002, 5.4077438E-003, 1.7042448E-001, 1.5719616E-001, 5.1839649E-003, 1.3961330E-003, 2.0967409E-003, 4.3747935E+002
 1.1200101E+002, 5.2092101E-003, 1.6990255E-001, 1.5763062E-001, 5.6368186E-003, 1.5470574E-003, 2.1908077E-003, 4.3805276E+002
 1.1300710E+002, 5.5132515E-003, 1.6945054E-001, 1.5753303E-001, 5.7819241E-003, 1.5703602E-003, 2.2192969E-003, 4.4000147E+002
 1.1400414E+002, 5.4356988E-003, 1.6933218E-001, 1.5766999E-001, 5.9045939E-003, 1.5876409E-003, 2.2449113E-003, 4.2852501E+002
 1.1500461E+002, 5.2553727E-003, 1.6911140E-001, 1.5791593E-001, 6.1289721E-003, 1.8086785E-003, 2.2917392E-003, 4.2762748E+002
 1.1600825E+002, 4.9251136E-003, 1.6913600E-001, 1.5827935E-001, 6.3072515E-003, 1.6944277E-003, 2.3301055E-003, 4.3649701E+002
 1.1700744E+002, 5.1419898E-003, 1.6806826E-001, 1.5852018E-001, 6.8961391E-003, 1.9738638E-003, 2.4501728E-003, 4.2731249E+002
 1.1800735E+002, 4.7527813E-003, 1.6832618E-001, 1.5881527E-001, 6.9378750E-003, 1.9103621E-003, 2.4606172E-003, 4.3463947E+002
 1.1900177E+002, 4.8102779E-003, 1.6744469E-001, 1.5913727E-001, 7.4882462E-003, 2.1597435E-003, 2.5735068E-003, 4.3499982E+002
 1.2000882E+002, 4.8372970E-003, 1.6712965E-001, 1.5927493E-001, 7.6963651E-003, 2.1309744E-003, 2.6163008E-003, 4.3032684E+002
 1.2100185E+002, 4.6474789E-003, 1.6674236E-001, 1.5963310E-001, 8.0511382E-003, 2.2787553E-003, 2.6901197E-003, 4.2309134E+002
 1.2200227E+002, 4.6039629E-003, 1.6669819E-001, 1.5970492E-001, 8.1076411E-003, 2.2635795E-003, 2.7019780E-003, 4.3183888E+002
 1.2300308E+002, 4.4757669E-003, 1.6603002E-001, 1.6013142E-001, 8.6198010E-003, 2.4456200E-003, 2.8079121E-003, 4.2845309E+002
 1.2400159E+002, 4.7564328E-003, 1.6605783E-001, 1.5981667E-001, 8.4438931E-003, 2.4678051E-003, 2.7703579E-003, 4.2462946E+002
 1.2500144E+002, 4.6015231E-003, 1.6580248E-001, 1.6008007E-001, 8.6920432E-003, 2.5814576E-003, 2.8220816E-003, 4.2989551E+002
 1.2600565E+002, 4.6008869E-003, 1.6422226E-001, 1.6069865E-001, 9.7009746E-003, 3.3003806E-003, 3.0292369E-003, 4.2188294E+002
 1.2700953E+002, 4.7012378E-003, 1.6489093E-001, 1.6039078E-001, 9.2493560E-003, 2.7588373E-003, 2.9362848E-003, 4.2393285E+002
 1.2800429E+002, 4.5434195E-003, 1.6507536E-001, 1.6043929E-001, 9.1949808E-003, 2.8569524E-003, 2.9256968E-003, 4.2654350E+002
 1.2900849E+002, 4.5147998E-003, 1.6373450E-001, 1.6107670E-001, 1.0108744E-002, 3.1339173E-003, 3.1138346E-003, 4.2405981E+002
 1.3000920E+002, 4.6629167E-003, 1.6344274E-001, 1.6099891E-001, 1.0195440E-002, 3.4114975E-003, 3.1307311E-003, 4.1829195E+002
 1.3100361E+002, 4.3302219E-003, 1.6386490E-001, 1.6119085E-001, 1.0111849E-002, 3.1909385E-003, 3.1152569E-003, 4.2487167E+002
 1.3200512E+002, 4.7272001E-003, 1.6293597E-001, 1.6114793E-001, 1.0493085E-002, 3.5679422E-003, 3.1916083E-003, 4.2093872E+002
 1.3300311E+002, 4.6708078E-003, 1.6176207E-001, 1.6171203E-001, 1.1296534E-002, 3.9183583E-003, 3.3570631E-003, 4.1573537E+002
 1.3400511E+002, 4.4440329E-003, 1.6216275E-001, 1.6179122E-001, 1.1163666E-002, 3.7467117E-003, 3.3308992E-003, 4.1950854E+002
 1.3500624E+002, 4.6740928E-003, 1.6193389E-001, 1.6167472E-001, 1.1202048E-002, 3.7064282E-003, 3.3378008E-003, 4.2109887E+002
 1.3600176E+002, 4.6435961E-003, 1.6108865E-001, 1.6203110E-001, 1.1755069E-002, 4.1159051E-003, 3.4514692E-003, 4.2013143E+002
 1.3700765E+002, 4.6384018E-003, 1.6096003E-001, 1.6208834E-001, 1.1840760E-002, 4.1684562E-003, 3.4690958E-003, 4.1862712E+002
 1.3800586E+002, 4.5576222E-003, 1.6123385E-001, 1.6211214E-001, 1.1733624E-002, 3.8596712E-003, 3.4477128E-003, 4.1681808E+002
 1.3900753E+002, 4.4120928E-003, 1.6039469E-001, 1.6250357E-001, 1.2303208E-002, 4.6016712E-003, 3.5649689E-003, 4.1531648E+002
 1.4000997E+002, 4.5392525E-003, 1.6056091E-001, 1.6237362E-001, 1.2162505E-002, 4.2500170E-003, 3.5357645E-003, 4.1344982E+002
 1.4101019E+002, 4.6178777E-003, 1.6038336E-001, 1.6234185E-001, 1.2223341E-002, 4.4050255E-003, 3.5477786E-003, 4.1636778E+002
 1.4200857E+002, 4.5648143E-003, 1.5975492E-001, 1.6267570E-001, 1.2669962E-002, 4.5613407E-003, 3.6398913E-003, 4.1612428E+002
 1.4300972E+002, 4.6671490E-003, 1.5901689E-001, 1.6285286E-001, 1.3083021E-002, 4.9123389E-003, 3.7241730E-003, 4.1395683E+002
 1.4400928E+002, 4.3280811E-003, 1.5926241E-001, 1.6314528E-001, 1.3128247E-002, 4.6730087E-003, 3.7352931E-003, 4.1593861E+002
 1.4500714E+002, 4.4414441E-003, 1.5872128E-001, 1.6318647E-001, 1.3385466E-002, 5.1245384E-003, 3.7873044E-003, 4.1220113E+002
 1.4600129E+002, 4.3394137E-003, 1.5865245E-001, 1.6332105E-001, 1.3485458E-002, 5.1544263E-003, 3.8083441E-003, 4.1352621E+002
 1.4700516E+002, 4.4994197E-003, 1.5780742E-001, 1.6345088E-001, 1.3920699E-002, 5.6685659E-003, 3.8967616E-003, 4.1563495E+002
 1.4800201E+002, 4.3905543E-003, 1.5827157E-001, 1.6349315E-001, 1.3739743E-002, 5.0189191E-003, 3.8606541E-003, 4.2154935E+002
 1.4900656E+002, 4.6740208E-003, 1.5704404E-001, 1.6362839E-001, 1.4344207E-002, 5.7644732E-003, 3.9831355E-003, 4.1317346E+002
 1.5000616E+002, 4.5724215E-003, 1.5691748E-001, 1.6386511E-001, 1.4521576E-002, 5.4994923E-003, 4.0204294E-003, 4.1113097E+002
 1.5100068E+002, 4.5146459E-003, 1.5723663E-001, 1.6383250E-001, 1.4365528E-002, 5.2282390E-003, 3.9888224E-003, 4.1716410E+002
 1.5200524E+002, 4.3596951E-003, 1.5637666E-001, 1.6422046E-001, 1.4942595E-002, 6.0660401E-003, 4.1075625E-003, 4.1054340E+002
 1.5300167E+002, 4.2955355E-003, 1.5630434E-001, 1.6436423E-001, 1.5048356E-002, 5.9062737E-003, 4.1298180E-003, 4.1340192E+002
 1.5400077E+002, 4.3564371E-003, 1.5614822E-001, 1.6440851E-001, 1.5138724E-002, 5.7875734E-003, 4.1482873E-003, 4.1482875E+002
