s,,,,,,,
Time,O2 EXHAUST,CO2 EXHAUST,H2O EXHAUST,CO EXHAUST,FUEL EXHAUST,SOOT EXHAUST,TEMP EXHAUST
 0.0000000E+000, 2.3099739E-001, 5.9146498E-004, 5.9412092E-003, 0.0000000E+000, 0.0000000E+000, 0.0000000E+000, 2.0000000E+001
 1.0043055E+000, 2.3099739E-001, 5.9146498E-004, 5.9412092E-003, 4.7511324E-025, 8.7459064E-023, 2.2158292E-024, 2.0201684E+001
 2.0000534E+000, 2.2436232E-001, 6.6244642E-003, 8.4583152E-003, 1.1610805E-005, 4.7375569E-004, 3.8843949E-005, 9.3339582E+001
 3.0019108E+000, 2.1963776E-001, 1.0949536E-002, 1.0267055E-002, 2.3389252E-005, 6.5401543E-004, 6.7431387E-005, 1.4208936E+002
 4.0010052E+000, 2.1428035E-001, 1.5865905E-002, 1.2322288E-002, 3.5662529E-005, 8.0918691E-004, 9.9687788E-005, 1.9206868E+002
 5.0061198E+000, 2.0940855E-001, 2.0348420E-002, 1.4195766E-002, 4.6144542E-005, 8.9948914E-004, 1.2894565E-004, 2.3390521E+002
 6.0068735E+000, 2.0294575E-001, 2.6327997E-002, 1.6689600E-002, 5.3851005E-005, 9.0163502E-004, 1.6662891E-004, 2.8922197E+002
 7.0066733E+000, 1.9733492E-001, 3.1545024E-002, 1.8865726E-002, 6.0209390E-005, 7.8570649E-004, 1.9942784E-004, 3.3013145E+002
 8.0023819E+000, 1.9125829E-001, 3.7207395E-002, 2.1226547E-002, 6.5709723E-005, 6.1143945E-004, 2.3472609E-004, 3.6764677E+002
 9.0019427E+000, 1.8301348E-001, 4.4906917E-002, 2.4433216E-002, 6.9211811E-005, 3.2044186E-004, 2.8187070E-004, 4.1317559E+002
 1.0008638E+001, 1.7638313E-001, 5.1082555E-002, 2.7006049E-002, 7.3283735E-005, 1.5442531E-004, 3.1995550E-004, 4.3747081E+002
 1.1004853E+001, 1.6861328E-001, 5.8302309E-002, 3.0014718E-002, 7.9353550E-005, 3.2387561E-005, 3.6476031E-004, 4.6277852E+002
 1.2008851E+001, 1.6131256E-001, 6.5064884E-002, 3.2834711E-002, 8.7463104E-005, 2.3924948E-006, 4.0724797E-004, 4.7936981E+002
 1.3000104E+001, 1.5561528E-001, 7.0336657E-002, 3.5033631E-002, 9.4527882E-005, 4.3345777E-007, 4.4052864E-004, 4.8648468E+002
 1.4004986E+001, 1.5023649E-001, 7.5313373E-002, 3.7109494E-002, 1.0122211E-004, 1.2365837E-007, 4.7195196E-004, 4.9205030E+002
 1.5003809E+001, 1.4380285E-001, 8.1265878E-002, 3.9592462E-002, 1.0932433E-004, 1.3173246E-007, 5.0955694E-004, 5.0205660E+002
 1.6004988E+001, 1.4003082E-001, 8.4755896E-002, 4.1048207E-002, 1.1402637E-004, 9.9776614E-008, 5.3159477E-004, 5.0047332E+002
 1.7008792E+001, 1.3480655E-001, 8.9589448E-002, 4.3064440E-002, 1.2062012E-004, 1.2740990E-007, 5.6213388E-004, 5.0538428E+002
 1.8007732E+001, 1.3092665E-001, 9.3179285E-002, 4.4561806E-002, 1.2544040E-004, 1.0248185E-007, 5.8479855E-004, 5.0519538E+002
 1.9004999E+001, 1.2696913E-001, 9.6840856E-002, 4.6089149E-002, 1.3041506E-004, 1.1702348E-007, 6.0792855E-004, 5.0862877E+002
 2.0003413E+001, 1.2423926E-001, 9.9366598E-002, 4.7142694E-002, 1.3383480E-004, 1.0765971E-007, 6.2388104E-004, 5.0580699E+002
 2.1003452E+001, 1.2111604E-001, 1.0225629E-001, 4.8348046E-002, 1.3774352E-004, 1.1841471E-007, 6.4213139E-004, 5.0646487E+002
 2.2000091E+001, 1.1864339E-001, 1.0454408E-001, 4.9302313E-002, 1.4081674E-004, 9.4930117E-008, 6.5657577E-004, 5.0432563E+002
 2.3000229E+001, 1.1568646E-001, 1.0727983E-001, 5.0443507E-002, 1.4456976E-004, 1.2544937E-007, 6.7386520E-004, 5.0594438E+002
 2.4001218E+001, 1.1297650E-001, 1.0978721E-001, 5.1489358E-002, 1.4793060E-004, 1.0022004E-007, 6.8969438E-004, 5.0261979E+002
 2.5006356E+001, 1.1077177E-001, 1.1182707E-001, 5.2340236E-002, 1.5069686E-004, 1.0633317E-007, 7.0257901E-004, 5.0276813E+002
 2.6001340E+001, 1.0807643E-001, 1.1432086E-001, 5.3380458E-002, 1.5407706E-004, 1.1011481E-007, 7.1833051E-004, 5.0483783E+002
 2.7006478E+001, 1.0598639E-001, 1.1625466E-001, 5.4187059E-002, 1.5666302E-004, 8.9389736E-008, 7.3053738E-004, 5.0137698E+002
 2.8001462E+001, 1.0308964E-001, 1.1893474E-001, 5.5305029E-002, 1.6033940E-004, 1.2263664E-007, 7.4747491E-004, 5.0278790E+002
 2.9006599E+001, 1.0120506E-001, 1.2067844E-001, 5.6032340E-002, 1.6267562E-004, 1.0505977E-007, 7.5848272E-004, 5.0119047E+002
 3.0002633E+001, 9.9481045E-002, 1.2227356E-001, 5.6697688E-002, 1.6482019E-004, 9.9745393E-008, 7.6855421E-004, 5.0135190E+002
 3.1008228E+001, 9.7092078E-002, 1.2448283E-001, 5.7619956E-002, 1.6857353E-004, 4.9237180E-007, 7.8267129E-004, 5.0057841E+002
 3.2002674E+001, 9.5267847E-002, 1.2616862E-001, 5.8324500E-002, 1.7228171E-004, 1.4623515E-006, 7.9362437E-004, 5.0021127E+002
 3.3010031E+001, 9.2922000E-002, 1.2833146E-001, 5.9231819E-002, 1.8060031E-004, 4.7448064E-006, 8.0844046E-004, 4.9866721E+002
 3.4000224E+001, 9.0848322E-002, 1.3023648E-001, 6.0035725E-002, 1.9288975E-004, 1.0249712E-005, 8.2255438E-004, 4.9930199E+002
 3.5001908E+001, 8.9126514E-002, 1.3182011E-001, 6.0702699E-002, 2.0173631E-004, 1.4231646E-005, 8.3399358E-004, 4.9747501E+002
 3.6001491E+001, 8.7136204E-002, 1.3364376E-001, 6.1475725E-002, 2.1710957E-004, 2.0414611E-005, 8.4827841E-004, 5.0022786E+002
 3.7004153E+001, 8.4727372E-002, 1.3586184E-001, 6.2408191E-002, 2.2770595E-004, 2.4728800E-005, 8.6391571E-004, 4.9958979E+002
 3.8005024E+001, 8.3505023E-002, 1.3698481E-001, 6.2882056E-002, 2.3492459E-004, 2.7912820E-005, 8.7223010E-004, 4.9876767E+002
 3.9008986E+001, 8.1617856E-002, 1.3872226E-001, 6.3612647E-002, 2.4341139E-004, 3.1458224E-005, 8.8451899E-004, 4.9707071E+002
 4.0002612E+001, 7.9698742E-002, 1.4049416E-001, 6.4354153E-002, 2.4833445E-004, 3.3732591E-005, 8.9625139E-004, 4.9784289E+002
 4.1001719E+001, 7.8118698E-002, 1.4194342E-001, 6.4967351E-002, 2.5937543E-004, 3.8505777E-005, 9.0735139E-004, 4.9748525E+002
 4.2001564E+001, 7.6768147E-002, 1.4318126E-001, 6.5491677E-002, 2.6941694E-004, 4.3275079E-005, 9.1696315E-004, 4.9941307E+002
 4.3004844E+001, 7.4975775E-002, 1.4483283E-001, 6.6185133E-002, 2.7641573E-004, 4.6478192E-005, 9.2841554E-004, 4.9768029E+002
 4.4001595E+001, 7.3298604E-002, 1.4637673E-001, 6.6834510E-002, 2.8413552E-004, 4.9544713E-005, 9.3937374E-004, 4.9780144E+002
 4.5009063E+001, 7.1719672E-002, 1.4782930E-001, 6.7445889E-002, 2.9183950E-004, 5.3992013E-005, 9.4977825E-004, 4.9673138E+002
 4.6002626E+001, 7.0126741E-002, 1.4929376E-001, 6.8063197E-002, 3.0056970E-004, 5.7418167E-005, 9.6047437E-004, 4.9648819E+002
 4.7005272E+001, 6.8726845E-002, 1.5058706E-001, 6.8603612E-002, 3.0332858E-004, 6.0350980E-005, 9.6885890E-004, 4.9965177E+002
 4.8008318E+001, 6.7258357E-002, 1.5194015E-001, 6.9171959E-002, 3.0927895E-004, 6.1844131E-005, 9.7828797E-004, 4.9808529E+002
 4.9000308E+001, 6.6389927E-002, 1.5274884E-001, 6.9505218E-002, 3.0614364E-004, 6.2875597E-005, 9.8248862E-004, 4.9822923E+002
 5.0005248E+001, 6.4957676E-002, 1.5406023E-001, 7.0061766E-002, 3.1789241E-004, 6.7563048E-005, 9.9290962E-004, 4.9551043E+002
 5.1009481E+001, 6.4032367E-002, 1.5492360E-001, 7.0416519E-002, 3.1345098E-004, 6.7228072E-005, 9.9715974E-004, 4.9523311E+002
 5.2002858E+001, 6.2678978E-002, 1.5617626E-001, 7.0938452E-002, 3.1454627E-004, 6.8575698E-005, 1.0049427E-003, 4.9556635E+002
 5.3007623E+001, 6.1090179E-002, 1.5763536E-001, 7.1555103E-002, 3.2489818E-004, 6.9426217E-005, 1.0159543E-003, 4.9790782E+002
 5.4009069E+001, 6.0034273E-002, 1.5861154E-001, 7.1962785E-002, 3.2674173E-004, 6.9941647E-005, 1.0222316E-003, 4.9646977E+002
 5.5007457E+001, 5.8822511E-002, 1.5971735E-001, 7.2434733E-002, 3.3941234E-004, 7.4799966E-005, 1.0316116E-003, 4.9494386E+002
 5.6006711E+001, 5.7299698E-002, 1.6111957E-001, 7.3024026E-002, 3.4591857E-004, 7.8685176E-005, 1.0414558E-003, 4.9621899E+002
 5.7006058E+001, 5.6387912E-002, 1.6195608E-001, 7.3377484E-002, 3.5180269E-004, 8.3435230E-005, 1.0477580E-003, 4.9712145E+002
 5.8002890E+001, 5.4980758E-002, 1.6325796E-001, 7.3920609E-002, 3.5365202E-004, 8.3198638E-005, 1.0559991E-003, 4.9746909E+002
 5.9003619E+001, 5.3708813E-002, 1.6441860E-001, 7.4416317E-002, 3.6731530E-004, 8.6564598E-005, 1.0659223E-003, 4.9569718E+002
 6.0003413E+001, 5.2662750E-002, 1.6537967E-001, 7.4821911E-002, 3.7354151E-004, 8.8778501E-005, 1.0730483E-003, 4.9654537E+002
 6.1003320E+001, 5.1862803E-002, 1.6612777E-001, 7.5127931E-002, 3.6827025E-004, 8.9130055E-005, 1.0764259E-003, 4.9866387E+002
 6.2009592E+001, 5.0496542E-002, 1.6740038E-001, 7.5653166E-002, 3.6412609E-004, 8.4440224E-005, 1.0832057E-003, 4.9883232E+002
 6.3001783E+001, 4.9802811E-002, 1.6802414E-001, 7.5925811E-002, 3.7800160E-004, 9.1072213E-005, 1.0899393E-003, 4.9626265E+002
 6.4004124E+001, 4.9105213E-002, 1.6866027E-001, 7.6197727E-002, 3.8573168E-004, 9.3504789E-005, 1.0954297E-003, 4.9454547E+002
 6.5009076E+001, 4.7719995E-002, 1.6992953E-001, 7.6736379E-002, 3.9706272E-004, 9.3890760E-005, 1.1055073E-003, 4.9699798E+002
 6.6009877E+001, 4.6820882E-002, 1.7074427E-001, 7.7087743E-002, 4.1022406E-004, 1.0189978E-004, 1.1132385E-003, 4.9498482E+002
 6.7007650E+001, 4.6105935E-002, 1.7139773E-001, 7.7365460E-002, 4.1650636E-004, 1.0714831E-004, 1.1185230E-003, 4.9552128E+002
 6.8002462E+001, 4.5172157E-002, 1.7227451E-001, 7.7722626E-002, 4.0872662E-004, 1.0080209E-004, 1.1221382E-003, 4.9627780E+002
 6.9005799E+001, 4.4403735E-002, 1.7298215E-001, 7.8019979E-002, 4.1197234E-004, 1.0267746E-004, 1.1270980E-003, 4.9763545E+002
 7.0001639E+001, 4.3648142E-002, 1.7366760E-001, 7.8315316E-002, 4.2275181E-004, 1.0752397E-004, 1.1335395E-003, 4.9746410E+002
 7.1005748E+001, 4.2663800E-002, 1.7458600E-001, 7.8693521E-002, 4.1887498E-004, 1.0234997E-004, 1.1382423E-003, 4.9780345E+002
 7.2002092E+001, 4.2307573E-002, 1.7491097E-001, 7.8831728E-002, 4.2211111E-004, 1.0720206E-004, 1.1408943E-003, 4.9594081E+002
 7.3009816E+001, 4.1312308E-002, 1.7581819E-001, 7.9220446E-002, 4.3407539E-004, 1.0671120E-004, 1.1489261E-003, 4.9478427E+002
 7.4001019E+001, 4.0867347E-002, 1.7624835E-001, 7.9385907E-002, 4.2009150E-004, 1.0743209E-004, 1.1485199E-003, 4.9674296E+002
 7.5005291E+001, 3.9755868E-002, 1.7728285E-001, 7.9813696E-002, 4.1757619E-004, 1.0220123E-004, 1.1542142E-003, 4.9844409E+002
 7.6009045E+001, 3.9178937E-002, 1.7779133E-001, 8.0043800E-002, 4.3708088E-004, 1.0803091E-004, 1.1614599E-003, 4.9707180E+002
 7.7000275E+001, 3.8602802E-002, 1.7830792E-001, 8.0271239E-002, 4.5026056E-004, 1.1032185E-004, 1.1673986E-003, 4.9685136E+002
 7.8002121E+001, 3.8283062E-002, 1.7861124E-001, 8.0391683E-002, 4.4435244E-004, 1.1312973E-004, 1.1679595E-003, 4.9305945E+002
 7.9002003E+001, 3.6911353E-002, 1.7986951E-001, 8.0925450E-002, 4.5532142E-004, 1.0850673E-004, 1.1778932E-003, 4.9754834E+002
 8.0009105E+001, 3.6562619E-002, 1.8020206E-001, 8.1057073E-002, 4.4836590E-004, 1.0656425E-004, 1.1784058E-003, 4.9646009E+002
 8.1004864E+001, 3.6212693E-002, 1.8054062E-001, 8.1187646E-002, 4.3770208E-004, 1.0388234E-004, 1.1781595E-003, 4.9731900E+002
 8.2009099E+001, 3.5232172E-002, 1.8143976E-001, 8.1568566E-002, 4.4504954E-004, 1.0495483E-004, 1.1851527E-003, 4.9815957E+002
 8.3001499E+001, 3.4697352E-002, 1.8194639E-001, 8.1771776E-002, 4.3724228E-004, 1.0056122E-004, 1.1865316E-003, 4.9807949E+002
 8.4008098E+001, 3.4371803E-002, 1.8224548E-001, 8.1897935E-002, 4.3911339E-004, 1.0166768E-004, 1.1887350E-003, 4.9652285E+002
 8.5005768E+001, 3.3845476E-002, 1.8273307E-001, 8.2100753E-002, 4.3918840E-004, 1.0229240E-004, 1.1916891E-003, 4.9620300E+002
 8.6003854E+001, 3.3272006E-002, 1.8325940E-001, 8.2323958E-002, 4.4370210E-004, 9.9484943E-005, 1.1958283E-003, 4.9650032E+002
 8.7010635E+001, 3.2556237E-002, 1.8390578E-001, 8.2605537E-002, 4.5704779E-004, 9.9095089E-005, 1.2025845E-003, 4.9879536E+002
 8.8005052E+001, 3.2357286E-002, 1.8407740E-001, 8.2685644E-002, 4.6619157E-004, 1.0398028E-004, 1.2055792E-003, 4.9697231E+002
 8.9007807E+001, 3.1784734E-002, 1.8459482E-001, 8.2910588E-002, 4.7640770E-004, 1.0470539E-004, 1.2108873E-003, 4.9687714E+002
 9.0010117E+001, 3.1376884E-002, 1.8495428E-001, 8.3072253E-002, 4.8918358E-004, 1.1484226E-004, 1.2157925E-003, 4.9768580E+002
 9.1000104E+001, 3.0736342E-002, 1.8554773E-001, 8.3319758E-002, 4.8992685E-004, 1.1143248E-004, 1.2195278E-003, 4.9471334E+002
 9.2000607E+001, 3.0354848E-002, 1.8591687E-001, 8.3462324E-002, 4.7849894E-004, 1.0714085E-004, 1.2193020E-003, 5.0239746E+002
 9.3003494E+001, 3.0030058E-002, 1.8620787E-001, 8.3590445E-002, 4.8593530E-004, 1.0947472E-004, 1.2226498E-003, 4.9790923E+002
 9.4004433E+001, 2.9835705E-002, 1.8639905E-001, 8.3661850E-002, 4.7748881E-004, 1.0841421E-004, 1.2219909E-003, 4.9872638E+002
 9.5008235E+001, 2.9347833E-002, 1.8685717E-001, 8.3848667E-002, 4.7362204E-004, 1.0380001E-004, 1.2239223E-003, 5.0166766E+002
 9.6002236E+001, 2.8971273E-002, 1.8718386E-001, 8.4000112E-002, 4.8993231E-004, 1.1042090E-004, 1.2293878E-003, 4.9684417E+002
 9.7003838E+001, 2.8390486E-002, 1.8772911E-001, 8.4222370E-002, 4.8524437E-004, 1.0599464E-004, 1.2316681E-003, 4.9980442E+002
 9.8006500E+001, 2.8162644E-002, 1.8794536E-001, 8.4308764E-002, 4.8155237E-004, 1.0433966E-004, 1.2321796E-003, 4.9923039E+002
 9.9008932E+001, 2.8147245E-002, 1.8795545E-001, 8.4315282E-002, 4.8400313E-004, 1.0919731E-004, 1.2327659E-003, 4.9809722E+002
 1.0000339E+002, 2.7616732E-002, 1.8844941E-001, 8.4519123E-002, 4.8237096E-004, 1.0838455E-004, 1.2353924E-003, 4.9689793E+002
 1.0100393E+002, 2.7300044E-002, 1.8873846E-001, 8.4643010E-002, 4.8621199E-004, 1.0628088E-004, 1.2379576E-003, 4.9935672E+002
 1.0200036E+002, 2.7001776E-002, 1.8898430E-001, 8.4767466E-002, 5.0941978E-004, 1.1032243E-004, 1.2444148E-003, 4.9753286E+002
 1.0301104E+002, 2.6137316E-002, 1.8976472E-001, 8.5107270E-002, 5.2536965E-004, 1.1193579E-004, 1.2525371E-003, 4.9668626E+002
 1.0400176E+002, 2.6232147E-002, 1.8969779E-001, 8.5063522E-002, 5.0877864E-004, 1.1331904E-004, 1.2485766E-003, 4.9666869E+002
 1.0500127E+002, 2.6096603E-002, 1.8983175E-001, 8.5113375E-002, 5.0266487E-004, 1.1101486E-004, 1.2480730E-003, 4.9806068E+002
 1.0600804E+002, 2.5629019E-002, 1.9026751E-001, 8.5293063E-002, 5.0107785E-004, 1.0935386E-004, 1.2503585E-003, 4.9733821E+002
 1.0700944E+002, 2.5384640E-002, 1.9049012E-001, 8.5388740E-002, 5.0431281E-004, 1.0814015E-004, 1.2523934E-003, 4.9599518E+002
 1.0800113E+002, 2.4850190E-002, 1.9095494E-001, 8.5603799E-002, 5.2705920E-004, 1.1454114E-004, 1.2600712E-003, 4.9593866E+002
 1.0900642E+002, 2.4608014E-002, 1.9118969E-001, 8.5694266E-002, 5.1958517E-004, 1.1121166E-004, 1.2598833E-003, 4.9602407E+002
 1.1000523E+002, 2.4076280E-002, 1.9166631E-001, 8.5904632E-002, 5.3228160E-004, 1.1091537E-004, 1.2654774E-003, 4.9658618E+002
 1.1100309E+002, 2.3602647E-002, 1.9210363E-001, 8.6088175E-002, 5.3403395E-004, 1.0819142E-004, 1.2684882E-003, 4.9820312E+002
 1.1200008E+002, 2.3540213E-002, 1.9215849E-001, 8.6113095E-002, 5.3623603E-004, 1.0903846E-004, 1.2692909E-003, 4.9747088E+002
 1.1300630E+002, 2.3098809E-002, 1.9255166E-001, 8.6288497E-002, 5.4866281E-004, 1.0913243E-004, 1.2743243E-003, 4.9846877E+002
 1.1400852E+002, 2.2948903E-002, 1.9268116E-001, 8.6348747E-002, 5.5536115E-004, 1.1309682E-004, 1.2765408E-003, 4.9527033E+002
 1.1500735E+002, 2.2514196E-002, 1.9310616E-001, 8.6510075E-002, 5.3926027E-004, 1.0624122E-004, 1.2756497E-003, 5.0068696E+002
 1.1601071E+002, 2.2884533E-002, 1.9276116E-001, 8.6366783E-002, 5.3947590E-004, 1.1314770E-004, 1.2736171E-003, 4.9540086E+002
 1.1701050E+002, 2.2995110E-002, 1.9268814E-001, 8.6315352E-002, 5.1747313E-004, 1.0726237E-004, 1.2684596E-003, 5.0109566E+002
 1.1800170E+002, 2.2261576E-002, 1.9333337E-001, 8.6609248E-002, 5.4417270E-004, 1.0917550E-004, 1.2780720E-003, 4.9779269E+002
 1.1900644E+002, 2.2022342E-002, 1.9354312E-001, 8.6705170E-002, 5.5325828E-004, 1.1075474E-004, 1.2812839E-003, 4.9667405E+002
 1.2000873E+002, 2.1559719E-002, 1.9397029E-001, 8.6884577E-002, 5.5509386E-004, 1.0727778E-004, 1.2842514E-003, 5.0049489E+002
 1.2100693E+002, 2.0821934E-002, 1.9463182E-001, 8.7176453E-002, 5.7260535E-004, 1.0648582E-004, 1.2919921E-003, 5.0097706E+002
 1.2201009E+002, 2.1298736E-002, 1.9422663E-001, 8.6980650E-002, 5.4411088E-004, 1.0548671E-004, 1.2834412E-003, 5.0204781E+002
 1.2300224E+002, 2.1299611E-002, 1.9420100E-001, 8.6988009E-002, 5.6292311E-004, 1.0884042E-004, 1.2873202E-003, 4.9563890E+002
 1.2400666E+002, 2.0955260E-002, 1.9452943E-001, 8.7117871E-002, 5.5591763E-004, 1.0742536E-004, 1.2877972E-003, 4.9990884E+002
 1.2500231E+002, 2.0905356E-002, 1.9459089E-001, 8.7132663E-002, 5.4466784E-004, 1.0372905E-004, 1.2857556E-003, 5.0011267E+002
 1.2600580E+002, 2.0013177E-002, 1.9537170E-001, 8.7491039E-002, 5.7983932E-004, 1.0848461E-004, 1.2980014E-003, 4.9820380E+002
 1.2700960E+002, 2.0419563E-002, 1.9500478E-001, 8.7330427E-002, 5.7148496E-004, 1.1303500E-004, 1.2939992E-003, 4.9761213E+002
 1.2800938E+002, 2.0303088E-002, 1.9511900E-001, 8.7373688E-002, 5.6704977E-004, 1.1029542E-004, 1.2937366E-003, 4.9704785E+002
 1.2900096E+002, 2.0052833E-002, 1.9536480E-001, 8.7465967E-002, 5.5667934E-004, 1.0767491E-004, 1.2929942E-003, 4.9947411E+002
 1.3000900E+002, 2.0278825E-002, 1.9515522E-001, 8.7378396E-002, 5.5625455E-004, 1.1075745E-004, 1.2916403E-003, 4.9840399E+002
 1.3100595E+002, 1.9624543E-002, 1.9574588E-001, 8.7635307E-002, 5.6805783E-004, 1.1367040E-004, 1.2977301E-003, 4.9926461E+002
 1.3200369E+002, 1.9347920E-002, 1.9599928E-001, 8.7743575E-002, 5.7105891E-004, 1.0968233E-004, 1.2999004E-003, 4.9895292E+002
 1.3300433E+002, 1.9294256E-002, 1.9602371E-001, 8.7771747E-002, 5.8987623E-004, 1.1522375E-004, 1.3040821E-003, 4.9782390E+002
 1.3401009E+002, 1.9488023E-002, 1.9585043E-001, 8.7695134E-002, 5.8511624E-004, 1.1424513E-004, 1.3020174E-003, 4.9858665E+002
 1.3500828E+002, 1.9126394E-002, 1.9619699E-001, 8.7831486E-002, 5.7699992E-004, 1.0962847E-004, 1.3023655E-003, 4.9829792E+002
 1.3600938E+002, 1.8600766E-002, 1.9664537E-001, 8.8046298E-002, 6.0660674E-004, 1.1361012E-004, 1.3114151E-003, 4.9756280E+002
 1.3700111E+002, 1.8647199E-002, 1.9658962E-001, 8.8032082E-002, 6.1597421E-004, 1.1688721E-004, 1.3130876E-003, 4.9836319E+002
 1.3800077E+002, 1.8662493E-002, 1.9661532E-001, 8.8013950E-002, 5.8588590E-004, 1.1077841E-004, 1.3067914E-003, 4.9804503E+002
 1.3900168E+002, 1.8554622E-002, 1.9672467E-001, 8.8052666E-002, 5.7883026E-004, 1.0921512E-004, 1.3059376E-003, 4.9905880E+002
 1.4000979E+002, 1.8344975E-002, 1.9688187E-001, 8.8144889E-002, 6.0686927E-004, 1.1468520E-004, 1.3128965E-003, 5.0008535E+002
 1.4101029E+002, 1.8791930E-002, 1.9651419E-001, 8.7957558E-002, 5.7093958E-004, 1.1224243E-004, 1.3029775E-003, 4.9643722E+002
 1.4200986E+002, 1.8095653E-002, 1.9712694E-001, 8.8236818E-002, 5.9644668E-004, 1.1172818E-004, 1.3121385E-003, 4.9753519E+002
 1.4300651E+002, 1.8222817E-002, 1.9699965E-001, 8.8190696E-002, 6.0356039E-004, 1.1324211E-004, 1.3128967E-003, 4.9996039E+002
 1.4400115E+002, 1.7971943E-002, 1.9722283E-001, 8.8289792E-002, 6.1014475E-004, 1.1740879E-004, 1.3156533E-003, 4.9703884E+002
 1.4500687E+002, 1.7788776E-002, 1.9738108E-001, 8.8364589E-002, 6.1950996E-004, 1.1515319E-004, 1.3186147E-003, 4.9920255E+002
 1.4600644E+002, 1.7429753E-002, 1.9772607E-001, 8.8499240E-002, 6.1031543E-004, 1.1303603E-004, 1.3187222E-003, 4.9671485E+002
 1.4700298E+002, 1.7295476E-002, 1.9785495E-001, 8.8549877E-002, 6.0722231E-004, 1.1088411E-004, 1.3188356E-003, 4.9856859E+002
 1.4800598E+002, 1.7308066E-002, 1.9783887E-001, 8.8546150E-002, 6.1031961E-004, 1.1293034E-004, 1.3194028E-003, 4.9808718E+002
 1.4901053E+002, 1.7183803E-002, 1.9795322E-001, 8.8594290E-002, 6.1093699E-004, 1.1307718E-004, 1.3202242E-003, 4.9873663E+002
 1.5000942E+002, 1.7079752E-002, 1.9805008E-001, 8.8634514E-002, 6.1087271E-004, 1.1149207E-004, 1.3207940E-003, 4.9939720E+002
 1.5100910E+002, 1.7078439E-002, 1.9807153E-001, 8.8628741E-002, 5.9553421E-004, 1.0880031E-004, 1.3176346E-003, 4.9669378E+002
 1.5200645E+002, 1.7241571E-002, 1.9792331E-001, 8.8564729E-002, 5.9305987E-004, 1.0970980E-004, 1.3162110E-003, 5.0080932E+002
 1.5300202E+002, 1.7120510E-002, 1.9800588E-001, 8.8620092E-002, 6.1502892E-004, 1.1659397E-004, 1.3214188E-003, 4.9640283E+002
 1.5400907E+002, 1.6668045E-002, 1.9841257E-001, 8.8799104E-002, 6.2533770E-004, 1.1405634E-004, 1.3260797E-003, 4.9712145E+002
