s,,,,,,,
Time,"O2 EXHAUST","CO2 EXHAUST","H2O EXHAUST","CO EXHAUST","FUEL EXHAUST","SOOT EXHAUST","TEMP EXHAUST"
 0.0000000E+000, 2.3099739E-001, 5.9146498E-004, 5.9412092E-003, 0.0000000E+000, 0.0000000E+000, 0.0000000E+000, 2.0000000E+001
 1.0030545E+000, 2.3099739E-001, 5.9146498E-004, 5.9412092E-003, 9.2964615E-033, 8.0184126E-032, 1.3935372E-032, 2.0624555E+001
 2.0043302E+000, 2.2483443E-001, 6.2648082E-003, 7.5843099E-003, 1.7197491E-005, 2.8419952E-004, 3.7760904E-004, 8.0259660E+001
 3.0048189E+000, 2.2170204E-001, 9.1423838E-003, 8.4335042E-003, 5.3543923E-005, 3.1029762E-004, 5.7505472E-004, 1.0615769E+002
 4.0053730E+000, 2.1779845E-001, 1.2734190E-002, 9.4816409E-003, 7.8159346E-005, 4.2544588E-004, 8.1706091E-004, 1.4250610E+002
 5.0015727E+000, 2.1362534E-001, 1.6586053E-002, 1.0605974E-002, 1.0452717E-004, 4.9252117E-004, 1.0765804E-003, 1.7675211E+002
 6.0063714E+000, 2.1043560E-001, 1.9521614E-002, 1.1463780E-002, 1.2664136E-004, 5.7328870E-004, 1.2747981E-003, 2.0369546E+002
 7.0039749E+000, 2.0519795E-001, 2.4369889E-002, 1.2877834E-002, 1.5723699E-004, 6.0678044E-004, 1.6008929E-003, 2.4195136E+002
 8.0014280E+000, 2.0144765E-001, 2.7856286E-002, 1.3887403E-002, 1.6594489E-004, 6.3159664E-004, 1.8325374E-003, 2.6467185E+002
 9.0025490E+000, 1.9639761E-001, 3.2566899E-002, 1.5253582E-002, 1.8062198E-004, 5.7572016E-004, 2.1461425E-003, 2.9221335E+002
 1.0006261E+001, 1.9268522E-001, 3.6026018E-002, 1.6256604E-002, 1.9123118E-004, 5.5292062E-004, 2.3763950E-003, 3.1164820E+002
 1.1006949E+001, 1.8670198E-001, 4.1612627E-002, 1.7873746E-002, 2.0302706E-004, 4.9080164E-004, 2.7471159E-003, 3.3973300E+002
 1.2004168E+001, 1.8056121E-001, 4.7355355E-002, 1.9532797E-002, 2.0905281E-004, 4.1739666E-004, 3.1268884E-003, 3.6033340E+002
 1.3006200E+001, 1.7780762E-001, 4.9942311E-002, 2.0276267E-002, 2.0448553E-004, 3.6809202E-004, 3.2964045E-003, 3.7063688E+002
 1.4001329E+001, 1.7164791E-001, 5.5708188E-002, 2.1939736E-002, 2.0635623E-004, 2.9135833E-004, 3.6768115E-003, 3.8775055E+002
 1.5007558E+001, 1.6700537E-001, 6.0063743E-002, 2.3192715E-002, 2.0107017E-004, 2.2342444E-004, 3.9627349E-003, 3.9892759E+002
 1.6007247E+001, 1.6305691E-001, 6.3756164E-002, 2.4258275E-002, 2.0293086E-004, 1.8733457E-004, 4.2064871E-003, 4.0601248E+002
 1.7005682E+001, 1.5883346E-001, 6.7707529E-002, 2.5397447E-002, 2.0291250E-004, 1.5106919E-004, 4.4669025E-003, 4.1153524E+002
 1.8009682E+001, 1.5528554E-001, 7.1027206E-002, 2.6354472E-002, 2.0282656E-004, 1.1949443E-004, 4.6856712E-003, 4.1800683E+002
 1.9002799E+001, 1.5142226E-001, 7.4639059E-002, 2.7396456E-002, 2.0412447E-004, 9.1160810E-005, 4.9239932E-003, 4.2181809E+002
 2.0000653E+001, 1.4778676E-001, 7.8033844E-002, 2.8376760E-002, 2.0716619E-004, 7.3905377E-005, 5.1483832E-003, 4.2615743E+002
 2.1006248E+001, 1.4410536E-001, 8.1471517E-002, 2.9369290E-002, 2.0996997E-004, 5.7727769E-005, 5.3755489E-003, 4.2744700E+002
 2.2004478E+001, 1.4144673E-001, 8.3953391E-002, 3.0086139E-002, 2.1251066E-004, 4.6793012E-005, 5.5396649E-003, 4.2845988E+002
 2.3006667E+001, 1.3794361E-001, 8.7223466E-002, 3.1030372E-002, 2.1539037E-004, 3.5488085E-005, 5.7558012E-003, 4.3309548E+002
 2.4009316E+001, 1.3575082E-001, 8.9269168E-002, 3.1621463E-002, 2.1793091E-004, 3.0084625E-005, 5.8911709E-003, 4.3113281E+002
 2.5006797E+001, 1.3280668E-001, 9.2014550E-002, 3.2415338E-002, 2.2246607E-004, 2.2805091E-005, 6.0730817E-003, 4.3446675E+002
 2.6007919E+001, 1.2978445E-001, 9.4831769E-002, 3.3230143E-002, 2.2743852E-004, 1.8223975E-005, 6.2598208E-003, 4.3596171E+002
 2.7006699E+001, 1.2666690E-001, 9.7734899E-002, 3.4070857E-002, 2.3453613E-004, 1.6665190E-005, 6.4526779E-003, 4.3599741E+002
 2.8007401E+001, 1.2471658E-001, 9.9554268E-002, 3.4596423E-002, 2.3657965E-004, 1.3614942E-005, 6.5730243E-003, 4.3557997E+002
 2.9003037E+001, 1.2242873E-001, 1.0168551E-001, 3.5213264E-002, 2.4116283E-004, 1.2354946E-005, 6.7144698E-003, 4.3575387E+002
 3.0003205E+001, 1.1984090E-001, 1.0409777E-001, 3.5910740E-002, 2.4506789E-004, 1.0393203E-005, 6.8742905E-003, 4.3705629E+002
 3.1004217E+001, 1.1733715E-001, 1.0642802E-001, 3.6586097E-002, 2.5176171E-004, 9.8890262E-006, 7.0293047E-003, 4.3455070E+002
 3.2003927E+001, 1.1541031E-001, 1.0822208E-001, 3.7105706E-002, 2.5627774E-004, 9.4222291E-006, 7.1485133E-003, 4.3610038E+002
 3.3004580E+001, 1.1274792E-001, 1.1069980E-001, 3.7823884E-002, 2.6354454E-004, 8.9079974E-006, 7.3133696E-003, 4.3635041E+002
 3.4004149E+001, 1.1088325E-001, 1.1243512E-001, 3.8326839E-002, 2.6857873E-004, 8.9556831E-006, 7.4288175E-003, 4.3725907E+002
 3.5005106E+001, 1.0775425E-001, 1.1532621E-001, 3.9174296E-002, 2.9439958E-004, 1.3496544E-005, 7.6248967E-003, 4.3853250E+002
 3.6000094E+001, 1.0648797E-001, 1.1650698E-001, 3.9515359E-002, 2.9570164E-004, 1.3930139E-005, 7.7029961E-003, 4.3877356E+002
 3.7007984E+001, 1.0384818E-001, 1.1893715E-001, 4.0231548E-002, 3.2447243E-004, 2.2082751E-005, 7.8693298E-003, 4.3766321E+002
 3.8007331E+001, 1.0176723E-001, 1.2086188E-001, 4.0794690E-002, 3.3975941E-004, 2.5866732E-005, 7.9994598E-003, 4.3795058E+002
 3.9006452E+001, 9.9771264E-002, 1.2268757E-001, 4.1338189E-002, 3.7136718E-004, 3.4431400E-005, 8.1265626E-003, 4.3882179E+002
 4.0008275E+001, 9.7586495E-002, 1.2468876E-001, 4.1932601E-002, 4.0357410E-004, 4.3448732E-005, 8.2653607E-003, 4.3924461E+002
 4.1010444E+001, 9.6075249E-002, 1.2607812E-001, 4.2343239E-002, 4.2215988E-004, 4.5634580E-005, 8.3609140E-003, 4.3830585E+002
 4.2000648E+001, 9.4250759E-002, 1.2774702E-001, 4.2839764E-002, 4.5053643E-004, 5.5937815E-005, 8.4769902E-003, 4.3784180E+002
 4.3007084E+001, 9.2596877E-002, 1.2926951E-001, 4.3288392E-002, 4.6845522E-004, 6.1850321E-005, 8.5811753E-003, 4.3904668E+002
 4.4005954E+001, 9.0271704E-002, 1.3138324E-001, 4.3923614E-002, 5.1601361E-004, 7.5593330E-005, 8.7306818E-003, 4.3974112E+002
 4.5008426E+001, 8.8141938E-002, 1.3334079E-001, 4.4502006E-002, 5.4190940E-004, 8.2305099E-005, 8.8652500E-003, 4.4026144E+002
 4.6003072E+001, 8.6881626E-002, 1.3447585E-001, 4.4847772E-002, 5.7600639E-004, 9.4956839E-005, 8.9473701E-003, 4.4004520E+002
 4.7007289E+001, 8.5000099E-002, 1.3620141E-001, 4.5358936E-002, 6.0129686E-004, 1.0584885E-004, 9.0665186E-003, 4.4040926E+002
 4.8008222E+001, 8.3308155E-002, 1.3773206E-001, 4.5822084E-002, 6.4154054E-004, 1.2036905E-004, 9.1760290E-003, 4.4131894E+002
 4.9000527E+001, 8.1896341E-002, 1.3904577E-001, 4.6202108E-002, 6.4409172E-004, 1.2784284E-004, 9.2631578E-003, 4.4018021E+002
 5.0002889E+001, 8.0309293E-002, 1.4047432E-001, 4.6637737E-002, 6.8783768E-004, 1.4310114E-004, 9.3666898E-003, 4.4158085E+002
 5.1002071E+001, 7.8394944E-002, 1.4221263E-001, 4.7160827E-002, 7.2823604E-004, 1.5688668E-004, 9.4899185E-003, 4.4198251E+002
 5.2009578E+001, 7.6961957E-002, 1.4352963E-001, 4.7549960E-002, 7.4566544E-004, 1.6187522E-004, 9.5804551E-003, 4.4160575E+002
 5.3007889E+001, 7.5288679E-002, 1.4504312E-001, 4.8007649E-002, 7.8501280E-004, 1.7991704E-004, 9.6886421E-003, 4.4181745E+002
 5.4010191E+001, 7.4173694E-002, 1.4604834E-001, 4.8313242E-002, 8.1409086E-004, 1.9208749E-004, 9.7611278E-003, 4.4198478E+002
 5.5002177E+001, 7.2793403E-002, 1.4731470E-001, 4.8688056E-002, 8.3206748E-004, 2.0081655E-004, 9.8484446E-003, 4.4395558E+002
 5.6005632E+001, 7.0027519E-002, 1.4987236E-001, 4.9437046E-002, 8.5355706E-004, 2.0236643E-004, 1.0021619E-002, 4.4593898E+002
 5.7001420E+001, 6.9162362E-002, 1.5061309E-001, 4.9680312E-002, 9.0815453E-004, 2.2399717E-004, 1.0082146E-002, 4.4433233E+002
 5.8003349E+001, 6.8351727E-002, 1.5137735E-001, 4.9896851E-002, 9.0131168E-004, 2.2615033E-004, 1.0131048E-002, 4.4409996E+002
 5.9006991E+001, 6.6416695E-002, 1.5315273E-001, 5.0423384E-002, 9.2835031E-004, 2.2840983E-004, 1.0253855E-002, 4.4439754E+002
 6.0007429E+001, 6.5803321E-002, 1.5372279E-001, 5.0588236E-002, 9.2939423E-004, 2.3515540E-004, 1.0291650E-002, 4.4424455E+002
 6.1008801E+001, 6.3879415E-002, 1.5547303E-001, 5.1112938E-002, 9.6649087E-004, 2.5248650E-004, 1.0414957E-002, 4.4495631E+002
 6.2007055E+001, 6.2569434E-002, 1.5665823E-001, 5.1471570E-002, 9.9766651E-004, 2.6317718E-004, 1.0499756E-002, 4.4631883E+002
 6.3010191E+001, 6.1239527E-002, 1.5788841E-001, 5.1831306E-002, 1.0070995E-003, 2.6687022E-004, 1.0582855E-002, 4.4664382E+002
 6.4010334E+001, 5.9277791E-002, 1.5965157E-001, 5.2370878E-002, 1.0645193E-003, 2.8034453E-004, 1.0711372E-002, 4.4757962E+002
 6.5000264E+001, 5.8591856E-002, 1.6029965E-001, 5.2553644E-002, 1.0571733E-003, 2.8398812E-004, 1.0752509E-002, 4.4745943E+002
 6.6000190E+001, 5.7249595E-002, 1.6152631E-001, 5.2919981E-002, 1.0804791E-003, 2.8393976E-004, 1.0838352E-002, 4.4675238E+002
 6.7001462E+001, 5.6038566E-002, 1.6263770E-001, 5.3248819E-002, 1.0960594E-003, 2.9119985E-004, 1.0914940E-002, 4.4760558E+002
 6.8007095E+001, 5.4713025E-002, 1.6382831E-001, 5.3613937E-002, 1.1361829E-003, 2.9675591E-004, 1.1002014E-002, 4.4783523E+002
 6.9007943E+001, 5.3540911E-002, 1.6492431E-001, 5.3929322E-002, 1.1351886E-003, 2.9474774E-004, 1.1074033E-002, 4.4879199E+002
 7.0002892E+001, 5.3067198E-002, 1.6534871E-001, 5.4058568E-002, 1.1479805E-003, 3.0995646E-004, 1.1104748E-002, 4.4950306E+002
 7.1004694E+001, 5.1631696E-002, 1.6668199E-001, 5.4445978E-002, 1.1536665E-003, 3.1261855E-004, 1.1193839E-002, 4.4865948E+002
 7.2011990E+001, 5.0787692E-002, 1.6745982E-001, 5.4674880E-002, 1.1622635E-003, 3.1449346E-004, 1.1246947E-002, 4.5027527E+002
 7.3004685E+001, 4.9455174E-002, 1.6867828E-001, 5.5037968E-002, 1.1839980E-003, 3.1862916E-004, 1.1331912E-002, 4.4990272E+002
 7.4002167E+001, 4.8446430E-002, 1.6957799E-001, 5.5316651E-002, 1.2194277E-003, 3.2638004E-004, 1.1398806E-002, 4.5068891E+002
 7.5008613E+001, 4.7545099E-002, 1.7040852E-001, 5.5561380E-002, 1.2291672E-003, 3.2604199E-004, 1.1455631E-002, 4.4929616E+002
 7.6008047E+001, 4.6493375E-002, 1.7132386E-001, 5.5855810E-002, 1.2851866E-003, 3.3826448E-004, 1.1527971E-002, 4.5176389E+002
 7.7002105E+001, 4.5008847E-002, 1.7266194E-001, 5.6264537E-002, 1.3272647E-003, 3.3805835E-004, 1.1625182E-002, 4.5095914E+002
 7.8007797E+001, 4.4158735E-002, 1.7342818E-001, 5.6497277E-002, 1.3490859E-003, 3.4998718E-004, 1.1680362E-002, 4.5212437E+002
 7.9004611E+001, 4.2606409E-002, 1.7482249E-001, 5.6925343E-002, 1.3969152E-003, 3.5212274E-004, 1.1782512E-002, 4.5338318E+002
 8.0010383E+001, 4.2506243E-002, 1.7496230E-001, 5.6943933E-002, 1.3571931E-003, 3.4799507E-004, 1.1783209E-002, 4.5238167E+002
 8.1005178E+001, 4.0801065E-002, 1.7647784E-001, 5.7416768E-002, 1.4230199E-003, 3.5438717E-004, 1.1897208E-002, 4.5312478E+002
 8.2000909E+001, 4.0555315E-002, 1.7673494E-001, 5.7476915E-002, 1.3975751E-003, 3.6104303E-004, 1.1908697E-002, 4.5462775E+002
 8.3011750E+001, 3.9182245E-002, 1.7790889E-001, 5.7866532E-002, 1.4912416E-003, 3.6591015E-004, 1.2006153E-002, 4.5332831E+002
 8.4004772E+001, 3.8059347E-002, 1.7894482E-001, 5.8171524E-002, 1.5028805E-003, 3.6240730E-004, 1.2076922E-002, 4.5468916E+002
 8.5007758E+001, 3.7803789E-002, 1.7924775E-001, 5.8228144E-002, 1.4467691E-003, 3.6155533E-004, 1.2084856E-002, 4.5558389E+002
 8.6001847E+001, 3.7291424E-002, 1.7967320E-001, 5.8375285E-002, 1.4916332E-003, 3.6930714E-004, 1.2122516E-002, 4.5444338E+002
 8.7005234E+001, 3.5869215E-002, 1.8086821E-001, 5.8781263E-002, 1.6042618E-003, 3.8876182E-004, 1.2225426E-002, 4.5520445E+002
 8.8002959E+001, 3.5260164E-002, 1.8145851E-001, 5.8941731E-002, 1.5864953E-003, 3.8266276E-004, 1.2260521E-002, 4.5501115E+002
 8.9000656E+001, 3.4336013E-002, 1.8229669E-001, 5.9195046E-002, 1.6079068E-003, 3.8376904E-004, 1.2320354E-002, 4.5683728E+002
 9.0006653E+001, 3.3402278E-002, 1.8312198E-001, 5.9455278E-002, 1.6487347E-003, 3.8327476E-004, 1.2383501E-002, 4.5691130E+002
 9.1004164E+001, 3.2830306E-002, 1.8367445E-001, 5.9605012E-002, 1.6314193E-003, 3.8968803E-004, 1.2416199E-002, 4.5627428E+002
 9.2009645E+001, 3.2252941E-002, 1.8415179E-001, 5.9772308E-002, 1.6856823E-003, 3.8843390E-004, 1.2459295E-002, 4.5622012E+002
 9.3004461E+001, 3.1413308E-002, 1.8479517E-001, 6.0022515E-002, 1.8042617E-003, 4.1187012E-004, 1.2527125E-002, 4.5704350E+002
 9.4006343E+001, 3.0465924E-002, 1.8573173E-001, 6.0269450E-002, 1.7620059E-003, 3.9488757E-004, 1.2579789E-002, 4.5672034E+002
 9.5005155E+001, 3.0107654E-002, 1.8612793E-001, 6.0353576E-002, 1.7070919E-003, 3.9990043E-004, 1.2594126E-002, 4.5708856E+002
 9.6004835E+001, 2.8818010E-002, 1.8727100E-001, 6.0713066E-002, 1.7618464E-003, 3.9301304E-004, 1.2681203E-002, 4.5874975E+002
 9.7006545E+001, 2.8289930E-002, 1.8770011E-001, 6.0867877E-002, 1.8186717E-003, 3.8849244E-004, 1.2721668E-002, 4.5773648E+002
 9.8002067E+001, 2.7674148E-002, 1.8831828E-001, 6.1025431E-002, 1.7809634E-003, 3.8800887E-004, 1.2754324E-002, 4.5921601E+002
 9.9008676E+001, 2.7322274E-002, 1.8856933E-001, 6.1133676E-002, 1.8466474E-003, 3.9921668E-004, 1.2784955E-002, 4.5784829E+002
 1.0000729E+002, 2.6687020E-002, 1.8918655E-001, 6.1301658E-002, 1.8283455E-003, 3.8461302E-004, 1.2821709E-002, 4.5949872E+002
 1.0100598E+002, 2.5869735E-002, 1.8977107E-001, 6.1553947E-002, 1.9816511E-003, 4.0021794E-004, 1.2893106E-002, 4.5881379E+002
 1.0200546E+002, 2.4860662E-002, 1.9067856E-001, 6.1832340E-002, 2.0123563E-003, 3.9841409E-004, 1.2959499E-002, 4.6013009E+002
 1.0301021E+002, 2.5368710E-002, 1.9033420E-001, 6.1671319E-002, 1.8994480E-003, 3.9395471E-004, 1.2912593E-002, 4.5827986E+002
 1.0400405E+002, 2.4369351E-002, 1.9115274E-001, 6.1961920E-002, 1.9993516E-003, 3.9577622E-004, 1.2987962E-002, 4.5812825E+002
 1.0500774E+002, 2.3133285E-002, 1.9225236E-001, 6.2304671E-002, 2.0465020E-003, 3.9862911E-004, 1.3070545E-002, 4.6033922E+002
 1.0600065E+002, 2.2682846E-002, 1.9256891E-001, 6.2443757E-002, 2.1341225E-003, 4.1664069E-004, 1.3110196E-002, 4.6088545E+002
 1.0700435E+002, 2.3314208E-002, 1.9206612E-001, 6.2256809E-002, 2.0573805E-003, 4.2119833E-004, 1.3060604E-002, 4.5951199E+002
 1.0800546E+002, 2.2247589E-002, 1.9301752E-001, 6.2553534E-002, 2.0983596E-003, 4.1049356E-004, 1.3132094E-002, 4.6156602E+002
 1.0901098E+002, 2.2139761E-002, 1.9310793E-001, 6.2583892E-002, 2.1062689E-003, 4.1615381E-004, 1.3139749E-002, 4.6075976E+002
 1.1000819E+002, 2.0838393E-002, 1.9430771E-001, 6.2938945E-002, 2.1229357E-003, 3.9896795E-004, 1.3222395E-002, 4.6137962E+002
 1.1101164E+002, 2.0439290E-002, 1.9457345E-001, 6.3065747E-002, 2.2147728E-003, 4.0795019E-004, 1.3259602E-002, 4.6038966E+002
 1.1200815E+002, 1.9740906E-002, 1.9515006E-001, 6.3266898E-002, 2.2787450E-003, 4.1889306E-004, 1.3311322E-002, 4.6250873E+002
 1.1300362E+002, 2.0178050E-002, 1.9460965E-001, 6.3173981E-002, 2.3936527E-003, 4.2311035E-004, 1.3300345E-002, 4.5927060E+002
 1.1400601E+002, 1.9063438E-002, 1.9572525E-001, 6.3462199E-002, 2.3324677E-003, 4.0028803E-004, 1.3360750E-002, 4.6177367E+002
 1.1500822E+002, 1.8804697E-002, 1.9588302E-001, 6.3545930E-002, 2.4025513E-003, 4.1745722E-004, 1.3386177E-002, 4.6071086E+002
 1.1600470E+002, 1.8589042E-002, 1.9606985E-001, 6.3605916E-002, 2.4138374E-003, 4.2499776E-004, 1.3400910E-002, 4.6006968E+002
 1.1700201E+002, 1.7610038E-002, 1.9699961E-001, 6.3868927E-002, 2.4044792E-003, 4.0212758E-004, 1.3460179E-002, 4.6239828E+002
 1.1801193E+002, 1.8225282E-002, 1.9647940E-001, 6.3691547E-002, 2.3544902E-003, 4.1543543E-004, 1.3415176E-002, 4.6049467E+002
 1.1900625E+002, 1.7283736E-002, 1.9716844E-001, 6.3977871E-002, 2.5150922E-003, 4.4567162E-004, 1.3495027E-002, 4.6143377E+002
 1.2001108E+002, 1.6972268E-002, 1.9742302E-001, 6.4070678E-002, 2.5503911E-003, 4.2672187E-004, 1.3519373E-002, 4.6180582E+002
 1.2100504E+002, 1.6254487E-002, 1.9776365E-001, 6.4321522E-002, 2.8298559E-003, 4.7370656E-004, 1.3601750E-002, 4.6071350E+002
 1.2200303E+002, 1.6508402E-002, 1.9758820E-001, 6.4242662E-002, 2.7780443E-003, 4.6251103E-004, 1.3579076E-002, 4.6080496E+002
 1.2300719E+002, 1.6038481E-002, 1.9794266E-001, 6.4387117E-002, 2.8551265E-003, 4.4500136E-004, 1.3618965E-002, 4.6127041E+002
 1.2400118E+002, 1.5984105E-002, 1.9799452E-001, 6.4401179E-002, 2.8535415E-003, 4.4834847E-004, 1.3622044E-002, 4.6042566E+002
 1.2500512E+002, 1.5736364E-002, 1.9827619E-001, 6.4457409E-002, 2.8080096E-003, 4.5615905E-004, 1.3630845E-002, 4.6152985E+002
 1.2600107E+002, 1.4906645E-002, 1.9898332E-001, 6.4694832E-002, 2.8692844E-003, 4.4489346E-004, 1.3690587E-002, 4.6094343E+002
 1.2700557E+002, 1.4569630E-002, 1.9920937E-001, 6.4801573E-002, 2.9453516E-003, 4.5266193E-004, 1.3721797E-002, 4.6092072E+002
 1.2800922E+002, 1.4488190E-002, 1.9903224E-001, 6.4870272E-002, 3.1643396E-003, 4.6601398E-004, 1.3757080E-002, 4.6075992E+002
 1.2900312E+002, 1.4399130E-002, 1.9930465E-001, 6.4859507E-002, 3.0010485E-003, 4.5388966E-004, 1.3740019E-002, 4.6119708E+002
 1.3000140E+002, 1.4394316E-002, 1.9903823E-001, 6.4908528E-002, 3.2313418E-003, 4.8950153E-004, 1.3771843E-002, 4.6053052E+002
 1.3100106E+002, 1.3960591E-002, 1.9911601E-001, 6.5086870E-002, 3.5163488E-003, 4.9622864E-004, 1.3838082E-002, 4.6047860E+002
 1.3200951E+002, 1.4252954E-002, 1.9856528E-001, 6.5056554E-002, 3.7514839E-003, 5.3784516E-004, 1.3852207E-002, 4.5793269E+002
 1.3300052E+002, 1.3516833E-002, 1.9957259E-001, 6.5196294E-002, 3.4759973E-003, 5.1417599E-004, 1.3859522E-002, 4.5913764E+002
 1.3401128E+002, 1.3474070E-002, 1.9964276E-001, 6.5204178E-002, 3.4532357E-003, 4.9463010E-004, 1.3859266E-002, 4.6076796E+002
 1.3501011E+002, 1.3486222E-002, 1.9977218E-001, 6.5173323E-002, 3.3287533E-003, 5.0161219E-004, 1.3841103E-002, 4.5933684E+002
 1.3601194E+002, 1.2577384E-002, 2.0008453E-001, 6.5520672E-002, 3.7989174E-003, 4.9642247E-004, 1.3962505E-002, 4.5963223E+002
 1.3700853E+002, 1.3320727E-002, 1.9939142E-001, 6.5315214E-002, 3.7890580E-003, 5.4407889E-004, 1.3914712E-002, 4.6045125E+002
 1.3800860E+002, 1.2765061E-002, 1.9957880E-001, 6.5523400E-002, 4.0712335E-003, 5.8543317E-004, 1.3987569E-002, 4.5805461E+002
 1.3901031E+002, 1.1845050E-002, 2.0034410E-001, 6.5790171E-002, 4.1554897E-003, 5.7355372E-004, 1.4056074E-002, 4.5793034E+002
 1.4000806E+002, 1.2458760E-002, 1.9968978E-001, 6.5641877E-002, 4.2290213E-003, 5.6081227E-004, 1.4028717E-002, 4.5927496E+002
 1.4100558E+002, 1.2703943E-002, 1.9978371E-001, 6.5515754E-002, 3.9489299E-003, 5.4815808E-004, 1.3974848E-002, 4.5855222E+002
 1.4200392E+002, 1.1078150E-002, 2.0083993E-001, 6.6040110E-002, 4.3509007E-003, 5.5917381E-004, 1.4130653E-002, 4.6135014E+002
 1.4301029E+002, 1.1560466E-002, 2.0048818E-001, 6.5891016E-002, 4.2637777E-003, 5.6372692E-004, 1.4088789E-002, 4.6120603E+002
 1.4401056E+002, 1.1476411E-002, 2.0051592E-001, 6.5923429E-002, 4.3083864E-003, 5.6260599E-004, 1.4100183E-002, 4.6017286E+002
 1.4500305E+002, 1.1386028E-002, 2.0035214E-001, 6.5992960E-002, 4.5219175E-003, 5.8163254E-004, 1.4135176E-002, 4.5944691E+002
 1.4601131E+002, 1.1161764E-002, 2.0084964E-001, 6.6001700E-002, 4.2755153E-003, 5.5167793E-004, 1.4115128E-002, 4.5915577E+002
 1.4700398E+002, 1.0721342E-002, 2.0041639E-001, 6.6273843E-002, 5.0017501E-003, 6.1842174E-004, 1.4242301E-002, 4.6070937E+002
 1.4800955E+002, 1.0784566E-002, 2.0071525E-001, 6.6190800E-002, 4.6923679E-003, 5.9863617E-004, 1.4195657E-002, 4.5958954E+002
 1.4901246E+002, 1.0860479E-002, 1.9990869E-001, 6.6307937E-002, 5.3315309E-003, 6.2246603E-004, 1.4279554E-002, 4.5933951E+002
 1.5001203E+002, 1.1041713E-002, 2.0026705E-001, 6.6155985E-002, 4.8653367E-003, 6.4670491E-004, 1.4203209E-002, 4.5720774E+002
 1.5100575E+002, 1.1208323E-002, 1.9978172E-001, 6.6173060E-002, 5.1522797E-003, 6.5508068E-004, 1.4232751E-002, 4.5823301E+002
 1.5200038E+002, 1.0172861E-002, 2.0045839E-001, 6.6506971E-002, 5.4060417E-003, 6.5564061E-004, 1.4331761E-002, 4.5870454E+002
 1.5300030E+002, 1.0703773E-002, 1.9978540E-001, 6.6392183E-002, 5.5513203E-003, 7.0753715E-004, 1.4318561E-002, 4.5719557E+002
 1.5400824E+002, 1.0936229E-002, 1.9970304E-001, 6.6307171E-002, 5.4390393E-003, 6.7812060E-004, 1.4289056E-002, 4.5633233E+002
