s,,,,,,,
Time,"O2 EXHAUST","CO2 EXHAUST","H2O EXHAUST","CO EXHAUST","FUEL EXHAUST","SOOT EXHAUST","TEMP EXHAUST"
 0.0000000E+000, 2.3099739E-001, 5.9146498E-004, 5.9412092E-003, 0.0000000E+000, 0.0000000E+000, 0.0000000E+000, 2.0000000E+001
 1.0028632E+000, 2.3099739E-001, 5.9146498E-004, 5.9412092E-003, 4.8294616E-025, 2.1390202E-024, 1.6294220E-025, 2.1931534E+001
 2.0031151E+000, 2.1846783E-001, 1.0689630E-002, 1.2356943E-002, 1.0546212E-004, 1.5719329E-004, 6.4450199E-005, 1.3727692E+002
 3.0022170E+000, 2.1012126E-001, 1.7449868E-002, 1.6625637E-002, 1.5761804E-004, 2.2029991E-004, 1.0364156E-004, 2.1122666E+002
 4.0045458E+000, 1.9837441E-001, 2.7083674E-002, 2.2605780E-002, 1.5999544E-004, 2.0548005E-004, 1.4406580E-004, 3.0444683E+002
 5.0004035E+000, 1.8827660E-001, 3.5433774E-002, 2.7729115E-002, 1.2022659E-004, 1.4049229E-004, 1.7013503E-004, 3.7362404E+002
 6.0041149E+000, 1.7980620E-001, 4.2468451E-002, 3.2019031E-002, 6.8361856E-005, 6.3280707E-005, 1.8816082E-004, 4.2478056E+002
 7.0039138E+000, 1.7007088E-001, 5.0518449E-002, 3.6957864E-002, 2.9779669E-005, 4.2688026E-006, 2.1324111E-004, 4.7146419E+002
 8.0040977E+000, 1.6092234E-001, 5.8021110E-002, 4.1613847E-002, 3.0784683E-005, 1.6001548E-007, 2.4454142E-004, 5.0326415E+002
 9.0021453E+000, 1.4962370E-001, 6.7280873E-002, 4.7365565E-002, 3.5734629E-005, 1.2896993E-007, 2.8396753E-004, 5.3648325E+002
 1.0000640E+001, 1.3995276E-001, 7.5206267E-002, 5.2288819E-002, 4.0238107E-005, 2.4898650E-007, 3.1776938E-004, 5.6299089E+002
 1.1006012E+001, 1.3578057E-001, 7.8625092E-002, 5.4412890E-002, 4.2386872E-005, 4.2375132E-007, 3.3239488E-004, 5.6605280E+002
 1.2000727E+001, 1.3248078E-001, 8.1330237E-002, 5.6092410E-002, 4.3287427E-005, 1.8178378E-007, 3.4379585E-004, 5.6154513E+002
 1.3007470E+001, 1.2679279E-001, 8.5991970E-002, 5.8987904E-002, 4.5675035E-005, 1.1561776E-007, 3.6362214E-004, 5.6919188E+002
 1.4007344E+001, 1.2208123E-001, 8.9852846E-002, 6.1386536E-002, 4.8047490E-005, 2.9261778E-007, 3.8012709E-004, 5.7438766E+002
 1.5004071E+001, 1.2196642E-001, 8.9947374E-002, 6.1444839E-002, 4.7810264E-005, 1.0715369E-007, 3.8046787E-004, 5.6341709E+002
 1.6006442E+001, 1.1918105E-001, 9.2230066E-002, 6.2862781E-002, 4.9061382E-005, 1.3166694E-007, 3.9019371E-004, 5.6489695E+002
 1.7005270E+001, 1.1915556E-001, 9.2250872E-002, 6.2875785E-002, 4.9128473E-005, 1.6303237E-007, 3.9029429E-004, 5.6863017E+002
 1.8002408E+001, 1.1691218E-001, 9.4089725E-002, 6.4017703E-002, 4.9910260E-005, 8.9334312E-008, 3.9808060E-004, 5.6365241E+002
 1.9006805E+001, 1.1832548E-001, 9.2930910E-002, 6.3298442E-002, 4.9665421E-005, 2.0294870E-007, 3.9322693E-004, 5.5952648E+002
 2.0005561E+001, 1.1584333E-001, 9.4965660E-002, 6.4561829E-002, 5.0404887E-005, 1.0435754E-007, 4.0181581E-004, 5.6801380E+002
 2.1002026E+001, 1.1324591E-001, 9.7093591E-002, 6.5884348E-002, 5.2064648E-005, 3.2027538E-007, 4.1098805E-004, 5.7117475E+002
 2.2001625E+001, 1.1274561E-001, 9.7504140E-002, 6.6138852E-002, 5.1930322E-005, 1.5282529E-007, 4.1266023E-004, 5.6869406E+002
 2.3001694E+001, 1.1080878E-001, 9.9091163E-002, 6.7124921E-002, 5.2978342E-005, 2.5502930E-007, 4.1946025E-004, 5.6861835E+002
 2.4005290E+001, 1.1189813E-001, 9.8196745E-002, 6.6570973E-002, 5.3627082E-005, 5.6557333E-007, 4.1589361E-004, 5.6582912E+002
 2.5001703E+001, 1.0983258E-001, 9.9891372E-002, 6.7621814E-002, 5.3296020E-005, 1.8763911E-007, 4.2284376E-004, 5.6498520E+002
 2.6002664E+001, 1.0914124E-001, 1.0045817E-001, 6.7973668E-002, 5.3450912E-005, 1.7978769E-007, 4.2522531E-004, 5.6977863E+002
 2.7002868E+001, 1.0652525E-001, 1.0260128E-001, 6.9305667E-002, 5.5154439E-005, 3.5483812E-007, 4.3446984E-004, 5.7095948E+002
 2.8003669E+001, 1.0630394E-001, 1.0278312E-001, 6.9418159E-002, 5.4934903E-005, 2.6515029E-007, 4.3517614E-004, 5.7153205E+002
 2.9005526E+001, 1.0830452E-001, 1.0114370E-001, 6.8399684E-002, 5.3953761E-005, 2.0745792E-007, 4.2817341E-004, 5.7030192E+002
 3.0002603E+001, 1.0850824E-001, 1.0097721E-001, 6.8295818E-002, 5.3553853E-005, 8.0327268E-008, 4.2739784E-004, 5.5439976E+002
 3.1000676E+001, 1.0488278E-001, 1.0394803E-001, 7.0141541E-002, 5.5411994E-005, 1.9382354E-007, 4.4010490E-004, 5.7325593E+002
 3.2000757E+001, 1.0394131E-001, 1.0471971E-001, 7.0620784E-002, 5.5767837E-005, 1.6091709E-007, 4.4337836E-004, 5.6475458E+002
 3.3000234E+001, 1.0793424E-001, 1.0144743E-001, 6.8588081E-002, 5.3932750E-005, 1.5776584E-007, 4.2942730E-004, 5.6507055E+002
 3.4006513E+001, 1.0235653E-001, 1.0601795E-001, 7.1427735E-002, 5.6838367E-005, 2.6590360E-007, 4.4898675E-004, 5.6753425E+002
 3.5007246E+001, 1.0419104E-001, 1.0451529E-001, 7.0493570E-002, 5.5490587E-005, 7.8947978E-008, 4.4247199E-004, 5.5441379E+002
 3.6007208E+001, 1.0486215E-001, 1.0396474E-001, 7.0152126E-002, 5.5565943E-005, 2.0587872E-007, 4.4020711E-004, 5.6210074E+002
 3.7006982E+001, 1.0373286E-001, 1.0489034E-001, 7.0726975E-002, 5.5997680E-005, 1.7810054E-007, 4.4413461E-004, 5.5664589E+002
 3.8000740E+001, 1.0373267E-001, 1.0489014E-001, 7.0727188E-002, 5.6233174E-005, 2.9227739E-007, 4.4418427E-004, 5.6264030E+002
 3.9007574E+001, 1.0529295E-001, 1.0361154E-001, 6.9932846E-002, 5.5455803E-005, 3.6904582E-007, 4.3872012E-004, 5.6035936E+002
 4.0001056E+001, 1.0363939E-001, 1.0496672E-001, 7.0774630E-002, 5.6188649E-005, 2.5135052E-007, 4.4449199E-004, 5.6575577E+002
 4.1005017E+001, 1.0350990E-001, 1.0507332E-001, 7.0840370E-002, 5.5913299E-005, 1.8463274E-007, 4.4487464E-004, 5.6417322E+002
 4.2004792E+001, 1.0092627E-001, 1.0718997E-001, 7.2155884E-002, 5.7568889E-005, 2.8748332E-007, 4.5399925E-004, 5.6240042E+002
 4.3000282E+001, 1.0163036E-001, 1.0661360E-001, 7.1797210E-002, 5.6803689E-005, 1.9037093E-007, 4.5144717E-004, 5.6133393E+002
 4.4006802E+001, 1.0063854E-001, 1.0742622E-001, 7.2302180E-002, 5.7382009E-005, 2.7827076E-007, 4.5493801E-004, 5.6829114E+002
 4.5003701E+001, 1.0205264E-001, 1.0626755E-001, 7.1582228E-002, 5.6594717E-005, 2.1347693E-007, 4.4996863E-004, 5.6391327E+002
 4.6001855E+001, 9.8880211E-002, 1.0886738E-001, 7.3197245E-002, 5.8072069E-005, 1.8785998E-007, 4.6105695E-004, 5.6384862E+002
 4.7002221E+001, 9.9454707E-002, 1.0839666E-001, 7.2904754E-002, 5.7752141E-005, 1.7210137E-007, 4.5903805E-004, 5.6521832E+002
 4.8003800E+001, 1.0072581E-001, 1.0735443E-001, 7.2257836E-002, 5.7514729E-005, 4.0247074E-007, 4.5466904E-004, 5.6905484E+002
 4.9001612E+001, 9.9355213E-002, 1.0847832E-001, 7.2955353E-002, 5.7706553E-005, 1.6948882E-007, 4.5936663E-004, 5.6531049E+002
 5.0001430E+001, 9.9666630E-002, 1.0822259E-001, 7.2797015E-002, 5.7922334E-005, 2.2132623E-007, 4.5835337E-004, 5.6260231E+002
 5.1002264E+001, 9.9974818E-002, 1.0796958E-001, 7.2640287E-002, 5.8088002E-005, 3.2474483E-007, 4.5734060E-004, 5.6724232E+002
 5.2001893E+001, 1.0056258E-001, 1.0748874E-001, 7.2340753E-002, 5.7234439E-005, 2.1827292E-007, 4.5516539E-004, 5.6111916E+002
 5.3006338E+001, 9.9087715E-002, 1.0869723E-001, 7.3091630E-002, 5.8032283E-005, 2.8219513E-007, 4.6034346E-004, 5.7001409E+002
 5.4002564E+001, 1.0081395E-001, 1.0728277E-001, 7.2212776E-002, 5.7095962E-005, 1.8439459E-007, 4.5428235E-004, 5.6137583E+002
 5.5007334E+001, 1.0104407E-001, 1.0709443E-001, 7.2095556E-002, 5.6836509E-005, 9.0917820E-008, 4.5344637E-004, 5.6116869E+002
 5.6007197E+001, 9.8032918E-002, 1.0956112E-001, 7.3628810E-002, 5.8894967E-005, 3.3636843E-007, 4.6410764E-004, 5.7066820E+002
 5.7003344E+001, 1.0089481E-001, 1.0721677E-001, 7.2171529E-002, 5.6886213E-005, 7.8986204E-008, 4.5396392E-004, 5.5116782E+002
 5.8006734E+001, 9.8661371E-002, 1.0904688E-001, 7.3308593E-002, 5.8065116E-005, 1.6628439E-007, 4.6179915E-004, 5.6704405E+002
 5.9002891E+001, 9.9860337E-002, 1.0806439E-001, 7.2698202E-002, 5.7457525E-005, 1.2719265E-007, 4.5759827E-004, 5.6281972E+002
 6.0001869E+001, 9.8561122E-002, 1.0912817E-001, 7.3359954E-002, 5.8713784E-005, 2.9616189E-007, 4.6227500E-004, 5.5535171E+002
 6.1004257E+001, 1.0074220E-001, 1.0734173E-001, 7.2249252E-002, 5.7025076E-005, 1.4620280E-007, 4.5451143E-004, 5.6043387E+002
 6.2003981E+001, 9.8461539E-002, 1.0921011E-001, 7.3410532E-002, 5.8535364E-005, 2.1500813E-007, 4.6257624E-004, 5.6329418E+002
 6.3002602E+001, 9.9735812E-002, 1.0816544E-001, 7.2761933E-002, 5.8186033E-005, 4.8009273E-007, 4.5817309E-004, 5.6913242E+002
 6.4002375E+001, 9.7413597E-002, 1.1006898E-001, 7.3943972E-002, 5.8960163E-005, 2.8501571E-007, 4.6622578E-004, 5.6701116E+002
 6.5000249E+001, 9.7099530E-002, 1.1032632E-001, 7.4103876E-002, 5.9137812E-005, 2.7362142E-007, 4.6733007E-004, 5.6868805E+002
 6.6005218E+001, 9.8110299E-002, 1.0949808E-001, 7.3589281E-002, 5.8603696E-005, 2.5490087E-007, 4.6378400E-004, 5.5862625E+002
 6.7000127E+001, 9.8273468E-002, 1.0936292E-001, 7.3506744E-002, 5.9514746E-005, 5.1565126E-007, 4.6341936E-004, 5.6637749E+002
 6.8000027E+001, 9.8729148E-002, 1.0899060E-001, 7.3274364E-002, 5.8541902E-005, 2.7787441E-007, 4.6166820E-004, 5.5556497E+002
 6.9005361E+001, 1.0108964E-001, 1.0705655E-001, 7.2072543E-002, 5.7173822E-005, 2.0697621E-007, 4.5336175E-004, 5.5988369E+002
 7.0001858E+001, 9.9481915E-002, 1.0837429E-001, 7.2890922E-002, 5.7782042E-005, 2.1545803E-007, 4.5895180E-004, 5.6203476E+002
 7.1001748E+001, 9.9533964E-002, 1.0833147E-001, 7.2864495E-002, 5.7878555E-005, 2.0680897E-007, 4.5879507E-004, 5.6286094E+002
 7.2001624E+001, 9.9935154E-002, 1.0800272E-001, 7.2660244E-002, 5.7668207E-005, 2.0521043E-007, 4.5738792E-004, 5.5240116E+002
 7.3000853E+001, 1.0008118E-001, 1.0788253E-001, 7.2586085E-002, 5.7950421E-005, 3.4674118E-007, 4.5695045E-004, 5.6413972E+002
 7.4000936E+001, 1.0061508E-001, 1.0744592E-001, 7.2313954E-002, 5.7069613E-005, 1.3826626E-007, 4.5495266E-004, 5.6119114E+002
 7.5001737E+001, 1.0129591E-001, 1.0688791E-001, 7.1967397E-002, 5.6807200E-005, 1.1440818E-007, 4.5258446E-004, 5.5119614E+002
 7.6005802E+001, 1.0244544E-001, 1.0594578E-001, 7.1382225E-002, 5.6329816E-005, 1.3246921E-007, 4.4857867E-004, 5.6030836E+002
 7.7001101E+001, 1.0138187E-001, 1.0681742E-001, 7.1923640E-002, 5.6788154E-005, 1.5988532E-007, 4.5228834E-004, 5.6183629E+002
 7.8002972E+001, 1.0032210E-001, 1.0768583E-001, 7.2463178E-002, 5.7341929E-005, 1.7641238E-007, 4.5600501E-004, 5.6218860E+002
 7.9003345E+001, 9.9935658E-002, 1.0800276E-001, 7.2659825E-002, 5.7360497E-005, 1.0729995E-007, 4.5732210E-004, 5.6136778E+002
 8.0001195E+001, 9.6422155E-002, 1.1088112E-001, 7.4448814E-002, 5.9656658E-005, 3.9169455E-007, 4.6973997E-004, 5.7263327E+002
 8.1002355E+001, 9.6899221E-002, 1.1048999E-001, 7.4206013E-002, 5.9551076E-005, 4.1757319E-007, 4.6809681E-004, 5.7060115E+002
 8.2005755E+001, 9.7943120E-002, 1.0963529E-001, 7.3674306E-002, 5.8534147E-005, 2.4591093E-007, 4.6433759E-004, 5.6818227E+002
 8.3005796E+001, 9.5878447E-002, 1.1132720E-001, 7.4725421E-002, 5.9566139E-005, 2.8825725E-007, 4.7156873E-004, 5.6453883E+002
 8.4006604E+001, 9.9838659E-002, 1.0808191E-001, 7.2709331E-002, 5.7641575E-005, 1.7705229E-007, 4.5771028E-004, 5.5429324E+002
 8.5001140E+001, 9.8396987E-002, 1.0926360E-001, 7.3443163E-002, 5.8148810E-005, 1.6790356E-007, 4.6271500E-004, 5.5795358E+002
 8.6000612E+001, 9.9304726E-002, 1.0851846E-001, 7.2981527E-002, 5.8589177E-005, 2.9385428E-007, 4.5972219E-004, 5.5734233E+002
 8.7003386E+001, 9.5691852E-002, 1.1148022E-001, 7.4820370E-002, 5.9578287E-005, 2.9526195E-007, 4.7220532E-004, 5.7477567E+002
 8.8000255E+001, 9.5053483E-002, 1.1200373E-001, 7.5145231E-002, 5.9637458E-005, 1.6387063E-007, 4.7438700E-004, 5.7002306E+002
 8.9007251E+001, 1.0126420E-001, 1.0691384E-001, 7.1983552E-002, 5.6855221E-005, 1.5375595E-007, 4.5270219E-004, 5.6540392E+002
 9.0001627E+001, 9.6492119E-002, 1.1082456E-001, 7.4412927E-002, 5.9104588E-005, 1.8862700E-007, 4.6938723E-004, 5.6590149E+002
 9.1002334E+001, 9.7954766E-002, 1.0962617E-001, 7.3668232E-002, 5.8242502E-005, 1.0685879E-007, 4.6423729E-004, 5.5872644E+002
 9.2006185E+001, 1.0015138E-001, 1.0782566E-001, 7.2550117E-002, 5.7473155E-005, 1.9052842E-007, 4.5661250E-004, 5.6099089E+002
 9.3003160E+001, 9.9113035E-002, 1.0867671E-001, 7.3078664E-002, 5.7868396E-005, 2.0307774E-007, 4.6022330E-004, 5.6879539E+002
 9.4004486E+001, 9.9333360E-002, 1.0849624E-001, 7.2966478E-002, 5.7714480E-005, 1.5304460E-007, 4.5944255E-004, 5.6727628E+002
 9.5006807E+001, 1.0068695E-001, 1.0738688E-001, 7.2277417E-002, 5.7135015E-005, 1.9753565E-007, 4.5472204E-004, 5.6355270E+002
 9.6001059E+001, 9.8063944E-002, 1.0953649E-001, 7.3612720E-002, 5.8330747E-005, 1.9448360E-007, 4.6388464E-004, 5.6085645E+002
 9.7005901E+001, 1.0008787E-001, 1.0787702E-001, 7.2582685E-002, 5.7964535E-005, 3.9013821E-007, 4.5693063E-004, 5.6598129E+002
 9.8002550E+001, 9.6756005E-002, 1.1060799E-001, 7.4278693E-002, 5.9186802E-005, 2.8141150E-007, 4.6850760E-004, 5.6581890E+002
 9.9002403E+001, 9.7885050E-002, 1.0968299E-001, 7.3703834E-002, 5.8490276E-005, 2.0106185E-007, 4.6452580E-004, 5.6442658E+002
 1.0000471E+002, 9.8668223E-002, 1.0904102E-001, 7.3305201E-002, 5.8232710E-005, 1.7656456E-007, 4.6181081E-004, 5.5573960E+002
 1.0100023E+002, 9.7022296E-002, 1.1039006E-001, 7.4143025E-002, 5.8862050E-005, 2.0541697E-007, 4.6753505E-004, 5.6847561E+002
 1.0200109E+002, 9.7073715E-002, 1.1034784E-001, 7.4116875E-002, 5.8890486E-005, 2.3560943E-007, 4.6736623E-004, 5.6713118E+002
 1.0300676E+002, 1.0086532E-001, 1.0724077E-001, 7.2186604E-002, 5.7013438E-005, 1.2117258E-007, 4.5409065E-004, 5.6172605E+002
 1.0400260E+002, 9.7391093E-002, 1.1008774E-001, 7.3955310E-002, 5.8748716E-005, 2.1768650E-007, 4.6625820E-004, 5.6479463E+002
 1.0500360E+002, 9.6747911E-002, 1.1061510E-001, 7.4282649E-002, 5.8873047E-005, 1.5058204E-007, 4.6846977E-004, 5.6386225E+002
 1.0600568E+002, 9.7787966E-002, 1.0976241E-001, 7.3753303E-002, 5.8627068E-005, 2.4599317E-007, 4.6488420E-004, 5.6236298E+002
 1.0700031E+002, 9.7575841E-002, 1.0993637E-001, 7.3861252E-002, 5.8645918E-005, 1.9937149E-007, 4.6560898E-004, 5.5723142E+002
 1.0800476E+002, 9.8230790E-002, 1.0939912E-001, 7.3528008E-002, 5.8687272E-005, 3.5939522E-007, 4.6339191E-004, 5.7165118E+002
 1.0900525E+002, 9.7495028E-002, 1.1000283E-001, 7.3902300E-002, 5.8518516E-005, 1.8114987E-007, 4.6585703E-004, 5.5419383E+002
 1.1000137E+002, 9.6706100E-002, 1.1064960E-001, 7.4303854E-002, 5.8735343E-005, 7.7284513E-008, 4.6858318E-004, 5.5404054E+002
 1.1100672E+002, 9.5735183E-002, 1.1144423E-001, 7.4798506E-002, 5.9899364E-005, 2.8001576E-007, 4.7212506E-004, 5.6757054E+002
 1.1200110E+002, 9.9867349E-002, 1.0805825E-001, 7.2694775E-002, 5.7727052E-005, 2.2681407E-007, 4.5763058E-004, 5.5467823E+002
 1.1300388E+002, 9.8888913E-002, 1.0886048E-001, 7.3192731E-002, 5.7909281E-005, 1.3980543E-007, 4.6099346E-004, 5.6031850E+002
 1.1400440E+002, 9.9968379E-002, 1.0797530E-001, 7.2643381E-002, 5.7770744E-005, 3.3662001E-007, 4.5729630E-004, 5.5815264E+002
 1.1500624E+002, 9.6444155E-002, 1.1086330E-001, 7.4437546E-002, 5.9509537E-005, 3.1590447E-007, 4.6963458E-004, 5.7035498E+002
 1.1600194E+002, 9.7633613E-002, 1.0988930E-001, 7.3831743E-002, 5.8431906E-005, 1.3774892E-007, 4.6536808E-004, 5.6370551E+002
 1.1700395E+002, 9.9726665E-002, 1.0817353E-001, 7.2766388E-002, 5.7790205E-005, 2.6480015E-007, 4.5812178E-004, 5.6269963E+002
 1.1800148E+002, 9.8860317E-002, 1.0888401E-001, 7.3207256E-002, 5.7862136E-005, 1.2993544E-007, 4.6108081E-004, 5.5304802E+002
 1.1900593E+002, 1.0008946E-001, 1.0787630E-001, 7.2581680E-002, 5.7574294E-005, 1.9317510E-007, 4.5684400E-004, 5.6316482E+002
 1.2000123E+002, 9.8217745E-002, 1.0940948E-001, 7.3534759E-002, 5.8908871E-005, 4.6414887E-007, 4.6348238E-004, 5.6938103E+002
 1.2100491E+002, 9.9329626E-002, 1.0849933E-001, 7.2968369E-002, 5.7695979E-005, 1.4436832E-007, 4.5945139E-004, 5.5514249E+002
 1.2200484E+002, 9.8674135E-002, 1.0903573E-001, 7.3302334E-002, 5.8522692E-005, 3.7034220E-007, 4.6185106E-004, 5.6257027E+002
 1.2300509E+002, 9.7453606E-002, 1.1003647E-001, 7.3923500E-002, 5.8747959E-005, 2.3581186E-007, 4.6604560E-004, 5.7374652E+002
 1.2400380E+002, 9.9040593E-002, 1.0873623E-001, 7.3115497E-002, 5.7804623E-005, 1.2301336E-007, 4.6045622E-004, 5.5939909E+002
 1.2500381E+002, 9.7017936E-002, 1.1039353E-001, 7.4145286E-002, 5.8937915E-005, 2.1496179E-007, 4.6756568E-004, 5.7016492E+002
 1.2600374E+002, 9.6074262E-002, 1.1116664E-001, 7.4625770E-002, 5.9534678E-005, 2.9529643E-007, 4.7089677E-004, 5.6081942E+002
 1.2700008E+002, 9.9449426E-002, 1.0840099E-001, 7.2907438E-002, 5.7749448E-005, 1.8311544E-007, 4.5905542E-004, 5.6284020E+002
 1.2800491E+002, 9.7833526E-002, 1.0972514E-001, 7.3730087E-002, 5.8560386E-005, 2.2040907E-007, 4.6471549E-004, 5.6002710E+002
 1.2900260E+002, 9.8566294E-002, 1.0912437E-001, 7.3357145E-002, 5.8399070E-005, 2.8690798E-007, 4.6219179E-004, 5.6602285E+002
 1.3000164E+002, 9.6506440E-002, 1.1081200E-001, 7.4405927E-002, 5.9652411E-005, 3.8199934E-007, 4.6945268E-004, 5.6820368E+002
 1.3100174E+002, 9.6838121E-002, 1.1054063E-001, 7.4236911E-002, 5.9191048E-005, 3.0125560E-007, 4.6822944E-004, 5.6594120E+002
 1.3200399E+002, 9.6979729E-002, 1.1042494E-001, 7.4164703E-002, 5.8889872E-005, 1.8287768E-007, 4.6768551E-004, 5.6480629E+002
 1.3300626E+002, 9.7765204E-002, 1.0978140E-001, 7.3764763E-002, 5.8405935E-005, 2.1713725E-007, 4.6491544E-004, 5.6653601E+002
 1.3400028E+002, 9.8520129E-002, 1.0916261E-001, 7.3380503E-002, 5.8146367E-005, 1.7916880E-007, 4.6229604E-004, 5.5921435E+002
 1.3500381E+002, 1.0068488E-001, 1.0738780E-001, 7.2278770E-002, 5.7676034E-005, 2.8648154E-007, 4.5484188E-004, 5.6255067E+002
 1.3600675E+002, 9.8404302E-002, 1.0925716E-001, 7.3439600E-002, 5.8450346E-005, 2.6900930E-007, 4.6275296E-004, 5.5727800E+002
 1.3700585E+002, 9.6982608E-002, 1.1042249E-001, 7.4163255E-002, 5.8939134E-005, 2.6998216E-007, 4.6768594E-004, 5.6805957E+002
 1.3800605E+002, 9.7007661E-002, 1.1040201E-001, 7.4150500E-002, 5.8904192E-005, 1.7031834E-007, 4.6759360E-004, 5.5820628E+002
 1.3900587E+002, 9.8530164E-002, 1.0915393E-001, 7.3375558E-002, 5.8449242E-005, 2.7560113E-007, 4.6232503E-004, 5.6581851E+002
 1.4000642E+002, 9.6971560E-002, 1.1043165E-001, 7.4168857E-002, 5.8885284E-005, 1.7940336E-007, 4.6771232E-004, 5.6742401E+002
 1.4100704E+002, 1.0018992E-001, 1.0779434E-001, 7.2530411E-002, 5.7281622E-005, 1.0548714E-007, 4.5644166E-004, 5.5266329E+002
 1.4200145E+002, 1.0020142E-001, 1.0778469E-001, 7.2524624E-002, 5.7421905E-005, 2.2061108E-007, 4.5643175E-004, 5.5659606E+002
 1.4300587E+002, 9.8860253E-002, 1.0888313E-001, 7.3207627E-002, 5.8495377E-005, 3.0412284E-007, 4.6121297E-004, 5.5897755E+002
 1.4400073E+002, 1.0016456E-001, 1.0781511E-001, 7.2543316E-002, 5.7293945E-005, 1.2166505E-007, 4.5653038E-004, 5.5426755E+002
 1.4500216E+002, 9.9745523E-002, 1.0815797E-001, 7.2756833E-002, 5.7861854E-005, 2.7251651E-007, 4.5807264E-004, 5.6466780E+002
 1.4600257E+002, 9.8264154E-002, 1.0937204E-001, 7.3510929E-002, 5.8491388E-005, 2.9203909E-007, 4.6323774E-004, 5.6087651E+002
 1.4700081E+002, 9.8605272E-002, 1.0909265E-001, 7.3337223E-002, 5.8230004E-005, 2.2666225E-007, 4.6202412E-004, 5.6249899E+002
 1.4800564E+002, 9.8006522E-002, 1.0958327E-001, 7.3642057E-002, 5.8550962E-005, 2.3618847E-007, 4.6412566E-004, 5.6455912E+002
 1.4900643E+002, 9.7826366E-002, 1.0973093E-001, 7.3733764E-002, 5.8621513E-005, 2.3042946E-007, 4.6475256E-004, 5.6184948E+002
 1.5000012E+002, 9.9476286E-002, 1.0837915E-001, 7.2893696E-002, 5.7612925E-005, 1.6715432E-007, 4.5893569E-004, 5.5803575E+002
 1.5100112E+002, 9.6332422E-002, 1.1095503E-001, 7.4494371E-002, 5.9453872E-005, 2.7679218E-007, 4.7000268E-004, 5.6484762E+002
 1.5200703E+002, 9.8102078E-002, 1.0950554E-001, 7.3593207E-002, 5.8114134E-005, 8.4224093E-008, 4.6370996E-004, 5.5878530E+002
 1.5300197E+002, 1.0058357E-001, 1.0747147E-001, 7.2330105E-002, 5.7278151E-005, 1.6205017E-007, 4.5510323E-004, 5.5583062E+002
 1.5400414E+002, 1.0005634E-001, 1.0790360E-001, 7.2598487E-002, 5.7484684E-005, 1.4742135E-007, 4.5693789E-004, 5.5953619E+002
