s,,,,,,,
Time,O2 EXHAUST,CO2 EXHAUST,H2O EXHAUST,CO EXHAUST,FUEL EXHAUST,SOOT EXHAUST,TEMP EXHAUST
 0.0000000E+000, 2.3099739E-001, 5.9146498E-004, 5.9412092E-003, 0.0000000E+000, 0.0000000E+000, 0.0000000E+000, 2.0000000E+001
 1.0078400E+000, 2.3099739E-001, 5.9146498E-004, 5.9412092E-003, 3.7248659E-025, 3.2102063E-023, 1.1050336E-023, 2.0240406E+001
 2.0062313E+000, 2.2574206E-001, 5.3899795E-003, 7.3277761E-003, 1.0903159E-005, 4.4393313E-004, 3.1860867E-004, 7.4617443E+001
 3.0007891E+000, 2.2271293E-001, 8.1771522E-003, 8.1369203E-003, 2.2753018E-005, 5.7169005E-004, 5.0484745E-004, 1.0474980E+002
 4.0070862E+000, 2.1894172E-001, 1.1650976E-002, 9.1408080E-003, 2.9382724E-005, 7.5589830E-004, 7.3522389E-004, 1.4396550E+002
 5.0052298E+000, 2.1599407E-001, 1.4364088E-002, 9.9271273E-003, 3.8583251E-005, 8.8835919E-004, 9.1601365E-004, 1.6729518E+002
 6.0038370E+000, 2.1164532E-001, 1.8381861E-002, 1.1089848E-002, 4.8527771E-005, 1.0333588E-003, 1.1829492E-003, 2.0874653E+002
 7.0060287E+000, 2.0831464E-001, 2.1465087E-002, 1.1981956E-002, 5.5600507E-005, 1.1193430E-003, 1.3876738E-003, 2.3406927E+002
 8.0025633E+000, 2.0433455E-001, 2.5162023E-002, 1.3052547E-002, 6.5073861E-005, 1.1587163E-003, 1.6333589E-003, 2.6340742E+002
 9.0015138E+000, 1.9940789E-001, 2.9762593E-002, 1.4385816E-002, 7.7452509E-005, 1.0911304E-003, 1.9392182E-003, 2.9640223E+002
 1.0004756E+001, 1.9420323E-001, 3.4629628E-002, 1.5796544E-002, 9.0639778E-005, 9.8740586E-004, 2.2628112E-003, 3.2454694E+002
 1.1000261E+001, 1.8882280E-001, 3.9660887E-002, 1.7255732E-002, 1.0576693E-004, 8.7298314E-004, 2.5976432E-003, 3.4842736E+002
 1.2007306E+001, 1.8362231E-001, 4.4531781E-002, 1.8667281E-002, 1.1809092E-004, 7.3796341E-004, 2.9213043E-003, 3.6896995E+002
 1.3005483E+001, 1.7876101E-001, 4.9091864E-002, 1.9987351E-002, 1.2687475E-004, 5.9443937E-004, 3.2237214E-003, 3.8454955E+002
 1.4000598E+001, 1.7408675E-001, 5.3472547E-002, 2.1255489E-002, 1.3549667E-004, 4.7372255E-004, 3.5142811E-003, 3.9585410E+002
 1.5002804E+001, 1.6942161E-001, 5.7843520E-002, 2.2520742E-002, 1.4402510E-004, 3.5905839E-004, 3.8041810E-003, 4.0661840E+002
 1.6006530E+001, 1.6525850E-001, 6.1741289E-002, 2.3648400E-002, 1.5069203E-004, 2.7480352E-004, 4.0624957E-003, 4.1323046E+002
 1.7008339E+001, 1.6094202E-001, 6.5776936E-002, 2.4816572E-002, 1.5893786E-004, 2.0680138E-004, 4.3302366E-003, 4.1959304E+002
 1.8008082E+001, 1.5707202E-001, 6.9392092E-002, 2.5862965E-002, 1.6635785E-004, 1.5987778E-004, 4.5700883E-003, 4.2302037E+002
 1.9007731E+001, 1.5352239E-001, 7.2708310E-002, 2.6822374E-002, 1.7235670E-004, 1.1953658E-004, 4.7899334E-003, 4.2679148E+002
 2.0003810E+001, 1.5010891E-001, 7.5894323E-002, 2.7744422E-002, 1.7879350E-004, 9.1082447E-005, 5.0012916E-003, 4.3047151E+002
 2.1010716E+001, 1.4782640E-001, 7.8023525E-002, 2.8360624E-002, 1.8315175E-004, 7.7383722E-005, 5.1425539E-003, 4.2911189E+002
 2.2006795E+001, 1.4513598E-001, 8.0533644E-002, 2.9086839E-002, 1.8787906E-004, 6.1522884E-005, 5.3090002E-003, 4.3115098E+002
 2.3002874E+001, 1.4263836E-001, 8.2863131E-002, 2.9760845E-002, 1.9238798E-004, 4.9612258E-005, 5.4634949E-003, 4.3196965E+002
 2.4009780E+001, 1.4035400E-001, 8.4993256E-002, 3.0377120E-002, 1.9644772E-004, 4.1197982E-005, 5.6047543E-003, 4.3255139E+002
 2.5001796E+001, 1.3862826E-001, 8.6601303E-002, 3.0842692E-002, 2.0015856E-004, 3.6859868E-005, 5.7115306E-003, 4.3225102E+002
 2.6011048E+001, 1.3687678E-001, 8.8234294E-002, 3.1315109E-002, 2.0323053E-004, 3.1707029E-005, 5.8198139E-003, 4.3279237E+002
 2.7000574E+001, 1.3481957E-001, 9.0151146E-002, 3.1869940E-002, 2.0739951E-004, 2.8168100E-005, 5.9470408E-003, 4.3225376E+002
 2.8006655E+001, 1.3296370E-001, 9.1880302E-002, 3.2370420E-002, 2.1112760E-004, 2.5563682E-005, 6.0618027E-003, 4.3247878E+002
 2.9001680E+001, 1.3148594E-001, 9.3256987E-002, 3.2768942E-002, 2.1420568E-004, 2.3731918E-005, 6.1531952E-003, 4.3256423E+002
 3.0007760E+001, 1.2984544E-001, 9.4785527E-002, 3.3211303E-002, 2.1740461E-004, 2.1750123E-005, 6.2546218E-003, 4.3193479E+002
 3.1002785E+001, 1.2789284E-001, 9.6604449E-002, 3.3737852E-002, 2.2149328E-004, 1.9795071E-005, 6.3753773E-003, 4.3225711E+002
 3.2008866E+001, 1.2665799E-001, 9.7754387E-002, 3.4070862E-002, 2.2430476E-004, 1.9115761E-005, 6.4517686E-003, 4.3210025E+002
 3.3003891E+001, 1.2509212E-001, 9.9212709E-002, 3.4493057E-002, 2.2765773E-004, 1.8762961E-005, 6.5486004E-003, 4.3094616E+002
 3.4009972E+001, 1.2345855E-001, 1.0073394E-001, 3.4933571E-002, 2.3134683E-004, 1.8041271E-005, 6.6496503E-003, 4.3204452E+002
 3.5004997E+001, 1.2193247E-001, 1.0215508E-001, 3.5345073E-002, 2.3474321E-004, 1.7608572E-005, 6.7440410E-003, 4.3121652E+002
 3.6000022E+001, 1.2045247E-001, 1.0353307E-001, 3.5744145E-002, 2.3815796E-004, 1.7604947E-005, 6.8355919E-003, 4.3177054E+002
 3.7006103E+001, 1.1901081E-001, 1.0487578E-001, 3.6132852E-002, 2.4120988E-004, 1.7158515E-005, 6.9247398E-003, 4.3125834E+002
 3.8001128E+001, 1.1760799E-001, 1.0618200E-001, 3.6511133E-002, 2.4443498E-004, 1.6833798E-005, 7.0115196E-003, 4.3068946E+002
 3.9000456E+001, 1.1626860E-001, 1.0742911E-001, 3.6872299E-002, 2.4752186E-004, 1.6731207E-005, 7.0943740E-003, 4.3036106E+002
 4.0006593E+001, 1.1472276E-001, 1.0886879E-001, 3.7289095E-002, 2.5082398E-004, 1.6340157E-005, 7.1899669E-003, 4.3197055E+002
 4.1001795E+001, 1.1338988E-001, 1.1011075E-001, 3.7648410E-002, 2.5323289E-004, 1.5510595E-005, 7.2723365E-003, 4.3211019E+002
 4.2002465E+001, 1.1207056E-001, 1.1133875E-001, 3.8004195E-002, 2.5655693E-004, 1.5856367E-005, 7.3539822E-003, 4.3155802E+002
 4.3010788E+001, 1.1101263E-001, 1.1232472E-001, 3.8289358E-002, 2.5830230E-004, 1.5113631E-005, 7.4193384E-003, 4.3208636E+002
 4.4010994E+001, 1.0950852E-001, 1.1372516E-001, 3.8694940E-002, 2.6178547E-004, 1.5056422E-005, 7.5123837E-003, 4.3212187E+002
 4.5000524E+001, 1.0825718E-001, 1.1489011E-001, 3.9032382E-002, 2.6480063E-004, 1.5093472E-005, 7.5898075E-003, 4.3151329E+002
 4.6007828E+001, 1.0718303E-001, 1.1589048E-001, 3.9321949E-002, 2.6701449E-004, 1.5294692E-005, 7.6562137E-003, 4.3165947E+002
 4.7010372E+001, 1.0577784E-001, 1.1719759E-001, 3.9700992E-002, 2.7117493E-004, 1.6189825E-005, 7.7432527E-003, 4.3159509E+002
 4.8000396E+001, 1.0477515E-001, 1.1813068E-001, 3.9971408E-002, 2.7383716E-004, 1.6621442E-005, 7.8053204E-003, 4.3223657E+002
 4.9003975E+001, 1.0360374E-001, 1.1921875E-001, 4.0287563E-002, 2.7846480E-004, 1.8470327E-005, 7.8780236E-003, 4.3238098E+002
 5.0007554E+001, 1.0245086E-001, 1.2028754E-001, 4.0598958E-002, 2.8456637E-004, 2.1756036E-005, 7.9497719E-003, 4.3269759E+002
 5.1004984E+001, 1.0140116E-001, 1.2125762E-001, 4.0882779E-002, 2.9229197E-004, 2.7333862E-005, 8.0153638E-003, 4.3197703E+002
 5.2007898E+001, 1.0046267E-001, 1.2212487E-001, 4.1136457E-002, 2.9910546E-004, 3.3092159E-005, 8.0739823E-003, 4.3305330E+002
 5.3010811E+001, 9.9381398E-002, 1.2311963E-001, 4.1429255E-002, 3.1028276E-004, 4.2663606E-005, 8.1419403E-003, 4.3299424E+002
 5.4009410E+001, 9.8514774E-002, 1.2391608E-001, 4.1664012E-002, 3.1984034E-004, 5.1020584E-005, 8.1964813E-003, 4.3298431E+002
 5.5000605E+001, 9.7512690E-002, 1.2483174E-001, 4.1936089E-002, 3.3485205E-004, 6.4152012E-005, 8.2600490E-003, 4.3274854E+002
 5.6011161E+001, 9.6740951E-002, 1.2553667E-001, 4.2145697E-002, 3.4667902E-004, 7.4066110E-005, 8.3090445E-003, 4.3206941E+002
 5.7010947E+001, 9.5814013E-002, 1.2638609E-001, 4.2397009E-002, 3.5861612E-004, 8.5300263E-005, 8.3675872E-003, 4.3226057E+002
 5.8010732E+001, 9.4994332E-002, 1.2713480E-001, 4.2619739E-002, 3.7135599E-004, 9.4915975E-005, 8.4196641E-003, 4.3237527E+002
 5.9010518E+001, 9.4220713E-002, 1.2784515E-001, 4.2829249E-002, 3.8013786E-004, 1.0395439E-004, 8.4683642E-003, 4.3239541E+002
 6.0010114E+001, 9.3383760E-002, 1.2861067E-001, 4.3056464E-002, 3.9222045E-004, 1.1387687E-004, 8.5214083E-003, 4.3230817E+002
 6.1010503E+001, 9.2612092E-002, 1.2931833E-001, 4.3265600E-002, 4.0173908E-004, 1.2304479E-004, 8.5700889E-003, 4.3242687E+002
 6.2011116E+001, 9.1964657E-002, 1.2991016E-001, 4.3441379E-002, 4.1129683E-004, 1.3118952E-004, 8.6111444E-003, 4.3339114E+002
 6.3004209E+001, 9.1132444E-002, 1.3066987E-001, 4.3667739E-002, 4.2486574E-004, 1.3967788E-004, 8.6641239E-003, 4.3238563E+002
 6.4008460E+001, 9.0430173E-002, 1.3131162E-001, 4.3858379E-002, 4.3529924E-004, 1.4911168E-004, 8.7086575E-003, 4.3334144E+002
 6.5001553E+001, 8.9792455E-002, 1.3189356E-001, 4.4031525E-002, 4.4527684E-004, 1.5884857E-004, 8.7491508E-003, 4.3305876E+002
 6.6005805E+001, 8.9071081E-002, 1.3255067E-001, 4.4227637E-002, 4.5763895E-004, 1.6960218E-004, 8.7951095E-003, 4.3337191E+002
 6.7010056E+001, 8.8527796E-002, 1.3304462E-001, 4.4375521E-002, 4.6777824E-004, 1.7759841E-004, 8.8298389E-003, 4.3217407E+002
 6.8002033E+001, 8.7806019E-002, 1.3370246E-001, 4.4571731E-002, 4.7992781E-004, 1.8782164E-004, 8.8758003E-003, 4.3289677E+002
 6.9005507E+001, 8.7159885E-002, 1.3428872E-001, 4.4747675E-002, 4.9275400E-004, 1.9885190E-004, 8.9171894E-003, 4.3270339E+002
 7.0006162E+001, 8.6655911E-002, 1.3474815E-001, 4.4884349E-002, 5.0061519E-004, 2.0880117E-004, 8.9491550E-003, 4.3327541E+002
 7.1001150E+001, 8.5939929E-002, 1.3540055E-001, 4.5079047E-002, 5.1286141E-004, 2.1863479E-004, 8.9947788E-003, 4.3316290E+002
 7.2007707E+001, 8.5394998E-002, 1.3589519E-001, 4.5227402E-002, 5.2351575E-004, 2.2787231E-004, 9.0296634E-003, 4.3283713E+002
 7.3002695E+001, 8.4804281E-002, 1.3643722E-001, 4.5387367E-002, 5.3040556E-004, 2.3553909E-004, 9.0668644E-003, 4.3322943E+002
 7.4009252E+001, 8.4151287E-002, 1.3703002E-001, 4.5565099E-002, 5.4305778E-004, 2.4686151E-004, 9.1086473E-003, 4.3285125E+002
 7.5004240E+001, 8.3656366E-002, 1.3747901E-001, 4.5699777E-002, 5.5276379E-004, 2.5625778E-004, 9.1403203E-003, 4.3329517E+002
 7.6006657E+001, 8.3080621E-002, 1.3800637E-001, 4.5855818E-002, 5.6021316E-004, 2.6415351E-004, 9.1766745E-003, 4.3294087E+002
 7.7010929E+001, 8.2492502E-002, 1.3854064E-001, 4.6015648E-002, 5.7098858E-004, 2.7596593E-004, 9.2141971E-003, 4.3335425E+002
 7.8000156E+001, 8.2096675E-002, 1.3889599E-001, 4.6123949E-002, 5.8180896E-004, 2.8461531E-004, 9.2399376E-003, 4.3299065E+002
 7.9000887E+001, 8.1527145E-002, 1.3941423E-001, 4.6278556E-002, 5.9148205E-004, 2.9612471E-004, 9.2761673E-003, 4.3277980E+002
 8.0001617E+001, 8.1081944E-002, 1.3982161E-001, 4.6399135E-002, 5.9732274E-004, 3.0368556E-004, 9.3042690E-003, 4.3385568E+002
 8.1002348E+001, 8.0666311E-002, 1.4020095E-001, 4.6511912E-002, 6.0366609E-004, 3.1056038E-004, 9.3306309E-003, 4.3358271E+002
 8.2000511E+001, 8.0043541E-002, 1.4076784E-001, 4.6681290E-002, 6.1468283E-004, 3.1987869E-004, 9.3703549E-003, 4.3337434E+002
 8.3011097E+001, 7.9724330E-002, 1.4105976E-001, 4.6767777E-002, 6.1901759E-004, 3.2531082E-004, 9.3905242E-003, 4.3382597E+002
 8.4010454E+001, 7.9207231E-002, 1.4152792E-001, 4.6908748E-002, 6.3012297E-004, 3.3443140E-004, 9.4237606E-003, 4.3380606E+002
 8.5009812E+001, 7.8723504E-002, 1.4196664E-001, 4.7040150E-002, 6.3927283E-004, 3.4589962E-004, 9.4546379E-003, 4.3429463E+002
 8.6009169E+001, 7.8328932E-002, 1.4233152E-001, 4.7146610E-002, 6.4166087E-004, 3.4966258E-004, 9.4791978E-003, 4.3289715E+002
 8.7000995E+001, 7.8012096E-002, 1.4262157E-001, 4.7232258E-002, 6.4546090E-004, 3.5632347E-004, 9.4991292E-003, 4.3362186E+002
 8.8002810E+001, 7.7604903E-002, 1.4298419E-001, 4.7343772E-002, 6.5837348E-004, 3.6939467E-004, 9.5257973E-003, 4.3345816E+002
 8.9008222E+001, 7.6916028E-002, 1.4361599E-001, 4.7530473E-002, 6.6684075E-004, 3.7743395E-004, 9.5692528E-003, 4.3412579E+002
 9.0002223E+001, 7.6788891E-002, 1.4373107E-001, 4.7564757E-002, 6.6893105E-004, 3.8314583E-004, 9.5772862E-003, 4.3425208E+002
 9.1007782E+001, 7.6420914E-002, 1.4406146E-001, 4.7664937E-002, 6.7810142E-004, 3.9569865E-004, 9.6010279E-003, 4.3391700E+002
 9.2004686E+001, 7.6251573E-002, 1.4421861E-001, 4.7710239E-002, 6.7815290E-004, 3.9990210E-004, 9.6113962E-003, 4.3371733E+002
 9.3006633E+001, 7.5669590E-002, 1.4474256E-001, 4.7870024E-002, 6.9420734E-004, 4.0500350E-004, 9.6493709E-003, 4.3310260E+002
 9.4008580E+001, 7.5364856E-002, 1.4502595E-001, 4.7951324E-002, 6.9359130E-004, 4.1355285E-004, 9.6679164E-003, 4.3466055E+002
 9.5004853E+001, 7.4925509E-002, 1.4542316E-001, 4.8071146E-002, 7.0341625E-004, 4.2184044E-004, 9.6962018E-003, 4.3360648E+002
 9.6002694E+001, 7.4555490E-002, 1.4576778E-001, 4.8170722E-002, 7.0386772E-004, 4.2345962E-004, 9.7190118E-003, 4.3469523E+002
 9.7000536E+001, 7.4299441E-002, 1.4599885E-001, 4.8240289E-002, 7.0936962E-004, 4.3144698E-004, 9.7354203E-003, 4.3454798E+002
 9.8010116E+001, 7.3953085E-002, 1.4631538E-001, 4.8334207E-002, 7.1432019E-004, 4.3702291E-004, 9.7573438E-003, 4.3516828E+002
 9.9006265E+001, 7.3538083E-002, 1.4668954E-001, 4.8447753E-002, 7.2479432E-004, 4.4331212E-004, 9.7842497E-003, 4.3497152E+002
 1.0000730E+002, 7.3399280E-002, 1.4681912E-001, 4.8484566E-002, 7.2386281E-004, 4.4834375E-004, 9.7925903E-003, 4.3461235E+002
 1.0100663E+002, 7.3065864E-002, 1.4712022E-001, 4.8575483E-002, 7.3147777E-004, 4.5534306E-004, 9.8140678E-003, 4.3524801E+002
 1.0200642E+002, 7.2713791E-002, 1.4743979E-001, 4.8671669E-002, 7.3894666E-004, 4.5826219E-004, 9.8367311E-003, 4.3488464E+002
 1.0301010E+002, 7.2666042E-002, 1.4747790E-001, 4.8685061E-002, 7.4341241E-004, 4.6458897E-004, 9.8402007E-003, 4.3471124E+002
 1.0400429E+002, 7.2312418E-002, 1.4781358E-001, 4.8779366E-002, 7.3891130E-004, 4.6297845E-004, 9.8613588E-003, 4.3517151E+002
 1.0500278E+002, 7.1982800E-002, 1.4811745E-001, 4.8868588E-002, 7.4191666E-004, 4.6513422E-004, 9.8820302E-003, 4.3541109E+002
 1.0600594E+002, 7.1850779E-002, 1.4823361E-001, 4.8904551E-002, 7.4653893E-004, 4.7358392E-004, 9.8906774E-003, 4.3537652E+002
 1.0700152E+002, 7.1397352E-002, 1.4864490E-001, 4.9028817E-002, 7.5698061E-004, 4.7423340E-004, 9.9200236E-003, 4.3531441E+002
 1.0800724E+002, 7.1281438E-002, 1.4875405E-001, 4.9059474E-002, 7.5554672E-004, 4.7758706E-004, 9.9269096E-003, 4.3527359E+002
 1.0900968E+002, 7.1143643E-002, 1.4888138E-001, 4.9096423E-002, 7.5603251E-004, 4.8115494E-004, 9.9354060E-003, 4.3537236E+002
 1.1000059E+002, 7.0747315E-002, 1.4923811E-001, 4.9205055E-002, 7.6669903E-004, 4.8642818E-004, 9.9612040E-003, 4.3554168E+002
 1.1100303E+002, 7.0324512E-002, 1.4962255E-001, 4.9320652E-002, 7.7545618E-004, 4.8795536E-004, 9.9884189E-003, 4.3596813E+002
 1.1200547E+002, 7.0219055E-002, 1.4971814E-001, 4.9348957E-002, 7.7689051E-004, 4.9368372E-004, 9.9950266E-003, 4.3532267E+002
 1.1300791E+002, 6.9891792E-002, 1.5001524E-001, 4.9438262E-002, 7.8362363E-004, 4.9723368E-004, 1.0016052E-002, 4.3652488E+002
 1.1401035E+002, 6.9698184E-002, 1.5019831E-001, 4.9489930E-002, 7.8161182E-004, 4.9726460E-004, 1.0027686E-002, 4.3622850E+002
 1.1500127E+002, 6.9442859E-002, 1.5043170E-001, 4.9559049E-002, 7.8504094E-004, 5.0234463E-004, 1.0043803E-002, 4.3697285E+002
 1.1600371E+002, 6.9302818E-002, 1.5055671E-001, 4.9597472E-002, 7.8944074E-004, 5.0566877E-004, 1.0052985E-002, 4.3644023E+002
 1.1700615E+002, 6.9119756E-002, 1.5072536E-001, 4.9647044E-002, 7.9120177E-004, 5.0686346E-004, 1.0064479E-002, 4.3626333E+002
 1.1800858E+002, 6.8853990E-002, 1.5097365E-001, 4.9718117E-002, 7.9034219E-004, 5.1079237E-004, 1.0080658E-002, 4.3669239E+002
 1.1900499E+002, 6.8847641E-002, 1.5097365E-001, 4.9720323E-002, 7.9443358E-004, 5.1657425E-004, 1.0081536E-002, 4.3589112E+002
 1.2000042E+002, 6.8866292E-002, 1.5095611E-001, 4.9714665E-002, 7.9339364E-004, 5.2263268E-004, 1.0080157E-002, 4.3566668E+002
 1.2100871E+002, 6.8426107E-002, 1.5135397E-001, 4.9835584E-002, 8.0479919E-004, 5.2316293E-004, 1.0108824E-002, 4.3636415E+002
 1.2200514E+002, 6.8221582E-002, 1.5154244E-001, 4.9890954E-002, 8.0671707E-004, 5.2454740E-004, 1.0121657E-002, 4.3682793E+002
 1.2300120E+002, 6.8127999E-002, 1.5162940E-001, 4.9916164E-002, 8.0698573E-004, 5.2507447E-004, 1.0127446E-002, 4.3674722E+002
 1.2400923E+002, 6.7853805E-002, 1.5189292E-001, 4.9989361E-002, 8.0186141E-004, 5.1749999E-004, 1.0143714E-002, 4.3663017E+002
 1.2500464E+002, 6.7857385E-002, 1.5187770E-001, 4.9989545E-002, 8.1032087E-004, 5.2769121E-004, 1.0144526E-002, 4.3617909E+002
 1.2600004E+002, 6.7721597E-002, 1.5200205E-001, 5.0026554E-002, 8.1244972E-004, 5.2770328E-004, 1.0153178E-002, 4.3651362E+002
 1.2700702E+002, 6.7475556E-002, 1.5222545E-001, 5.0093737E-002, 8.1756790E-004, 5.2993560E-004, 1.0168999E-002, 4.3696834E+002
 1.2800242E+002, 6.7273502E-002, 1.5241122E-001, 5.0148273E-002, 8.1941652E-004, 5.3357353E-004, 1.0181638E-002, 4.3685973E+002
 1.2900940E+002, 6.7273949E-002, 1.5241265E-001, 5.0147515E-002, 8.1730435E-004, 5.3617806E-004, 1.0181280E-002, 4.3603400E+002
 1.3000480E+002, 6.7207655E-002, 1.5246930E-001, 5.0166096E-002, 8.2144139E-004, 5.3856650E-004, 1.0185901E-002, 4.3627475E+002
 1.3101088E+002, 6.7017522E-002, 1.5264083E-001, 5.0218118E-002, 8.2618558E-004, 5.4126439E-004, 1.0198223E-002, 4.3669340E+002
 1.3200062E+002, 6.7049391E-002, 1.5261589E-001, 5.0208542E-002, 8.2183168E-004, 5.4200894E-004, 1.0195646E-002, 4.3756477E+002
 1.3300824E+002, 6.6692915E-002, 1.5293320E-001, 5.0307478E-002, 8.3547901E-004, 5.4169871E-004, 1.0219485E-002, 4.3656726E+002
 1.3400239E+002, 6.6669657E-002, 1.5296722E-001, 5.0311425E-002, 8.2476988E-004, 5.4141144E-004, 1.0219431E-002, 4.3732545E+002
 1.3500329E+002, 6.6482073E-002, 1.5314049E-001, 5.0361832E-002, 8.2565909E-004, 5.4541795E-004, 1.0231041E-002, 4.3730301E+002
 1.3600420E+002, 6.6427834E-002, 1.5318821E-001, 5.0376901E-002, 8.2806656E-004, 5.4619946E-004, 1.0234703E-002, 4.3633898E+002
 1.3701200E+002, 6.6379096E-002, 1.5323094E-001, 5.0390600E-002, 8.3059136E-004, 5.4573026E-004, 1.0238060E-002, 4.3632430E+002
 1.3800634E+002, 6.6394103E-002, 1.5321907E-001, 5.0385849E-002, 8.2818958E-004, 5.4850955E-004, 1.0236763E-002, 4.3659547E+002
 1.3900235E+002, 6.6212747E-002, 1.5337824E-001, 5.0436044E-002, 8.3612609E-004, 5.5355952E-004, 1.0248955E-002, 4.3591459E+002
 1.4001151E+002, 6.5987076E-002, 1.5359079E-001, 5.0496762E-002, 8.3509272E-004, 5.5053814E-004, 1.0262742E-002, 4.3661497E+002
 1.4100736E+002, 6.5763882E-002, 1.5378426E-001, 5.0558773E-002, 8.4658872E-004, 5.5881729E-004, 1.0277958E-002, 4.3740660E+002
 1.4200301E+002, 6.5570704E-002, 1.5396115E-001, 5.0611317E-002, 8.4944313E-004, 5.5984097E-004, 1.0290229E-002, 4.3677068E+002
 1.4300066E+002, 6.5439086E-002, 1.5409037E-001, 5.0645377E-002, 8.4363113E-004, 5.6127865E-004, 1.0297499E-002, 4.3713462E+002
 1.4400430E+002, 6.5343422E-002, 1.5418113E-001, 5.0671153E-002, 8.4290018E-004, 5.5852703E-004, 1.0303324E-002, 4.3744427E+002
 1.4500673E+002, 6.5339789E-002, 1.5418379E-001, 5.0672220E-002, 8.4345269E-004, 5.5897598E-004, 1.0303618E-002, 4.3753377E+002
 1.4600487E+002, 6.5226467E-002, 1.5428120E-001, 5.0703533E-002, 8.4944147E-004, 5.6619374E-004, 1.0311322E-002, 4.3718117E+002
 1.4700790E+002, 6.5094248E-002, 1.5440215E-001, 5.0739489E-002, 8.5144798E-004, 5.6716121E-004, 1.0319723E-002, 4.3683938E+002
 1.4800036E+002, 6.5132395E-002, 1.5436544E-001, 5.0728881E-002, 8.5145396E-004, 5.7218804E-004, 1.0317305E-002, 4.3712277E+002
 1.4900912E+002, 6.4955655E-002, 1.5452747E-001, 5.0777184E-002, 8.5435351E-004, 5.7066644E-004, 1.0328607E-002, 4.3715852E+002
 1.5000026E+002, 6.4913133E-002, 1.5456536E-001, 5.0788733E-002, 8.5552612E-004, 5.7288392E-004, 1.0331355E-002, 4.3727041E+002
 1.5100717E+002, 6.4832094E-002, 1.5464636E-001, 5.0810056E-002, 8.5177408E-004, 5.6806177E-004, 1.0335888E-002, 4.3720070E+002
 1.5201152E+002, 6.4795236E-002, 1.5468060E-001, 5.0819886E-002, 8.5171032E-004, 5.6917999E-004, 1.0338132E-002, 4.3756622E+002
 1.5300971E+002, 6.4879828E-002, 1.5460589E-001, 5.0795974E-002, 8.4740181E-004, 5.7220589E-004, 1.0332284E-002, 4.3723059E+002
 1.5400601E+002, 6.4581416E-002, 1.5489109E-001, 5.0875378E-002, 8.4224651E-004, 5.6909713E-004, 1.0349975E-002, 4.3733987E+002
