s,,,,,,,
Time,"O2 EXHAUST","CO2 EXHAUST","H2O EXHAUST","CO EXHAUST","FUEL EXHAUST","SOOT EXHAUST","TEMP EXHAUST"
 0.0000000E+000, 2.3099739E-001, 5.9146498E-004, 5.9412092E-003, 0.0000000E+000, 0.0000000E+000, 0.0000000E+000, 2.0000000E+001
 1.0050864E+000, 2.3099739E-001, 5.9146498E-004, 5.9412092E-003, 2.2059731E-032, 4.6313970E-031, 5.1846250E-032, 2.0503992E+001
 2.0008924E+000, 2.2476391E-001, 6.3267679E-003, 7.6033471E-003, 1.9414982E-005, 2.9043625E-004, 3.8216832E-004, 8.1030326E+001
 3.0066292E+000, 2.2149302E-001, 9.3318980E-003, 8.4905053E-003, 5.7913969E-005, 3.1331209E-004, 5.8848212E-004, 1.0790901E+002
 4.0060071E+000, 2.1762757E-001, 1.2888414E-002, 9.5241866E-003, 7.5100796E-005, 4.6623948E-004, 8.2657105E-004, 1.4502877E+002
 5.0046306E+000, 2.1459206E-001, 1.5688003E-002, 1.0344158E-002, 9.9199636E-005, 4.9943590E-004, 1.0162509E-003, 1.6975857E+002
 6.0036113E+000, 2.1024683E-001, 1.9682607E-002, 1.1514510E-002, 1.3483292E-004, 6.0061390E-004, 1.2871661E-003, 2.0505707E+002
 7.0073696E+000, 2.0567750E-001, 2.3924970E-002, 1.2746221E-002, 1.5127806E-004, 6.2508190E-004, 1.5702928E-003, 2.3747267E+002
 8.0025011E+000, 2.0170026E-001, 2.7612080E-002, 1.3818687E-002, 1.6922985E-004, 6.5278680E-004, 1.8171478E-003, 2.6505509E+002
 9.0005050E+000, 1.9737758E-001, 3.1641363E-002, 1.4987883E-002, 1.8298602E-004, 6.1185247E-004, 2.0856519E-003, 2.8931024E+002
 1.0001778E+001, 1.9332477E-001, 3.5423286E-002, 1.6082508E-002, 1.9086592E-004, 5.8062154E-004, 2.3365938E-003, 3.1017368E+002
 1.1003057E+001, 1.8729924E-001, 4.1042225E-002, 1.7711921E-002, 2.0810290E-004, 5.2282706E-004, 2.7106124E-003, 3.3757580E+002
 1.2006353E+001, 1.8380722E-001, 4.4310141E-002, 1.8655946E-002, 2.1131864E-004, 4.7180758E-004, 2.9266769E-003, 3.5261463E+002
 1.3005102E+001, 1.7947252E-001, 4.8376334E-002, 1.9826462E-002, 2.0775615E-004, 4.0365283E-004, 3.1938991E-003, 3.6651470E+002
 1.4006355E+001, 1.7352998E-001, 5.3937598E-002, 2.1431936E-002, 2.1141583E-004, 3.2598794E-004, 3.5612043E-003, 3.8357166E+002
 1.5006099E+001, 1.6961188E-001, 5.7614029E-002, 2.2489030E-002, 2.0603202E-004, 2.7105763E-004, 3.8023486E-003, 3.9372546E+002
 1.6003215E+001, 1.6638655E-001, 6.0637590E-002, 2.3359478E-002, 2.0359293E-004, 2.2834107E-004, 4.0010963E-003, 3.9747500E+002
 1.7007155E+001, 1.6191118E-001, 6.4830840E-002, 2.4567028E-002, 2.0093964E-004, 1.7525197E-004, 4.2768878E-003, 4.0710744E+002
 1.8001419E+001, 1.5723562E-001, 6.9206451E-002, 2.5828171E-002, 2.0027463E-004, 1.3268308E-004, 4.5651249E-003, 4.1405198E+002
 1.9002283E+001, 1.5429853E-001, 7.1959880E-002, 2.6620065E-002, 1.9669140E-004, 1.0067160E-004, 4.7458243E-003, 4.1929739E+002
 2.0004709E+001, 1.5208249E-001, 7.4028816E-002, 2.7217938E-002, 1.9930761E-004, 8.7856092E-005, 4.8827412E-003, 4.1964383E+002
 2.1004579E+001, 1.4861298E-001, 7.7270465E-002, 2.8153487E-002, 2.0120203E-004, 6.8054817E-005, 5.0967924E-003, 4.2395684E+002
 2.2008450E+001, 1.4562758E-001, 8.0055492E-002, 2.8958661E-002, 2.0546313E-004, 5.7076941E-005, 5.2812571E-003, 4.2582075E+002
 2.3003241E+001, 1.4346408E-001, 8.2080072E-002, 2.9541537E-002, 2.0403581E-004, 4.3868459E-005, 5.4143836E-003, 4.2692286E+002
 2.4007912E+001, 1.4158062E-001, 8.3838463E-002, 3.0049274E-002, 2.0557626E-004, 3.6771371E-005, 5.5306031E-003, 4.2604379E+002
 2.5001769E+001, 1.3908303E-001, 8.6168618E-002, 3.0722601E-002, 2.0854491E-004, 2.9808753E-005, 5.6848118E-003, 4.2722117E+002
 2.6003771E+001, 1.3656825E-001, 8.8510406E-002, 3.1400952E-002, 2.1460840E-004, 2.6908382E-005, 5.8404510E-003, 4.2705382E+002
 2.7006277E+001, 1.3518360E-001, 8.9802888E-002, 3.1774125E-002, 2.1569640E-004, 2.2974414E-005, 5.9258671E-003, 4.2797408E+002
 2.8007821E+001, 1.3280092E-001, 9.2024969E-002, 3.2416380E-002, 2.1883985E-004, 1.8678729E-005, 6.0729906E-003, 4.2982348E+002
 2.9005508E+001, 1.3145725E-001, 9.3275182E-002, 3.2778889E-002, 2.2274300E-004, 1.8392454E-005, 6.1562248E-003, 4.2700148E+002
 3.0002482E+001, 1.2985899E-001, 9.4764828E-002, 3.3209790E-002, 2.2548537E-004, 1.6242929E-005, 6.2549901E-003, 4.2647581E+002
 3.1009885E+001, 1.2755789E-001, 9.6906297E-002, 3.3830473E-002, 2.3171355E-004, 1.6201870E-005, 6.3974624E-003, 4.2575200E+002
 3.2000663E+001, 1.2624132E-001, 9.8134811E-002, 3.4185203E-002, 2.3281230E-004, 1.4031611E-005, 6.4786650E-003, 4.2760156E+002
 3.3007744E+001, 1.2457592E-001, 9.9686453E-002, 3.4634230E-002, 2.3603060E-004, 1.2624398E-005, 6.5816184E-003, 4.2713363E+002
 3.4004566E+001, 1.2220502E-001, 1.0189364E-001, 3.5273633E-002, 2.4184821E-004, 1.2198517E-005, 6.7283337E-003, 4.2803881E+002
 3.5005866E+001, 1.2059042E-001, 1.0339761E-001, 3.5708946E-002, 2.4512628E-004, 1.1583865E-005, 6.8281579E-003, 4.2731600E+002
 3.6003800E+001, 1.1903258E-001, 1.0484961E-001, 3.6128832E-002, 2.4758246E-004, 1.0539788E-005, 6.9243809E-003, 4.2870949E+002
 3.7002976E+001, 1.1773581E-001, 1.0605691E-001, 3.6478536E-002, 2.5069211E-004, 1.0340411E-005, 7.0046165E-003, 4.2597905E+002
 3.8001564E+001, 1.1580684E-001, 1.0785402E-001, 3.6998531E-002, 2.5430329E-004, 9.7352888E-006, 7.1238324E-003, 4.2741437E+002
 3.9006529E+001, 1.1523014E-001, 1.0839125E-001, 3.7153953E-002, 2.5534318E-004, 1.0029018E-005, 7.1594622E-003, 4.2766056E+002
 4.0002889E+001, 1.1339299E-001, 1.1010215E-001, 3.7649277E-002, 2.5928653E-004, 9.8375311E-006, 7.2730677E-003, 4.2847183E+002
 4.1004580E+001, 1.1203897E-001, 1.1135982E-001, 3.8014937E-002, 2.6502842E-004, 1.0064260E-005, 7.3571872E-003, 4.2718368E+002
 4.2008322E+001, 1.1086614E-001, 1.1245026E-001, 3.8331376E-002, 2.6891700E-004, 1.1003586E-005, 7.4298880E-003, 4.2880748E+002
 4.3007253E+001, 1.0897875E-001, 1.1421040E-001, 3.8839921E-002, 2.7107097E-004, 9.5342052E-006, 7.5463547E-003, 4.3020665E+002
 4.4009229E+001, 1.0808183E-001, 1.1503974E-001, 3.9082613E-002, 2.7774189E-004, 1.1894613E-005, 7.6024440E-003, 4.2877349E+002
 4.5001586E+001, 1.0594022E-001, 1.1701517E-001, 3.9663199E-002, 2.9819783E-004, 1.5769482E-005, 7.7370245E-003, 4.3043630E+002
 4.6001608E+001, 1.0608363E-001, 1.1689650E-001, 3.9622073E-002, 2.8551689E-004, 1.2387769E-005, 7.7264840E-003, 4.3001375E+002
 4.7004392E+001, 1.0423937E-001, 1.1859694E-001, 4.0121995E-002, 3.0343187E-004, 1.7468948E-005, 7.8423956E-003, 4.3085176E+002
 4.8002317E+001, 1.0296397E-001, 1.1977537E-001, 4.0467406E-002, 3.1392337E-004, 1.9484154E-005, 7.9223119E-003, 4.2929098E+002
 4.9003137E+001, 1.0270970E-001, 1.2001625E-001, 4.0535209E-002, 3.1094208E-004, 1.9246029E-005, 7.9375481E-003, 4.2900244E+002
 5.0003968E+001, 1.0085436E-001, 1.2172703E-001, 4.1038209E-002, 3.2902358E-004, 2.3463424E-005, 8.0541772E-003, 4.3017507E+002
 5.1007514E+001, 9.9392588E-002, 1.2306751E-001, 4.1435599E-002, 3.4919020E-004, 2.9691009E-005, 8.1468481E-003, 4.3037254E+002
 5.2003920E+001, 9.9464647E-002, 1.2299643E-001, 4.1416759E-002, 3.5222159E-004, 3.1259291E-005, 8.1428131E-003, 4.2931067E+002
 5.3001242E+001, 9.7563373E-002, 1.2472954E-001, 4.1935532E-002, 3.8741410E-004, 4.0108908E-005, 8.2645832E-003, 4.3136078E+002
 5.4005269E+001, 9.6823328E-002, 1.2542840E-001, 4.2133132E-002, 3.8039867E-004, 4.0838873E-005, 8.3091379E-003, 4.3022289E+002
 5.5000599E+001, 9.5665585E-002, 1.2648484E-001, 4.2448657E-002, 4.0058508E-004, 4.7716137E-005, 8.3830933E-003, 4.3062392E+002
 5.6008687E+001, 9.4897880E-002, 1.2718835E-001, 4.2657359E-002, 4.1144308E-004, 5.1888013E-005, 8.4317874E-003, 4.2992242E+002
 5.7007436E+001, 9.3403174E-002, 1.2855692E-001, 4.3063994E-002, 4.3371684E-004, 5.9269682E-005, 8.5267619E-003, 4.3024150E+002
 5.8000249E+001, 9.2709373E-002, 1.2919594E-001, 4.3251785E-002, 4.4034473E-004, 6.4906955E-005, 8.5702989E-003, 4.3031507E+002
 5.9002869E+001, 9.1919736E-002, 1.2989972E-001, 4.3469976E-002, 4.6842438E-004, 7.1492239E-005, 8.6227038E-003, 4.3131208E+002
 6.0006620E+001, 9.1417235E-002, 1.3035923E-001, 4.3606336E-002, 4.7563621E-004, 7.8166139E-005, 8.6545350E-003, 4.3012529E+002
 6.1002425E+001, 9.0293726E-002, 1.3140292E-001, 4.3909365E-002, 4.7966980E-004, 8.1571751E-005, 8.7241862E-003, 4.3047386E+002
 6.2001402E+001, 8.9528985E-002, 1.3208782E-001, 4.4120219E-002, 5.0426829E-004, 8.6380347E-005, 8.7746001E-003, 4.3092714E+002
 6.3009603E+001, 8.8558448E-002, 1.3296187E-001, 4.4386512E-002, 5.3059437E-004, 9.5946149E-005, 8.8378510E-003, 4.3122492E+002
 6.4009027E+001, 8.8147616E-002, 1.3334407E-001, 4.4496737E-002, 5.3075413E-004, 1.0156274E-004, 8.8630752E-003, 4.2969138E+002
 6.5005914E+001, 8.7677198E-002, 1.3377417E-001, 4.4624771E-002, 5.3820520E-004, 1.0445685E-004, 8.8930191E-003, 4.3096927E+002
 6.6007476E+001, 8.6984678E-002, 1.3440577E-001, 4.4813282E-002, 5.5006817E-004, 1.1120256E-004, 8.9371896E-003, 4.2972013E+002
 6.7008382E+001, 8.5789607E-002, 1.3548478E-001, 4.5140860E-002, 5.8042338E-004, 1.2112428E-004, 9.0148133E-003, 4.3175074E+002
 6.8003802E+001, 8.5136538E-002, 1.3609137E-001, 4.5316743E-002, 5.8236250E-004, 1.2564048E-004, 9.0552074E-003, 4.3054660E+002
 6.9005587E+001, 8.3602540E-002, 1.3747269E-001, 4.5738148E-002, 6.2495086E-004, 1.3640067E-004, 9.1553776E-003, 4.3381555E+002
 7.0006241E+001, 8.3855725E-002, 1.3723727E-001, 4.5669383E-002, 6.2333615E-004, 1.4036408E-004, 9.1395162E-003, 4.3312977E+002
 7.1007345E+001, 8.2805099E-002, 1.3819820E-001, 4.5955346E-002, 6.3980316E-004, 1.4609667E-004, 9.2063787E-003, 4.3275151E+002
 7.2004521E+001, 8.2777431E-002, 1.3822616E-001, 4.5962062E-002, 6.3737923E-004, 1.4908426E-004, 9.2077017E-003, 4.3159028E+002
 7.3000091E+001, 8.1923129E-002, 1.3897975E-001, 4.6199428E-002, 6.7428385E-004, 1.5788270E-004, 9.2652821E-003, 4.3265349E+002
 7.4008355E+001, 8.1180791E-002, 1.3968000E-001, 4.6397342E-002, 6.6715006E-004, 1.6267153E-004, 9.3099037E-003, 4.3347189E+002
 7.5002040E+001, 8.0326175E-002, 1.4046294E-001, 4.6629712E-002, 6.7942011E-004, 1.6729993E-004, 9.3641360E-003, 4.3306749E+002
 7.6005544E+001, 8.0279063E-002, 1.4047647E-001, 4.6647443E-002, 7.0477167E-004, 1.7419351E-004, 9.3704636E-003, 4.3364296E+002
 7.7003321E+001, 7.9613121E-002, 1.4109425E-001, 4.6827143E-002, 7.0777229E-004, 1.7693181E-004, 9.4118228E-003, 4.3569402E+002
 7.8003910E+001, 7.9242740E-002, 1.4144444E-001, 4.6925847E-002, 7.0369920E-004, 1.7830575E-004, 9.4340292E-003, 4.3305028E+002
 7.9005482E+001, 7.8588815E-002, 1.4202313E-001, 4.7107323E-002, 7.3056242E-004, 1.8378962E-004, 9.4779292E-003, 4.3278645E+002
 8.0005124E+001, 7.8519395E-002, 1.4207246E-001, 4.7128266E-002, 7.4291382E-004, 1.9009831E-004, 9.4838295E-003, 4.3325679E+002
 8.1005736E+001, 7.8121547E-002, 1.4244926E-001, 4.7234263E-002, 7.3814362E-004, 1.9071491E-004, 9.5076400E-003, 4.3412222E+002
 8.2009512E+001, 7.7300143E-002, 1.4319459E-001, 4.7458762E-002, 7.5586201E-004, 1.9708332E-004, 9.5605617E-003, 4.3265296E+002
 8.3002494E+001, 7.7477376E-002, 1.4305834E-001, 4.7405788E-002, 7.3079949E-004, 1.9437753E-004, 9.5462074E-003, 4.3253760E+002
 8.4006172E+001, 7.6218309E-002, 1.4420663E-001, 4.7749113E-002, 7.5340773E-004, 2.0121501E-004, 9.6267355E-003, 4.3261396E+002
 8.5000168E+001, 7.5930276E-002, 1.4447023E-001, 4.7827068E-002, 7.5706829E-004, 2.0655644E-004, 9.6448937E-003, 4.3350039E+002
 8.6005431E+001, 7.5225944E-002, 1.4508121E-001, 4.8024943E-002, 7.9689130E-004, 2.1187889E-004, 9.6937006E-003, 4.3450008E+002
 8.7008294E+001, 7.4767990E-002, 1.4551165E-001, 4.8147638E-002, 7.9437495E-004, 2.1205812E-004, 9.7215296E-003, 4.3624840E+002
 8.8005980E+001, 7.3939980E-002, 1.4623876E-001, 4.8377793E-002, 8.3209974E-004, 2.2545461E-004, 9.7775408E-003, 4.3566449E+002
 8.9001040E+001, 7.3804230E-002, 1.4635870E-001, 4.8415891E-002, 8.3851404E-004, 2.2302637E-004, 9.7868213E-003, 4.3422881E+002
 9.0004608E+001, 7.3362119E-002, 1.4677938E-001, 4.8533213E-002, 8.3133343E-004, 2.2457196E-004, 9.8130072E-003, 4.3554249E+002
 9.1005781E+001, 7.4118549E-002, 1.4610245E-001, 4.8324713E-002, 8.0682585E-004, 2.1835046E-004, 9.7631374E-003, 4.3536066E+002
 9.2002663E+001, 7.3106472E-002, 1.4702928E-001, 4.8599481E-002, 8.2083712E-004, 2.2826482E-004, 9.8272266E-003, 4.3443812E+002
 9.3009542E+001, 7.3617619E-002, 1.4655686E-001, 4.8460951E-002, 8.1653750E-004, 2.2858686E-004, 9.7951690E-003, 4.3450211E+002
 9.4001714E+001, 7.2199031E-002, 1.4783000E-001, 4.8851590E-002, 8.5986800E-004, 2.3737973E-004, 9.8883684E-003, 4.3582680E+002
 9.5009651E+001, 7.2113986E-002, 1.4792650E-001, 4.8871102E-002, 8.4470384E-004, 2.3848082E-004, 9.8914769E-003, 4.3702957E+002
 9.6005634E+001, 7.2388156E-002, 1.4767907E-001, 4.8795503E-002, 8.3690147E-004, 2.4008415E-004, 9.8734969E-003, 4.3520606E+002
 9.7000502E+001, 7.0836581E-002, 1.4910377E-001, 4.9217183E-002, 8.5707485E-004, 2.4460022E-004, 9.9717197E-003, 4.3565029E+002
 9.8006395E+001, 7.0028147E-002, 1.4980979E-001, 4.9443194E-002, 8.9828010E-004, 2.5261142E-004, 1.0027087E-002, 4.3652913E+002
 9.9000861E+001, 7.0476984E-002, 1.4939273E-001, 4.9321596E-002, 8.9579297E-004, 2.5635824E-004, 9.9990671E-003, 4.3639704E+002
 1.0000898E+002, 7.0111638E-002, 1.4975515E-001, 4.9416262E-002, 8.7784497E-004, 2.5277137E-004, 1.0019104E-002, 4.3691223E+002
 1.0100078E+002, 7.0153730E-002, 1.4971114E-001, 4.9405504E-002, 8.8139905E-004, 2.5574614E-004, 1.0016966E-002, 4.3810742E+002
 1.0200737E+002, 6.9774643E-002, 1.5008105E-001, 4.9504881E-002, 8.6811833E-004, 2.5220665E-004, 1.0038497E-002, 4.3665358E+002
 1.0300140E+002, 6.9629248E-002, 1.5020503E-001, 4.9545551E-002, 8.7719932E-004, 2.5866031E-004, 1.0048616E-002, 4.3730870E+002
 1.0400666E+002, 6.9120557E-002, 1.5067539E-001, 4.9683496E-002, 8.8150689E-004, 2.5724396E-004, 1.0080539E-002, 4.3701801E+002
 1.0500980E+002, 6.8951078E-002, 1.5083133E-001, 4.9729461E-002, 8.8337212E-004, 2.5805010E-004, 1.0091217E-002, 4.3610232E+002
 1.0600760E+002, 6.8628980E-002, 1.5110887E-001, 4.9819907E-002, 9.0252443E-004, 2.6413801E-004, 1.0113615E-002, 4.3524927E+002
 1.0700301E+002, 6.8595465E-002, 1.5113857E-001, 4.9829154E-002, 9.0378301E-004, 2.6484310E-004, 1.0115843E-002, 4.3736349E+002
 1.0800078E+002, 6.8311387E-002, 1.5139027E-001, 4.9908033E-002, 9.1535907E-004, 2.6630290E-004, 1.0134914E-002, 4.3705965E+002
 1.0900054E+002, 6.7540111E-002, 1.5212619E-001, 5.0113031E-002, 9.0229441E-004, 2.6247286E-004, 1.0180614E-002, 4.3720015E+002
 1.1000880E+002, 6.7722316E-002, 1.5194292E-001, 5.0065853E-002, 9.1267982E-004, 2.6835562E-004, 1.0170762E-002, 4.3848128E+002
 1.1100339E+002, 6.7321692E-002, 1.5231428E-001, 5.0173673E-002, 9.1414515E-004, 2.7311230E-004, 1.0195552E-002, 4.3749608E+002
 1.1200694E+002, 6.7390493E-002, 1.5225593E-001, 5.0154237E-002, 9.0934498E-004, 2.7125070E-004, 1.0190677E-002, 4.3599222E+002
 1.1300751E+002, 6.7174000E-002, 1.5246522E-001, 5.0210975E-002, 9.0280456E-004, 2.7279792E-004, 1.0203068E-002, 4.3540198E+002
 1.1400665E+002, 6.7035109E-002, 1.5257703E-001, 5.0251565E-002, 9.1810180E-004, 2.7459370E-004, 1.0213717E-002, 4.3726538E+002
 1.1500594E+002, 6.6320765E-002, 1.5323191E-001, 5.0445763E-002, 9.2805917E-004, 2.7797994E-004, 1.0259013E-002, 4.3786483E+002
 1.1600440E+002, 6.6272679E-002, 1.5326037E-001, 5.0461603E-002, 9.4203671E-004, 2.8011432E-004, 1.0263886E-002, 4.3629726E+002
 1.1700890E+002, 6.6239397E-002, 1.5328899E-001, 5.0470791E-002, 9.4377391E-004, 2.8229136E-004, 1.0266145E-002, 4.3694561E+002
 1.1800478E+002, 6.6601941E-002, 1.5296477E-001, 5.0370462E-002, 9.3121630E-004, 2.8255961E-004, 1.0242084E-002, 4.3652176E+002
 1.1900917E+002, 6.5845478E-002, 1.5364636E-001, 5.0578658E-002, 9.5266378E-004, 2.8360160E-004, 1.0291604E-002, 4.3587142E+002
 1.2000914E+002, 6.5753681E-002, 1.5373893E-001, 5.0602175E-002, 9.4686469E-004, 2.8251123E-004, 1.0296462E-002, 4.3544672E+002
 1.2100216E+002, 6.5899669E-002, 1.5359495E-001, 5.0564073E-002, 9.5310707E-004, 2.8500657E-004, 1.0288311E-002, 4.3595519E+002
 1.2200535E+002, 6.5118611E-002, 1.5432580E-001, 5.0774129E-002, 9.5197587E-004, 2.8372920E-004, 1.0336237E-002, 4.3539542E+002
 1.2300055E+002, 6.4798509E-002, 1.5460590E-001, 5.0863703E-002, 9.6813911E-004, 2.8518675E-004, 1.0358163E-002, 4.3813643E+002
 1.2401063E+002, 6.5335917E-002, 1.5410912E-001, 5.0717182E-002, 9.6215254E-004, 2.9367841E-004, 1.0324138E-002, 4.3573084E+002
 1.2500021E+002, 6.5211343E-002, 1.5422458E-001, 5.0750968E-002, 9.6306426E-004, 2.9280785E-004, 1.0331943E-002, 4.3708523E+002
 1.2600202E+002, 6.5109749E-002, 1.5431728E-001, 5.0778681E-002, 9.6487886E-004, 2.9318318E-004, 1.0338442E-002, 4.3812699E+002
 1.2700153E+002, 6.4706137E-002, 1.5469126E-001, 5.0887652E-002, 9.6704292E-004, 2.9506778E-004, 1.0363554E-002, 4.3726544E+002
 1.2800763E+002, 6.4680266E-002, 1.5471606E-001, 5.0894509E-002, 9.6651201E-004, 2.9492915E-004, 1.0365074E-002, 4.3760466E+002
 1.2900516E+002, 6.4567383E-002, 1.5481395E-001, 5.0926016E-002, 9.7255068E-004, 2.9772078E-004, 1.0372821E-002, 4.3737418E+002
 1.3000532E+002, 6.4217424E-002, 1.5512923E-001, 5.1022427E-002, 9.8265955E-004, 2.9741524E-004, 1.0395767E-002, 4.3764348E+002
 1.3100100E+002, 6.4168785E-002, 1.5518283E-001, 5.1033673E-002, 9.7500018E-004, 3.0001094E-004, 1.0397658E-002, 4.3732070E+002
 1.3200071E+002, 6.3677619E-002, 1.5564122E-001, 5.1165866E-002, 9.7512234E-004, 3.0039397E-004, 1.0427895E-002, 4.3696806E+002
 1.3300369E+002, 6.2718116E-002, 1.5654505E-001, 5.1423006E-002, 9.6889531E-004, 2.9667309E-004, 1.0486128E-002, 4.3995079E+002
 1.3400152E+002, 6.3023088E-002, 1.5621959E-001, 5.1347304E-002, 1.0021204E-003, 3.0925255E-004, 1.0471803E-002, 4.3903840E+002
 1.3500924E+002, 6.3314986E-002, 1.5596857E-001, 5.1265274E-002, 9.8438391E-004, 3.0346921E-004, 1.0451455E-002, 4.3672200E+002
 1.3600562E+002, 6.3987632E-002, 1.5536237E-001, 5.1079722E-002, 9.6464912E-004, 3.0665029E-004, 1.0407272E-002, 4.3644889E+002
 1.3700122E+002, 6.3220649E-002, 1.5606318E-001, 5.1289477E-002, 9.7876808E-004, 3.0293518E-004, 1.0456487E-002, 4.3865902E+002
 1.3800185E+002, 6.3698505E-002, 1.5563935E-001, 5.1157083E-002, 9.6003793E-004, 2.9858667E-004, 1.0424537E-002, 4.3832261E+002
 1.3900772E+002, 6.3368002E-002, 1.5596142E-001, 5.1244005E-002, 9.4917655E-004, 2.9366594E-004, 1.0443435E-002, 4.3874080E+002
 1.4000800E+002, 6.3267287E-002, 1.5604580E-001, 5.1272398E-002, 9.5667264E-004, 2.9874744E-004, 1.0450603E-002, 4.3633607E+002
 1.4100362E+002, 6.2757023E-002, 1.5650826E-001, 5.1412604E-002, 9.6926439E-004, 2.9684035E-004, 1.0483783E-002, 4.3731526E+002
 1.4200072E+002, 6.3421918E-002, 1.5589479E-001, 5.1231497E-002, 9.6152299E-004, 3.0373703E-004, 1.0441691E-002, 4.3783910E+002
 1.4300797E+002, 6.2387234E-002, 1.5682171E-001, 5.1517285E-002, 9.9553541E-004, 3.0514856E-004, 1.0510075E-002, 4.3942357E+002
 1.4400815E+002, 6.2551340E-002, 1.5668783E-001, 5.1469782E-002, 9.7921620E-004, 3.0193384E-004, 1.0497752E-002, 4.3753727E+002
 1.4500519E+002, 6.3004231E-002, 1.5626522E-001, 5.1347768E-002, 9.7886378E-004, 3.0260301E-004, 1.0469823E-002, 4.3831979E+002
 1.4600179E+002, 6.2473072E-002, 1.5677765E-001, 5.1488228E-002, 9.6556252E-004, 2.9672814E-004, 1.0500743E-002, 4.3639184E+002
 1.4700464E+002, 6.1714129E-002, 1.5743396E-001, 5.1701746E-002, 1.0101043E-003, 3.0326350E-004, 1.0553550E-002, 4.4033600E+002
 1.4800390E+002, 6.2966404E-002, 1.5631513E-001, 5.1355308E-002, 9.6634071E-004, 3.0133001E-004, 1.0470427E-002, 4.3809175E+002
 1.4900887E+002, 6.2193238E-002, 1.5700625E-001, 5.1568723E-002, 9.9234131E-004, 3.0629479E-004, 1.0521552E-002, 4.3869522E+002
 1.5000575E+002, 6.2505767E-002, 1.5672753E-001, 5.1482107E-002, 9.8087750E-004, 3.0636618E-004, 1.0500724E-002, 4.3707435E+002
 1.5100546E+002, 6.2090387E-002, 1.5710481E-001, 5.1596021E-002, 9.9029908E-004, 3.0540728E-004, 1.0527610E-002, 4.3808534E+002
 1.5200312E+002, 6.2444888E-002, 1.5680102E-001, 5.1495913E-002, 9.6733670E-004, 3.0094783E-004, 1.0502664E-002, 4.3666193E+002
 1.5300291E+002, 6.1220352E-002, 1.5790431E-001, 5.1832955E-002, 1.0021149E-003, 3.0250096E-004, 1.0582835E-002, 4.3890175E+002
 1.5400338E+002, 6.2279507E-002, 1.5695115E-001, 5.1541356E-002, 9.7128760E-004, 2.9989830E-004, 1.0513406E-002, 4.3698009E+002
