s,,,,,,,
Time,"O2 EXHAUST","CO2 EXHAUST","H2O EXHAUST","CO EXHAUST","FUEL EXHAUST","SOOT EXHAUST","TEMP EXHAUST"
 0.0000000E+000, 2.3099739E-001, 5.9146498E-004, 5.9412091E-003, 0.0000000E+000, 0.0000000E+000, 0.0000000E+000, 2.0000000E+001
 1.0029029E+000, 2.3099739E-001, 5.9146498E-004, 5.9412091E-003, 2.6352888E-028, 1.5655004E-027, 7.6138944E-029, 2.0985267E+001
 2.0025011E+000, 2.2044802E-001, 1.0231646E-002, 1.0018248E-002, 7.9855721E-005, 1.8987782E-004, 7.5331701E-005, 1.1968701E+002
 3.0008705E+000, 2.1375746E-001, 1.6346362E-002, 1.2612791E-002, 1.3920586E-004, 2.5529277E-004, 1.2499629E-004, 1.8030316E+002
 4.0025295E+000, 2.0642319E-001, 2.3081197E-002, 1.5452483E-002, 1.8525380E-004, 2.9107387E-004, 1.7551630E-004, 2.4153801E+002
 5.0014098E+000, 2.0067143E-001, 2.8386572E-002, 1.7673073E-002, 2.0406884E-004, 3.1080712E-004, 2.1153525E-004, 2.8645778E+002
 6.0061762E+000, 1.9046171E-001, 3.7892152E-002, 2.1604378E-002, 1.8683258E-004, 2.3389857E-004, 2.6504455E-004, 3.5401299E+002
 7.0038188E+000, 1.8167881E-001, 4.6108658E-002, 2.4977183E-002, 1.4484004E-004, 1.4482864E-004, 3.0543410E-004, 4.0391480E+002
 8.0017637E+000, 1.7386266E-001, 5.3409229E-002, 2.7981021E-002, 1.1503782E-004, 7.4560007E-005, 3.4294627E-004, 4.3887999E+002
 9.0032287E+000, 1.6687125E-001, 5.9934065E-002, 3.0668446E-002, 9.1386351E-005, 1.9097237E-005, 3.7711830E-004, 4.6845643E+002
 1.0006617E+001, 1.5663661E-001, 6.9424835E-002, 3.4611999E-002, 9.4059220E-005, 1.2612918E-006, 4.3484701E-004, 4.9671927E+002
 1.1007040E+001, 1.5115876E-001, 7.4496711E-002, 3.6723858E-002, 1.0023633E-004, 1.6581358E-007, 4.6672495E-004, 5.0807908E+002
 1.2000643E+001, 1.4504588E-001, 8.0155272E-002, 3.9080758E-002, 1.0793598E-004, 1.2707292E-007, 5.0246520E-004, 5.1791132E+002
 1.3001072E+001, 1.3872486E-001, 8.6006342E-002, 4.1517956E-002, 1.1601970E-004, 1.7371066E-007, 5.3944780E-004, 5.3102914E+002
 1.4002939E+001, 1.3609992E-001, 8.8436340E-002, 4.2529992E-002, 1.1921435E-004, 1.3909688E-007, 5.5477179E-004, 5.2391987E+002
 1.5001508E+001, 1.3328866E-001, 9.1038754E-002, 4.3613883E-002, 1.2268641E-004, 1.1262004E-007, 5.7119405E-004, 5.2154467E+002
 1.6001086E+001, 1.2980022E-001, 9.4268148E-002, 4.4958826E-002, 1.2690902E-004, 6.7752492E-008, 5.9155420E-004, 5.2564552E+002
 1.7004072E+001, 1.2578381E-001, 9.7985832E-002, 4.6507462E-002, 1.3212708E-004, 1.6381254E-007, 6.1507010E-004, 5.3593328E+002
 1.8001210E+001, 1.2489701E-001, 9.8806948E-002, 4.6849323E-002, 1.3308435E-004, 5.8166306E-008, 6.2022175E-004, 5.2534845E+002
 1.9002980E+001, 1.2047431E-001, 1.0290073E-001, 4.8554607E-002, 1.3880835E-004, 1.1998942E-007, 6.4611188E-004, 5.2884643E+002
 2.0007005E+001, 1.1979430E-001, 1.0353047E-001, 4.8816715E-002, 1.3946184E-004, 7.2049362E-008, 6.5004540E-004, 5.2806177E+002
 2.1007616E+001, 1.1872049E-001, 1.0452438E-001, 4.9230758E-002, 1.4087957E-004, 1.0791804E-007, 6.5633719E-004, 5.2438751E+002
 2.2004772E+001, 1.1582621E-001, 1.0720365E-001, 5.0346657E-002, 1.4445096E-004, 7.6510263E-008, 6.7324376E-004, 5.2483065E+002
 2.3004449E+001, 1.1382182E-001, 1.0905907E-001, 5.1119472E-002, 1.4697435E-004, 1.1834072E-007, 6.8496255E-004, 5.3021015E+002
 2.4005629E+001, 1.1251080E-001, 1.1027230E-001, 5.1625059E-002, 1.4889268E-004, 1.7192557E-007, 6.9268339E-004, 5.3053541E+002
 2.5003007E+001, 1.1171279E-001, 1.1101137E-001, 5.1932638E-002, 1.4962546E-004, 7.3209649E-008, 6.9729239E-004, 5.3168823E+002
 2.6006701E+001, 1.1011410E-001, 1.1249112E-001, 5.2549057E-002, 1.5171735E-004, 1.3832042E-007, 7.0665567E-004, 5.3289554E+002
 2.7006675E+001, 1.0847576E-001, 1.1400773E-001, 5.3180738E-002, 1.5376685E-004, 1.1803890E-007, 7.1623167E-004, 5.2309582E+002
 2.8006653E+001, 1.0927546E-001, 1.1326770E-001, 5.2872335E-002, 1.5258038E-004, 4.9023151E-008, 7.1151873E-004, 5.1809217E+002
 2.9003523E+001, 1.0615827E-001, 1.1615283E-001, 5.4074319E-002, 1.5679745E-004, 1.5409459E-007, 7.2980462E-004, 5.2396113E+002
 3.0002301E+001, 1.0728018E-001, 1.1511442E-001, 5.3641714E-002, 1.5528974E-004, 1.2940515E-007, 7.2322541E-004, 5.2312876E+002
 3.1004479E+001, 1.0727744E-001, 1.1511705E-001, 5.3642747E-002, 1.5522655E-004, 9.9833699E-008, 7.2322757E-004, 5.2676642E+002
 3.2001686E+001, 1.0385712E-001, 1.1828272E-001, 5.4961614E-002, 1.5986152E-004, 2.6942082E-007, 7.4329320E-004, 5.2862536E+002
 3.3001209E+001, 1.0349958E-001, 1.1861432E-001, 5.5099291E-002, 1.5984019E-004, 6.2880072E-008, 7.4528540E-004, 5.1917288E+002
 3.4006028E+001, 1.0208419E-001, 1.1992436E-001, 5.5645058E-002, 1.6174127E-004, 1.1519729E-007, 7.5358543E-004, 5.2553522E+002
 3.5008153E+001, 1.0213612E-001, 1.1987645E-001, 5.5624987E-002, 1.6155237E-004, 7.3508004E-008, 7.5325606E-004, 5.2628462E+002
 3.6003882E+001, 1.0075148E-001, 1.2115819E-001, 5.6158852E-002, 1.6329144E-004, 6.2113801E-008, 7.6135062E-004, 5.2590440E+002
 3.7001331E+001, 9.9836102E-002, 1.2200462E-001, 5.6512072E-002, 1.6515369E-004, 1.6377379E-007, 7.6685051E-004, 5.2512680E+002
 3.8002632E+001, 1.0054331E-001, 1.2135084E-001, 5.6239127E-002, 1.6358978E-004, 6.9081504E-008, 7.6257525E-004, 5.2143625E+002
 3.9002295E+001, 9.8315416E-002, 1.2341310E-001, 5.7098133E-002, 1.6643448E-004, 1.1330184E-007, 7.7560909E-004, 5.2292240E+002
 4.0007973E+001, 9.8862058E-002, 1.2290710E-001, 5.6887366E-002, 1.6573587E-004, 9.2877784E-008, 7.7241096E-004, 5.2698949E+002
 4.1003895E+001, 9.7301831E-002, 1.2435139E-001, 5.7488928E-002, 1.6768793E-004, 6.7683868E-008, 7.8153044E-004, 5.1783417E+002
 4.2003070E+001, 9.6300188E-002, 1.2527866E-001, 5.7875099E-002, 1.6889042E-004, 7.4429780E-008, 7.8737439E-004, 5.2098100E+002
 4.3006245E+001, 9.5904528E-002, 1.2564478E-001, 5.8027685E-002, 1.6948384E-004, 1.3405565E-007, 7.8970747E-004, 5.2753018E+002
 4.4004394E+001, 9.6690065E-002, 1.2491689E-001, 5.7725032E-002, 1.6905356E-004, 2.5063052E-007, 7.8523125E-004, 5.1963088E+002
 4.5002808E+001, 9.4083598E-002, 1.2732760E-001, 5.8730591E-002, 1.7388017E-004, 6.4463655E-007, 8.0079225E-004, 5.2663213E+002
 4.6007190E+001, 9.5196818E-002, 1.2629842E-001, 5.8300972E-002, 1.7147425E-004, 5.0650229E-007, 7.9407421E-004, 5.2420537E+002
 4.7002109E+001, 9.4348806E-002, 1.2708329E-001, 5.8627965E-002, 1.7262550E-004, 5.4130502E-007, 7.9904959E-004, 5.2336510E+002
 4.8004249E+001, 9.3593272E-002, 1.2778079E-001, 5.8919808E-002, 1.7498514E-004, 1.0334367E-006, 8.0376029E-004, 5.2694939E+002
 4.9002621E+001, 9.3909568E-002, 1.2748400E-001, 5.8799037E-002, 1.7760995E-004, 1.7991277E-006, 8.0254117E-004, 5.2303949E+002
 5.0001688E+001, 9.2148699E-002, 1.2910864E-001, 5.9479587E-002, 1.8392216E-004, 2.5828437E-006, 8.1369022E-004, 5.2208321E+002
 5.1003015E+001, 9.4387209E-002, 1.2704422E-001, 5.8614130E-002, 1.7517086E-004, 1.6351484E-006, 7.9936515E-004, 5.2044716E+002
 5.2007248E+001, 9.1838881E-002, 1.2940037E-001, 5.9597504E-002, 1.8049759E-004, 2.1004770E-006, 8.1470583E-004, 5.2275823E+002
 5.3004612E+001, 9.1812239E-002, 1.2942356E-001, 5.9608155E-002, 1.8158525E-004, 2.7203368E-006, 8.1508087E-004, 5.2197339E+002
 5.4002872E+001, 9.3238093E-002, 1.2810886E-001, 5.9056941E-002, 1.7594766E-004, 1.2883643E-006, 8.0594414E-004, 5.2284222E+002
 5.5004754E+001, 9.2168348E-002, 1.2909083E-001, 5.9471793E-002, 1.8350427E-004, 3.1605162E-006, 8.1349251E-004, 5.1748107E+002
 5.6007528E+001, 9.0550779E-002, 1.3058347E-001, 6.0096792E-002, 1.8903602E-004, 4.4717226E-006, 8.2367778E-004, 5.2034909E+002
 5.7006240E+001, 9.0644813E-002, 1.3050425E-001, 6.0058260E-002, 1.8303437E-004, 2.7449556E-006, 8.2190198E-004, 5.2868791E+002
 5.8004008E+001, 9.1816936E-002, 1.2942004E-001, 5.9606139E-002, 1.8099611E-004, 2.3298592E-006, 8.1493215E-004, 5.2472788E+002
 5.9003920E+001, 8.9134931E-002, 1.3189084E-001, 6.0643488E-002, 1.9310855E-004, 6.0672948E-006, 8.3243169E-004, 5.2770897E+002
 6.0007937E+001, 9.0659222E-002, 1.3048832E-001, 6.0053401E-002, 1.8490650E-004, 3.6589498E-006, 8.2221119E-004, 5.2460676E+002
 6.1003212E+001, 8.9124592E-002, 1.3190273E-001, 6.0646863E-002, 1.9144319E-004, 5.1698150E-006, 8.3214290E-004, 5.2748418E+002
 6.2003961E+001, 8.9232156E-002, 1.3180517E-001, 6.0604851E-002, 1.8984472E-004, 4.4655870E-006, 8.3120948E-004, 5.2457989E+002
 6.3001077E+001, 8.8976586E-002, 1.3203426E-001, 6.0705474E-002, 1.9569517E-004, 6.6618172E-006, 8.3385509E-004, 5.1937843E+002
 6.4000030E+001, 8.9684016E-002, 1.3138479E-001, 6.0431267E-002, 1.9088001E-004, 4.7686198E-006, 8.2890216E-004, 5.1964564E+002
 6.5005675E+001, 8.8258254E-002, 1.3270226E-001, 6.0981581E-002, 1.9433871E-004, 5.7838570E-006, 8.3758402E-004, 5.2618589E+002
 6.6004874E+001, 8.9021218E-002, 1.3199578E-001, 6.0687444E-002, 1.9351152E-004, 6.0133541E-006, 8.3315083E-004, 5.2098614E+002
 6.7006168E+001, 8.8337071E-002, 1.3262283E-001, 6.0953015E-002, 1.9904358E-004, 7.5771622E-006, 8.3812385E-004, 5.2037110E+002
 6.8001796E+001, 8.8933723E-002, 1.3207623E-001, 6.0721260E-002, 1.9395054E-004, 6.5981666E-006, 8.3373028E-004, 5.2374638E+002
 6.9001785E+001, 8.8881099E-002, 1.3212179E-001, 6.0742662E-002, 1.9658778E-004, 6.1164191E-006, 8.3457533E-004, 5.2438868E+002
 7.0000899E+001, 8.7349726E-002, 1.3354004E-001, 6.1332742E-002, 1.9783651E-004, 6.9431529E-006, 8.4338575E-004, 5.2949932E+002
 7.1005765E+001, 8.8139967E-002, 1.3280997E-001, 6.1027610E-002, 1.9572992E-004, 6.7735304E-006, 8.3853367E-004, 5.2630043E+002
 7.2005984E+001, 8.8683900E-002, 1.3231002E-001, 6.0816870E-002, 1.9238992E-004, 5.9096775E-006, 8.3480031E-004, 5.2480318E+002
 7.3004918E+001, 8.7723405E-002, 1.3319205E-001, 6.1189328E-002, 1.9899021E-004, 7.0616305E-006, 8.4153993E-004, 5.2081561E+002
 7.4006885E+001, 8.8441223E-002, 1.3252904E-001, 6.0912090E-002, 1.9693880E-004, 7.0350264E-006, 8.3710358E-004, 5.1943638E+002
 7.5005744E+001, 8.8648961E-002, 1.3233976E-001, 6.0831154E-002, 1.9444409E-004, 6.1273657E-006, 8.3542397E-004, 5.2185962E+002
 7.6000373E+001, 8.8825275E-002, 1.3217349E-001, 6.0764073E-002, 1.9653235E-004, 6.7491961E-006, 8.3487464E-004, 5.1526865E+002
 7.7002569E+001, 8.8461507E-002, 1.3251485E-001, 6.0902979E-002, 1.9351002E-004, 5.7610538E-006, 8.3627613E-004, 5.2648213E+002
 7.8005396E+001, 9.0257947E-002, 1.3085704E-001, 6.0208842E-002, 1.8738928E-004, 4.6753368E-006, 8.2496883E-004, 5.2232358E+002
 7.9003469E+001, 8.7045078E-002, 1.3381865E-001, 6.1451135E-002, 2.0071567E-004, 8.0291376E-006, 8.4568652E-004, 5.2259995E+002
 8.0005310E+001, 8.8404683E-002, 1.3255544E-001, 6.0928437E-002, 2.0266699E-004, 8.0751696E-006, 8.3850215E-004, 5.2337147E+002
 8.1000490E+001, 8.6389891E-002, 1.3441907E-001, 6.1705626E-002, 2.0621769E-004, 8.7026829E-006, 8.5049271E-004, 5.1965028E+002
 8.2006154E+001, 8.7952801E-002, 1.3297788E-001, 6.1101286E-002, 1.9994183E-004, 8.2154138E-006, 8.4045623E-004, 5.1575297E+002
 8.3003176E+001, 8.7724590E-002, 1.3319367E-001, 6.1188098E-002, 1.9696074E-004, 6.3436511E-006, 8.4111054E-004, 5.2545030E+002
 8.4003619E+001, 8.6708793E-002, 1.3413088E-001, 6.1580588E-002, 2.0050294E-004, 7.4093987E-006, 8.4752063E-004, 5.2070263E+002
 8.5003762E+001, 8.6188268E-002, 1.3460886E-001, 6.1782364E-002, 2.0401474E-004, 8.5106548E-006, 8.5115886E-004, 5.2491915E+002
 8.6005999E+001, 8.5804295E-002, 1.3496516E-001, 6.1930119E-002, 2.0380691E-004, 8.5507383E-006, 8.5325942E-004, 5.2709376E+002
 8.7008016E+001, 8.7840936E-002, 1.3308541E-001, 6.1143312E-002, 1.9714707E-004, 7.0259033E-006, 8.4049892E-004, 5.1878567E+002
 8.8004491E+001, 8.8971540E-002, 1.3204326E-001, 6.0706184E-002, 1.9247345E-004, 5.5735403E-006, 8.3321207E-004, 5.2488503E+002
 8.9003889E+001, 8.6674166E-002, 1.3416069E-001, 6.1594579E-002, 2.0222063E-004, 7.9841909E-006, 8.4807184E-004, 5.2211694E+002
 9.0004149E+001, 8.6010596E-002, 1.3477917E-001, 6.1849181E-002, 1.9985848E-004, 7.1325665E-006, 8.5128500E-004, 5.3003936E+002
 9.1005208E+001, 8.5203923E-002, 1.3551122E-001, 6.2164487E-002, 2.1192031E-004, 1.0281031E-005, 8.5830336E-004, 5.2291695E+002
 9.2001697E+001, 8.7027824E-002, 1.3383058E-001, 6.1458937E-002, 2.0374741E-004, 9.0671316E-006, 8.4641446E-004, 5.2140466E+002
 9.3002301E+001, 8.6627734E-002, 1.3420498E-001, 6.1611965E-002, 2.0115468E-004, 8.5174764E-006, 8.4810788E-004, 5.1983796E+002
 9.4000946E+001, 8.6754674E-002, 1.3408366E-001, 6.1564300E-002, 2.0403343E-004, 8.3179807E-006, 8.4800034E-004, 5.2349919E+002
 9.5000483E+001, 8.7009439E-002, 1.3385595E-001, 6.1463654E-002, 1.9755318E-004, 6.8860148E-006, 8.4522675E-004, 5.2390279E+002
 9.6008540E+001, 8.5322193E-002, 1.3540874E-001, 6.2116853E-002, 2.0651068E-004, 8.7127479E-006, 8.5651562E-004, 5.2516709E+002
 9.7004547E+001, 8.5412555E-002, 1.3532448E-001, 6.2082129E-002, 2.0679598E-004, 9.2367548E-006, 8.5606995E-004, 5.2492141E+002
 9.8006279E+001, 8.4767755E-002, 1.3592070E-001, 6.2331005E-002, 2.0817669E-004, 8.9273807E-006, 8.5995900E-004, 5.2763743E+002
 9.9001730E+001, 8.3526846E-002, 1.3705699E-001, 6.2813197E-002, 2.1919891E-004, 1.0815218E-005, 8.6918660E-004, 5.2740536E+002
 1.0000105E+002, 8.5217158E-002, 1.3549799E-001, 6.2159616E-002, 2.1258626E-004, 1.0819694E-005, 8.5836779E-004, 5.1984064E+002
 1.0100769E+002, 8.7145262E-002, 1.3372361E-001, 6.1413165E-002, 2.0230383E-004, 8.5894915E-006, 8.4545795E-004, 5.1972386E+002
 1.0200004E+002, 8.6646950E-002, 1.3418191E-001, 6.1606187E-002, 2.0519796E-004, 9.1005426E-006, 8.4884395E-004, 5.2258581E+002
 1.0300425E+002, 8.5765713E-002, 1.3499689E-001, 6.1946257E-002, 2.0695688E-004, 8.7956443E-006, 8.5413216E-004, 5.2619465E+002
 1.0400009E+002, 8.7514295E-002, 1.3338031E-001, 6.1271461E-002, 2.0320712E-004, 8.4465133E-006, 8.4358613E-004, 5.1641837E+002
 1.0500467E+002, 8.5645413E-002, 1.3510383E-001, 6.1993863E-002, 2.1036840E-004, 1.0163595E-005, 8.5551435E-004, 5.2599709E+002
 1.0600341E+002, 8.6420822E-002, 1.3438959E-001, 6.1693911E-002, 2.0677888E-004, 9.0998140E-006, 8.5043664E-004, 5.1865935E+002
 1.0700764E+002, 8.6606836E-002, 1.3421780E-001, 6.1622036E-002, 2.0620575E-004, 9.2557727E-006, 8.4927814E-004, 5.1909025E+002
 1.0800158E+002, 8.5973480E-002, 1.3480719E-001, 6.1865340E-002, 2.0467637E-004, 8.5075042E-006, 8.5249631E-004, 5.2050893E+002
 1.0900008E+002, 8.4451255E-002, 1.3620739E-001, 6.2454898E-002, 2.1333622E-004, 1.0103668E-005, 8.6280190E-004, 5.2356068E+002
 1.1000590E+002, 8.7532947E-002, 1.3336815E-001, 6.1262783E-002, 1.9934387E-004, 7.3282394E-006, 8.4267689E-004, 5.2130577E+002
 1.1100751E+002, 8.6823851E-002, 1.3402172E-001, 6.1536926E-002, 2.0227736E-004, 8.4274121E-006, 8.4724731E-004, 5.1783338E+002
 1.1200111E+002, 8.4466898E-002, 1.3619634E-001, 6.2447842E-002, 2.1070888E-004, 9.5116437E-006, 8.6216680E-004, 5.2636877E+002
 1.1300304E+002, 8.5668800E-002, 1.3508590E-001, 6.1983781E-002, 2.0755956E-004, 9.2408946E-006, 8.5479855E-004, 5.2606624E+002
 1.1400474E+002, 8.5519200E-002, 1.3521805E-001, 6.2043403E-002, 2.1260824E-004, 1.0020692E-005, 8.5668689E-004, 5.2219106E+002
 1.1500030E+002, 8.3789698E-002, 1.3681663E-001, 6.2710782E-002, 2.1642831E-004, 1.1425371E-005, 8.6713970E-004, 5.2390949E+002
 1.1600722E+002, 8.6047017E-002, 1.3473449E-001, 6.1838221E-002, 2.0794572E-004, 1.0196840E-005, 8.5276606E-004, 5.1741881E+002
 1.1700055E+002, 8.5823350E-002, 1.3493976E-001, 6.1924930E-002, 2.0951772E-004, 1.0877306E-005, 8.5434228E-004, 5.1592737E+002
 1.1800038E+002, 8.5146290E-002, 1.3556379E-001, 6.2186785E-002, 2.1242225E-004, 1.1347861E-005, 8.5872858E-004, 5.1996973E+002
 1.1900135E+002, 8.5314955E-002, 1.3541016E-001, 6.2121076E-002, 2.1038441E-004, 1.0509826E-005, 8.5736244E-004, 5.1605438E+002
 1.2000116E+002, 8.5973004E-002, 1.3480898E-001, 6.1864994E-002, 2.0352218E-004, 9.0444972E-006, 8.5225731E-004, 5.2177642E+002
 1.2100340E+002, 8.5579130E-002, 1.3516736E-001, 6.2018673E-002, 2.0869978E-004, 1.0373606E-005, 8.5553583E-004, 5.1970937E+002
 1.2200516E+002, 8.7360558E-002, 1.3352813E-001, 6.1329103E-002, 1.9922524E-004, 7.4040240E-006, 8.4361460E-004, 5.1985028E+002
 1.2300343E+002, 8.6526377E-002, 1.3429930E-001, 6.1651025E-002, 2.0103670E-004, 7.6428659E-006, 8.4865033E-004, 5.2365448E+002
 1.2400659E+002, 8.4804331E-002, 1.3588222E-001, 6.2318089E-002, 2.1144277E-004, 1.0895459E-005, 8.6043409E-004, 5.2398781E+002
 1.2500087E+002, 8.5361424E-002, 1.3537250E-001, 6.2101686E-002, 2.0638685E-004, 8.8279269E-006, 8.5627056E-004, 5.2494909E+002
 1.2600434E+002, 8.4554612E-002, 1.3611573E-001, 6.2413774E-002, 2.1008037E-004, 9.8644335E-006, 8.6154536E-004, 5.2199646E+002
 1.2700054E+002, 8.6830023E-002, 1.3401588E-001, 6.1534528E-002, 2.0230599E-004, 8.7772073E-006, 8.4721838E-004, 5.1761560E+002
 1.2800002E+002, 8.5773250E-002, 1.3499213E-001, 6.1942594E-002, 2.0516918E-004, 9.0050315E-006, 8.5371659E-004, 5.2024147E+002
 1.2900573E+002, 8.7115540E-002, 1.3374937E-001, 6.1425234E-002, 2.0376408E-004, 8.3897055E-006, 8.4592903E-004, 5.2419167E+002
 1.3000606E+002, 8.7410141E-002, 1.3348533E-001, 6.1309037E-002, 1.9678403E-004, 7.0102411E-006, 8.4282860E-004, 5.2769777E+002
 1.3100723E+002, 8.5451895E-002, 1.3528606E-001, 6.2067485E-002, 2.0819227E-004, 1.0039356E-005, 8.5614075E-004, 5.2265453E+002
 1.3200619E+002, 8.4618415E-002, 1.3604687E-001, 6.2392019E-002, 2.1735782E-004, 1.2043702E-005, 8.6270561E-004, 5.2593960E+002
 1.3300769E+002, 8.6194492E-002, 1.3459930E-001, 6.1780971E-002, 2.0676194E-004, 9.9410471E-006, 8.5169579E-004, 5.2328698E+002
 1.3400176E+002, 8.5835889E-002, 1.3492330E-001, 6.1921677E-002, 2.1332500E-004, 1.0915610E-005, 8.5506706E-004, 5.2536057E+002
 1.3500606E+002, 8.5320673E-002, 1.3539191E-001, 6.2122795E-002, 2.2027723E-004, 1.2435539E-005, 8.5939336E-004, 5.2292415E+002
 1.3600458E+002, 8.6806625E-002, 1.3403652E-001, 6.1543872E-002, 2.0313032E-004, 8.8521596E-006, 8.4752102E-004, 5.1928507E+002
 1.3700804E+002, 8.4000202E-002, 1.3662033E-001, 6.2629999E-002, 2.1720630E-004, 1.1984946E-005, 8.6612600E-004, 5.2117581E+002
 1.3800301E+002, 8.5194022E-002, 1.3552278E-001, 6.2167501E-002, 2.1002406E-004, 1.0400286E-005, 8.5796261E-004, 5.2482404E+002
 1.3900719E+002, 8.4406261E-002, 1.3624343E-001, 6.2473892E-002, 2.1762384E-004, 1.1253462E-005, 8.6394678E-004, 5.2545490E+002
 1.4000126E+002, 8.5462357E-002, 1.3527666E-001, 6.2063413E-002, 2.0800960E-004, 9.6954398E-006, 8.5604464E-004, 5.2130831E+002
 1.4100019E+002, 8.5188557E-002, 1.3552871E-001, 6.2169542E-002, 2.0956707E-004, 9.0700378E-006, 8.5789943E-004, 5.1803497E+002
 1.4200607E+002, 8.5093768E-002, 1.3562327E-001, 6.2203982E-002, 2.0443169E-004, 8.3156411E-006, 8.5735757E-004, 5.2509374E+002
 1.4300760E+002, 8.4062300E-002, 1.3657280E-001, 6.2603208E-002, 2.0969589E-004, 9.5187099E-006, 8.6421448E-004, 5.2095494E+002
 1.4400292E+002, 8.5105537E-002, 1.3560991E-001, 6.2200173E-002, 2.0628730E-004, 8.8017864E-006, 8.5767862E-004, 5.2260462E+002
 1.4500373E+002, 8.3846772E-002, 1.3676109E-001, 6.2689636E-002, 2.1846817E-004, 1.1588220E-005, 8.6724666E-004, 5.2872736E+002
 1.4600427E+002, 8.5748308E-002, 1.3500970E-001, 6.1953896E-002, 2.0943158E-004, 9.7344637E-006, 8.5474478E-004, 5.2167187E+002
 1.4700668E+002, 8.4505203E-002, 1.3616258E-001, 6.2432502E-002, 2.0930772E-004, 9.6154101E-006, 8.6166026E-004, 5.2473512E+002
 1.4800566E+002, 8.5256628E-002, 1.3546666E-001, 6.2142987E-002, 2.0872491E-004, 9.0264447E-006, 8.5734358E-004, 5.2184914E+002
 1.4900125E+002, 8.5762718E-002, 1.3500463E-001, 6.1945919E-002, 2.0317813E-004, 8.0034783E-006, 8.5336101E-004, 5.2171591E+002
 1.5000212E+002, 8.4834224E-002, 1.3585506E-001, 6.2306543E-002, 2.1115183E-004, 1.0006974E-005, 8.6020758E-004, 5.2365851E+002
 1.5100862E+002, 8.7315626E-002, 1.3357221E-001, 6.1345709E-002, 1.9741724E-004, 6.8274397E-006, 8.4348878E-004, 5.2536150E+002
 1.5200670E+002, 8.5617011E-002, 1.3513838E-001, 6.2002440E-002, 2.0422483E-004, 8.1691350E-006, 8.5439291E-004, 5.2691464E+002
 1.5300722E+002, 8.4513570E-002, 1.3615870E-001, 6.2428128E-002, 2.0636716E-004, 8.9055780E-006, 8.6100055E-004, 5.2370696E+002
 1.5400612E+002, 8.4804062E-002, 1.3588310E-001, 6.2318124E-002, 2.1108685E-004, 1.0070104E-005, 8.6036235E-004, 5.2653896E+002
