s,,,,,,,
Time,"O2 EXHAUST","CO2 EXHAUST","H2O EXHAUST","CO EXHAUST","FUEL EXHAUST","SOOT EXHAUST","TEMP EXHAUST"
 0.0000000E+000, 2.3099739E-001, 5.9146498E-004, 5.9412091E-003, 0.0000000E+000, 0.0000000E+000, 0.0000000E+000, 2.0000000E+001
 1.0013212E+000, 2.3099739E-001, 5.9146498E-004, 5.9412091E-003, 3.4988802E-030, 5.0473197E-029, 1.0687178E-030, 2.0396299E+001
 2.0007238E+000, 2.2310749E-001, 7.0166282E-003, 9.5617788E-003, 3.9833320E-005, 2.9493057E-004, 5.1762947E-005, 9.6104752E+001
 3.0014781E+000, 2.1738493E-001, 1.1695118E-002, 1.2212660E-002, 7.9596872E-005, 3.3556281E-004, 9.1781407E-005, 1.4633954E+002
 4.0024546E+000, 2.1320995E-001, 1.5128097E-002, 1.4134137E-002, 9.0143957E-005, 3.9480334E-004, 1.1711513E-004, 1.8386891E+002
 5.0054041E+000, 2.0764595E-001, 1.9676376E-002, 1.6703483E-002, 1.2286012E-004, 4.7996648E-004, 1.5473459E-004, 2.2954771E+002
 6.0006081E+000, 2.0179683E-001, 2.4513071E-002, 1.9400028E-002, 1.2896271E-004, 4.8388319E-004, 1.8853197E-004, 2.7316881E+002
 7.0043546E+000, 1.9357727E-001, 3.1326718E-002, 2.3193647E-002, 1.3325682E-004, 4.3255027E-004, 2.3521246E-004, 3.2608981E+002
 8.0040752E+000, 1.8559774E-001, 3.7971972E-002, 2.6875964E-002, 1.2328976E-004, 3.2469898E-004, 2.7767632E-004, 3.6764419E+002
 9.0058267E+000, 1.7930166E-001, 4.3235500E-002, 2.9780224E-002, 1.0542034E-004, 2.0591880E-004, 3.0915243E-004, 3.9903729E+002
 1.0002376E+001, 1.7173909E-001, 4.9532241E-002, 3.3268439E-002, 9.5250014E-005, 1.1551856E-004, 3.4923222E-004, 4.2378606E+002
 1.1000932E+001, 1.6284842E-001, 5.6920838E-002, 3.7368276E-002, 8.8821743E-005, 4.2304417E-005, 3.9745323E-004, 4.5552060E+002
 1.2002317E+001, 1.5761322E-001, 6.1264256E-002, 3.9782468E-002, 8.8342823E-005, 1.3470683E-005, 4.2651423E-004, 4.5996018E+002
 1.3003947E+001, 1.5018106E-001, 6.7415569E-002, 4.3209794E-002, 9.4334009E-005, 2.0386395E-006, 4.6911470E-004, 4.7399010E+002
 1.4003787E+001, 1.4225953E-001, 7.3966582E-002, 4.6862814E-002, 1.0313224E-004, 2.9463229E-007, 5.1500644E-004, 4.8544724E+002
 1.5005337E+001, 1.3612121E-001, 7.9042344E-002, 4.9693495E-002, 1.1019275E-004, 1.3316439E-007, 5.5061633E-004, 4.9040221E+002
 1.6007303E+001, 1.2824394E-001, 8.5555622E-002, 5.3326155E-002, 1.1948985E-004, 3.8141004E-007, 5.9636263E-004, 5.0256432E+002
 1.7006374E+001, 1.2443630E-001, 8.8704284E-002, 5.5082006E-002, 1.2377927E-004, 2.1253902E-007, 6.1843305E-004, 4.9978539E+002
 1.8003375E+001, 1.1905557E-001, 9.3153406E-002, 5.7563351E-002, 1.3007354E-004, 3.0620655E-007, 6.4966945E-004, 5.0469501E+002
 1.9008697E+001, 1.1407473E-001, 9.7272130E-002, 5.9860248E-002, 1.3575660E-004, 7.4294541E-008, 6.7855507E-004, 5.0605256E+002
 2.0010357E+001, 1.0963741E-001, 1.0094118E-001, 6.1906530E-002, 1.4094599E-004, 2.0675548E-007, 7.0431444E-004, 5.0179567E+002
 2.1004288E+001, 1.0565431E-001, 1.0423431E-001, 6.3743387E-002, 1.4578250E-004, 7.2116600E-007, 7.2747335E-004, 5.0634177E+002
 2.2005117E+001, 1.0048412E-001, 1.0850352E-001, 6.6128198E-002, 1.5487877E-004, 9.3457720E-006, 7.5810794E-004, 5.1046583E+002
 2.3006882E+001, 9.6471492E-002, 1.1177857E-001, 6.7982415E-002, 1.8171676E-004, 7.3864405E-005, 7.8590613E-004, 5.1081488E+002
 2.4004250E+001, 9.2662431E-002, 1.1485199E-001, 6.9745687E-002, 2.2553164E-004, 1.8853218E-004, 8.1602389E-004, 5.1002161E+002
 2.5004317E+001, 9.0190295E-002, 1.1677943E-001, 7.0897295E-002, 2.8971832E-004, 3.5703512E-004, 8.4285488E-004, 5.0167430E+002
 2.6001434E+001, 8.6491672E-002, 1.1952343E-001, 7.2625845E-002, 4.5280691E-004, 8.5628496E-004, 8.9656952E-004, 5.0319283E+002
 2.7005525E+001, 8.5671929E-002, 1.2030276E-001, 7.2998508E-002, 4.0404422E-004, 6.8383322E-004, 8.9125099E-004, 4.9596911E+002
 2.8003744E+001, 8.3843660E-002, 1.2149814E-001, 7.3858107E-002, 5.6095014E-004, 1.2225972E-003, 9.3322953E-004, 4.9063283E+002
 2.9005227E+001, 8.2276196E-002, 1.2264497E-001, 7.4575559E-002, 6.2568835E-004, 1.5492200E-003, 9.5493891E-004, 4.8890053E+002
 3.0010257E+001, 8.0883866E-002, 1.2363269E-001, 7.5234324E-002, 7.1359594E-004, 1.7828468E-003, 9.8059267E-004, 4.8396775E+002
 3.1007281E+001, 7.8799221E-002, 1.2487407E-001, 7.6217125E-002, 9.4918242E-004, 2.6245088E-003, 1.0399055E-003, 4.8029742E+002
 3.2002358E+001, 7.8289290E-002, 1.2522931E-001, 7.6457746E-002, 9.8380633E-004, 2.7265811E-003, 1.0497828E-003, 4.7811165E+002
 3.3005273E+001, 7.7116739E-002, 1.2571784E-001, 7.7016328E-002, 1.2149628E-003, 3.5854130E-003, 1.1030820E-003, 4.7208703E+002
 3.4004437E+001, 7.6274884E-002, 1.2632212E-001, 7.7401540E-002, 1.2548849E-003, 3.7847062E-003, 1.1157782E-003, 4.6257094E+002
 3.5000004E+001, 7.5387109E-002, 1.2672686E-001, 7.7820798E-002, 1.4114315E-003, 4.3857450E-003, 1.1523704E-003, 4.6128923E+002
 3.6007245E+001, 7.4503755E-002, 1.2724079E-001, 7.8250762E-002, 1.5270637E-003, 4.6921347E-003, 1.1808419E-003, 4.5956879E+002
 3.7005135E+001, 7.3813948E-002, 1.2756929E-001, 7.8540028E-002, 1.6143851E-003, 5.3320837E-003, 1.2019440E-003, 4.5606719E+002
 3.8001922E+001, 7.3518012E-002, 1.2751369E-001, 7.8632347E-002, 1.7157362E-003, 6.1725141E-003, 1.2235034E-003, 4.4771918E+002
 3.9007454E+001, 7.2805345E-002, 1.2791093E-001, 7.8969447E-002, 1.8093263E-003, 6.5081388E-003, 1.2464221E-003, 4.4953175E+002
 4.0003081E+001, 7.2457863E-002, 1.2777899E-001, 7.9141211E-002, 2.0069206E-003, 7.2789600E-003, 1.2882928E-003, 4.4006266E+002
 4.1003423E+001, 7.2355536E-002, 1.2777385E-001, 7.9155051E-002, 2.0217531E-003, 7.6410021E-003, 1.2914691E-003, 4.3473333E+002
 4.2010267E+001, 7.1929053E-002, 1.2779449E-001, 7.9304377E-002, 2.1350468E-003, 8.5621005E-003, 1.3161247E-003, 4.3247726E+002
 4.3000266E+001, 7.1299730E-002, 1.2819515E-001, 7.9562999E-002, 2.1653029E-003, 8.9741060E-003, 1.3253632E-003, 4.3440561E+002
 4.4004437E+001, 7.1213888E-002, 1.2799311E-001, 7.9601624E-002, 2.2873149E-003, 9.5226346E-003, 1.3504085E-003, 4.2774017E+002
 4.5006833E+001, 7.0885823E-002, 1.2804839E-001, 7.9714810E-002, 2.3554729E-003, 1.0162021E-002, 1.3655296E-003, 4.2687020E+002
 4.6000059E+001, 7.1113328E-002, 1.2772938E-001, 7.9567286E-002, 2.3812957E-003, 1.0656882E-002, 1.3689768E-003, 4.2283979E+002
 4.7004890E+001, 7.0695566E-002, 1.2776326E-001, 7.9724507E-002, 2.4945407E-003, 1.1471724E-002, 1.3937104E-003, 4.1928166E+002
 4.8002275E+001, 7.1051128E-002, 1.2747112E-001, 7.9538260E-002, 2.4761889E-003, 1.1590597E-002, 1.3877784E-003, 4.1103225E+002
 4.9001568E+001, 7.0940902E-002, 1.2727547E-001, 7.9511797E-002, 2.5458127E-003, 1.2586488E-002, 1.4015332E-003, 4.1077195E+002
 5.0000557E+001, 7.0854485E-002, 1.2719234E-001, 7.9532403E-002, 2.6005804E-003, 1.2999946E-002, 1.4128268E-003, 4.0581757E+002
 5.1008043E+001, 7.0838427E-002, 1.2705328E-001, 7.9457519E-002, 2.6058633E-003, 1.3755817E-002, 1.4130391E-003, 4.0431954E+002
 5.2001170E+001, 7.0796155E-002, 1.2701399E-001, 7.9446024E-002, 2.6154746E-003, 1.4074030E-002, 1.4148561E-003, 4.0000326E+002
 5.3002715E+001, 7.0813927E-002, 1.2679649E-001, 7.9401617E-002, 2.6787587E-003, 1.4676777E-002, 1.4270909E-003, 3.9974921E+002
 5.4000569E+001, 7.0808718E-002, 1.2667681E-001, 7.9361392E-002, 2.7017371E-003, 1.5158006E-002, 1.4312611E-003, 3.9816257E+002
 5.5002500E+001, 7.0654004E-002, 1.2647115E-001, 7.9330757E-002, 2.7734823E-003, 1.6382836E-002, 1.4454085E-003, 3.9780438E+002
 5.6002364E+001, 7.0809071E-002, 1.2635678E-001, 7.9250206E-002, 2.7601423E-003, 1.6405032E-002, 1.4417542E-003, 3.9258830E+002
 5.7006662E+001, 7.0915974E-002, 1.2603273E-001, 7.9096945E-002, 2.7860675E-003, 1.7445902E-002, 1.4451919E-003, 3.9144208E+002
 5.8003729E+001, 7.1411246E-002, 1.2543250E-001, 7.8769438E-002, 2.7950726E-003, 1.8370644E-002, 1.4431137E-003, 3.8999142E+002
 5.9011191E+001, 7.1239060E-002, 1.2551213E-001, 7.8819380E-002, 2.8008442E-003, 1.8657597E-002, 1.4448983E-003, 3.8870244E+002
 6.0001089E+001, 7.1765507E-002, 1.2488407E-001, 7.8495409E-002, 2.8244838E-003, 1.9487850E-002, 1.4457993E-003, 3.8473722E+002
 6.1006806E+001, 7.2197704E-002, 1.2454141E-001, 7.8213099E-002, 2.7536533E-003, 1.9915247E-002, 1.4281745E-003, 3.7741395E+002
 6.2007943E+001, 7.2958569E-002, 1.2351857E-001, 7.7696589E-002, 2.8024732E-003, 2.1609902E-002, 1.4318764E-003, 3.7744669E+002
 6.3007323E+001, 7.2876820E-002, 1.2375589E-001, 7.7785237E-002, 2.7654388E-003, 2.0991892E-002, 1.4254543E-003, 3.7209976E+002
 6.4006638E+001, 7.3160268E-002, 1.2334914E-001, 7.7551659E-002, 2.7635746E-003, 2.1900822E-002, 1.4223233E-003, 3.6777118E+002
 6.5000999E+001, 7.3755238E-002, 1.2272686E-001, 7.7144270E-002, 2.7193081E-003, 2.2891958E-002, 1.4085709E-003, 3.7240345E+002
 6.6008803E+001, 7.3800741E-002, 1.2256296E-001, 7.7109497E-002, 2.7653931E-003, 2.3219066E-002, 1.4174431E-003, 3.7306191E+002
 6.7000591E+001, 7.4409755E-002, 1.2206583E-001, 7.6757280E-002, 2.7070015E-003, 2.3598910E-002, 1.4014723E-003, 3.6412309E+002
 6.8004477E+001, 7.5219832E-002, 1.2123968E-001, 7.6200461E-002, 2.6355994E-003, 2.4918144E-002, 1.3804809E-003, 3.6212982E+002
 6.9010936E+001, 7.5541415E-002, 1.2088674E-001, 7.6015501E-002, 2.6461801E-003, 2.5293034E-002, 1.3804018E-003, 3.6182826E+002
 7.0001012E+001, 7.5795221E-002, 1.2063270E-001, 7.5810003E-002, 2.5978219E-003, 2.5867581E-002, 1.3682350E-003, 3.5793194E+002
 7.1009449E+001, 7.6035932E-002, 1.2031470E-001, 7.5648466E-002, 2.6121908E-003, 2.6382316E-002, 1.3692108E-003, 3.6034903E+002
 7.2012766E+001, 7.6815301E-002, 1.1954234E-001, 7.5199171E-002, 2.5997447E-003, 2.7131396E-002, 1.3613346E-003, 3.5329462E+002
 7.3010241E+001, 7.7237907E-002, 1.1922688E-001, 7.4987837E-002, 2.5713603E-003, 2.7154280E-002, 1.3530750E-003, 3.5028919E+002
 7.4000748E+001, 7.7995560E-002, 1.1840961E-001, 7.4540820E-002, 2.5812387E-003, 2.8070987E-002, 1.3497283E-003, 3.4923818E+002
 7.5010068E+001, 7.8547901E-002, 1.1767919E-001, 7.4093960E-002, 2.5560417E-003, 2.9672752E-002, 1.3393782E-003, 3.5565463E+002
 7.6001362E+001, 7.8493052E-002, 1.1780431E-001, 7.4181340E-002, 2.5679381E-003, 2.9172454E-002, 1.3427904E-003, 3.4521076E+002
 7.7009936E+001, 7.8608987E-002, 1.1769448E-001, 7.4122992E-002, 2.5703276E-003, 2.9227122E-002, 1.3425701E-003, 3.4163490E+002
 7.8004240E+001, 7.9295281E-002, 1.1698776E-001, 7.3667473E-002, 2.5253434E-003, 3.0269102E-002, 1.3280957E-003, 3.4473248E+002
 7.9011946E+001, 7.9528201E-002, 1.1671791E-001, 7.3491328E-002, 2.5070117E-003, 3.0800980E-002, 1.3223194E-003, 3.4378097E+002
 8.0001573E+001, 7.9954677E-002, 1.1633633E-001, 7.3239434E-002, 2.4771207E-003, 3.1162393E-002, 1.3132911E-003, 3.4055459E+002
 8.1006229E+001, 8.0187264E-002, 1.1603957E-001, 7.3031814E-002, 2.4467218E-003, 3.1922382E-002, 1.3047240E-003, 3.4096564E+002
 8.2004064E+001, 8.0597318E-002, 1.1571170E-001, 7.2801988E-002, 2.4099492E-003, 3.2124190E-002, 1.2945668E-003, 3.3665316E+002
 8.3006161E+001, 8.1169692E-002, 1.1495591E-001, 7.2387978E-002, 2.4209958E-003, 3.3511914E-002, 1.2918875E-003, 3.3797584E+002
 8.4008079E+001, 8.0851661E-002, 1.1530817E-001, 7.2523916E-002, 2.3730224E-003, 3.3393250E-002, 1.2838724E-003, 3.4308118E+002
 8.5006180E+001, 8.1641418E-002, 1.1446718E-001, 7.2009917E-002, 2.3415408E-003, 3.4591428E-002, 1.2714184E-003, 3.3544223E+002
 8.6002543E+001, 8.1857326E-002, 1.1433791E-001, 7.1932334E-002, 2.3360368E-003, 3.4372463E-002, 1.2693587E-003, 3.3718627E+002
 8.7008655E+001, 8.2138526E-002, 1.1399598E-001, 7.1739080E-002, 2.3360557E-003, 3.4939971E-002, 1.2670690E-003, 3.3512041E+002
 8.8011128E+001, 8.2329078E-002, 1.1355190E-001, 7.1428881E-002, 2.2938653E-003, 3.6733256E-002, 1.2549656E-003, 3.3752166E+002
 8.9011910E+001, 8.2740574E-002, 1.1329150E-001, 7.1267889E-002, 2.2796018E-003, 3.6416085E-002, 1.2501296E-003, 3.3153346E+002
 9.0007252E+001, 8.2738384E-002, 1.1320129E-001, 7.1229499E-002, 2.2906938E-003, 3.6815947E-002, 1.2519254E-003, 3.3223828E+002
 9.1002399E+001, 8.3073622E-002, 1.1292141E-001, 7.0990507E-002, 2.2267199E-003, 3.7285626E-002, 1.2362059E-003, 3.2997776E+002
 9.2005558E+001, 8.3338586E-002, 1.1265233E-001, 7.0844950E-002, 2.2309272E-003, 3.7513648E-002, 1.2353104E-003, 3.2796032E+002
 9.3010275E+001, 8.3335949E-002, 1.1266416E-001, 7.0813224E-002, 2.2013068E-003, 3.7675699E-002, 1.2289815E-003, 3.2858329E+002
 9.4001606E+001, 8.2985659E-002, 1.1271803E-001, 7.0901997E-002, 2.2517722E-003, 3.8545172E-002, 1.2402658E-003, 3.3743137E+002
 9.5012388E+001, 8.3464095E-002, 1.1206822E-001, 7.0477215E-002, 2.2086856E-003, 4.0174166E-002, 1.2265864E-003, 3.3460920E+002
 9.6014344E+001, 8.3527942E-002, 1.1219683E-001, 7.0528805E-002, 2.1893303E-003, 3.9367396E-002, 1.2232588E-003, 3.3105936E+002
 9.7006200E+001, 8.4102836E-002, 1.1149865E-001, 7.0074646E-002, 2.1436287E-003, 4.0850842E-002, 1.2086882E-003, 3.2578531E+002
 9.8012944E+001, 8.4454325E-002, 1.1116709E-001, 6.9867248E-002, 2.1268209E-003, 4.1181545E-002, 1.2028264E-003, 3.2649124E+002
 9.9006188E+001, 8.4051919E-002, 1.1139239E-001, 7.0090471E-002, 2.2044574E-003, 4.1188157E-002, 1.2211376E-003, 3.2780615E+002
 1.0000793E+002, 8.4408537E-002, 1.1114121E-001, 6.9901409E-002, 2.1655214E-003, 4.1236592E-002, 1.2110265E-003, 3.2396058E+002
 1.0101365E+002, 8.4411713E-002, 1.1110073E-001, 6.9857761E-002, 2.1501376E-003, 4.1543995E-002, 1.2074274E-003, 3.2310874E+002
 1.0200671E+002, 8.4359550E-002, 1.1115113E-001, 6.9834211E-002, 2.1103887E-003, 4.1791454E-002, 1.1991663E-003, 3.2387133E+002
 1.0300217E+002, 8.4493773E-002, 1.1082584E-001, 6.9671931E-002, 2.1294394E-003, 4.2770146E-002, 1.2011080E-003, 3.3034884E+002
 1.0401341E+002, 8.4562889E-002, 1.1073860E-001, 6.9547413E-002, 2.0717564E-003, 4.3339750E-002, 1.1880435E-003, 3.2888403E+002
 1.0500617E+002, 8.4925140E-002, 1.1029269E-001, 6.9270707E-002, 2.0529113E-003, 4.4234295E-002, 1.1809754E-003, 3.2450087E+002
 1.0601209E+002, 8.4827216E-002, 1.1036892E-001, 6.9333613E-002, 2.0687771E-003, 4.4146075E-002, 1.1849198E-003, 3.2700433E+002
 1.0700375E+002, 8.4947258E-002, 1.1028118E-001, 6.9275991E-002, 2.0617228E-003, 4.4135605E-002, 1.1828043E-003, 3.2632738E+002
 1.0800587E+002, 8.5315539E-002, 1.0979252E-001, 6.8952388E-002, 2.0259691E-003, 4.5348019E-002, 1.1717919E-003, 3.2500085E+002
 1.0901137E+002, 8.4945216E-002, 1.1007850E-001, 6.9165220E-002, 2.0677754E-003, 4.5156886E-002, 1.1827570E-003, 3.2664397E+002
 1.1000408E+002, 8.5077108E-002, 1.0990375E-001, 6.8992446E-002, 2.0111860E-003, 4.5903526E-002, 1.1693423E-003, 3.2392814E+002
 1.1100502E+002, 8.4985339E-002, 1.0987009E-001, 6.9011257E-002, 2.0424582E-003, 4.6250835E-002, 1.1758840E-003, 3.2526647E+002
 1.1200610E+002, 8.4966141E-002, 1.0996807E-001, 6.9054628E-002, 2.0320928E-003, 4.5897544E-002, 1.1742978E-003, 3.2161683E+002
 1.1300884E+002, 8.5191452E-002, 1.0972137E-001, 6.8897324E-002, 2.0179656E-003, 4.6311518E-002, 1.1695862E-003, 3.2662651E+002
 1.1400785E+002, 8.5199000E-002, 1.0961085E-001, 6.8849008E-002, 2.0303835E-003, 4.6765687E-002, 1.1715328E-003, 3.2417699E+002
 1.1501085E+002, 8.5198723E-002, 1.0942371E-001, 6.8767528E-002, 2.0519040E-003, 4.7587488E-002, 1.1749359E-003, 3.2271761E+002
 1.1600167E+002, 8.5056965E-002, 1.0954638E-001, 6.8824937E-002, 2.0435074E-003, 4.7620459E-002, 1.1739429E-003, 3.2925158E+002
 1.1700643E+002, 8.5135434E-002, 1.0950339E-001, 6.8775492E-002, 2.0234001E-003, 4.7649834E-002, 1.1693037E-003, 3.2489100E+002
 1.1801455E+002, 8.5059745E-002, 1.0944210E-001, 6.8768304E-002, 2.0468235E-003, 4.8127907E-002, 1.1739622E-003, 3.2806261E+002
 1.1900694E+002, 8.5658345E-002, 1.0870997E-001, 6.8377079E-002, 2.0642460E-003, 4.9233494E-002, 1.1728203E-003, 3.2812345E+002
 1.2000958E+002, 8.5166414E-002, 1.0906711E-001, 6.8580680E-002, 2.0692578E-003, 4.9460176E-002, 1.1763037E-003, 3.2446253E+002
 1.2101289E+002, 8.5322922E-002, 1.0889192E-001, 6.8501055E-002, 2.0839204E-003, 4.9592252E-002, 1.1783004E-003, 3.2519522E+002
 1.2200758E+002, 8.5497807E-002, 1.0862586E-001, 6.8368264E-002, 2.0982485E-003, 5.0120787E-002, 1.1796162E-003, 3.2296921E+002
 1.2300565E+002, 8.5227113E-002, 1.0900395E-001, 6.8570621E-002, 2.0887823E-003, 4.9387327E-002, 1.1801038E-003, 3.2533638E+002
 1.2401138E+002, 8.5038993E-002, 1.0909778E-001, 6.8643052E-002, 2.1057313E-003, 4.9588911E-002, 1.1844019E-003, 3.3090616E+002
 1.2501503E+002, 8.5235451E-002, 1.0874411E-001, 6.8443771E-002, 2.1079707E-003, 5.0567364E-002, 1.1825156E-003, 3.2339332E+002
 1.2600982E+002, 8.5295589E-002, 1.0867667E-001, 6.8380824E-002, 2.0888234E-003, 5.0796352E-002, 1.1779207E-003, 3.1956628E+002
 1.2700725E+002, 8.5124501E-002, 1.0861834E-001, 6.8432423E-002, 2.1578199E-003, 5.1344086E-002, 1.1924600E-003, 3.2410726E+002
 1.2800383E+002, 8.5297519E-002, 1.0850953E-001, 6.8346318E-002, 2.1373823E-003, 5.1310688E-002, 1.1873072E-003, 3.2788413E+002
 1.2900097E+002, 8.5596413E-002, 1.0812431E-001, 6.8138137E-002, 2.1450547E-003, 5.1972440E-002, 1.1863833E-003, 3.2697927E+002
 1.3000144E+002, 8.5287548E-002, 1.0833468E-001, 6.8282971E-002, 2.1674827E-003, 5.2048812E-002, 1.1926489E-003, 3.2626884E+002
 1.3101102E+002, 8.5345106E-002, 1.0838925E-001, 6.8266885E-002, 2.1295513E-003, 5.1788018E-002, 1.1848070E-003, 3.2354428E+002
 1.3200704E+002, 8.5532969E-002, 1.0802108E-001, 6.8099554E-002, 2.1629905E-003, 5.2655472E-002, 1.1895736E-003, 3.2679525E+002
 1.3300544E+002, 8.5640956E-002, 1.0788935E-001, 6.8086818E-002, 2.2103833E-003, 5.2536002E-002, 1.1989429E-003, 3.2859518E+002
 1.3400405E+002, 8.5318723E-002, 1.0800815E-001, 6.8144377E-002, 2.2071914E-003, 5.3330658E-002, 1.1990532E-003, 3.2578741E+002
 1.3501070E+002, 8.5503175E-002, 1.0776864E-001, 6.7996584E-002, 2.1978968E-003, 5.3848890E-002, 1.1954360E-003, 3.2153218E+002
 1.3600582E+002, 8.5353948E-002, 1.0782147E-001, 6.8107318E-002, 2.2619480E-003, 5.3758658E-002, 1.2096491E-003, 3.2443345E+002
 1.3700246E+002, 8.5524566E-002, 1.0767983E-001, 6.8039026E-002, 2.2699788E-003, 5.3702629E-002, 1.2104354E-003, 3.2336101E+002
 1.3800046E+002, 8.5468108E-002, 1.0744570E-001, 6.7984981E-002, 2.3347149E-003, 5.4701961E-002, 1.2228743E-003, 3.2809792E+002
 1.3900688E+002, 8.5333737E-002, 1.0766003E-001, 6.8038628E-002, 2.2821151E-003, 5.4542340E-002, 1.2129318E-003, 3.2516027E+002
 1.4000274E+002, 8.5190329E-002, 1.0769865E-001, 6.8156743E-002, 2.3581066E-003, 5.4415435E-002, 1.2296329E-003, 3.3030994E+002
 1.4100051E+002, 8.5056294E-002, 1.0785078E-001, 6.8189060E-002, 2.3170699E-003, 5.4495533E-002, 1.2217756E-003, 3.2597715E+002
 1.4201365E+002, 8.5215149E-002, 1.0770437E-001, 6.8111935E-002, 2.3206783E-003, 5.4546774E-002, 1.2215735E-003, 3.1903142E+002
 1.4300661E+002, 8.5202113E-002, 1.0752634E-001, 6.8063051E-002, 2.3633684E-003, 5.5224477E-002, 1.2296176E-003, 3.2586375E+002
 1.4400614E+002, 8.5436485E-002, 1.0731026E-001, 6.7945434E-002, 2.3657855E-003, 5.5321280E-002, 1.2286901E-003, 3.2826939E+002
 1.4500552E+002, 8.5355406E-002, 1.0740912E-001, 6.7974031E-002, 2.3448354E-003, 5.5306350E-002, 1.2248208E-003, 3.2486731E+002
 1.4601001E+002, 8.5510432E-002, 1.0717808E-001, 6.7844956E-002, 2.3466551E-003, 5.5827836E-002, 1.2236652E-003, 3.2351767E+002
 1.4700141E+002, 8.5390465E-002, 1.0697977E-001, 6.7883340E-002, 2.4674383E-003, 5.6512979E-002, 1.2484703E-003, 3.2718555E+002
 1.4800127E+002, 8.5148842E-002, 1.0727302E-001, 6.8036865E-002, 2.4580533E-003, 5.6095385E-002, 1.2484071E-003, 3.2468915E+002
 1.4900005E+002, 8.5220363E-002, 1.0711908E-001, 6.7954719E-002, 2.4628146E-003, 5.6554507E-002, 1.2484055E-003, 3.3071574E+002
 1.5001065E+002, 8.5140532E-002, 1.0732614E-001, 6.8043675E-002, 2.4395751E-003, 5.5986995E-002, 1.2447652E-003, 3.2527990E+002
 1.5101056E+002, 8.5290449E-002, 1.0704238E-001, 6.7924579E-002, 2.4728297E-003, 5.6579825E-002, 1.2500575E-003, 3.2298531E+002
 1.5201573E+002, 8.5067527E-002, 1.0696778E-001, 6.8069412E-002, 2.6216712E-003, 5.6863741E-002, 1.2817627E-003, 3.3174124E+002
 1.5300904E+002, 8.5127809E-002, 1.0708738E-001, 6.7939012E-002, 2.4667202E-003, 5.7091114E-002, 1.2490398E-003, 3.1937576E+002
 1.5400551E+002, 8.4954302E-002, 1.0713016E-001, 6.8059869E-002, 2.5435078E-003, 5.7066724E-002, 1.2659415E-003, 3.2641273E+002
