s,,,,,,,
Time,"O2 EXHAUST","CO2 EXHAUST","H2O EXHAUST","CO EXHAUST","FUEL EXHAUST","SOOT EXHAUST","TEMP EXHAUST"
 0.0000000E+000, 2.3099739E-001, 5.9146498E-004, 5.9412091E-003, 0.0000000E+000, 0.0000000E+000, 0.0000000E+000, 2.0000000E+001
 1.0021080E+000, 2.3099739E-001, 5.9146498E-004, 5.9412091E-003, 1.0525801E-028, 4.8189010E-028, 3.0194049E-029, 2.0357170E+001
 2.0043548E+000, 2.2275465E-001, 7.3227778E-003, 9.7395727E-003, 4.5354474E-005, 1.8332011E-004, 5.5012820E-005, 9.8386864E+001
 3.0062797E+000, 2.1841513E-001, 1.0874484E-002, 1.1747582E-002, 7.2055275E-005, 2.1844695E-004, 8.4638851E-005, 1.3741388E+002
 4.0006768E+000, 2.1333938E-001, 1.5030673E-002, 1.4091624E-002, 9.8865582E-005, 2.8121600E-004, 1.1834761E-004, 1.8364065E+002
 5.0055771E+000, 2.0937855E-001, 1.8285481E-002, 1.5921577E-002, 1.1520755E-004, 3.0289870E-004, 1.4373866E-004, 2.1557554E+002
 6.0028911E+000, 2.0457937E-001, 2.2228115E-002, 1.8136439E-002, 1.3363920E-004, 3.4458726E-004, 1.7420049E-004, 2.5511853E+002
 7.0035838E+000, 1.9986013E-001, 2.6125766E-002, 2.0313068E-002, 1.4144187E-004, 3.5180428E-004, 2.0206033E-004, 2.8770557E+002
 8.0043991E+000, 1.9478571E-001, 3.0326262E-002, 2.2654877E-002, 1.4660937E-004, 3.3317821E-004, 2.3138340E-004, 3.2147714E+002
 9.0008522E+000, 1.8902233E-001, 3.5123017E-002, 2.5312339E-002, 1.3905625E-004, 2.7300651E-004, 2.6195765E-004, 3.5373226E+002
 1.0003902E+001, 1.8407929E-001, 3.9246065E-002, 2.7589447E-002, 1.2690283E-004, 2.1496481E-004, 2.8701279E-004, 3.7677598E+002
 1.1001656E+001, 1.8009688E-001, 4.2571230E-002, 2.9423036E-002, 1.1483095E-004, 1.6684349E-004, 3.0672808E-004, 3.9469166E+002
 1.2003639E+001, 1.7538247E-001, 4.6511408E-002, 3.1593834E-002, 9.8962505E-005, 1.0132250E-004, 3.2975146E-004, 4.1120419E+002
 1.3000167E+001, 1.7052396E-001, 5.0558101E-002, 3.3831884E-002, 8.9553225E-005, 5.6574670E-005, 3.5488771E-004, 4.2835149E+002
 1.4003778E+001, 1.6751319E-001, 5.3062571E-002, 3.5219079E-002, 8.5399784E-005, 3.3587144E-005, 3.7080569E-004, 4.3599241E+002
 1.5002441E+001, 1.6479808E-001, 5.5316525E-002, 3.6470343E-002, 8.3934145E-005, 2.0400220E-005, 3.8562314E-004, 4.4060381E+002
 1.6004866E+001, 1.6143064E-001, 5.8106440E-002, 3.8022782E-002, 8.5039601E-005, 1.2065666E-005, 4.0459573E-004, 4.4523008E+002
 1.7000511E+001, 1.6033061E-001, 5.9017063E-002, 3.8529958E-002, 8.5772746E-005, 1.0565332E-005, 4.1086891E-004, 4.4314960E+002
 1.8008227E+001, 1.5811233E-001, 6.0854216E-002, 3.9552647E-002, 8.6831293E-005, 6.2923448E-006, 4.2343386E-004, 4.4929279E+002
 1.9003703E+001, 1.5865757E-001, 6.0402438E-002, 3.9301271E-002, 8.6664503E-005, 7.8143161E-006, 4.2036422E-004, 4.3814134E+002
 2.0002776E+001, 1.5744475E-001, 6.1407426E-002, 3.9860384E-002, 8.6974900E-005, 4.5656375E-006, 4.2717956E-004, 4.4623395E+002
 2.1001031E+001, 1.5539342E-001, 6.3103897E-002, 4.0806349E-002, 8.9227507E-005, 4.0695104E-006, 4.3905825E-004, 4.4657708E+002
 2.2000326E+001, 1.5563707E-001, 6.2903220E-002, 4.0693901E-002, 8.8520933E-005, 2.9705112E-006, 4.3755787E-004, 4.5097399E+002
 2.3005537E+001, 1.5455389E-001, 6.3798795E-002, 4.1193431E-002, 8.9830330E-005, 3.0275737E-006, 4.4385470E-004, 4.4593942E+002
 2.4004861E+001, 1.5366491E-001, 6.4533921E-002, 4.1603378E-002, 9.0835691E-005, 2.9584385E-006, 4.4900838E-004, 4.4720285E+002
 2.5005854E+001, 1.5275794E-001, 6.5284143E-002, 4.2021609E-002, 9.1752692E-005, 2.5415831E-006, 4.5424430E-004, 4.4807963E+002
 2.6002803E+001, 1.5387104E-001, 6.4363683E-002, 4.1508298E-002, 9.0486255E-005, 2.6822144E-006, 4.4778967E-004, 4.4757353E+002
 2.7000512E+001, 1.5287177E-001, 6.5189606E-002, 4.1969130E-002, 9.1816717E-005, 3.2886214E-006, 4.5362337E-004, 4.4041261E+002
 2.8005091E+001, 1.5264509E-001, 6.5377488E-002, 4.2073648E-002, 9.1867318E-005, 2.4889458E-006, 4.5489589E-004, 4.4555456E+002
 2.9004850E+001, 1.5204657E-001, 6.5872382E-002, 4.2349657E-002, 9.2566854E-005, 2.4798799E-006, 4.5837031E-004, 4.4372170E+002
 3.0000663E+001, 1.5418006E-001, 6.4108212E-002, 4.1365759E-002, 9.0078048E-005, 2.7887953E-006, 4.4598594E-004, 4.4310806E+002
 3.1004707E+001, 1.5066817E-001, 6.7012414E-002, 4.2985296E-002, 9.4039351E-005, 2.0453024E-006, 4.6634388E-004, 4.4786704E+002
 3.2000739E+001, 1.4957819E-001, 6.7913908E-002, 4.3487943E-002, 9.5209811E-005, 1.6132784E-006, 4.7265039E-004, 4.4796659E+002
 3.3004067E+001, 1.5110041E-001, 6.6655165E-002, 4.2785937E-002, 9.3441831E-005, 1.8806275E-006, 4.6381578E-004, 4.4650516E+002
 3.4004039E+001, 1.5112116E-001, 6.6638218E-002, 4.2776357E-002, 9.3314369E-005, 1.5413503E-006, 4.6367441E-004, 4.4451746E+002
 3.5005774E+001, 1.5088824E-001, 6.6830879E-002, 4.2883761E-002, 9.3549661E-005, 1.4380144E-006, 4.6501898E-004, 4.4521295E+002
 3.6003323E+001, 1.5048771E-001, 6.7162293E-002, 4.3068445E-002, 9.3898397E-005, 1.1259654E-006, 4.6731977E-004, 4.5233148E+002
 3.7003813E+001, 1.4905832E-001, 6.8343811E-002, 4.3727658E-002, 9.5779369E-005, 1.6590552E-006, 4.7566030E-004, 4.4335807E+002
 3.8003001E+001, 1.4993515E-001, 6.7619079E-002, 4.3323270E-002, 9.4598886E-005, 1.2914358E-006, 4.7053852E-004, 4.4552399E+002
 3.9004384E+001, 1.4809265E-001, 6.9142458E-002, 4.4172964E-002, 9.6819709E-005, 1.4234879E-006, 4.8124807E-004, 4.4520362E+002
 4.0007968E+001, 1.4969625E-001, 6.7816400E-002, 4.3433462E-002, 9.4992924E-005, 1.6022794E-006, 4.7194873E-004, 4.3910248E+002
 4.1002301E+001, 1.4822582E-001, 6.9032464E-002, 4.4111539E-002, 9.6600298E-005, 1.2749239E-006, 4.8046202E-004, 4.5038310E+002
 4.2000762E+001, 1.4896697E-001, 6.8419461E-002, 4.3769777E-002, 9.5828269E-005, 1.4706340E-006, 4.7617884E-004, 4.4237975E+002
 4.3000389E+001, 1.4852401E-001, 6.8785796E-002, 4.3974054E-002, 9.6319076E-005, 1.3084434E-006, 4.7874487E-004, 4.4714156E+002
 4.4004348E+001, 1.4820291E-001, 6.9051388E-002, 4.4122105E-002, 9.6636255E-005, 1.2972626E-006, 4.8059687E-004, 4.4957305E+002
 4.5005354E+001, 1.4953008E-001, 6.7954014E-002, 4.3510071E-002, 9.5075246E-005, 1.2615418E-006, 4.7289057E-004, 4.4518506E+002
 4.6000290E+001, 1.4824786E-001, 6.9014219E-002, 4.4101364E-002, 9.6574942E-005, 1.3681816E-006, 4.8033402E-004, 4.4271505E+002
 4.7000823E+001, 1.4843682E-001, 6.8858046E-002, 4.4014235E-002, 9.6330666E-005, 1.1773729E-006, 4.7923251E-004, 4.4390511E+002
 4.8006970E+001, 1.4752196E-001, 6.9614528E-002, 4.4436129E-002, 9.7394648E-005, 1.1283645E-006, 4.8454227E-004, 4.4467925E+002
 4.9001294E+001, 1.4854850E-001, 6.8765417E-002, 4.3962750E-002, 9.6341209E-005, 1.6385532E-006, 4.7861282E-004, 4.3766184E+002
 5.0000912E+001, 1.4879031E-001, 6.8565880E-002, 4.3851199E-002, 9.5845119E-005, 1.0512941E-006, 4.7716565E-004, 4.4783476E+002
 5.1000732E+001, 1.4713207E-001, 6.9937025E-002, 4.4615907E-002, 9.7783811E-005, 1.0483374E-006, 4.8679194E-004, 4.5080821E+002
 5.2007511E+001, 1.4632038E-001, 7.0608212E-002, 4.4990235E-002, 9.8730057E-005, 9.1388709E-007, 4.9150350E-004, 4.4733794E+002
 5.3000988E+001, 1.4737610E-001, 6.9734973E-002, 4.4503420E-002, 9.7658392E-005, 1.3210308E-006, 4.8540809E-004, 4.3995631E+002
 5.4004366E+001, 1.4707290E-001, 6.9986046E-002, 4.4643188E-002, 9.7805921E-005, 8.6137376E-007, 4.8712589E-004, 4.4733622E+002
 5.5007332E+001, 1.4625479E-001, 7.0662601E-002, 4.5020452E-002, 9.8714180E-005, 7.4852160E-007, 4.9186527E-004, 4.4878857E+002
 5.6001196E+001, 1.4660482E-001, 7.0372917E-002, 4.4859073E-002, 9.8449693E-005, 1.0672868E-006, 4.8986290E-004, 4.4215000E+002
 5.7000678E+001, 1.4574828E-001, 7.1081187E-002, 4.5254071E-002, 9.9439741E-005, 9.9594862E-007, 4.9483294E-004, 4.4354797E+002
 5.8000717E+001, 1.4527808E-001, 7.1470131E-002, 4.5470899E-002, 9.9915443E-005, 7.4459356E-007, 4.9754751E-004, 4.4979950E+002
 5.9001755E+001, 1.4601709E-001, 7.0858945E-002, 4.5130098E-002, 9.9105639E-005, 9.8992559E-007, 4.9326836E-004, 4.4725467E+002
 6.0006882E+001, 1.4561549E-001, 7.1190919E-002, 4.5315327E-002, 9.9639668E-005, 1.0202336E-006, 4.9561301E-004, 4.4450386E+002
 6.1006645E+001, 1.4640582E-001, 7.0537482E-002, 4.4950840E-002, 9.8671517E-005, 1.0258266E-006, 4.9101591E-004, 4.4621502E+002
 6.2006440E+001, 1.4622409E-001, 7.0687689E-002, 4.5034650E-002, 9.8914299E-005, 1.1232854E-006, 4.9207703E-004, 4.4111909E+002
 6.3003044E+001, 1.4546555E-001, 7.1315049E-002, 4.5384436E-002, 9.9719558E-005, 9.3158941E-007, 4.9646380E-004, 4.4770892E+002
 6.4005113E+001, 1.4523651E-001, 7.1504538E-002, 4.5490042E-002, 9.9928161E-005, 8.0869726E-007, 4.9778129E-004, 4.4679926E+002
 6.5005322E+001, 1.4675444E-001, 7.0249354E-002, 4.4790035E-002, 9.8175817E-005, 9.5951457E-007, 4.8897396E-004, 4.4332366E+002
 6.6004040E+001, 1.4527388E-001, 7.1473432E-002, 4.5472844E-002, 1.0000380E-004, 1.0434181E-006, 4.9758879E-004, 4.4372518E+002
 6.7005042E+001, 1.4655424E-001, 7.0414745E-002, 4.4882393E-002, 9.8502748E-005, 1.0842750E-006, 4.9015525E-004, 4.4184150E+002
 6.8005271E+001, 1.4703149E-001, 7.0020194E-002, 4.4662301E-002, 9.7908172E-005, 9.7436753E-007, 4.8737731E-004, 4.4259222E+002
 6.9007377E+001, 1.4708845E-001, 6.9972957E-002, 4.4636038E-002, 9.7907654E-005, 1.2296222E-006, 4.8706001E-004, 4.4245655E+002
 7.0000180E+001, 1.4641592E-001, 7.0529308E-002, 4.4946151E-002, 9.8556269E-005, 8.7633007E-007, 4.9093608E-004, 4.4572503E+002
 7.1004058E+001, 1.4492488E-001, 7.1762112E-002, 4.5633778E-002, 1.0035803E-004, 8.8133504E-007, 4.9960384E-004, 4.4862738E+002
 7.2002396E+001, 1.4620740E-001, 7.0701674E-002, 4.5042324E-002, 9.8833429E-005, 8.8339128E-007, 4.9215344E-004, 4.4542616E+002
 7.3004178E+001, 1.4736994E-001, 6.9740230E-002, 4.4506239E-002, 9.7575127E-005, 1.1113399E-006, 4.8542538E-004, 4.4816660E+002
 7.4000238E+001, 1.4565261E-001, 7.1160371E-002, 4.5298187E-002, 9.9514535E-005, 8.7833476E-007, 4.9538082E-004, 4.5026852E+002
 7.5004123E+001, 1.4617707E-001, 7.0726795E-002, 4.5056299E-002, 9.8841254E-005, 8.7102199E-007, 4.9232381E-004, 4.5293333E+002
 7.6007543E+001, 1.4497413E-001, 7.1721238E-002, 4.5611057E-002, 1.0036177E-004, 1.2224406E-006, 4.9933019E-004, 4.4515485E+002
 7.7001902E+001, 1.4621346E-001, 7.0696503E-002, 4.5039537E-002, 9.8904350E-005, 1.1624746E-006, 4.9213406E-004, 4.4267166E+002
 7.8002087E+001, 1.4603476E-001, 7.0844482E-002, 4.5121915E-002, 9.8991955E-005, 8.7986363E-007, 4.9314665E-004, 4.4653837E+002
 7.9002919E+001, 1.4635044E-001, 7.0583276E-002, 4.4976350E-002, 9.8713237E-005, 1.1892004E-006, 4.9133243E-004, 4.4289921E+002
 8.0000117E+001, 1.4612188E-001, 7.0772310E-002, 4.5081780E-002, 9.8982358E-005, 9.5843499E-007, 4.9265996E-004, 4.4715079E+002
 8.1000076E+001, 1.4576278E-001, 7.1069092E-002, 4.5247410E-002, 9.9489572E-005, 1.0775651E-006, 4.9476251E-004, 4.4530658E+002
 8.2007388E+001, 1.4433958E-001, 7.2246165E-002, 4.5903668E-002, 1.0098435E-004, 8.4851481E-007, 5.0298962E-004, 4.4580245E+002
 8.3004820E+001, 1.4457617E-001, 7.2050507E-002, 4.5794561E-002, 1.0071927E-004, 9.1526044E-007, 5.0161848E-004, 4.4633630E+002
 8.4006247E+001, 1.4492847E-001, 7.1758957E-002, 4.5632146E-002, 1.0045588E-004, 1.1336368E-006, 4.9960382E-004, 4.4043206E+002
 8.5004625E+001, 1.4585852E-001, 7.0989998E-002, 4.5203226E-002, 9.9320618E-005, 1.1043772E-006, 4.9419486E-004, 4.4251611E+002
 8.6002290E+001, 1.4495910E-001, 7.1733586E-002, 4.5618022E-002, 1.0044092E-004, 1.1924480E-006, 4.9943023E-004, 4.4009966E+002
 8.7008587E+001, 1.4649855E-001, 7.0460819E-002, 4.4908066E-002, 9.8549989E-005, 1.0898211E-006, 4.9047484E-004, 4.4728933E+002
 8.8002393E+001, 1.4540281E-001, 7.1366925E-002, 4.5413361E-002, 9.9788002E-005, 9.7963443E-007, 4.9682694E-004, 4.4467941E+002
 8.9000803E+001, 1.4528907E-001, 7.1460899E-002, 4.5465844E-002, 9.9977815E-005, 9.4042655E-007, 4.9749902E-004, 4.4589331E+002
 9.0006933E+001, 1.4674750E-001, 7.0254823E-002, 4.4793278E-002, 9.8337270E-005, 1.2729502E-006, 4.8904562E-004, 4.4182979E+002
 9.1007165E+001, 1.4579235E-001, 7.1044559E-002, 4.5233789E-002, 9.9504326E-005, 1.1638077E-006, 4.9460097E-004, 4.4231013E+002
 9.2002867E+001, 1.4540884E-001, 7.1361771E-002, 4.5410624E-002, 9.9889814E-005, 1.0878105E-006, 4.9681436E-004, 4.4379606E+002
 9.3002418E+001, 1.4611014E-001, 7.0781817E-002, 4.5087202E-002, 9.9091616E-005, 1.2844867E-006, 4.9274744E-004, 4.4120901E+002
 9.4000597E+001, 1.4478966E-001, 7.1873940E-002, 4.5696130E-002, 1.0050348E-004, 8.5684645E-007, 5.0038620E-004, 4.4715154E+002
 9.5003543E+001, 1.4513653E-001, 7.1587100E-002, 4.5536172E-002, 1.0011165E-004, 8.9579156E-007, 4.9837538E-004, 4.4356491E+002
 9.6002822E+001, 1.4403577E-001, 7.2497241E-002, 4.6043813E-002, 1.0143205E-004, 8.9751891E-007, 5.0477239E-004, 4.4475339E+002
 9.7005321E+001, 1.4554938E-001, 7.1245474E-002, 4.5345817E-002, 9.9768066E-005, 1.2233194E-006, 4.9600712E-004, 4.4255405E+002
 9.8005395E+001, 1.4536364E-001, 7.1398934E-002, 4.5431462E-002, 1.0003321E-004, 1.5197031E-006, 4.9709492E-004, 4.4458610E+002
 9.9002448E+001, 1.4638842E-001, 7.0551482E-002, 4.4958855E-002, 9.8859605E-005, 1.8386470E-006, 4.9115061E-004, 4.4184123E+002
 1.0000098E+002, 1.4637832E-001, 7.0560141E-002, 4.4963512E-002, 9.8732133E-005, 1.2444494E-006, 4.9118117E-004, 4.4459709E+002
 1.0100114E+002, 1.4520617E-001, 7.1529383E-002, 4.5504050E-002, 1.0008523E-004, 1.2327368E-006, 4.9798210E-004, 4.4418693E+002
 1.0200656E+002, 1.4497440E-001, 7.1721098E-002, 4.5610941E-002, 1.0033051E-004, 1.0330065E-006, 4.9932248E-004, 4.4502182E+002
 1.0300062E+002, 1.4505364E-001, 7.1655679E-002, 4.5574379E-002, 1.0017715E-004, 9.4490270E-007, 4.9885003E-004, 4.4475213E+002
 1.0400687E+002, 1.4398559E-001, 7.2538698E-002, 4.6066947E-002, 1.0150102E-004, 9.8615204E-007, 5.0506568E-004, 4.4612151E+002
 1.0500022E+002, 1.4516337E-001, 7.1565080E-002, 4.5523754E-002, 9.9971536E-005, 7.8558236E-007, 4.9819720E-004, 4.4972581E+002
 1.0600391E+002, 1.4423160E-001, 7.2335270E-002, 4.5953483E-002, 1.0120603E-004, 1.1010095E-006, 5.0363590E-004, 4.4479636E+002
 1.0700466E+002, 1.4351853E-001, 7.2924928E-002, 4.6282318E-002, 1.0201891E-004, 1.0021927E-006, 5.0777116E-004, 4.4561231E+002
 1.0800445E+002, 1.4422615E-001, 7.2339852E-002, 4.5955984E-002, 1.0116960E-004, 1.0033493E-006, 5.0365879E-004, 4.4362576E+002
 1.0900491E+002, 1.4646881E-001, 7.0485431E-002, 4.4921738E-002, 9.8542317E-005, 1.2634071E-006, 4.9063844E-004, 4.4246082E+002
 1.1000129E+002, 1.4588490E-001, 7.0968255E-002, 4.5191025E-002, 9.9231414E-005, 1.1588181E-006, 4.9402956E-004, 4.4320452E+002
 1.1100040E+002, 1.4451618E-001, 7.2099917E-002, 4.5822246E-002, 1.0089220E-004, 1.2040960E-006, 5.0198768E-004, 4.4919071E+002
 1.1200181E+002, 1.4500584E-001, 7.1694919E-002, 4.5596457E-002, 1.0038656E-004, 1.2984654E-006, 4.9915883E-004, 4.4835215E+002
 1.1300179E+002, 1.4529236E-001, 7.1458089E-002, 4.5464298E-002, 9.9991937E-005, 1.2930633E-006, 4.9748320E-004, 4.4283185E+002
 1.1400730E+002, 1.4384307E-001, 7.2656706E-002, 4.6132640E-002, 1.0157086E-004, 8.4012240E-007, 5.0587318E-004, 4.4907432E+002
 1.1500168E+002, 1.4521082E-001, 7.1525586E-002, 4.5501874E-002, 1.0003355E-004, 1.2755671E-006, 4.9794543E-004, 4.4384458E+002
 1.1600064E+002, 1.4545387E-001, 7.1324754E-002, 4.5389807E-002, 9.9700486E-005, 9.3434078E-007, 4.9652483E-004, 4.4389312E+002
 1.1700265E+002, 1.4451964E-001, 7.2097111E-002, 4.5820644E-002, 1.0085870E-004, 1.1254887E-006, 5.0196158E-004, 4.4411861E+002
 1.1800693E+002, 1.4492578E-001, 7.1761212E-002, 4.5633384E-002, 1.0044365E-004, 1.0885347E-006, 4.9961632E-004, 4.4503695E+002
 1.1900343E+002, 1.4630842E-001, 7.0618040E-002, 4.4995727E-002, 9.8753747E-005, 1.1446035E-006, 4.9157462E-004, 4.4582023E+002
 1.2000207E+002, 1.4433792E-001, 7.2247518E-002, 4.5904420E-002, 1.0098453E-004, 9.4161650E-007, 5.0299875E-004, 4.4809858E+002
 1.2100262E+002, 1.4497886E-001, 7.1717220E-002, 4.5608896E-002, 1.0041973E-004, 1.3343031E-006, 4.9931575E-004, 4.4199549E+002
 1.2200655E+002, 1.4422593E-001, 7.2339983E-002, 4.5956099E-002, 1.0120245E-004, 1.0255951E-006, 5.0366678E-004, 4.4505082E+002
 1.2300333E+002, 1.4350150E-001, 7.2938995E-002, 4.6290179E-002, 1.0205129E-004, 1.0177225E-006, 5.0787262E-004, 4.4743086E+002
 1.2400634E+002, 1.4584381E-001, 7.1002000E-002, 4.5210021E-002, 9.9419434E-005, 1.3595733E-006, 4.9429683E-004, 4.4785385E+002
 1.2500078E+002, 1.4586486E-001, 7.0984550E-002, 4.5200308E-002, 9.9410450E-005, 1.5077730E-006, 4.9417772E-004, 4.4532398E+002
 1.2600406E+002, 1.4522751E-001, 7.1511907E-002, 4.5494183E-002, 9.9964112E-005, 1.0155172E-006, 4.9783856E-004, 4.5047851E+002
 1.2700651E+002, 1.4665957E-001, 7.0327668E-002, 4.4833801E-002, 9.8358077E-005, 1.1481872E-006, 4.8953925E-004, 4.4487592E+002
 1.2800239E+002, 1.4379631E-001, 7.2695266E-002, 4.6154241E-002, 1.0170103E-004, 8.5096963E-007, 5.0616027E-004, 4.4592421E+002
 1.2900456E+002, 1.4392620E-001, 7.2587752E-002, 4.6094333E-002, 1.0159308E-004, 1.1083393E-006, 5.0541499E-004, 4.4466201E+002
 1.3000478E+002, 1.4431047E-001, 7.2270073E-002, 4.5917115E-002, 1.0110891E-004, 1.0538844E-006, 5.0317711E-004, 4.4757399E+002
 1.3100642E+002, 1.4409537E-001, 7.2448013E-002, 4.6016305E-002, 1.0132003E-004, 9.0836138E-007, 5.0441760E-004, 4.4573778E+002
 1.3200371E+002, 1.4462920E-001, 7.2006299E-002, 4.5770138E-002, 1.0084334E-004, 1.4350899E-006, 5.0134849E-004, 4.4526112E+002
 1.3300711E+002, 1.4524589E-001, 7.1496493E-002, 4.5485750E-002, 1.0007254E-004, 1.2067007E-006, 4.9775851E-004, 4.4283826E+002
 1.3400626E+002, 1.4518739E-001, 7.1544719E-002, 4.5512757E-002, 1.0022890E-004, 1.3605498E-006, 4.9811617E-004, 4.4173038E+002
 1.3500530E+002, 1.4553760E-001, 7.1255476E-002, 4.5351198E-002, 9.9624975E-005, 9.8870829E-007, 4.9604332E-004, 4.4639706E+002
 1.3600285E+002, 1.4548100E-001, 7.1302041E-002, 4.5377333E-002, 9.9823400E-005, 1.2860421E-006, 4.9639892E-004, 4.4291847E+002
 1.3700146E+002, 1.4531246E-001, 7.1441324E-002, 4.5455070E-002, 1.0006518E-004, 1.3710188E-006, 4.9738648E-004, 4.3958057E+002
 1.3800532E+002, 1.4505006E-001, 7.1658416E-002, 4.5576069E-002, 1.0031117E-004, 1.1604896E-006, 4.9889741E-004, 4.4483240E+002
 1.3900021E+002, 1.4385829E-001, 7.2643943E-002, 4.6125657E-002, 1.0166007E-004, 1.0023060E-006, 5.0580679E-004, 4.4463931E+002
 1.4000065E+002, 1.4349321E-001, 7.2945693E-002, 4.6294040E-002, 1.0216063E-004, 1.1153092E-006, 5.0794125E-004, 4.4634960E+002
 1.4100071E+002, 1.4543845E-001, 7.1337118E-002, 4.5396953E-002, 9.9918566E-005, 1.4913022E-006, 4.9665504E-004, 4.4001910E+002
 1.4200243E+002, 1.4609205E-001, 7.0796837E-002, 4.5095522E-002, 9.9068444E-005, 1.2796248E-006, 4.9284328E-004, 4.4753932E+002
 1.4300616E+002, 1.4598684E-001, 7.0883749E-002, 4.5144081E-002, 9.9260177E-005, 1.2433103E-006, 4.9346835E-004, 4.4321334E+002
 1.4400760E+002, 1.4461369E-001, 7.2019359E-002, 4.5777277E-002, 1.0074588E-004, 1.0437300E-006, 5.0141509E-004, 4.4871260E+002
 1.4500697E+002, 1.4546933E-001, 7.1311778E-002, 4.5382680E-002, 9.9771023E-005, 1.3090961E-006, 4.9645297E-004, 4.4214211E+002
 1.4600265E+002, 1.4567835E-001, 7.1139158E-002, 4.5286281E-002, 9.9425001E-005, 9.3317872E-007, 4.9521901E-004, 4.4972099E+002
 1.4700238E+002, 1.4413473E-001, 7.2415342E-002, 4.5998170E-002, 1.0134295E-004, 1.0601416E-006, 5.0420319E-004, 4.4573021E+002
 1.4800529E+002, 1.4538553E-001, 7.1381234E-002, 4.5421314E-002, 9.9786802E-005, 1.0132766E-006, 4.9692276E-004, 4.4812265E+002
 1.4900502E+002, 1.4453780E-001, 7.2082179E-002, 4.5812256E-002, 1.0078966E-004, 1.0040151E-006, 5.0184638E-004, 4.4473484E+002
 1.5000225E+002, 1.4446375E-001, 7.2143334E-002, 4.5846442E-002, 1.0093799E-004, 9.7184419E-007, 5.0228911E-004, 4.4152961E+002
 1.5100131E+002, 1.4579103E-001, 7.1045770E-002, 4.5234336E-002, 9.9404526E-005, 1.2329783E-006, 4.9458751E-004, 4.3929267E+002
 1.5200493E+002, 1.4639477E-001, 7.0546476E-002, 4.4955934E-002, 9.8747167E-005, 1.3211020E-006, 4.9109267E-004, 4.4342310E+002
 1.5300434E+002, 1.4476263E-001, 7.1896232E-002, 4.5708583E-002, 1.0055218E-004, 1.0659266E-006, 5.0054642E-004, 4.4615260E+002
 1.5400489E+002, 1.4451984E-001, 7.2096939E-002, 4.5820572E-002, 1.0087644E-004, 9.9821176E-007, 5.0196427E-004, 4.4611492E+002
