s,,,,,,,
Time,O2 EXHAUST,CO2 EXHAUST,H2O EXHAUST,CO EXHAUST,FUEL EXHAUST,SOOT EXHAUST,TEMP EXHAUST
 0.0000000E+000, 2.3099739E-001, 5.9146498E-004, 5.9412092E-003, 0.0000000E+000, 0.0000000E+000, 0.0000000E+000, 2.0000000E+001
 1.0043351E+000, 2.3099739E-001, 5.9146498E-004, 5.9412092E-003, 3.9933758E-034, 1.8508669E-033, 5.3194695E-034, 2.0438334E+001
 2.0005097E+000, 2.2456568E-001, 6.5417256E-003, 7.6723824E-003, 3.0280599E-005, 9.4922427E-005, 3.9865769E-004, 8.2652231E+001
 3.0048565E+000, 2.2129076E-001, 9.5889424E-003, 8.5535148E-003, 3.5580449E-005, 1.1604619E-004, 6.0062642E-004, 1.1156856E+002
 4.0001578E+000, 2.1794069E-001, 1.2684174E-002, 9.4588107E-003, 5.9772331E-005, 1.3978324E-004, 8.0981074E-004, 1.4118473E+002
 5.0026998E+000, 2.1517444E-001, 1.5232831E-002, 1.0206259E-002, 8.3514310E-005, 1.7261077E-004, 9.8287606E-004, 1.6558396E+002
 6.0048001E+000, 2.1184009E-001, 1.8306693E-002, 1.1107428E-002, 1.1153561E-004, 2.0706037E-004, 1.1914735E-003, 1.9324351E+002
 7.0031142E+000, 2.0933356E-001, 2.0637862E-002, 1.1782056E-002, 1.1658857E-004, 2.2297962E-004, 1.3461968E-003, 2.1258081E+002
 8.0017434E+000, 2.0603569E-001, 2.3688689E-002, 1.2673792E-002, 1.3926383E-004, 2.3470432E-004, 1.5521289E-003, 2.3606648E+002
 9.0028983E+000, 2.0237660E-001, 2.7086673E-002, 1.3662129E-002, 1.5548384E-004, 2.3481754E-004, 1.7795562E-003, 2.6058781E+002
 1.0004322E+001, 2.0108555E-001, 2.8285957E-002, 1.4009827E-002, 1.5924276E-004, 2.4358084E-004, 1.8594032E-003, 2.6980527E+002
 1.1005022E+001, 1.9817463E-001, 3.0989910E-002, 1.4795941E-002, 1.7149701E-004, 2.4365921E-004, 2.0402390E-003, 2.8716249E+002
 1.2003747E+001, 1.9612870E-001, 3.2896687E-002, 1.5347476E-002, 1.7496693E-004, 2.4171131E-004, 2.1666521E-003, 2.9742361E+002
 1.3002295E+001, 1.9418516E-001, 3.4707054E-002, 1.5870812E-002, 1.7776741E-004, 2.4702044E-004, 2.2865678E-003, 3.0944411E+002
 1.4000694E+001, 1.9120499E-001, 3.7490030E-002, 1.6674718E-002, 1.8072664E-004, 2.2979180E-004, 2.4706179E-003, 3.2392364E+002
 1.5000368E+001, 1.8910965E-001, 3.9448764E-002, 1.7239736E-002, 1.8134237E-004, 2.1597600E-004, 2.5998428E-003, 3.2994336E+002
 1.6001194E+001, 1.8772647E-001, 4.0740120E-002, 1.7612599E-002, 1.8244228E-004, 2.1085430E-004, 2.6851872E-003, 3.3542654E+002
 1.7001935E+001, 1.8679962E-001, 4.1601759E-002, 1.7862931E-002, 1.8602190E-004, 2.0938997E-004, 2.7427423E-003, 3.3853823E+002
 1.8000312E+001, 1.8541144E-001, 4.2892298E-002, 1.8237554E-002, 1.9082973E-004, 2.0999465E-004, 2.8288282E-003, 3.4800110E+002
 1.9002311E+001, 1.8339148E-001, 4.4787312E-002, 1.8781614E-002, 1.8665272E-004, 1.9071938E-004, 2.9528256E-003, 3.5557860E+002
 2.0006957E+001, 1.8238581E-001, 4.5725919E-002, 1.9052561E-002, 1.8735702E-004, 1.8886357E-004, 3.0148369E-003, 3.5198096E+002
 2.1007300E+001, 1.8049407E-001, 4.7497118E-002, 1.9562353E-002, 1.8582924E-004, 1.7451561E-004, 3.1312423E-003, 3.5754783E+002
 2.2002648E+001, 1.7908468E-001, 4.8816468E-002, 1.9942404E-002, 1.8524286E-004, 1.6198163E-004, 3.2180698E-003, 3.6096224E+002
 2.3000795E+001, 1.7786958E-001, 4.9953941E-002, 2.0269544E-002, 1.8383756E-004, 1.5594069E-004, 3.2927352E-003, 3.6360730E+002
 2.4006856E+001, 1.7642026E-001, 5.1309832E-002, 2.0660301E-002, 1.8358356E-004, 1.4509632E-004, 3.3820424E-003, 3.6824081E+002
 2.5001362E+001, 1.7647601E-001, 5.1258947E-002, 2.0645100E-002, 1.8260688E-004, 1.4482840E-004, 3.3784793E-003, 3.6765559E+002
 2.6006576E+001, 1.7596992E-001, 5.1730795E-002, 2.0781712E-002, 1.8368077E-004, 1.4237222E-004, 3.4098073E-003, 3.6419508E+002
 2.7005715E+001, 1.7598178E-001, 5.1721706E-002, 2.0777969E-002, 1.8164594E-004, 1.4395594E-004, 3.4087720E-003, 3.6361634E+002
 2.8005030E+001, 1.7556828E-001, 5.2111735E-002, 2.0889163E-002, 1.7933216E-004, 1.3795614E-004, 3.4339811E-003, 3.6691999E+002
 2.9006713E+001, 1.7474109E-001, 5.2882164E-002, 2.1112377E-002, 1.8139509E-004, 1.3601690E-004, 3.4851997E-003, 3.6681449E+002
 3.0006430E+001, 1.7449750E-001, 5.3109932E-002, 2.1178084E-002, 1.8147104E-004, 1.3410824E-004, 3.5002273E-003, 3.6462330E+002
 3.1007640E+001, 1.7428818E-001, 5.3305722E-002, 2.1234399E-002, 1.8124610E-004, 1.3372113E-004, 3.5130829E-003, 3.6700247E+002
 3.2001748E+001, 1.7334278E-001, 5.4188276E-002, 2.1489468E-002, 1.8242206E-004, 1.2834334E-004, 3.5715009E-003, 3.6691279E+002
 3.3004228E+001, 1.7359404E-001, 5.3954990E-002, 2.1421640E-002, 1.8135072E-004, 1.2788665E-004, 3.5558961E-003, 3.6623682E+002
 3.4001000E+001, 1.7472834E-001, 5.2892260E-002, 2.1115637E-002, 1.8208305E-004, 1.4071291E-004, 3.4860128E-003, 3.6361337E+002
 3.5002053E+001, 1.7331218E-001, 5.4219049E-002, 2.1497141E-002, 1.8024812E-004, 1.2964367E-004, 3.5730629E-003, 3.6915332E+002
 3.6006804E+001, 1.7309081E-001, 5.4428670E-002, 2.1556782E-002, 1.7875970E-004, 1.2399781E-004, 3.5865589E-003, 3.6670454E+002
 3.7007708E+001, 1.7355792E-001, 5.3989028E-002, 2.1430722E-002, 1.8007437E-004, 1.3320327E-004, 3.5578660E-003, 3.6544546E+002
 3.8005572E+001, 1.7385694E-001, 5.3708421E-002, 2.1350190E-002, 1.8074893E-004, 1.3612287E-004, 3.5395169E-003, 3.6723357E+002
 3.9004592E+001, 1.7344725E-001, 5.4094408E-002, 2.1460197E-002, 1.7842046E-004, 1.3244812E-004, 3.5644565E-003, 3.6474898E+002
 4.0003277E+001, 1.7300844E-001, 5.4502089E-002, 2.1578919E-002, 1.8060671E-004, 1.3034564E-004, 3.5917941E-003, 3.6766275E+002
 4.1005776E+001, 1.7171513E-001, 5.5710810E-002, 2.1927558E-002, 1.8094803E-004, 1.2331484E-004, 3.6715296E-003, 3.6919708E+002
 4.2005216E+001, 1.7110532E-001, 5.6281310E-002, 2.2092069E-002, 1.8101009E-004, 1.1782694E-004, 3.7091424E-003, 3.7083301E+002
 4.3002973E+001, 1.7137243E-001, 5.6032498E-002, 2.2019981E-002, 1.8034617E-004, 1.1860408E-004, 3.6926017E-003, 3.6825639E+002
 4.4003381E+001, 1.7155618E-001, 5.5859406E-002, 2.1970486E-002, 1.8110596E-004, 1.2162551E-004, 3.6813568E-003, 3.6936708E+002
 4.5001146E+001, 1.7049863E-001, 5.6847184E-002, 2.2255533E-002, 1.8164880E-004, 1.1727157E-004, 3.7465741E-003, 3.6982106E+002
 4.6002754E+001, 1.7090887E-001, 5.6466772E-002, 2.2144509E-002, 1.7915353E-004, 1.1826779E-004, 3.7209674E-003, 3.6974462E+002
 4.7004823E+001, 1.7112858E-001, 5.6258522E-002, 2.2085559E-002, 1.8116294E-004, 1.2199759E-004, 3.7076734E-003, 3.6623916E+002
 4.8006198E+001, 1.7023852E-001, 5.7091057E-002, 2.2325285E-002, 1.8066002E-004, 1.1783212E-004, 3.7624349E-003, 3.7015059E+002
 4.9000272E+001, 1.7045746E-001, 5.6886617E-002, 2.2266419E-002, 1.8077029E-004, 1.1732636E-004, 3.7489846E-003, 3.6820717E+002
 5.0007448E+001, 1.7162158E-001, 5.5796612E-002, 2.1952433E-002, 1.8126729E-004, 1.2878968E-004, 3.6772531E-003, 3.6562125E+002
 5.1002434E+001, 1.7004211E-001, 5.7276119E-002, 2.2377975E-002, 1.7945229E-004, 1.1649222E-004, 3.7743727E-003, 3.6825563E+002
 5.2006373E+001, 1.7063061E-001, 5.6723746E-002, 2.2219426E-002, 1.8074741E-004, 1.2298690E-004, 3.7382456E-003, 3.6624412E+002
 5.3002080E+001, 1.7058432E-001, 5.6762723E-002, 2.2231993E-002, 1.8324839E-004, 1.2939243E-004, 3.7413510E-003, 3.6331275E+002
 5.4003443E+001, 1.7009615E-001, 5.7221945E-002, 2.2363370E-002, 1.8137178E-004, 1.2355302E-004, 3.7712141E-003, 3.6244575E+002
 5.5002697E+001, 1.7040230E-001, 5.6930742E-002, 2.2281380E-002, 1.8499225E-004, 1.2913461E-004, 3.7527985E-003, 3.6393293E+002
 5.6004015E+001, 1.6998698E-001, 5.7320242E-002, 2.2393168E-002, 1.8407342E-004, 1.2607006E-004, 3.7782719E-003, 3.6348685E+002
 5.7000563E+001, 1.6947281E-001, 5.7801583E-002, 2.2531642E-002, 1.8354677E-004, 1.2305499E-004, 3.8098824E-003, 3.6982214E+002
 5.8006052E+001, 1.6919751E-001, 5.8059184E-002, 2.2605979E-002, 1.8366572E-004, 1.1988439E-004, 3.8268854E-003, 3.7001237E+002
 5.9003390E+001, 1.6906785E-001, 5.8178632E-002, 2.2641006E-002, 1.8477378E-004, 1.2150570E-004, 3.8349955E-003, 3.6714986E+002
 6.0001008E+001, 1.6924066E-001, 5.8015767E-002, 2.2594408E-002, 1.8544436E-004, 1.2494987E-004, 3.8244055E-003, 3.7126419E+002
 6.1000487E+001, 1.6815583E-001, 5.9028897E-002, 2.2887124E-002, 1.8661812E-004, 1.1779131E-004, 3.8914288E-003, 3.7014279E+002
 6.2004233E+001, 1.6832057E-001, 5.8878176E-002, 2.2842645E-002, 1.8468513E-004, 1.1367113E-004, 3.8810806E-003, 3.6893951E+002
 6.3002148E+001, 1.6823100E-001, 5.8961501E-002, 2.2866882E-002, 1.8507883E-004, 1.1304303E-004, 3.8866567E-003, 3.7246339E+002
 6.4002334E+001, 1.6853314E-001, 5.8679866E-002, 2.2785139E-002, 1.8408215E-004, 1.1610434E-004, 3.8678815E-003, 3.6639489E+002
 6.5005818E+001, 1.6920634E-001, 5.8046030E-002, 2.2603808E-002, 1.8669806E-004, 1.2658066E-004, 3.8266689E-003, 3.6713677E+002
 6.6001644E+001, 1.6823924E-001, 5.8953283E-002, 2.2864187E-002, 1.8453671E-004, 1.1831666E-004, 3.8859991E-003, 3.6729968E+002
 6.7003811E+001, 1.6890605E-001, 5.8329341E-002, 2.2684555E-002, 1.8497562E-004, 1.2216428E-004, 3.8449715E-003, 3.6821748E+002
 6.8006313E+001, 1.6800844E-001, 5.9169926E-002, 2.2926444E-002, 1.8415614E-004, 1.1504684E-004, 3.9001955E-003, 3.7067703E+002
 6.9001600E+001, 1.6759053E-001, 5.9561263E-002, 2.3039018E-002, 1.8370868E-004, 1.1219003E-004, 3.9258911E-003, 3.6857073E+002
 7.0002559E+001, 1.6802932E-001, 5.9151101E-002, 2.2920892E-002, 1.8390713E-004, 1.1324336E-004, 3.8989014E-003, 3.6685023E+002
 7.1004086E+001, 1.6811663E-001, 5.9067900E-002, 2.2897251E-002, 1.8457575E-004, 1.1748390E-004, 3.8935613E-003, 3.6570547E+002
 7.2006395E+001, 1.6874272E-001, 5.8480653E-002, 2.2728459E-002, 1.8553046E-004, 1.2473191E-004, 3.8550630E-003, 3.6982338E+002
 7.3005669E+001, 1.6808019E-001, 5.9102083E-002, 2.2907076E-002, 1.8451987E-004, 1.1705178E-004, 3.8958022E-003, 3.6859651E+002
 7.4006767E+001, 1.6843499E-001, 5.8769395E-002, 2.2811544E-002, 1.8521650E-004, 1.1986573E-004, 3.8740254E-003, 3.6759862E+002
 7.5003922E+001, 1.6925438E-001, 5.7999969E-002, 2.2590401E-002, 1.8653007E-004, 1.3305281E-004, 3.8235974E-003, 3.6845736E+002
 7.6002413E+001, 1.6741995E-001, 5.9714223E-002, 2.3085351E-002, 1.8788291E-004, 1.1932881E-004, 3.9368675E-003, 3.6914507E+002
 7.7005584E+001, 1.6763042E-001, 5.9518186E-002, 2.3028679E-002, 1.8757559E-004, 1.1872843E-004, 3.9238815E-003, 3.6649460E+002
 7.8001176E+001, 1.6846136E-001, 5.8740418E-002, 2.2804672E-002, 1.8797961E-004, 1.2542176E-004, 3.8727083E-003, 3.6819206E+002
 7.9000951E+001, 1.6796941E-001, 5.9200943E-002, 2.2937056E-002, 1.8729901E-004, 1.2353170E-004, 3.9029140E-003, 3.6589319E+002
 8.0005497E+001, 1.6816956E-001, 5.9011545E-002, 2.2883336E-002, 1.8892728E-004, 1.2655943E-004, 3.8907807E-003, 3.6366328E+002
 8.1002622E+001, 1.6852913E-001, 5.8672583E-002, 2.2786661E-002, 1.9086019E-004, 1.3125939E-004, 3.8688555E-003, 3.6942410E+002
 8.2001718E+001, 1.6673762E-001, 6.0349009E-002, 2.3269620E-002, 1.9022885E-004, 1.1764445E-004, 3.9792070E-003, 3.7260821E+002
 8.3003631E+001, 1.6694384E-001, 6.0158068E-002, 2.3214095E-002, 1.8931088E-004, 1.1504572E-004, 3.9664258E-003, 3.7131381E+002
 8.4005066E+001, 1.6695689E-001, 6.0146696E-002, 2.3210414E-002, 1.8857534E-004, 1.1517799E-004, 3.9655186E-003, 3.6744512E+002
 8.5004057E+001, 1.6701741E-001, 6.0090389E-002, 2.3194195E-002, 1.8858677E-004, 1.1418951E-004, 3.9618100E-003, 3.6891570E+002
 8.6001172E+001, 1.6720385E-001, 5.9916533E-002, 2.3143881E-002, 1.8822988E-004, 1.1504051E-004, 3.9502753E-003, 3.6830684E+002
 8.7006994E+001, 1.6829841E-001, 5.8892621E-002, 2.2848431E-002, 1.8778131E-004, 1.2618809E-004, 3.8826971E-003, 3.6622944E+002
 8.8003140E+001, 1.6657744E-001, 6.0500610E-002, 2.3312281E-002, 1.8833785E-004, 1.1823285E-004, 3.9887930E-003, 3.7025908E+002
 8.9006823E+001, 1.6728651E-001, 5.9836502E-002, 2.3121095E-002, 1.8885102E-004, 1.2494278E-004, 3.9451343E-003, 3.6813347E+002
 9.0000752E+001, 1.6695519E-001, 6.0149687E-002, 2.3210231E-002, 1.8670229E-004, 1.1859236E-004, 3.9653142E-003, 3.6795118E+002
 9.1001500E+001, 1.6721926E-001, 5.9902335E-002, 2.3139228E-002, 1.8724962E-004, 1.1933125E-004, 3.9491295E-003, 3.6707998E+002
 9.2005603E+001, 1.6725621E-001, 5.9866710E-002, 2.3129365E-002, 1.8800516E-004, 1.2053617E-004, 3.9469437E-003, 3.6891762E+002
 9.3000359E+001, 1.6624058E-001, 6.0815233E-002, 2.3403259E-002, 1.8883241E-004, 1.1517491E-004, 4.0096347E-003, 3.6905371E+002
 9.4002128E+001, 1.6632914E-001, 6.0732828E-002, 2.3379598E-002, 1.8897912E-004, 1.1307291E-004, 4.0042350E-003, 3.6940648E+002
 9.5004445E+001, 1.6786646E-001, 5.9294470E-002, 2.2964920E-002, 1.8898594E-004, 1.2661885E-004, 3.9094398E-003, 3.6868434E+002
 9.6003576E+001, 1.6868161E-001, 5.8532551E-002, 2.2744791E-002, 1.8814538E-004, 1.3475775E-004, 3.8590445E-003, 3.6749693E+002
 9.7003422E+001, 1.6686405E-001, 6.0230059E-002, 2.3235110E-002, 1.8988305E-004, 1.2362080E-004, 3.9712935E-003, 3.6915419E+002
 9.8000148E+001, 1.6715078E-001, 5.9959848E-002, 2.3158441E-002, 1.9210866E-004, 1.2339663E-004, 3.9539620E-003, 3.6998608E+002
 9.9004377E+001, 1.6708772E-001, 6.0021249E-002, 2.3175293E-002, 1.9052589E-004, 1.2006464E-004, 3.9576693E-003, 3.6240073E+002
 1.0000526E+002, 1.6803674E-001, 5.9135655E-002, 2.2918966E-002, 1.8867423E-004, 1.2743788E-004, 3.8989061E-003, 3.6871096E+002
 1.0100068E+002, 1.6710161E-001, 6.0008066E-002, 2.3171411E-002, 1.9039363E-004, 1.2176286E-004, 3.9567722E-003, 3.6809485E+002
 1.0200002E+002, 1.6679655E-001, 6.0297050E-002, 2.3253291E-002, 1.8774655E-004, 1.1658393E-004, 3.9752503E-003, 3.6918375E+002
 1.0300712E+002, 1.6798469E-001, 5.9187885E-002, 2.2932956E-002, 1.8666173E-004, 1.2132023E-004, 3.9019166E-003, 3.6455339E+002
 1.0400339E+002, 1.6812939E-001, 5.9050470E-002, 2.2893781E-002, 1.8752066E-004, 1.2741791E-004, 3.8930445E-003, 3.6467632E+002
 1.0500333E+002, 1.6733541E-001, 5.9796434E-002, 2.3107436E-002, 1.8494137E-004, 1.1974525E-004, 3.9416550E-003, 3.6841273E+002
 1.0600627E+002, 1.6702952E-001, 6.0083235E-002, 2.3190024E-002, 1.8474390E-004, 1.1527748E-004, 3.9605146E-003, 3.6681454E+002
 1.0700484E+002, 1.6717174E-001, 5.9949277E-002, 2.3151861E-002, 1.8557678E-004, 1.1627379E-004, 3.9518644E-003, 3.6810603E+002
 1.0800402E+002, 1.6735791E-001, 5.9775664E-002, 2.3101431E-002, 1.8489745E-004, 1.1884775E-004, 3.9402767E-003, 3.6556091E+002
 1.0900750E+002, 1.6713766E-001, 5.9979238E-002, 2.3161289E-002, 1.8703445E-004, 1.1719610E-004, 3.9541517E-003, 3.7030261E+002
 1.1000657E+002, 1.6638258E-001, 6.0686363E-002, 2.3364867E-002, 1.8650510E-004, 1.1029514E-004, 4.0006421E-003, 3.6988485E+002
 1.1100358E+002, 1.6698972E-001, 6.0120238E-002, 2.3201037E-002, 1.8535336E-004, 1.1282556E-004, 3.9630839E-003, 3.6835694E+002
 1.1200169E+002, 1.6686126E-001, 6.0237115E-002, 2.3235997E-002, 1.8769298E-004, 1.1461081E-004, 3.9712886E-003, 3.6730521E+002
 1.1300168E+002, 1.6636871E-001, 6.0698044E-002, 2.3368597E-002, 1.8719303E-004, 1.1253906E-004, 4.0015595E-003, 3.6977319E+002
 1.1400814E+002, 1.6647090E-001, 6.0602234E-002, 2.3341000E-002, 1.8724505E-004, 1.1407912E-004, 3.9952563E-003, 3.6911164E+002
 1.1500038E+002, 1.6747545E-001, 5.9665488E-002, 2.3070010E-002, 1.8550061E-004, 1.1764595E-004, 3.9331447E-003, 3.6838986E+002
 1.1600609E+002, 1.6662668E-001, 6.0459215E-002, 2.3298612E-002, 1.8511917E-004, 1.1405239E-004, 3.9853745E-003, 3.6686053E+002
 1.1700307E+002, 1.6615917E-001, 6.0895154E-002, 2.3424769E-002, 1.8600933E-004, 1.1203891E-004, 4.0142965E-003, 3.7049857E+002
 1.1800735E+002, 1.6663128E-001, 6.0452814E-002, 2.3297824E-002, 1.8704693E-004, 1.1360125E-004, 3.9853660E-003, 3.6851866E+002
 1.1900020E+002, 1.6672161E-001, 6.0367879E-002, 2.3273697E-002, 1.8768790E-004, 1.1292985E-004, 3.9799057E-003, 3.6849284E+002
 1.2000627E+002, 1.6791297E-001, 5.9252173E-002, 2.2952185E-002, 1.8799438E-004, 1.2664111E-004, 3.9064396E-003, 3.6501261E+002
 1.2100196E+002, 1.6679043E-001, 6.0301556E-002, 2.3254839E-002, 1.8823360E-004, 1.1960593E-004, 3.9756518E-003, 3.6582763E+002
 1.2200111E+002, 1.6616273E-001, 6.0889294E-002, 2.3424222E-002, 1.8810388E-004, 1.1270889E-004, 4.0143595E-003, 3.6947906E+002
 1.2300487E+002, 1.6709101E-001, 6.0020865E-002, 2.3173908E-002, 1.8819644E-004, 1.1996712E-004, 3.9571445E-003, 3.6775894E+002
 1.2400281E+002, 1.6730080E-001, 5.9826695E-002, 2.3117245E-002, 1.8691580E-004, 1.1881074E-004, 3.9440727E-003, 3.6696933E+002
 1.2500469E+002, 1.6751205E-001, 5.9632424E-002, 2.3059749E-002, 1.8418574E-004, 1.1945426E-004, 3.9306836E-003, 3.7043598E+002
 1.2600077E+002, 1.6622535E-001, 6.0835137E-002, 2.3406818E-002, 1.8480059E-004, 1.1020646E-004, 4.0100817E-003, 3.7249593E+002
 1.2700675E+002, 1.6666788E-001, 6.0418337E-002, 2.3287936E-002, 1.8714595E-004, 1.1446658E-004, 3.9831150E-003, 3.7075424E+002
 1.2800161E+002, 1.6654377E-001, 6.0534925E-002, 2.3321553E-002, 1.8713322E-004, 1.1127298E-004, 3.9907961E-003, 3.7105064E+002
 1.2900072E+002, 1.6716099E-001, 5.9956431E-002, 2.3155306E-002, 1.8810482E-004, 1.1627294E-004, 3.9528780E-003, 3.6653386E+002
 1.3000641E+002, 1.6753793E-001, 5.9598909E-002, 2.3054273E-002, 1.9186043E-004, 1.2216419E-004, 3.9301206E-003, 3.6539590E+002
 1.3100348E+002, 1.6685404E-001, 6.0242170E-002, 2.3238122E-002, 1.8892665E-004, 1.1589080E-004, 3.9718863E-003, 3.6641723E+002
 1.3200185E+002, 1.6715821E-001, 5.9957255E-002, 2.3156181E-002, 1.8928852E-004, 1.1817072E-004, 3.9531862E-003, 3.6763587E+002
 1.3300104E+002, 1.6692711E-001, 6.0167697E-002, 2.3219112E-002, 1.9346739E-004, 1.2078624E-004, 3.9679519E-003, 3.6746070E+002
 1.3400664E+002, 1.6729110E-001, 5.9829377E-002, 2.3120301E-002, 1.9116261E-004, 1.2582318E-004, 3.9451604E-003, 3.6694068E+002
 1.3500111E+002, 1.6696821E-001, 6.0132354E-002, 2.3207314E-002, 1.9054041E-004, 1.2222362E-004, 3.9649950E-003, 3.6834591E+002
 1.3600216E+002, 1.6604289E-001, 6.0996397E-002, 2.3456995E-002, 1.9161499E-004, 1.1631257E-004, 4.0221713E-003, 3.6889392E+002
 1.3700525E+002, 1.6615062E-001, 6.0899214E-002, 2.3427837E-002, 1.8947551E-004, 1.1186339E-004, 4.0153074E-003, 3.6967757E+002
 1.3800316E+002, 1.6534044E-001, 6.1654686E-002, 2.3646598E-002, 1.9124946E-004, 1.0713089E-004, 4.0654781E-003, 3.7208267E+002
 1.3900150E+002, 1.6631586E-001, 6.0745684E-002, 2.3383237E-002, 1.8884321E-004, 1.1171142E-004, 4.0050531E-003, 3.6837046E+002
 1.4000482E+002, 1.6680242E-001, 6.0291381E-002, 2.3252023E-002, 1.8838816E-004, 1.1406512E-004, 3.9750141E-003, 3.6704144E+002
 1.4100224E+002, 1.6723522E-001, 5.9884463E-002, 2.3135266E-002, 1.8944696E-004, 1.2145200E-004, 3.9484229E-003, 3.6075167E+002
 1.4200401E+002, 1.6699115E-001, 6.0112276E-002, 2.3201140E-002, 1.8980876E-004, 1.1992604E-004, 3.9635147E-003, 3.6700541E+002
 1.4300135E+002, 1.6732060E-001, 5.9801760E-002, 2.3112499E-002, 1.9144035E-004, 1.2470512E-004, 3.9433998E-003, 3.6772857E+002
 1.4400122E+002, 1.6549013E-001, 6.1517477E-002, 2.3605631E-002, 1.8867778E-004, 1.0890020E-004, 4.0558838E-003, 3.7153024E+002
 1.4500387E+002, 1.6818454E-001, 5.8999172E-002, 2.2878588E-002, 1.8680879E-004, 1.3030658E-004, 3.8895110E-003, 3.6899486E+002
 1.4600647E+002, 1.6725703E-001, 5.9867120E-002, 2.3128720E-002, 1.8662878E-004, 1.2236662E-004, 3.9466756E-003, 3.6556793E+002
 1.4700337E+002, 1.6758862E-001, 5.9558718E-002, 2.3039299E-002, 1.8566514E-004, 1.2188140E-004, 3.9261433E-003, 3.7155284E+002
 1.4800681E+002, 1.6686485E-001, 6.0230734E-002, 2.3234949E-002, 1.8920278E-004, 1.2064518E-004, 3.9711920E-003, 3.6951242E+002
 1.4900253E+002, 1.6635884E-001, 6.0704721E-002, 2.3371629E-002, 1.8922695E-004, 1.1352295E-004, 4.0024358E-003, 3.7246863E+002
 1.5000073E+002, 1.6642545E-001, 6.0645290E-002, 2.3353414E-002, 1.8722261E-004, 1.1133283E-004, 3.9980890E-003, 3.7059669E+002
 1.5100589E+002, 1.6712189E-001, 5.9994875E-002, 2.3165536E-002, 1.8654059E-004, 1.1558146E-004, 3.9550763E-003, 3.6536052E+002
 1.5200145E+002, 1.6838696E-001, 5.8808262E-002, 2.2824140E-002, 1.8790196E-004, 1.3331778E-004, 3.8771634E-003, 3.6480765E+002
 1.5300233E+002, 1.6663706E-001, 6.0443858E-002, 2.3296070E-002, 1.8864356E-004, 1.2162165E-004, 3.9851184E-003, 3.6815703E+002
 1.5400017E+002, 1.6701413E-001, 6.0093685E-002, 2.3194106E-002, 1.8677755E-004, 1.2268048E-004, 3.9616396E-003, 3.6880132E+002
