s,,,,,,,
Time,"O2 EXHAUST","CO2 EXHAUST","H2O EXHAUST","CO EXHAUST","FUEL EXHAUST","SOOT EXHAUST","TEMP EXHAUST"
 0.0000000E+000, 2.3099745E-001, 5.9146511E-004, 5.9409840E-003, 0.0000000E+000, 0.0000000E+000, 0.0000000E+000, 2.0000000E+001
 1.0006386E+000, 2.3099745E-001, 5.9146511E-004, 5.9409840E-003, 2.9772683E-031, 1.4480521E-030, 7.8492967E-032, 2.0448182E+001
 2.0036504E+000, 2.2394119E-001, 6.0669321E-003, 1.0577710E-002, 4.4646814E-005, 9.0030426E-005, 4.1411479E-005, 9.8078929E+001
 3.0017545E+000, 2.2017454E-001, 8.9888010E-003, 1.3057734E-002, 7.1434215E-005, 1.2024423E-004, 6.4150806E-005, 1.2850267E+002
 4.0044249E+000, 2.1491754E-001, 1.3063747E-002, 1.6515247E-002, 1.0821230E-004, 1.8369132E-004, 9.5738353E-005, 1.7321792E+002
 5.0058429E+000, 2.1053354E-001, 1.6507335E-002, 1.9388422E-002, 1.1357197E-004, 1.8573869E-004, 1.1686654E-004, 2.0796020E+002
 6.0019477E+000, 2.0594297E-001, 2.0123859E-002, 2.2394712E-002, 1.1329091E-004, 1.7538128E-004, 1.3777700E-004, 2.4491170E+002
 7.0063500E+000, 2.0288443E-001, 2.2534210E-002, 2.4397051E-002, 1.1242225E-004, 1.6949458E-004, 1.5156604E-004, 2.6943937E+002
 8.0048787E+000, 1.9839186E-001, 2.6106410E-002, 2.7330035E-002, 9.2891335E-005, 1.2953253E-004, 1.6805424E-004, 2.9742486E+002
 9.0025630E+000, 1.9114968E-001, 3.1859845E-002, 3.2059189E-002, 6.4210875E-005, 7.0977505E-005, 1.9521111E-004, 3.3835127E+002
 1.0000010E+001, 1.8381393E-001, 3.7680555E-002, 3.6851018E-002, 3.9096147E-005, 1.9662499E-005, 2.2352963E-004, 3.7313376E+002
 1.1006573E+001, 1.8041038E-001, 4.0373569E-002, 3.9076153E-002, 3.1780142E-005, 3.6857696E-006, 2.3756271E-004, 3.8490916E+002
 1.2003003E+001, 1.7423971E-001, 4.5230192E-002, 4.3117007E-002, 3.3384314E-005, 1.7760714E-007, 2.6607212E-004, 4.0899879E+002
 1.3004681E+001, 1.6958140E-001, 4.8894050E-002, 4.6168120E-002, 3.6007403E-005, 1.8383168E-008, 2.8788547E-004, 4.2075212E+002
 1.4001697E+001, 1.6475727E-001, 5.2688048E-002, 4.9327932E-002, 3.8894855E-005, 6.8494301E-008, 3.1051067E-004, 4.2940121E+002
 1.5008162E+001, 1.5853540E-001, 5.7581529E-002, 5.3403188E-002, 4.2484360E-005, 1.9329061E-008, 3.3966340E-004, 4.4711809E+002
 1.6002039E+001, 1.5422275E-001, 6.0973348E-002, 5.6227949E-002, 4.5013907E-005, 2.0234217E-008, 3.5987902E-004, 4.4997348E+002
 1.7006726E+001, 1.4523672E-001, 6.8040446E-002, 6.2113847E-002, 5.0445423E-005, 1.2087236E-007, 4.0203456E-004, 4.6810613E+002
 1.8004228E+001, 1.4332591E-001, 6.9543504E-002, 6.3365314E-002, 5.1406080E-005, 3.1723673E-008, 4.1095828E-004, 4.6457241E+002
 1.9005733E+001, 1.4032055E-001, 7.1907182E-002, 6.5333797E-002, 5.3155673E-005, 2.1201532E-008, 4.2504321E-004, 4.6309858E+002
 2.0009528E+001, 1.3630707E-001, 7.5063702E-002, 6.7962612E-002, 5.5517375E-005, 2.1864439E-008, 4.4385807E-004, 4.6551839E+002
 2.1002257E+001, 1.3203535E-001, 7.8423247E-002, 7.0760596E-002, 5.8076027E-005, 5.8767251E-008, 4.6389285E-004, 4.7132394E+002
 2.2003401E+001, 1.2879128E-001, 8.0974681E-002, 7.2885431E-002, 5.9957910E-005, 4.9524089E-008, 4.7909516E-004, 4.7249339E+002
 2.3003830E+001, 1.2364883E-001, 8.5019167E-002, 7.6253686E-002, 6.2943742E-005, 3.0353330E-008, 5.0319416E-004, 4.7454457E+002
 2.4009066E+001, 1.2057128E-001, 8.7439573E-002, 7.8269475E-002, 6.4768182E-005, 4.7719225E-008, 5.1762424E-004, 4.7702772E+002
 2.5001628E+001, 1.1905929E-001, 8.8628759E-002, 7.9259798E-002, 6.5628143E-005, 3.2494583E-008, 5.2470610E-004, 4.7226856E+002
 2.6007738E+001, 1.1698100E-001, 9.0263238E-002, 8.0621100E-002, 6.6890272E-005, 4.2887025E-008, 5.3445712E-004, 4.7205266E+002
 2.7003177E+001, 1.1334378E-001, 9.3123918E-002, 8.3003423E-002, 6.8972885E-005, 2.5008677E-008, 5.5149609E-004, 4.7062880E+002
 2.8002580E+001, 1.1085699E-001, 9.5079713E-002, 8.4632260E-002, 7.0441267E-005, 2.9411283E-008, 5.6315498E-004, 4.7245407E+002
 2.9005732E+001, 1.0750044E-001, 9.7719589E-002, 8.6830779E-002, 7.2403956E-005, 3.0248665E-008, 5.7888762E-004, 4.7345628E+002
 3.0004442E+001, 1.0533356E-001, 9.9423707E-002, 8.8250110E-002, 7.3735303E-005, 6.1967459E-008, 5.8905743E-004, 4.6950124E+002
 3.1001333E+001, 1.0370422E-001, 1.0070508E-001, 8.9317348E-002, 7.4737774E-005, 8.3469122E-008, 5.9670470E-004, 4.7586278E+002
 3.2004565E+001, 1.0010984E-001, 1.0353203E-001, 9.1671621E-002, 7.6817718E-005, 9.6163832E-008, 6.1354750E-004, 4.7545129E+002
 3.3003961E+001, 9.7313198E-002, 1.0573168E-001, 9.3503354E-002, 7.8365778E-005, 2.2770351E-008, 6.2663770E-004, 4.7305193E+002
 3.4001850E+001, 9.5341234E-002, 1.0728220E-001, 9.4795141E-002, 7.9782234E-005, 1.7288789E-007, 6.3593522E-004, 4.7569744E+002
 3.5009783E+001, 9.4250304E-002, 1.0814058E-001, 9.5509537E-002, 8.0171151E-005, 2.8475615E-008, 6.4099690E-004, 4.6776096E+002
 3.6003444E+001, 9.2684286E-002, 1.0937217E-001, 9.6535283E-002, 8.1118109E-005, 6.9395116E-008, 6.4834351E-004, 4.6803097E+002
 3.7007189E+001, 8.5602922E-002, 1.1494129E-001, 1.0117365E-001, 8.5439836E-005, 8.4319926E-008, 6.8157251E-004, 4.7967494E+002
 3.8002323E+001, 8.5019925E-002, 1.1540003E-001, 1.0155541E-001, 8.5629555E-005, 5.2923023E-008, 6.8427368E-004, 4.7454760E+002
 3.9006639E+001, 8.2814888E-002, 1.1713286E-001, 1.0300031E-001, 8.7854014E-005, 4.1606435E-007, 6.9480322E-004, 4.8078297E+002
 4.0000620E+001, 8.1422890E-002, 1.1822855E-001, 1.0391165E-001, 8.8054348E-005, 2.0938700E-007, 7.0120022E-004, 4.7336205E+002
 4.1005632E+001, 7.9396665E-002, 1.1981784E-001, 1.0524067E-001, 9.2103400E-005, 1.4467064E-006, 7.1129220E-004, 4.6812687E+002
 4.2000760E+001, 7.8587378E-002, 1.2045538E-001, 1.0577022E-001, 9.1842866E-005, 1.4480177E-006, 7.1493274E-004, 4.6794682E+002
 4.3000106E+001, 7.6006658E-002, 1.2247772E-001, 1.0746366E-001, 9.8192149E-005, 3.9426579E-006, 7.2803361E-004, 4.7118406E+002
 4.4006707E+001, 7.5315713E-002, 1.2301294E-001, 1.0791968E-001, 1.0400571E-004, 6.6097502E-006, 7.3239513E-004, 4.6360654E+002
 4.5006179E+001, 7.0421512E-002, 1.2682604E-001, 1.1114046E-001, 1.3063003E-004, 1.8983486E-005, 7.6026711E-004, 4.7200023E+002
 4.6003045E+001, 7.0028476E-002, 1.2713650E-001, 1.1139686E-001, 1.2973176E-004, 2.0390817E-005, 7.6187307E-004, 4.6556688E+002
 4.7005966E+001, 6.4185485E-002, 1.3164418E-001, 1.1526331E-001, 1.9223110E-004, 3.9905213E-005, 8.0153511E-004, 4.8183503E+002
 4.8002341E+001, 6.4890794E-002, 1.3111344E-001, 1.1478942E-001, 1.7506964E-004, 3.9299498E-005, 7.9474423E-004, 4.7099413E+002
 4.9001658E+001, 6.3256648E-002, 1.3238014E-001, 1.1586707E-001, 1.8798212E-004, 4.7473665E-005, 8.0488343E-004, 4.6686588E+002
 5.0001357E+001, 6.2233550E-002, 1.3317874E-001, 1.1653933E-001, 1.9236264E-004, 5.1106341E-005, 8.1046214E-004, 4.6555485E+002
 5.1004825E+001, 5.9468400E-002, 1.3533741E-001, 1.1835734E-001, 2.0462796E-004, 5.6073571E-005, 8.2563359E-004, 4.6979756E+002
 5.2007206E+001, 5.7571463E-002, 1.3679937E-001, 1.1961172E-001, 2.2511395E-004, 6.8870722E-005, 8.3854380E-004, 4.7102042E+002
 5.3008729E+001, 5.7367897E-002, 1.3694976E-001, 1.1974893E-001, 2.3152732E-004, 7.2949171E-005, 8.4080356E-004, 4.6790296E+002
 5.4008637E+001, 5.5016938E-002, 1.3878213E-001, 1.2129499E-001, 2.4345547E-004, 8.1659327E-005, 8.5400993E-004, 4.7343886E+002
 5.5007683E+001, 5.3466764E-002, 1.3999485E-001, 1.2231272E-001, 2.4844493E-004, 8.5176449E-005, 8.6212182E-004, 4.7127407E+002
 5.6002994E+001, 5.1169116E-002, 1.4176316E-001, 1.2383588E-001, 2.7631599E-004, 9.0453495E-005, 8.7840630E-004, 4.6801940E+002
 5.7002082E+001, 5.0824252E-002, 1.4203607E-001, 1.2405903E-001, 2.7436721E-004, 9.8019138E-005, 8.7956722E-004, 4.7280477E+002
 5.8006892E+001, 4.8048843E-002, 1.4418688E-001, 1.2589199E-001, 2.9791969E-004, 1.0215494E-004, 8.9713535E-004, 4.7511401E+002
 5.9005520E+001, 4.7433473E-002, 1.4468726E-001, 1.2628646E-001, 2.8659884E-004, 1.0349932E-004, 8.9758740E-004, 4.7243162E+002
 6.0007860E+001, 4.5279177E-002, 1.4631886E-001, 1.2772456E-001, 3.2954443E-004, 1.2168610E-004, 9.1634095E-004, 4.7039691E+002
 6.1009031E+001, 4.2424903E-002, 1.4857498E-001, 1.2959124E-001, 3.2475825E-004, 1.1031911E-004, 9.2838794E-004, 4.8132474E+002
 6.2003239E+001, 4.3221461E-002, 1.4793815E-001, 1.2907130E-001, 3.2980196E-004, 1.2402699E-004, 9.2578648E-004, 4.7045185E+002
 6.3001424E+001, 4.1071994E-002, 1.4965788E-001, 1.3046737E-001, 3.1204424E-004, 1.1238599E-004, 9.3191649E-004, 4.7603817E+002
 6.4003597E+001, 4.0237156E-002, 1.5030801E-001, 1.3101681E-001, 3.1674212E-004, 1.1489768E-004, 9.3670293E-004, 4.7347063E+002
 6.5000122E+001, 3.8216785E-002, 1.5183879E-001, 1.3236597E-001, 3.5698721E-004, 1.2890450E-004, 9.5428746E-004, 4.7596835E+002
 6.6003557E+001, 3.8154212E-002, 1.5189984E-001, 1.3239930E-001, 3.4784317E-004, 1.3567862E-004, 9.5266303E-004, 4.7165257E+002
 6.7006838E+001, 3.6382745E-002, 1.5321487E-001, 1.3359466E-001, 4.0153897E-004, 1.5308885E-004, 9.7190684E-004, 4.6773483E+002
 6.8000527E+001, 3.3525323E-002, 1.5544039E-001, 1.3548088E-001, 4.2038293E-004, 1.3841469E-004, 9.8888935E-004, 4.7373313E+002
 6.9002355E+001, 3.3693110E-002, 1.5530955E-001, 1.3536709E-001, 4.1778932E-004, 1.5178176E-004, 9.8756947E-004, 4.6878644E+002
 7.0002197E+001, 3.3476783E-002, 1.5547123E-001, 1.3551258E-001, 4.2361826E-004, 1.5359982E-004, 9.8976825E-004, 4.6736838E+002
 7.1002592E+001, 3.1452560E-002, 1.5701768E-001, 1.3686005E-001, 4.5609735E-004, 1.5895689E-004, 1.0057633E-003, 4.7262289E+002
 7.2003312E+001, 3.0530026E-002, 1.5773566E-001, 1.3746798E-001, 4.6188174E-004, 1.5954397E-004, 1.0111783E-003, 4.6828689E+002
 7.3004252E+001, 2.8585012E-002, 1.5921599E-001, 1.3876671E-001, 4.9762419E-004, 1.5996894E-004, 1.0274960E-003, 4.7476224E+002
 7.4002725E+001, 2.6780742E-002, 1.6066866E-001, 1.3993297E-001, 4.7579849E-004, 1.5430239E-004, 1.0311972E-003, 4.7456977E+002
 7.5004236E+001, 2.7058986E-002, 1.6047598E-001, 1.3973720E-001, 4.5710060E-004, 1.5568387E-004, 1.0260342E-003, 4.7793231E+002
 7.6001310E+001, 2.5053850E-002, 1.6189070E-001, 1.4112787E-001, 5.6990191E-004, 1.7342056E-004, 1.0586449E-003, 4.7814742E+002
 7.7000965E+001, 2.4716323E-002, 1.6218786E-001, 1.4133531E-001, 5.4904381E-004, 1.6406926E-004, 1.0558549E-003, 4.6990350E+002
 7.8006707E+001, 2.4289052E-002, 1.6256126E-001, 1.4159640E-001, 5.2310526E-004, 1.6387728E-004, 1.0524078E-003, 4.7232408E+002
 7.9005466E+001, 2.2506480E-002, 1.6390933E-001, 1.4278965E-001, 5.6121770E-004, 1.6975999E-004, 1.0684714E-003, 4.7208421E+002
 8.0000988E+001, 1.9781701E-002, 1.6585295E-001, 1.4467014E-001, 7.0035541E-004, 1.8836715E-004, 1.1098475E-003, 4.8171830E+002
 8.1004948E+001, 2.0535018E-002, 1.6531682E-001, 1.4414729E-001, 6.5982762E-004, 1.9261660E-004, 1.0979696E-003, 4.7132089E+002
 8.2009507E+001, 1.9567058E-002, 1.6604729E-001, 1.4479748E-001, 6.8235878E-004, 1.8995255E-004, 1.1070805E-003, 4.7693063E+002
 8.3005635E+001, 1.9713877E-002, 1.6600277E-001, 1.4466943E-001, 6.3445777E-004, 1.7450272E-004, 1.0964579E-003, 4.7377462E+002
 8.4005545E+001, 1.7984615E-002, 1.6721813E-001, 1.4587439E-001, 7.3672171E-004, 1.7672466E-004, 1.1256325E-003, 4.7457283E+002
 8.5001562E+001, 1.6779863E-002, 1.6812474E-001, 1.4668221E-001, 7.6516442E-004, 1.8432593E-004, 1.1370439E-003, 4.7515026E+002
 8.6008963E+001, 1.7268031E-002, 1.6785069E-001, 1.4630320E-001, 6.8574261E-004, 2.0006067E-004, 1.1182702E-003, 4.7391063E+002
 8.7008300E+001, 1.6704996E-002, 1.6816776E-001, 1.4673300E-001, 7.7313807E-004, 2.0933716E-004, 1.1390187E-003, 4.7066304E+002
 8.8004660E+001, 1.6644805E-002, 1.6824038E-001, 1.4675289E-001, 7.5193146E-004, 2.3666418E-004, 1.1348514E-003, 4.7011698E+002
 8.9009065E+001, 1.4746901E-002, 1.6979029E-001, 1.4797876E-001, 7.1882667E-004, 1.9013220E-004, 1.1366759E-003, 4.7742697E+002
 9.0005530E+001, 1.2743047E-002, 1.7067955E-001, 1.4962654E-001, 1.1965256E-003, 2.3273750E-004, 1.2451932E-003, 4.7491071E+002
 9.1006198E+001, 1.2624486E-002, 1.7123435E-001, 1.4947977E-001, 8.7679167E-004, 2.0046823E-004, 1.1792288E-003, 4.7731380E+002
 9.2003356E+001, 1.2454363E-002, 1.7131622E-001, 1.4961638E-001, 9.1283215E-004, 2.0436892E-004, 1.1875018E-003, 4.7426630E+002
 9.3010676E+001, 1.1387987E-002, 1.7172753E-001, 1.5051950E-001, 1.2079608E-003, 2.4690780E-004, 1.2537445E-003, 4.7020146E+002
 9.4010519E+001, 1.0091992E-002, 1.7226332E-001, 1.5160682E-001, 1.5454495E-003, 2.6716613E-004, 1.3298747E-003, 4.7119685E+002
 9.5002140E+001, 1.0949607E-002, 1.7195109E-001, 1.5086366E-001, 1.2912215E-003, 2.6308442E-004, 1.2730562E-003, 4.6994552E+002
 9.6001635E+001, 1.0755405E-002, 1.7212699E-001, 1.5098150E-001, 1.2762620E-003, 2.5381447E-004, 1.2708394E-003, 4.7267239E+002
 9.7004731E+001, 9.9775096E-003, 1.7256186E-001, 1.5157646E-001, 1.3990104E-003, 2.6851231E-004, 1.2999205E-003, 4.6741841E+002
 9.8006596E+001, 8.5568586E-003, 1.7330985E-001, 1.5269207E-001, 1.6585778E-003, 2.7220819E-004, 1.3604210E-003, 4.7172533E+002
 9.9005136E+001, 8.6846717E-003, 1.7304591E-001, 1.5268751E-001, 1.7715829E-003, 2.8482694E-004, 1.3833417E-003, 4.6291819E+002
 1.0000819E+002, 7.6594224E-003, 1.7338282E-001, 1.5358457E-001, 2.0960419E-003, 3.2856684E-004, 1.4554993E-003, 4.7569433E+002
 1.0100218E+002, 8.3250659E-003, 1.7288432E-001, 1.5312784E-001, 2.0739090E-003, 3.6126574E-004, 1.4478198E-003, 4.6462062E+002
 1.0200255E+002, 8.2899925E-003, 1.7327031E-001, 1.5297967E-001, 1.8271999E-003, 3.2367745E-004, 1.3966770E-003, 4.7476314E+002
 1.0300980E+002, 8.2663079E-003, 1.7242352E-001, 1.5341475E-001, 2.4262211E-003, 3.8904618E-004, 1.5213784E-003, 4.6685385E+002
 1.0400915E+002, 7.5970268E-003, 1.7354244E-001, 1.5357025E-001, 2.0187446E-003, 3.2661675E-004, 1.4396999E-003, 4.7198907E+002
 1.0500003E+002, 6.7529522E-003, 1.7299256E-001, 1.5472378E-001, 2.8656191E-003, 3.6921842E-004, 1.6197515E-003, 4.6594879E+002
 1.0600866E+002, 6.5089449E-003, 1.7344623E-001, 1.5475056E-001, 2.6814280E-003, 3.7408734E-004, 1.5825284E-003, 4.7175915E+002
 1.0700329E+002, 8.2618488E-003, 1.7228330E-001, 1.5348420E-001, 2.5240878E-003, 4.1257963E-004, 1.5417409E-003, 4.6102479E+002
 1.0800404E+002, 6.2881611E-003, 1.7133654E-001, 1.5599640E-001, 4.2590141E-003, 5.6982062E-004, 1.9116410E-003, 4.6458618E+002
 1.0900885E+002, 6.5095500E-003, 1.7247815E-001, 1.5520682E-001, 3.3447566E-003, 4.9719983E-004, 1.7204409E-003, 4.5705747E+002
 1.1000902E+002, 5.1711244E-003, 1.7235894E-001, 1.5664728E-001, 4.1544200E-003, 6.0321266E-004, 1.8949385E-003, 4.7048159E+002
 1.1100887E+002, 5.6824114E-003, 1.7250728E-001, 1.5605896E-001, 3.7800307E-003, 5.0761154E-004, 1.8147910E-003, 4.6631462E+002
 1.1200040E+002, 5.8867444E-003, 1.7302247E-001, 1.5558228E-001, 3.3042917E-003, 5.1740578E-004, 1.7148419E-003, 4.5953186E+002
 1.1301018E+002, 5.7829609E-003, 1.7252904E-001, 1.5593903E-001, 3.7075072E-003, 5.2080238E-004, 1.7992252E-003, 4.5848542E+002
 1.1400329E+002, 4.9577783E-003, 1.7243429E-001, 1.5685371E-001, 4.2297809E-003, 5.2233902E-004, 1.9116812E-003, 4.6941273E+002
 1.1500139E+002, 4.3593420E-003, 1.7103946E-001, 1.5812975E-001, 5.5108764E-003, 7.4505406E-004, 2.1807869E-003, 4.6267808E+002
 1.1600643E+002, 4.4072104E-003, 1.7075958E-001, 1.5818669E-001, 5.6635283E-003, 8.8035784E-004, 2.2121940E-003, 4.6107953E+002
 1.1701038E+002, 4.4835456E-003, 1.7127870E-001, 1.5789929E-001, 5.2849251E-003, 6.6240107E-004, 2.1332844E-003, 4.6012099E+002
 1.1800599E+002, 4.6614560E-003, 1.7173120E-001, 1.5749013E-001, 4.8719838E-003, 6.3936838E-004, 2.0465593E-003, 4.5867090E+002
 1.1900467E+002, 4.6939245E-003, 1.7158707E-001, 1.5752524E-001, 4.9534741E-003, 6.5282826E-004, 2.0633558E-003, 4.6315248E+002
 1.2000284E+002, 4.4960306E-003, 1.7012594E-001, 1.5839922E-001, 6.0523505E-003, 9.3353570E-004, 2.2926501E-003, 4.5632732E+002
 1.2100067E+002, 4.1620573E-003, 1.7084977E-001, 1.5842580E-001, 5.7495004E-003, 7.7256011E-004, 2.2313186E-003, 4.5517141E+002
 1.2200603E+002, 4.3876217E-003, 1.7036396E-001, 1.5837105E-001, 5.9337715E-003, 1.0228281E-003, 2.2683735E-003, 4.5940884E+002
 1.2300871E+002, 3.9644524E-003, 1.7015997E-001, 1.5894113E-001, 6.3223628E-003, 9.3226125E-004, 2.3512706E-003, 4.5764718E+002
 1.2400280E+002, 4.2241560E-003, 1.7104580E-001, 1.5825621E-001, 5.5747318E-003, 7.9499658E-004, 2.1946404E-003, 4.5813757E+002
 1.2501052E+002, 4.3535561E-003, 1.6978228E-001, 1.5866233E-001, 6.3415634E-003, 1.1733370E-003, 2.3532358E-003, 4.4779251E+002
 1.2600228E+002, 3.9335466E-003, 1.6980939E-001, 1.5911205E-001, 6.5658805E-003, 1.0853914E-003, 2.4019286E-003, 4.5442992E+002
 1.2700677E+002, 3.6887534E-003, 1.7021197E-001, 1.5918864E-001, 6.4299332E-003, 9.9688359E-004, 2.3748476E-003, 4.5664698E+002
 1.2800872E+002, 3.3646488E-003, 1.6875232E-001, 1.6019667E-001, 7.5986108E-003, 1.2689980E-003, 2.6192535E-003, 4.5837188E+002
 1.2900842E+002, 3.5171316E-003, 1.6950019E-001, 1.5972337E-001, 7.0221949E-003, 1.0135056E-003, 2.4988690E-003, 4.5405214E+002
 1.3000403E+002, 3.2118706E-003, 1.6847499E-001, 1.6049591E-001, 7.8771502E-003, 1.2730933E-003, 2.6779135E-003, 4.5324137E+002
 1.3100629E+002, 3.5900094E-003, 1.6942141E-001, 1.5964923E-001, 7.0180796E-003, 1.1629341E-003, 2.4975223E-003, 4.5779838E+002
 1.3200995E+002, 3.3462084E-003, 1.6923221E-001, 1.6001574E-001, 7.2932748E-003, 1.1028687E-003, 2.5559695E-003, 4.5269636E+002
 1.3300479E+002, 3.1912593E-003, 1.6879670E-001, 1.6036385E-001, 7.6670182E-003, 1.2397581E-003, 2.6343122E-003, 4.5771686E+002
 1.3400001E+002, 3.3002740E-003, 1.6795150E-001, 1.6067118E-001, 8.1980432E-003, 1.2548219E-003, 2.7443101E-003, 4.5373361E+002
 1.3500712E+002, 3.1945597E-003, 1.6811940E-001, 1.6068576E-001, 8.1324600E-003, 1.3029450E-003, 2.7310935E-003, 4.5480325E+002
 1.3600591E+002, 3.3144821E-003, 1.6727132E-001, 1.6097537E-001, 8.6555083E-003, 1.3489692E-003, 2.8393489E-003, 4.5124656E+002
 1.3700634E+002, 3.1115921E-003, 1.6777830E-001, 1.6095600E-001, 8.4234814E-003, 1.2577702E-003, 2.7920843E-003, 4.5465738E+002
 1.3800970E+002, 3.1342741E-003, 1.6666764E-001, 1.6144033E-001, 9.1641220E-003, 1.4633858E-003, 2.9458985E-003, 4.4928249E+002
 1.3900186E+002, 3.0685670E-003, 1.6823115E-001, 1.6079260E-001, 8.1394283E-003, 1.1796858E-003, 2.7332489E-003, 4.5312426E+002
 1.4000530E+002, 3.2330181E-003, 1.6684601E-001, 1.6123905E-001, 8.9804387E-003, 1.4940932E-003, 2.9071890E-003, 4.5280372E+002
 1.4100792E+002, 3.0812027E-003, 1.6635348E-001, 1.6164416E-001, 9.4087068E-003, 1.5041977E-003, 2.9969982E-003, 4.4558450E+002
 1.4200658E+002, 3.0169977E-003, 1.6676565E-001, 1.6151981E-001, 9.1630080E-003, 1.4409719E-003, 2.9462257E-003, 4.5070464E+002
 1.4300892E+002, 3.0588103E-003, 1.6564965E-001, 1.6196358E-001, 9.8849245E-003, 1.7394904E-003, 3.0959579E-003, 4.4933573E+002
 1.4400928E+002, 2.9996095E-003, 1.6591487E-001, 1.6194244E-001, 9.7573112E-003, 1.5378934E-003, 3.0698832E-003, 4.4509891E+002
 1.4501100E+002, 3.2348745E-003, 1.6641232E-001, 1.6146076E-001, 9.2864844E-003, 1.4730778E-003, 2.9708938E-003, 4.5107592E+002
 1.4600372E+002, 3.2669365E-003, 1.6643194E-001, 1.6140041E-001, 9.2463772E-003, 1.5403878E-003, 2.9623297E-003, 4.4786634E+002
 1.4700809E+002, 3.1188145E-003, 1.6453375E-001, 1.6244102E-001, 1.0623891E-002, 1.8257863E-003, 3.2493791E-003, 4.4671653E+002
 1.4800708E+002, 3.1113026E-003, 1.6508166E-001, 1.6222119E-001, 1.0268298E-002, 1.6321837E-003, 3.1756151E-003, 4.5150928E+002
 1.4900225E+002, 2.9379039E-003, 1.6466116E-001, 1.6259270E-001, 1.0647647E-002, 1.7226349E-003, 3.2552577E-003, 4.4743401E+002
 1.5000422E+002, 3.3364441E-003, 1.6592264E-001, 1.6156971E-001, 9.5581383E-003, 1.5971908E-003, 3.0268330E-003, 4.4754878E+002
 1.5100469E+002, 3.0378727E-003, 1.6503387E-001, 1.6230008E-001, 1.0330913E-002, 1.7219430E-003, 3.1888865E-003, 4.4873449E+002
 1.5200924E+002, 3.1526283E-003, 1.6452153E-001, 1.6237353E-001, 1.0594192E-002, 1.9787993E-003, 3.2428826E-003, 4.4533345E+002
 1.5300613E+002, 2.8872660E-003, 1.6393135E-001, 1.6297196E-001, 1.1166482E-002, 1.8893742E-003, 3.3632875E-003, 4.4883270E+002
 1.5400725E+002, 2.9296043E-003, 1.6363517E-001, 1.6306218E-001, 1.1343532E-002, 1.9473515E-003, 3.3998790E-003, 4.5070391E+002
