s,,,,,,,
Time,"O2 EXHAUST","CO2 EXHAUST","H2O EXHAUST","CO EXHAUST","FUEL EXHAUST","SOOT EXHAUST","TEMP EXHAUST"
 0.0000000E+000, 2.3099739E-001, 5.9146498E-004, 5.9412092E-003, 0.0000000E+000, 0.0000000E+000, 0.0000000E+000, 2.0000000E+001
 1.0040417E+000, 2.3099739E-001, 5.9146498E-004, 5.9412092E-003, 1.7353031E-033, 2.9797197E-032, 5.4893864E-034, 2.0480151E+001
 2.0003423E+000, 2.2379140E-001, 6.2148759E-003, 1.0640733E-002, 1.1218162E-005, 1.7261422E-004, 3.5029385E-005, 9.3679077E+001
 3.0023014E+000, 2.1939741E-001, 9.6472298E-003, 1.3523204E-002, 2.5159805E-005, 2.0347530E-004, 5.7931052E-005, 1.3582507E+002
 4.0041807E+000, 2.1537497E-001, 1.2793365E-002, 1.6151815E-002, 3.1002730E-005, 2.6415621E-004, 7.7435951E-005, 1.7541080E+002
 5.0013229E+000, 2.1101485E-001, 1.6207638E-002, 1.9010885E-002, 4.0556685E-005, 2.8252619E-004, 9.9291938E-005, 2.1237006E+002
 6.0011662E+000, 2.0500701E-001, 2.0937119E-002, 2.2950660E-002, 4.2899367E-005, 2.5641793E-004, 1.2723166E-004, 2.6145474E+002
 7.0007050E+000, 2.0197810E-001, 2.3328208E-002, 2.4938004E-002, 4.1693608E-005, 2.2547773E-004, 1.4084466E-004, 2.8377535E+002
 8.0012647E+000, 1.9671517E-001, 2.7487562E-002, 2.8392037E-002, 3.7998019E-005, 1.5859140E-004, 1.6418208E-004, 3.2060688E+002
 9.0020313E+000, 1.9041624E-001, 3.2466376E-002, 3.2525513E-002, 3.3025492E-005, 7.9082459E-005, 1.9199967E-004, 3.5648305E+002
 1.0004821E+001, 1.8405770E-001, 3.7485126E-002, 3.6695952E-002, 3.0061522E-005, 2.1997489E-005, 2.2047967E-004, 3.8786239E+002
 1.1004090E+001, 1.7909330E-001, 4.1395168E-002, 3.9950323E-002, 3.0545974E-005, 1.0120755E-006, 2.4326712E-004, 4.0700036E+002
 1.2000604E+001, 1.7249204E-001, 4.6585063E-002, 4.4275742E-002, 3.4292366E-005, 2.8417482E-008, 2.7417893E-004, 4.2731516E+002
 1.3000493E+001, 1.6645833E-001, 5.1328327E-002, 4.8229253E-002, 3.7890383E-005, 6.5573032E-008, 3.0246785E-004, 4.4607609E+002
 1.4000464E+001, 1.6245664E-001, 5.4474319E-002, 5.0851250E-002, 4.0178130E-005, 2.8352815E-008, 3.2120946E-004, 4.5299895E+002
 1.5007195E+001, 1.5899022E-001, 5.7199432E-002, 5.3122555E-002, 4.2204808E-005, 2.4536771E-008, 3.3745342E-004, 4.5566343E+002
 1.6006674E+001, 1.5201808E-001, 6.2680536E-002, 5.7690925E-002, 4.6293845E-005, 2.6204088E-008, 3.7012811E-004, 4.6909390E+002
 1.7003120E+001, 1.4786869E-001, 6.5942486E-002, 6.0409755E-002, 4.8765646E-005, 6.2120093E-008, 3.8958190E-004, 4.7231070E+002
 1.8006020E+001, 1.4367252E-001, 6.9241337E-002, 6.3159198E-002, 5.1189201E-005, 3.0021044E-008, 4.0923942E-004, 4.7558839E+002
 1.9002208E+001, 1.3905949E-001, 7.2867840E-002, 6.6181800E-002, 5.3893652E-005, 3.1587114E-008, 4.3085800E-004, 4.8114266E+002
 2.0000369E+001, 1.3606580E-001, 7.5221305E-002, 6.8143357E-002, 5.5649525E-005, 3.5297063E-008, 4.4488782E-004, 4.7998814E+002
 2.1002172E+001, 1.3283694E-001, 7.7759658E-002, 7.0259005E-002, 5.7538453E-005, 3.2352132E-008, 4.6001877E-004, 4.8040245E+002
 2.2000711E+001, 1.2908918E-001, 8.0705910E-002, 7.2714667E-002, 5.9752515E-005, 4.5770102E-008, 4.7758581E-004, 4.8237502E+002
 2.3003131E+001, 1.2595323E-001, 8.3171227E-002, 7.4769430E-002, 6.1580889E-005, 4.1005195E-008, 4.9228008E-004, 4.8274397E+002
 2.4005050E+001, 1.2257392E-001, 8.5827854E-002, 7.6983655E-002, 6.3557892E-005, 4.2241710E-008, 5.0811606E-004, 4.8247461E+002
 2.5006910E+001, 1.1996471E-001, 8.7879026E-002, 7.8693308E-002, 6.5113808E-005, 6.0682247E-008, 5.2034930E-004, 4.8324528E+002
 2.6004273E+001, 1.1677900E-001, 9.0383477E-002, 8.0780677E-002, 6.6965567E-005, 5.5502839E-008, 5.3527560E-004, 4.8230581E+002
 2.7005395E+001, 1.1407544E-001, 9.2508863E-002, 8.2552136E-002, 6.8551671E-005, 4.7867155E-008, 5.4794585E-004, 4.8518383E+002
 2.8004472E+001, 1.1181229E-001, 9.4288022E-002, 8.4035022E-002, 6.9878192E-005, 4.9818975E-008, 5.5855185E-004, 4.8152751E+002
 2.9000163E+001, 1.0916072E-001, 9.6372525E-002, 8.5772418E-002, 7.1439933E-005, 5.5696794E-008, 5.7097969E-004, 4.8239058E+002
 3.0003663E+001, 1.0627395E-001, 9.8641996E-002, 8.7663897E-002, 7.3095764E-005, 2.8419905E-008, 5.8450078E-004, 4.8290205E+002
 3.1001293E+001, 1.0383722E-001, 1.0055756E-001, 8.9260539E-002, 7.4557812E-005, 4.7372920E-008, 5.9592718E-004, 4.7751184E+002
 3.2004896E+001, 1.0112028E-001, 1.0269347E-001, 9.1040765E-002, 7.6148104E-005, 5.2110054E-008, 6.0865940E-004, 4.7970455E+002
 3.3006370E+001, 9.8036856E-002, 1.0511744E-001, 9.3061136E-002, 7.7984620E-005, 8.4554310E-008, 6.2311550E-004, 4.8249034E+002
 3.4000180E+001, 9.5529964E-002, 1.0708819E-001, 9.4703746E-002, 7.9475269E-005, 7.9391466E-008, 6.3486816E-004, 4.8538776E+002
 3.5009003E+001, 9.3270899E-002, 1.0886417E-001, 9.6183939E-002, 8.0773712E-005, 7.2270711E-008, 6.4544974E-004, 4.8140488E+002
 3.6007017E+001, 9.2003213E-002, 1.0986079E-001, 9.7014555E-002, 8.1497203E-005, 5.3930181E-008, 6.5138660E-004, 4.7382441E+002
 3.7008559E+001, 8.9028026E-002, 1.1219959E-001, 9.8964041E-002, 8.3318894E-005, 9.6161519E-008, 6.6534548E-004, 4.7905586E+002
 3.8006213E+001, 8.6115513E-002, 1.1448932E-001, 1.0087238E-001, 8.4975706E-005, 6.6110629E-008, 6.7898432E-004, 4.8107490E+002
 3.9004345E+001, 8.4179470E-002, 1.1601122E-001, 1.0214098E-001, 8.6181426E-005, 1.0090348E-007, 6.8807195E-004, 4.8030084E+002
 4.0000341E+001, 8.1792350E-002, 1.1788797E-001, 1.0370504E-001, 8.7493127E-005, 6.5867449E-008, 6.9924094E-004, 4.8068257E+002
 4.1004208E+001, 7.9615377E-002, 1.1959631E-001, 1.0513273E-001, 9.0767006E-005, 1.2154864E-006, 7.0985357E-004, 4.8027383E+002
 4.2002349E+001, 7.7122556E-002, 1.2155289E-001, 1.0676725E-001, 9.4185775E-005, 2.9426429E-006, 7.2193749E-004, 4.7903524E+002
 4.3006531E+001, 7.4397791E-002, 1.2368207E-001, 1.0855760E-001, 1.0398533E-004, 8.9718024E-006, 7.3639073E-004, 4.8029865E+002
 4.4006370E+001, 7.2556919E-002, 1.2511339E-001, 1.0977043E-001, 1.1540856E-004, 1.4455916E-005, 7.4714362E-004, 4.8425391E+002
 4.5009347E+001, 7.0644181E-002, 1.2660330E-001, 1.1102885E-001, 1.2519783E-004, 2.1713377E-005, 7.5788605E-004, 4.8367041E+002
 4.6003120E+001, 6.9348759E-002, 1.2762168E-001, 1.1187761E-001, 1.2593768E-004, 2.1910991E-005, 7.6395269E-004, 4.8145282E+002
 4.7004918E+001, 6.7341475E-002, 1.2918539E-001, 1.1319828E-001, 1.3616496E-004, 2.9034014E-005, 7.7521718E-004, 4.8452560E+002
 4.8001586E+001, 6.5707556E-002, 1.3044432E-001, 1.1427927E-001, 1.5363717E-004, 3.9092580E-005, 7.8626690E-004, 4.8029754E+002
 4.9002301E+001, 6.4671094E-002, 1.3125361E-001, 1.1495963E-001, 1.5730482E-004, 4.5277047E-005, 7.9174824E-004, 4.8026247E+002
 5.0007738E+001, 6.2374277E-002, 1.3305280E-001, 1.1646727E-001, 1.6284702E-004, 4.7512874E-005, 8.0337433E-004, 4.7936342E+002
 5.1002300E+001, 6.0594594E-002, 1.3441481E-001, 1.1764805E-001, 1.8764531E-004, 6.3650311E-005, 8.1659282E-004, 4.7547721E+002
 5.2002193E+001, 5.9558174E-002, 1.3523392E-001, 1.1832538E-001, 1.8545238E-004, 6.1960544E-005, 8.2087459E-004, 4.7236350E+002
 5.3002341E+001, 5.7310137E-002, 1.3698177E-001, 1.1980551E-001, 1.9893916E-004, 7.2616794E-005, 8.3390623E-004, 4.7676560E+002
 5.4000845E+001, 5.5166684E-002, 1.3864343E-001, 1.2122009E-001, 2.1562991E-004, 7.9360164E-005, 8.4712474E-004, 4.7935795E+002
 5.5007776E+001, 5.2661226E-002, 1.4059873E-001, 1.2286539E-001, 2.2525254E-004, 9.3806095E-005, 8.6053137E-004, 4.8282283E+002
 5.6006718E+001, 5.1811267E-002, 1.4123641E-001, 1.2343547E-001, 2.4585368E-004, 1.0271748E-004, 8.6864783E-004, 4.8230640E+002
 5.7006809E+001, 5.0465301E-002, 1.4228154E-001, 1.2432161E-001, 2.5449581E-004, 1.1209575E-004, 8.7656397E-004, 4.7967198E+002
 5.8002611E+001, 4.9045617E-002, 1.4339756E-001, 1.2525170E-001, 2.5528275E-004, 1.1271356E-004, 8.8320720E-004, 4.8010508E+002
 5.9000300E+001, 4.6967367E-002, 1.4502813E-001, 1.2661489E-001, 2.5866508E-004, 1.1341872E-004, 8.9339192E-004, 4.7960969E+002
 6.0002942E+001, 4.5971422E-002, 1.4579764E-001, 1.2727178E-001, 2.6734676E-004, 1.2334881E-004, 8.9971758E-004, 4.7903211E+002
 6.1002113E+001, 4.4518073E-002, 1.4693250E-001, 1.2822676E-001, 2.7294671E-004, 1.2804432E-004, 9.0750202E-004, 4.8114176E+002
 6.2003478E+001, 4.3163495E-002, 1.4795576E-001, 1.2913321E-001, 3.0164675E-004, 1.3650029E-004, 9.1959179E-004, 4.7279082E+002
 6.3009407E+001, 4.0846855E-002, 1.4974649E-001, 1.3066446E-001, 3.2316714E-004, 1.4476912E-004, 9.3459464E-004, 4.7996346E+002
 6.4008070E+001, 3.9636008E-002, 1.5069680E-001, 1.3145929E-001, 3.2531348E-004, 1.4217799E-004, 9.4056792E-004, 4.8130797E+002
 6.5003308E+001, 3.8856500E-002, 1.5132256E-001, 1.3196347E-001, 3.1672986E-004, 1.4235113E-004, 9.4235784E-004, 4.8118735E+002
 6.6002366E+001, 3.7081483E-002, 1.5267765E-001, 1.3314622E-001, 3.4551420E-004, 1.4491616E-004, 9.5639075E-004, 4.8213348E+002
 6.7008068E+001, 3.6615512E-002, 1.5302913E-001, 1.3345488E-001, 3.5400778E-004, 1.6154621E-004, 9.6025092E-004, 4.8040416E+002
 6.8004116E+001, 3.4967244E-002, 1.5433336E-001, 1.3453335E-001, 3.5047914E-004, 1.5057882E-004, 9.6706068E-004, 4.8055040E+002
 6.9005042E+001, 3.3726352E-002, 1.5530453E-001, 1.3534630E-001, 3.5305518E-004, 1.5986416E-004, 9.7324716E-004, 4.8163830E+002
 7.0004569E+001, 3.2555738E-002, 1.5620027E-001, 1.3612392E-001, 3.6991217E-004, 1.6697390E-004, 9.8205794E-004, 4.7920530E+002
 7.1006520E+001, 3.1452460E-002, 1.5707199E-001, 1.3684610E-001, 3.6826363E-004, 1.6098651E-004, 9.8676168E-004, 4.8300561E+002
 7.2008291E+001, 3.0090633E-002, 1.5815103E-001, 1.3773539E-001, 3.6381068E-004, 1.5605409E-004, 9.9206682E-004, 4.8320097E+002
 7.3002705E+001, 2.8232804E-002, 1.5954103E-001, 1.3898538E-001, 4.1251241E-004, 1.6761191E-004, 1.0105727E-003, 4.8407790E+002
 7.4008387E+001, 2.7148579E-002, 1.6032207E-001, 1.3972499E-001, 4.5932931E-004, 1.9482242E-004, 1.0251417E-003, 4.8272605E+002
 7.5001874E+001, 2.7229869E-002, 1.6032909E-001, 1.3964034E-001, 4.1215063E-004, 1.7723114E-004, 1.0150670E-003, 4.8213559E+002
 7.6005859E+001, 2.5803474E-002, 1.6135569E-001, 1.4061782E-001, 4.7642630E-004, 1.9701747E-004, 1.0348038E-003, 4.7944905E+002
 7.7009321E+001, 2.4021977E-002, 1.6277706E-001, 1.4177925E-001, 4.6532363E-004, 1.7830934E-004, 1.0406692E-003, 4.8698210E+002
 7.8002897E+001, 2.2749213E-002, 1.6371314E-001, 1.4264335E-001, 5.0974705E-004, 1.8790549E-004, 1.0556244E-003, 4.8381783E+002
 7.9006920E+001, 2.3437569E-002, 1.6320131E-001, 1.4217481E-001, 4.8754786E-004, 1.9882539E-004, 1.0478955E-003, 4.7547303E+002
 8.0006116E+001, 2.2034396E-002, 1.6424996E-001, 1.4312246E-001, 5.2666688E-004, 1.9564983E-004, 1.0623664E-003, 4.8106995E+002
 8.1002067E+001, 2.1275792E-002, 1.6478860E-001, 1.4364190E-001, 5.6386457E-004, 2.2269819E-004, 1.0734667E-003, 4.8125489E+002
 8.2001616E+001, 2.0385406E-002, 1.6549968E-001, 1.4422173E-001, 5.5768300E-004, 2.1459956E-004, 1.0762666E-003, 4.8163171E+002
 8.3003047E+001, 1.8630180E-002, 1.6679317E-001, 1.4541385E-001, 6.1804739E-004, 2.2070478E-004, 1.0967131E-003, 4.8053033E+002
 8.4008247E+001, 1.8380507E-002, 1.6702047E-001, 1.4556173E-001, 5.9657093E-004, 2.2093995E-004, 1.0934271E-003, 4.8372010E+002
 8.5001667E+001, 1.6819186E-002, 1.6816288E-001, 1.4662126E-001, 6.5340491E-004, 2.4656513E-004, 1.1122403E-003, 4.8366215E+002
 8.6003539E+001, 1.6653594E-002, 1.6833084E-001, 1.4671479E-001, 6.2928607E-004, 2.3017532E-004, 1.1080434E-003, 4.7619295E+002
 8.7005189E+001, 1.5141932E-002, 1.6949349E-001, 1.4771985E-001, 6.4889429E-004, 2.2379706E-004, 1.1189924E-003, 4.8282564E+002
 8.8003974E+001, 1.4082921E-002, 1.7020177E-001, 1.4847140E-001, 7.3343698E-004, 2.4393790E-004, 1.1412279E-003, 4.8202234E+002
 8.9003909E+001, 1.3656215E-002, 1.7050119E-001, 1.4877021E-001, 7.5930389E-004, 2.3973435E-004, 1.1485109E-003, 4.7918687E+002
 9.0004280E+001, 1.2317550E-002, 1.7145637E-001, 1.4969517E-001, 8.2712281E-004, 2.4457260E-004, 1.1685931E-003, 4.8091093E+002
 9.1005756E+001, 1.2509819E-002, 1.7139777E-001, 1.4952390E-001, 7.6330604E-004, 2.3899516E-004, 1.1545704E-003, 4.8592303E+002
 9.2005134E+001, 1.2093500E-002, 1.7168775E-001, 1.4981576E-001, 7.8965004E-004, 2.3792122E-004, 1.1619010E-003, 4.8555830E+002
 9.3008673E+001, 1.1140575E-002, 1.7224054E-001, 1.5053387E-001, 9.2415762E-004, 2.5926813E-004, 1.1939472E-003, 4.8274892E+002
 9.4006994E+001, 1.0305680E-002, 1.7275172E-001, 1.5114792E-001, 1.0225168E-003, 2.8421577E-004, 1.2180016E-003, 4.8021142E+002
 9.5007434E+001, 9.3147443E-003, 1.7329391E-001, 1.5191370E-001, 1.1864187E-003, 2.9615222E-004, 1.2562885E-003, 4.8342710E+002
 9.6006092E+001, 9.5994670E-003, 1.7310369E-001, 1.5170715E-001, 1.1613110E-003, 3.0831741E-004, 1.2498018E-003, 4.7985630E+002
 9.7011293E+001, 9.4375164E-003, 1.7321726E-001, 1.5182237E-001, 1.1720782E-003, 2.9960537E-004, 1.2527692E-003, 4.7882958E+002
 9.8007168E+001, 8.9761413E-003, 1.7355638E-001, 1.5213320E-001, 1.1870463E-003, 3.1316255E-004, 1.2579458E-003, 4.7545449E+002
 9.9007507E+001, 8.2626921E-003, 1.7328581E-001, 1.5299498E-001, 1.7533798E-003, 4.1376966E-004, 1.3778014E-003, 4.7373888E+002
 1.0000885E+002, 8.6930718E-003, 1.7336299E-001, 1.5251634E-001, 1.4705180E-003, 3.6182805E-004, 1.3176019E-003, 4.7582416E+002
 1.0100160E+002, 7.6258154E-003, 1.7379078E-001, 1.5341818E-001, 1.7548725E-003, 3.8141070E-004, 1.3810509E-003, 4.7765751E+002
 1.0200634E+002, 6.6327305E-003, 1.7407837E-001, 1.5430936E-001, 2.0944660E-003, 4.1449656E-004, 1.4555301E-003, 4.7943703E+002
 1.0300889E+002, 6.8132489E-003, 1.7419716E-001, 1.5406941E-001, 1.9179164E-003, 3.7506476E-004, 1.4183659E-003, 4.7297858E+002
 1.0400914E+002, 6.5967111E-003, 1.7456924E-001, 1.5411322E-001, 1.7794597E-003, 3.6003704E-004, 1.3908386E-003, 4.7792374E+002
 1.0500719E+002, 6.3036486E-003, 1.7439765E-001, 1.5450073E-001, 2.0557083E-003, 3.8922349E-004, 1.4490724E-003, 4.7338121E+002
 1.0600239E+002, 6.4950787E-003, 1.7355079E-001, 1.5470090E-001, 2.5272062E-003, 4.9213505E-004, 1.5452515E-003, 4.6764663E+002
 1.0700540E+002, 5.9272647E-003, 1.7372185E-001, 1.5518229E-001, 2.7041227E-003, 6.1065362E-004, 1.5841761E-003, 4.7208800E+002
 1.0800988E+002, 5.2219543E-003, 1.7394219E-001, 1.5582663E-001, 2.9440538E-003, 5.5584492E-004, 1.6368967E-003, 4.7298162E+002
 1.0900390E+002, 5.1908382E-003, 1.7435017E-001, 1.5566512E-001, 2.6830228E-003, 5.0950306E-004, 1.5832969E-003, 4.7306608E+002
 1.1000402E+002, 5.5312491E-003, 1.7380198E-001, 1.5556853E-001, 2.8704326E-003, 5.6995061E-004, 1.6202985E-003, 4.6998493E+002
 1.1100517E+002, 4.9202152E-003, 1.7322221E-001, 1.5647151E-001, 3.5922862E-003, 6.9884637E-004, 1.7717048E-003, 4.6909247E+002
 1.1200382E+002, 4.6190947E-003, 1.7350500E-001, 1.5664760E-001, 3.5614293E-003, 6.9075091E-004, 1.7667294E-003, 4.6664803E+002
 1.1300745E+002, 4.9705142E-003, 1.7292324E-001, 1.5657677E-001, 3.7765692E-003, 6.6931905E-004, 1.8094815E-003, 4.6534193E+002
 1.1400468E+002, 4.7425842E-003, 1.7342901E-001, 1.5656301E-001, 3.5502291E-003, 6.6278436E-004, 1.7638871E-003, 4.6766807E+002
 1.1500013E+002, 4.5970937E-003, 1.7354990E-001, 1.5666729E-001, 3.5520153E-003, 6.1368323E-004, 1.7649712E-003, 4.7031780E+002
 1.1600251E+002, 4.4443824E-003, 1.7265566E-001, 1.5723273E-001, 4.2345055E-003, 7.9921155E-004, 1.9061136E-003, 4.6561457E+002
 1.1700129E+002, 4.3782793E-003, 1.7353845E-001, 1.5688787E-001, 3.6720227E-003, 6.7525939E-004, 1.7906352E-003, 4.6742156E+002
 1.1800049E+002, 4.3231746E-003, 1.7157488E-001, 1.5781808E-001, 5.0086639E-003, 1.1494606E-003, 2.0658284E-003, 4.6285252E+002
 1.1900827E+002, 4.3132764E-003, 1.7214871E-001, 1.5760848E-001, 4.6500659E-003, 8.7083661E-004, 1.9922712E-003, 4.6377209E+002
 1.2000689E+002, 4.1785025E-003, 1.7200706E-001, 1.5781315E-001, 4.8181303E-003, 9.0506112E-004, 2.0274834E-003, 4.5968028E+002
 1.2100417E+002, 3.9050720E-003, 1.7219759E-001, 1.5801193E-001, 4.8390087E-003, 8.7577147E-004, 2.0330651E-003, 4.6623190E+002
 1.2200605E+002, 3.8001709E-003, 1.7127065E-001, 1.5852965E-001, 5.5109837E-003, 1.1171682E-003, 2.1717634E-003, 4.6060674E+002
 1.2300391E+002, 3.5777204E-003, 1.7183025E-001, 1.5851550E-001, 5.2607375E-003, 9.8014782E-004, 2.1213553E-003, 4.6399975E+002
 1.2400329E+002, 3.8709756E-003, 1.7160987E-001, 1.5831377E-001, 5.2512248E-003, 9.9801397E-004, 2.1180373E-003, 4.6054029E+002
 1.2501014E+002, 3.6541971E-003, 1.7108571E-001, 1.5877126E-001, 5.7170025E-003, 1.1380648E-003, 2.2148622E-003, 4.5858154E+002
 1.2600225E+002, 3.4706749E-003, 1.6971926E-001, 1.5952223E-001, 6.7017079E-003, 1.6649041E-003, 2.4180627E-003, 4.5687833E+002
 1.2700073E+002, 3.6047418E-003, 1.7152604E-001, 1.5861283E-001, 5.4435608E-003, 1.0912793E-003, 2.1587891E-003, 4.6614233E+002
 1.2800984E+002, 3.4455438E-003, 1.7090357E-001, 1.5905477E-001, 5.9438962E-003, 1.2496840E-003, 2.2624531E-003, 4.5787337E+002
 1.2900962E+002, 3.4777281E-003, 1.6966650E-001, 1.5957598E-001, 6.7521693E-003, 1.5262342E-003, 2.4285754E-003, 4.5712970E+002
 1.3000775E+002, 3.4716621E-003, 1.7069028E-001, 1.5913013E-001, 6.0756200E-003, 1.2687548E-003, 2.2894580E-003, 4.5638222E+002
 1.3100068E+002, 3.4886125E-003, 1.7001923E-001, 1.5941537E-001, 6.5153531E-003, 1.4108694E-003, 2.3798466E-003, 4.6066016E+002
 1.3200742E+002, 3.3504272E-003, 1.6930804E-001, 1.5986299E-001, 7.0572801E-003, 1.6373542E-003, 2.4919136E-003, 4.5307712E+002
 1.3300253E+002, 3.3663499E-003, 1.6897890E-001, 1.6004626E-001, 7.2949668E-003, 1.5009196E-003, 2.5409649E-003, 4.6131677E+002
 1.3400331E+002, 3.3695501E-003, 1.6892454E-001, 1.6003677E-001, 7.3139574E-003, 1.6355166E-003, 2.5447217E-003, 4.5504066E+002
 1.3500284E+002, 3.4350532E-003, 1.6855556E-001, 1.6009692E-001, 7.5058201E-003, 1.8645362E-003, 2.5837183E-003, 4.5509467E+002
 1.3600893E+002, 3.3732029E-003, 1.6884120E-001, 1.6004194E-001, 7.3531407E-003, 1.7680703E-003, 2.5526398E-003, 4.5534438E+002
 1.3700478E+002, 3.2101919E-003, 1.6799072E-001, 1.6061341E-001, 8.0196161E-003, 1.8842527E-003, 2.6906021E-003, 4.5417448E+002
 1.3800541E+002, 3.3489535E-003, 1.6833926E-001, 1.6033023E-001, 7.7206667E-003, 1.7295117E-003, 2.6285273E-003, 4.5409124E+002
 1.3900462E+002, 3.0579375E-003, 1.6726175E-001, 1.6106877E-001, 8.5734651E-003, 2.1750653E-003, 2.8051222E-003, 4.4982849E+002
 1.4000839E+002, 3.2879137E-003, 1.6753280E-001, 1.6067106E-001, 8.2491079E-003, 2.2517896E-003, 2.7371510E-003, 4.5580891E+002
 1.4100970E+002, 3.1967910E-003, 1.6741907E-001, 1.6085546E-001, 8.3940666E-003, 2.1265685E-003, 2.7675708E-003, 4.5378339E+002
 1.4201020E+002, 3.1274146E-003, 1.6830151E-001, 1.6059168E-001, 7.8730844E-003, 1.6917487E-003, 2.6609873E-003, 4.5991064E+002
 1.4300593E+002, 3.1318036E-003, 1.6699951E-001, 1.6114487E-001, 8.7264842E-003, 2.0887080E-003, 2.8364087E-003, 4.5688580E+002
 1.4400814E+002, 3.1120969E-003, 1.6688355E-001, 1.6120387E-001, 8.8076867E-003, 2.1698680E-003, 2.8531465E-003, 4.5483697E+002
 1.4500453E+002, 2.9310380E-003, 1.6703987E-001, 1.6130821E-001, 8.7943758E-003, 2.1989295E-003, 2.8511995E-003, 4.5768127E+002
 1.4600407E+002, 2.9093307E-003, 1.6751610E-001, 1.6116553E-001, 8.5128539E-003, 1.8991761E-003, 2.7936015E-003, 4.5517954E+002
 1.4700803E+002, 2.9786934E-003, 1.6666328E-001, 1.6142527E-001, 9.0187801E-003, 2.2903043E-003, 2.8971286E-003, 4.5390831E+002
 1.4800184E+002, 2.9407240E-003, 1.6630288E-001, 1.6162766E-001, 9.2805746E-003, 2.3678670E-003, 2.9511682E-003, 4.5312989E+002
 1.4900687E+002, 2.9608673E-003, 1.6542696E-001, 1.6195861E-001, 9.8335015E-003, 2.7277209E-003, 3.0646384E-003, 4.4893950E+002
 1.5000549E+002, 3.0178249E-003, 1.6531864E-001, 1.6198559E-001, 9.8941214E-003, 2.5983258E-003, 3.0770067E-003, 4.4982308E+002
 1.5100478E+002, 2.7159023E-003, 1.6575339E-001, 1.6214406E-001, 9.7875837E-003, 2.3567132E-003, 3.0566858E-003, 4.5575426E+002
 1.5200111E+002, 2.9239033E-003, 1.6502359E-001, 1.6211215E-001, 1.0089261E-002, 3.0841021E-003, 3.1171358E-003, 4.4558626E+002
 1.5300859E+002, 2.7740034E-003, 1.6614692E-001, 1.6189693E-001, 9.4882110E-003, 2.3066405E-003, 2.9947816E-003, 4.5473548E+002
 1.5400395E+002, 2.8795288E-003, 1.6486592E-001, 1.6227280E-001, 1.0240859E-002, 2.9458164E-003, 3.1487238E-003, 4.5331639E+002
