s,,,,,,,
Time,"O2 EXHAUST","CO2 EXHAUST","H2O EXHAUST","CO EXHAUST","FUEL EXHAUST","SOOT EXHAUST","TEMP EXHAUST"
 0.0000000E+000, 2.3099739E-001, 5.9146498E-004, 5.9412092E-003, 0.0000000E+000, 0.0000000E+000, 0.0000000E+000, 2.0000000E+001
 1.0002045E+000, 2.3099739E-001, 5.9146498E-004, 5.9412092E-003, 9.3301770E-031, 5.1096908E-030, 2.8748158E-031, 2.0461469E+001
 2.0034029E+000, 2.2268377E-001, 7.3802689E-003, 9.7746944E-003, 4.3541799E-005, 1.8197623E-004, 5.4950586E-005, 1.0024043E+002
 3.0035474E+000, 2.1829997E-001, 1.0958552E-002, 1.1806306E-002, 7.4879372E-005, 2.2497921E-004, 8.5712329E-005, 1.4109418E+002
 4.0001762E+000, 2.1387211E-001, 1.4596941E-002, 1.3853390E-002, 9.2079440E-005, 2.4718902E-004, 1.1384670E-004, 1.8145907E+002
 5.0048146E+000, 2.0982072E-001, 1.7902352E-002, 1.5727154E-002, 1.1885118E-004, 3.1081648E-004, 1.4179615E-004, 2.1691513E+002
 6.0009506E+000, 2.0376157E-001, 2.2890262E-002, 1.8528103E-002, 1.3812291E-004, 3.2473073E-004, 1.7944218E-004, 2.6404888E+002
 7.0055781E+000, 2.0046567E-001, 2.5616490E-002, 2.0048176E-002, 1.4016504E-004, 3.2540704E-004, 1.9819769E-004, 2.8769020E+002
 8.0047407E+000, 1.9499451E-001, 3.0156619E-002, 2.2572440E-002, 1.3779634E-004, 2.9204875E-004, 2.2819507E-004, 3.2494149E+002
 9.0066917E+000, 1.8961848E-001, 3.4626272E-002, 2.5052671E-002, 1.3160571E-004, 2.4311570E-004, 2.5689942E-004, 3.5877293E+002
 1.0001039E+001, 1.8533135E-001, 3.8198756E-002, 2.7029090E-002, 1.2196021E-004, 1.9568878E-004, 2.7883491E-004, 3.8009529E+002
 1.1001476E+001, 1.7980595E-001, 4.2809119E-002, 2.9575134E-002, 1.0592379E-004, 1.2929202E-004, 3.0637366E-004, 4.0679352E+002
 1.2005810E+001, 1.7548861E-001, 4.6406692E-002, 3.1564643E-002, 9.5614131E-005, 8.6291057E-005, 3.2833534E-004, 4.2213353E+002
 1.3005945E+001, 1.7090241E-001, 5.0226724E-002, 3.3678226E-002, 8.5496834E-005, 4.2813170E-005, 3.5183299E-004, 4.3922125E+002
 1.4002060E+001, 1.6753534E-001, 5.3021419E-002, 3.5230858E-002, 8.3124907E-005, 2.5736178E-005, 3.7010208E-004, 4.4597064E+002
 1.5002071E+001, 1.6511196E-001, 5.5031247E-002, 3.6348535E-002, 8.2279269E-005, 1.5559770E-005, 3.8342487E-004, 4.4931906E+002
 1.6002025E+001, 1.6354581E-001, 5.6329416E-002, 3.7070880E-002, 8.2070459E-005, 1.0272472E-005, 3.9210255E-004, 4.4638560E+002
 1.7005474E+001, 1.5967698E-001, 5.9531334E-002, 3.8855868E-002, 8.4188452E-005, 3.8319698E-006, 4.1407049E-004, 4.6189396E+002
 1.8005683E+001, 1.6025804E-001, 5.9051182E-002, 3.8587694E-002, 8.3475008E-005, 3.7664355E-006, 4.1069135E-004, 4.5358489E+002
 1.9007347E+001, 1.5860603E-001, 6.0417165E-002, 3.9350017E-002, 8.5028595E-005, 2.8286415E-006, 4.2020256E-004, 4.5753941E+002
 2.0005938E+001, 1.5778576E-001, 6.1095036E-002, 3.9728586E-002, 8.6008548E-005, 2.8128554E-006, 4.2496732E-004, 4.5265516E+002
 2.1003783E+001, 1.5611214E-001, 6.2478584E-002, 4.0500916E-002, 8.7744515E-005, 2.3173571E-006, 4.3463564E-004, 4.5418054E+002
 2.2001967E+001, 1.5513845E-001, 6.3283743E-002, 4.0950237E-002, 8.8644518E-005, 1.5994647E-006, 4.4023851E-004, 4.5770358E+002
 2.3000018E+001, 1.5340279E-001, 6.4718252E-002, 4.1751241E-002, 9.0622263E-005, 1.4516169E-006, 4.5030109E-004, 4.5552865E+002
 2.4002707E+001, 1.5431172E-001, 6.3967128E-002, 4.1331744E-002, 8.9521743E-005, 1.4588274E-006, 4.4501829E-004, 4.5350137E+002
 2.5005154E+001, 1.5276756E-001, 6.5243391E-002, 4.2044385E-002, 9.1279924E-005, 1.2174925E-006, 4.5397053E-004, 4.5629368E+002
 2.6003492E+001, 1.5326256E-001, 6.4834266E-002, 4.1815935E-002, 9.0714623E-005, 1.3092320E-006, 4.5110039E-004, 4.5340495E+002
 2.7007452E+001, 1.5190629E-001, 6.5955429E-002, 4.2441822E-002, 9.2141687E-005, 9.2607653E-007, 4.5893952E-004, 4.5954192E+002
 2.8005895E+001, 1.5321754E-001, 6.4871276E-002, 4.1836723E-002, 9.0861934E-005, 1.6478062E-006, 4.5138066E-004, 4.4839137E+002
 2.9003162E+001, 1.5199007E-001, 6.5886031E-002, 4.2403183E-002, 9.2133653E-005, 1.1282622E-006, 4.5847151E-004, 4.5787767E+002
 3.0006501E+001, 1.5111905E-001, 6.6605938E-002, 4.2805156E-002, 9.3118564E-005, 1.0301844E-006, 4.6351977E-004, 4.5691379E+002
 3.1004566E+001, 1.5046726E-001, 6.7144799E-002, 4.3105932E-002, 9.3770715E-005, 7.8381455E-007, 4.6728023E-004, 4.5692299E+002
 3.2003294E+001, 1.5040679E-001, 6.7194648E-002, 4.3133860E-002, 9.3912695E-005, 9.1338594E-007, 4.6764561E-004, 4.5805668E+002
 3.3006175E+001, 1.5119214E-001, 6.6545523E-002, 4.2771422E-002, 9.3035490E-005, 1.0673094E-006, 4.6309603E-004, 4.5169584E+002
 3.4002848E+001, 1.5126675E-001, 6.6483843E-002, 4.2736988E-002, 9.2956613E-005, 1.1220714E-006, 4.6266468E-004, 4.5012586E+002
 3.5004015E+001, 1.5068172E-001, 6.6967453E-002, 4.3006984E-002, 9.3588710E-005, 8.6500377E-007, 4.6604961E-004, 4.5359122E+002
 3.6001463E+001, 1.5159648E-001, 6.6211442E-002, 4.2584813E-002, 9.2524228E-005, 9.4517553E-007, 4.6074170E-004, 4.4868145E+002
 3.7006835E+001, 1.5102138E-001, 6.6686882E-002, 4.2850201E-002, 9.3109355E-005, 7.3126087E-007, 4.6406166E-004, 4.5085916E+002
 3.8000937E+001, 1.4869951E-001, 6.8605790E-002, 4.3921758E-002, 9.5812281E-005, 6.3753348E-007, 4.7753443E-004, 4.5464618E+002
 3.9006436E+001, 1.4946060E-001, 6.7976915E-002, 4.3570488E-002, 9.4853304E-005, 5.4377799E-007, 4.7310337E-004, 4.5661306E+002
 4.0005406E+001, 1.4852661E-001, 6.8748878E-002, 4.4001524E-002, 9.5905678E-005, 4.1246924E-007, 4.7851587E-004, 4.5776079E+002
 4.1003361E+001, 1.4817602E-001, 6.9038536E-002, 4.4163341E-002, 9.6365956E-005, 4.6064801E-007, 4.8056078E-004, 4.5980795E+002
 4.2005492E+001, 1.4989515E-001, 6.7617597E-002, 4.3369964E-002, 9.4447042E-005, 8.0534854E-007, 4.7060199E-004, 4.4992209E+002
 4.3000054E+001, 1.4764598E-001, 6.9476624E-002, 4.4407934E-002, 9.6948447E-005, 5.0643180E-007, 4.8362920E-004, 4.5705217E+002
 4.4003715E+001, 1.4731256E-001, 6.9752192E-002, 4.4561815E-002, 9.7335564E-005, 4.5805154E-007, 4.8556376E-004, 4.5878839E+002
 4.5004499E+001, 1.4747020E-001, 6.9621762E-002, 4.4489095E-002, 9.7241584E-005, 5.6711374E-007, 4.8466724E-004, 4.5826977E+002
 4.6004845E+001, 1.4804361E-001, 6.9147776E-002, 4.4224471E-002, 9.6621562E-005, 7.4106631E-007, 4.8134957E-004, 4.4741483E+002
 4.7005656E+001, 1.4941947E-001, 6.8010858E-002, 4.3589484E-002, 9.4933427E-005, 5.5855611E-007, 4.7334861E-004, 4.5060582E+002
 4.8000649E+001, 1.4878615E-001, 6.8534189E-002, 4.3881771E-002, 9.5709071E-005, 6.5616519E-007, 4.7703121E-004, 4.4853888E+002
 4.9001812E+001, 1.4667626E-001, 7.0278101E-002, 4.4855473E-002, 9.8060134E-005, 3.5179183E-007, 4.8925272E-004, 4.5951424E+002
 5.0006506E+001, 1.4710468E-001, 6.9923892E-002, 4.4657771E-002, 9.7636805E-005, 5.6202434E-007, 4.8678201E-004, 4.5146365E+002
 5.1003697E+001, 1.4775393E-001, 6.9387409E-002, 4.4358119E-002, 9.6826720E-005, 5.0767494E-007, 4.8300367E-004, 4.5588283E+002
 5.2003713E+001, 1.4772078E-001, 6.9414704E-002, 4.4373426E-002, 9.6916255E-005, 6.5811477E-007, 4.8320626E-004, 4.5600585E+002
 5.3006136E+001, 1.4682466E-001, 7.0155433E-002, 4.4786971E-002, 9.7887089E-005, 4.7425399E-007, 4.8839140E-004, 4.5515390E+002
 5.4002167E+001, 1.4721531E-001, 6.9832447E-002, 4.4606714E-002, 9.7513566E-005, 5.7183629E-007, 4.8614116E-004, 4.5187853E+002
 5.5004598E+001, 1.4622276E-001, 7.0652727E-002, 4.5064785E-002, 9.8677888E-005, 5.7104760E-007, 4.9190230E-004, 4.5185840E+002
 5.6006203E+001, 1.4720887E-001, 6.9837849E-002, 4.4609677E-002, 9.7479530E-005, 4.7959739E-007, 4.8617016E-004, 4.5302345E+002
 5.7002246E+001, 1.4683382E-001, 7.0147710E-002, 4.4782771E-002, 9.7964659E-005, 6.2969878E-007, 4.8835615E-004, 4.5192736E+002
 5.8001033E+001, 1.4659369E-001, 7.0346333E-002, 4.4893566E-002, 9.8149588E-005, 4.1682603E-007, 4.8973035E-004, 4.5126788E+002
 5.9003107E+001, 1.4531866E-001, 7.1400019E-002, 4.5482007E-002, 9.9666381E-005, 4.5561721E-007, 4.9713533E-004, 4.5209834E+002
 6.0007327E+001, 1.4674083E-001, 7.0224741E-002, 4.4825658E-002, 9.7971628E-005, 4.0616087E-007, 4.8887521E-004, 4.6128326E+002
 6.1006485E+001, 1.4525912E-001, 7.1449281E-002, 4.5509474E-002, 9.9703132E-005, 4.0753831E-007, 4.9747421E-004, 4.5496509E+002
 6.2004937E+001, 1.4629812E-001, 7.0590537E-002, 4.5029991E-002, 9.8537535E-005, 4.5449772E-007, 4.9145435E-004, 4.5544069E+002
 6.3006053E+001, 1.4544291E-001, 7.1297275E-002, 4.5424671E-002, 9.9551953E-005, 5.5773086E-007, 4.9642045E-004, 4.5530832E+002
 6.4005031E+001, 1.4555161E-001, 7.1207617E-002, 4.5374485E-002, 9.9331879E-005, 3.0872218E-007, 4.9577085E-004, 4.5665461E+002
 6.5000233E+001, 1.4598215E-001, 7.0851636E-002, 4.5175818E-002, 9.8924561E-005, 4.6604648E-007, 4.9329167E-004, 4.5492588E+002
 6.6005026E+001, 1.4421279E-001, 7.2313980E-002, 4.5992364E-002, 1.0094026E-004, 4.2157410E-007, 5.0354941E-004, 4.5791648E+002
 6.7003310E+001, 1.4536624E-001, 7.1360730E-002, 4.5460035E-002, 9.9586467E-005, 4.5985319E-007, 4.9685421E-004, 4.4919441E+002
 6.8002199E+001, 1.4457929E-001, 7.2011193E-002, 4.5823207E-002, 1.0045497E-004, 3.0179579E-007, 5.0141092E-004, 4.5863427E+002
 6.9005184E+001, 1.4640778E-001, 7.0500023E-002, 4.4979360E-002, 9.8342863E-005, 3.4597233E-007, 4.9080444E-004, 4.5474855E+002
 7.0005364E+001, 1.4654957E-001, 7.0382735E-002, 4.4913933E-002, 9.8231968E-005, 4.9702559E-007, 4.8999260E-004, 4.4811699E+002
 7.1006808E+001, 1.4602158E-001, 7.0819115E-002, 4.5157599E-002, 9.8833171E-005, 4.6624007E-007, 4.9305356E-004, 4.5219482E+002
 7.2003566E+001, 1.4458429E-001, 7.2007044E-002, 4.5820905E-002, 1.0046097E-004, 3.2549565E-007, 5.0138433E-004, 4.5680787E+002
 7.3006552E+001, 1.4576317E-001, 7.1032615E-002, 4.5276873E-002, 9.9173831E-005, 5.1751068E-007, 4.9456112E-004, 4.5334357E+002
 7.4005639E+001, 1.4531850E-001, 7.1400113E-002, 4.5482087E-002, 9.9688120E-005, 5.1362914E-007, 4.9714063E-004, 4.5116542E+002
 7.5006815E+001, 1.4660526E-001, 7.0336558E-002, 4.4888253E-002, 9.8250594E-005, 6.8470464E-007, 4.8968633E-004, 4.5060949E+002
 7.6000139E+001, 1.4501179E-001, 7.1653579E-002, 4.5623634E-002, 1.0005054E-004, 5.4457311E-007, 4.9892138E-004, 4.5311291E+002
 7.7002729E+001, 1.4577918E-001, 7.1019382E-002, 4.5269487E-002, 9.9158599E-005, 5.0145245E-007, 4.9446894E-004, 4.5026886E+002
 7.8000296E+001, 1.4581603E-001, 7.0989037E-002, 4.5252454E-002, 9.9046151E-005, 4.0669417E-007, 4.9424094E-004, 4.5729507E+002
 7.9002456E+001, 1.4573248E-001, 7.1058128E-002, 4.5291008E-002, 9.9122353E-005, 3.6468425E-007, 4.9472150E-004, 4.5468206E+002
 8.0002517E+001, 1.4519953E-001, 7.1498463E-002, 4.5536976E-002, 9.9802214E-005, 5.4260334E-007, 4.9782591E-004, 4.4760390E+002
 8.1004241E+001, 1.4583551E-001, 7.0972853E-002, 4.5243474E-002, 9.9069271E-005, 5.1627453E-007, 4.9413716E-004, 4.5212931E+002
 8.2001417E+001, 1.4641453E-001, 7.0494376E-002, 4.4976249E-002, 9.8368239E-005, 4.5510227E-007, 4.9077194E-004, 4.5369585E+002
 8.3002068E+001, 1.4585701E-001, 7.0955138E-002, 4.5233555E-002, 9.9022980E-005, 3.9420178E-007, 4.9400820E-004, 4.5446588E+002
 8.4006668E+001, 1.4506941E-001, 7.1606076E-002, 4.5597026E-002, 9.9919836E-005, 3.7584414E-007, 4.9857418E-004, 4.5184768E+002
 8.5006646E+001, 1.4522410E-001, 7.1478223E-002, 4.5525644E-002, 9.9749821E-005, 3.5218455E-007, 4.9767868E-004, 4.5772503E+002
 8.6003380E+001, 1.4527789E-001, 7.1433782E-002, 4.5500819E-002, 9.9680633E-005, 3.4392981E-007, 4.9736524E-004, 4.5701318E+002
 8.7005691E+001, 1.4552300E-001, 7.1230999E-002, 4.5387704E-002, 9.9493346E-005, 7.4955535E-007, 4.9596258E-004, 4.5196383E+002
 8.8002214E+001, 1.4561444E-001, 7.1155596E-002, 4.5345496E-002, 9.9306646E-005, 4.6974702E-007, 4.9541591E-004, 4.5291953E+002
 8.9002182E+001, 1.4442015E-001, 7.2142719E-002, 4.5896650E-002, 1.0063742E-004, 3.1005287E-007, 5.0233377E-004, 4.5820490E+002
 9.0002136E+001, 1.4563956E-001, 7.1134800E-002, 4.5333908E-002, 9.9297076E-005, 4.8604806E-007, 4.9527413E-004, 4.5092189E+002
 9.1003882E+001, 1.4637437E-001, 7.0527507E-002, 4.4994788E-002, 9.8445400E-005, 5.3290986E-007, 4.9101109E-004, 4.5779171E+002
 9.2001007E+001, 1.4660864E-001, 7.0333854E-002, 4.4886686E-002, 9.8201272E-005, 5.7529534E-007, 4.8965759E-004, 4.5056158E+002
 9.3005400E+001, 1.4634971E-001, 7.0547743E-002, 4.5006207E-002, 9.8566692E-005, 6.1449358E-007, 4.9117307E-004, 4.4895573E+002
 9.4000014E+001, 1.4750111E-001, 6.9596268E-002, 4.4474811E-002, 9.7168594E-005, 5.7743184E-007, 4.8448029E-004, 4.5050976E+002
 9.5005342E+001, 1.4590480E-001, 7.0915686E-002, 4.5211493E-002, 9.8942609E-005, 3.6602758E-007, 4.9372589E-004, 4.5719342E+002
 9.6003583E+001, 1.4493150E-001, 7.1719996E-002, 4.5660690E-002, 1.0011863E-004, 3.9722799E-007, 4.9938224E-004, 4.5145408E+002
 9.7004113E+001, 1.4403685E-001, 7.2459364E-002, 4.6073573E-002, 1.0116363E-004, 4.2322124E-007, 5.0457414E-004, 4.5406377E+002
 9.8006015E+001, 1.4405581E-001, 7.2443691E-002, 4.6064818E-002, 1.0114031E-004, 4.5230557E-007, 5.0446383E-004, 4.5374838E+002
 9.9006150E+001, 1.4418453E-001, 7.2337276E-002, 4.6005420E-002, 1.0101073E-004, 4.7024246E-007, 5.0372104E-004, 4.5934775E+002
 1.0000451E+002, 1.4468684E-001, 7.1922319E-002, 4.5773571E-002, 1.0032456E-004, 2.9952095E-007, 5.0078581E-004, 4.5863156E+002
 1.0100086E+002, 1.4485251E-001, 7.1785230E-002, 4.5697128E-002, 1.0021905E-004, 5.6931475E-007, 4.9984208E-004, 4.5067039E+002
 1.0200592E+002, 1.4447648E-001, 7.2096008E-002, 4.5870679E-002, 1.0066077E-004, 4.6934012E-007, 5.0202492E-004, 4.5227530E+002
 1.0300202E+002, 1.4476705E-001, 7.1855863E-002, 4.5736585E-002, 1.0032866E-004, 4.6135513E-007, 5.0034017E-004, 4.5411326E+002
 1.0400232E+002, 1.4567019E-001, 7.1109343E-002, 4.5319781E-002, 9.9330810E-005, 7.2937877E-007, 4.9511032E-004, 4.4438776E+002
 1.0500194E+002, 1.4524604E-001, 7.1460054E-002, 4.5515519E-002, 9.9741256E-005, 4.3241755E-007, 4.9755476E-004, 4.5370993E+002
 1.0600032E+002, 1.4561231E-001, 7.1157363E-002, 4.5346484E-002, 9.9309744E-005, 4.2867530E-007, 4.9542845E-004, 4.4868960E+002
 1.0700296E+002, 1.4523654E-001, 7.1467939E-002, 4.5519897E-002, 9.9732348E-005, 4.1096016E-007, 4.9760584E-004, 4.5093132E+002
 1.0800194E+002, 1.4594056E-001, 7.0886179E-002, 4.5194978E-002, 9.8870994E-005, 3.1208490E-007, 4.9351228E-004, 4.5467313E+002
 1.0900430E+002, 1.4404491E-001, 7.2452740E-002, 4.6069850E-002, 1.0113552E-004, 3.5651884E-007, 5.0452361E-004, 4.5448677E+002
 1.1000594E+002, 1.4378645E-001, 7.2666446E-002, 4.6189105E-002, 1.0137132E-004, 2.9095861E-007, 5.0601007E-004, 4.5709202E+002
 1.1100463E+002, 1.4549088E-001, 7.1257721E-002, 4.5402518E-002, 9.9444945E-005, 4.4720471E-007, 4.9613174E-004, 4.5064652E+002
 1.1200379E+002, 1.4547645E-001, 7.1269531E-002, 4.5409177E-002, 9.9512275E-005, 6.6384419E-007, 4.9622554E-004, 4.4905698E+002
 1.1300692E+002, 1.4604792E-001, 7.0797126E-002, 4.5145472E-002, 9.8922380E-005, 7.6388370E-007, 4.9292495E-004, 4.4133274E+002
 1.1400594E+002, 1.4564835E-001, 7.1127617E-002, 4.5329843E-002, 9.9244228E-005, 3.7348864E-007, 4.9521454E-004, 4.5450462E+002
 1.1500087E+002, 1.4512060E-001, 7.1563597E-002, 4.5573431E-002, 9.9959597E-005, 5.7033816E-007, 4.9829729E-004, 4.4877195E+002
 1.1600157E+002, 1.4657305E-001, 7.0363269E-002, 4.4903097E-002, 9.8231832E-005, 6.1516651E-007, 4.8986178E-004, 4.4708502E+002
 1.1700058E+002, 1.4564963E-001, 7.1126444E-002, 4.5329262E-002, 9.9301123E-005, 5.4737789E-007, 4.9521885E-004, 4.4950328E+002
 1.1800656E+002, 1.4440913E-001, 7.2151721E-002, 4.5901745E-002, 1.0070432E-004, 4.6174958E-007, 5.0240860E-004, 4.5141849E+002
 1.1900312E+002, 1.4596180E-001, 7.0868416E-002, 4.5185202E-002, 9.8960032E-005, 6.1928389E-007, 4.9341202E-004, 4.4790087E+002
 1.2000099E+002, 1.4572547E-001, 7.1063747E-002, 4.5294277E-002, 9.9233234E-005, 5.0266064E-007, 4.9478303E-004, 4.5091213E+002
 1.2100117E+002, 1.4541544E-001, 7.1319903E-002, 4.5437369E-002, 9.9632927E-005, 5.8145312E-007, 4.9658985E-004, 4.4697713E+002
 1.2200562E+002, 1.4449654E-001, 7.2079507E-002, 4.5861406E-002, 1.0059172E-004, 4.1943071E-007, 5.0189925E-004, 4.4959056E+002
 1.2300019E+002, 1.4525560E-001, 7.1452128E-002, 4.5511118E-002, 9.9749738E-005, 4.3330683E-007, 4.9750333E-004, 4.5315511E+002
 1.2400031E+002, 1.4526930E-001, 7.1440760E-002, 4.5504792E-002, 9.9751550E-005, 5.3526095E-007, 4.9742733E-004, 4.4709611E+002
 1.2500450E+002, 1.4417917E-001, 7.2341751E-002, 4.6007876E-002, 1.0098309E-004, 4.6590099E-007, 5.0374519E-004, 4.5650027E+002
 1.2600179E+002, 1.4517485E-001, 7.1518568E-002, 4.5548409E-002, 9.9993527E-005, 8.6155763E-007, 4.9800201E-004, 4.4682795E+002
 1.2700226E+002, 1.4387505E-001, 7.2593122E-002, 4.6148233E-002, 1.0132635E-004, 3.9761515E-007, 5.0550775E-004, 4.5386742E+002
 1.2800531E+002, 1.4471924E-001, 7.1895429E-002, 4.5758629E-002, 1.0034500E-004, 4.7807548E-007, 5.0060952E-004, 4.5219404E+002
 1.2900227E+002, 1.4500909E-001, 7.1655816E-002, 4.5624877E-002, 1.0004934E-004, 5.2327510E-007, 4.9893615E-004, 4.5607770E+002
 1.3000006E+002, 1.4538375E-001, 7.1346110E-002, 4.5451986E-002, 9.9656017E-005, 5.8740911E-007, 4.9677090E-004, 4.5172490E+002
 1.3100375E+002, 1.4578002E-001, 7.1018630E-002, 4.5269099E-002, 9.9182608E-005, 5.9419148E-007, 4.9446903E-004, 4.4819126E+002
 1.3200405E+002, 1.4554810E-001, 7.1210360E-002, 4.5376120E-002, 9.9417363E-005, 5.4080567E-007, 4.9580761E-004, 4.5221609E+002
 1.3300019E+002, 1.4490357E-001, 7.1743090E-002, 4.5673573E-002, 1.0014070E-004, 3.9025634E-007, 4.9954214E-004, 4.5369747E+002
 1.3400485E+002, 1.4511573E-001, 7.1567751E-002, 4.5575655E-002, 9.9890024E-005, 4.4115465E-007, 4.9831028E-004, 4.5442077E+002
 1.3500514E+002, 1.4437945E-001, 7.2176240E-002, 4.5915448E-002, 1.0074752E-004, 4.5558143E-007, 5.0258260E-004, 4.5326304E+002
 1.3600449E+002, 1.4528237E-001, 7.1429878E-002, 4.5498755E-002, 9.9768125E-005, 7.0223119E-007, 4.9735777E-004, 4.4878284E+002
 1.3700440E+002, 1.4503241E-001, 7.1636634E-002, 4.5614099E-002, 9.9969843E-005, 4.3696040E-007, 4.9879022E-004, 4.5523523E+002
 1.3800363E+002, 1.4529125E-001, 7.1422748E-002, 4.5494638E-002, 9.9650488E-005, 4.1840549E-007, 4.9728464E-004, 4.5017215E+002
 1.3900372E+002, 1.4525879E-001, 7.1449397E-002, 4.5509639E-002, 9.9782483E-005, 6.4923950E-007, 4.9749200E-004, 4.5229119E+002
 1.4000628E+002, 1.4478264E-001, 7.1843006E-002, 4.5729382E-002, 1.0029229E-004, 4.7013083E-007, 5.0024598E-004, 4.5329483E+002
 1.4100056E+002, 1.4482708E-001, 7.1806203E-002, 4.5708869E-002, 1.0027151E-004, 6.2233490E-007, 4.9999425E-004, 4.5242910E+002
 1.4200666E+002, 1.4463387E-001, 7.1965972E-002, 4.5798024E-002, 1.0044668E-004, 4.9920197E-007, 5.0110530E-004, 4.5392339E+002
 1.4300238E+002, 1.4553200E-001, 7.1223704E-002, 4.5383548E-002, 9.9416987E-005, 4.7313032E-007, 4.9589719E-004, 4.4915658E+002
 1.4400558E+002, 1.4408534E-001, 7.2419344E-002, 4.6051174E-002, 1.0106760E-004, 4.0426858E-007, 5.0428466E-004, 4.5355879E+002
 1.4500175E+002, 1.4490045E-001, 7.1745735E-002, 4.5674997E-002, 1.0010275E-004, 3.4368977E-007, 4.9955178E-004, 4.5277669E+002
 1.4600578E+002, 1.4424122E-001, 7.2290543E-002, 4.5979231E-002, 1.0087213E-004, 3.6857907E-007, 5.0337733E-004, 4.5645118E+002
 1.4700455E+002, 1.4476977E-001, 7.1853613E-002, 4.5735327E-002, 1.0032462E-004, 5.0127147E-007, 5.0032419E-004, 4.4931900E+002
 1.4800695E+002, 1.4423159E-001, 7.2298460E-002, 4.5983694E-002, 1.0091647E-004, 3.6950756E-007, 5.0344003E-004, 4.5184625E+002
 1.4900637E+002, 1.4404318E-001, 7.2454150E-002, 4.6070635E-002, 1.0113622E-004, 4.6120264E-007, 5.0453323E-004, 4.5543244E+002
 1.5000210E+002, 1.4569972E-001, 7.1084998E-002, 4.5306151E-002, 9.9269368E-005, 6.4957334E-007, 4.9493357E-004, 4.4839781E+002
 1.5100524E+002, 1.4447730E-001, 7.2095330E-002, 4.5870307E-002, 1.0066520E-004, 4.6944196E-007, 5.0202131E-004, 4.5433155E+002
 1.5200183E+002, 1.4473575E-001, 7.1881712E-002, 4.5751035E-002, 1.0037718E-004, 4.7626406E-007, 5.0052425E-004, 4.5123771E+002
 1.5300095E+002, 1.4510810E-001, 7.1573857E-002, 4.5579223E-002, 1.0002298E-004, 5.9971929E-007, 4.9837981E-004, 4.5190420E+002
 1.5400352E+002, 1.4463310E-001, 7.1966608E-002, 4.5798404E-002, 1.0046631E-004, 3.8900777E-007, 5.0111378E-004, 4.5522097E+002
