s,,,,,,,
Time,"O2 EXHAUST","CO2 EXHAUST","H2O EXHAUST","CO EXHAUST","FUEL EXHAUST","SOOT EXHAUST","TEMP EXHAUST"
 0.0000000E+000, 2.3099739E-001, 5.9146498E-004, 5.9412092E-003, 0.0000000E+000, 0.0000000E+000, 0.0000000E+000, 2.0000000E+001
 1.0022665E+000, 2.3099739E-001, 5.9146498E-004, 5.9412092E-003, 4.3002634E-031, 1.7737257E-030, 1.1211874E-030, 2.0492200E+001
 2.0031100E+000, 2.2527549E-001, 5.7884953E-003, 7.4437183E-003, 1.4471671E-005, 5.9676801E-004, 3.4564460E-004, 7.6114135E+001
 3.0056086E+000, 2.2237468E-001, 8.4630144E-003, 8.2343270E-003, 5.0114594E-005, 5.6567963E-004, 5.2955446E-004, 9.9916219E+001
 4.0039633E+000, 2.1654374E-001, 1.3811635E-002, 9.7966512E-003, 9.0189184E-005, 7.9697189E-004, 8.9066555E-004, 1.5060873E+002
 5.0023716E+000, 2.1409579E-001, 1.6034527E-002, 1.0449847E-002, 1.1464234E-004, 9.5811756E-004, 1.0424183E-003, 1.7194057E+002
 6.0062763E+000, 2.1061362E-001, 1.9234577E-002, 1.1383666E-002, 1.3676304E-004, 1.0784260E-003, 1.2580705E-003, 1.9998575E+002
 7.0013540E+000, 2.0598875E-001, 2.3497957E-002, 1.2626596E-002, 1.6356828E-004, 1.1907830E-003, 1.5448072E-003, 2.3596087E+002
 8.0055281E+000, 2.0356510E-001, 2.5749157E-002, 1.3280463E-002, 1.7270441E-004, 1.1970775E-003, 1.6951352E-003, 2.5096735E+002
 9.0068254E+000, 1.9664866E-001, 3.2215682E-002, 1.5155712E-002, 1.9184616E-004, 1.0564839E-003, 2.1254205E-003, 2.9102706E+002
 1.0003971E+001, 1.8987559E-001, 3.8559151E-002, 1.6989242E-002, 1.9967235E-004, 9.2567579E-004, 2.5451696E-003, 3.2422417E+002
 1.1000432E+001, 1.8475910E-001, 4.3358177E-002, 1.8375061E-002, 2.0301522E-004, 8.0781179E-004, 2.8621689E-003, 3.4832356E+002
 1.2008287E+001, 1.7929462E-001, 4.8489983E-002, 1.9854924E-002, 2.0274138E-004, 6.7270239E-004, 3.2003244E-003, 3.6653417E+002
 1.3003071E+001, 1.7369279E-001, 5.3754737E-002, 2.1372063E-002, 2.0044129E-004, 5.2656409E-004, 3.5468072E-003, 3.8374162E+002
 1.4006329E+001, 1.7007697E-001, 5.7157278E-002, 2.2350455E-002, 1.9509594E-004, 4.3280705E-004, 3.7699070E-003, 3.9168273E+002
 1.5007575E+001, 1.6337868E-001, 6.3446350E-002, 2.4161803E-002, 1.9095470E-004, 2.9393130E-004, 4.1835045E-003, 4.1026564E+002
 1.6000664E+001, 1.5980290E-001, 6.6795326E-002, 2.5128085E-002, 1.9212125E-004, 2.4057093E-004, 4.4044720E-003, 4.1075690E+002
 1.7004780E+001, 1.5457067E-001, 7.1690369E-002, 2.6541466E-002, 1.9582284E-004, 1.7650624E-004, 4.7278784E-003, 4.1922643E+002
 1.8008704E+001, 1.5087884E-001, 7.5145929E-002, 2.7538325E-002, 1.9681876E-004, 1.3220281E-004, 4.9558343E-003, 4.2519617E+002
 1.9001831E+001, 1.4598141E-001, 7.9719249E-002, 2.8859818E-002, 2.0240760E-004, 1.0032950E-004, 5.2584430E-003, 4.2868489E+002
 2.0005930E+001, 1.4273058E-001, 8.2752819E-002, 2.9737054E-002, 2.0736357E-004, 8.2384985E-005, 5.4594371E-003, 4.3026063E+002
 2.1006476E+001, 1.3913403E-001, 8.6113102E-002, 3.0707338E-002, 2.1019012E-004, 5.7617646E-005, 5.6815068E-003, 4.3352118E+002
 2.2008104E+001, 1.3595681E-001, 8.9075529E-002, 3.1564452E-002, 2.1592268E-004, 4.6738572E-005, 5.8779789E-003, 4.3443503E+002
 2.3007121E+001, 1.3362027E-001, 9.1253641E-002, 3.2194769E-002, 2.2038109E-004, 3.9601120E-005, 6.0224864E-003, 4.3370349E+002
 2.4007543E+001, 1.3010121E-001, 9.4535813E-002, 3.3143752E-002, 2.2557466E-004, 2.8959205E-005, 6.2399162E-003, 4.3608266E+002
 2.5005221E+001, 1.2687483E-001, 9.7542871E-002, 3.4013831E-002, 2.3153911E-004, 2.2693819E-005, 6.4393797E-003, 4.3770616E+002
 2.6007425E+001, 1.2479743E-001, 9.9479064E-002, 3.4573938E-002, 2.3516911E-004, 1.9764176E-005, 6.5677656E-003, 4.3655227E+002
 2.7005523E+001, 1.2181950E-001, 1.0225379E-001, 3.5376854E-002, 2.4081311E-004, 1.6790411E-005, 6.7518485E-003, 4.3704963E+002
 2.8000248E+001, 1.1855830E-001, 1.0528906E-001, 3.6256597E-002, 2.4963145E-004, 1.5389078E-005, 6.9537831E-003, 4.3678102E+002
 2.9008432E+001, 1.1600240E-001, 1.0766714E-001, 3.6946183E-002, 2.5713173E-004, 1.4620526E-005, 7.1121225E-003, 4.3732018E+002
 3.0000815E+001, 1.1312004E-001, 1.1035096E-001, 3.7723622E-002, 2.6411356E-004, 1.2326752E-005, 7.2905007E-003, 4.3995296E+002
 3.1000426E+001, 1.1118690E-001, 1.1214375E-001, 3.8246039E-002, 2.7445564E-004, 1.4135731E-005, 7.4108750E-003, 4.3753333E+002
 3.2008641E+001, 1.0926245E-001, 1.1393576E-001, 3.8765025E-002, 2.7890655E-004, 1.3167463E-005, 7.5299348E-003, 4.3719317E+002
 3.3000427E+001, 1.0656430E-001, 1.1642911E-001, 3.9495668E-002, 3.0077440E-004, 1.7650200E-005, 7.6989518E-003, 4.3838639E+002
 3.4011090E+001, 1.0491836E-001, 1.1794431E-001, 3.9942290E-002, 3.1885486E-004, 2.2163576E-005, 7.8026907E-003, 4.3602728E+002
 3.5002427E+001, 1.0252470E-001, 1.2014298E-001, 4.0592787E-002, 3.4949983E-004, 2.8170871E-005, 7.9541687E-003, 4.3801107E+002
 3.6005043E+001, 1.0133234E-001, 1.2126171E-001, 4.0912762E-002, 3.4493035E-004, 2.7339486E-005, 8.0269202E-003, 4.3453429E+002
 3.7007687E+001, 9.8850323E-002, 1.2353825E-001, 4.1587566E-002, 3.7901108E-004, 3.6647284E-005, 8.1842672E-003, 4.3487583E+002
 3.8005776E+001, 9.7300796E-002, 1.2496251E-001, 4.2008544E-002, 3.9811929E-004, 3.9958017E-005, 8.2822329E-003, 4.3726606E+002
 3.9008420E+001, 9.5117264E-002, 1.2696661E-001, 4.2601928E-002, 4.2690877E-004, 4.8265924E-005, 8.4204897E-003, 4.3683089E+002
 4.0010487E+001, 9.2598160E-002, 1.2927055E-001, 4.3288113E-002, 4.6735202E-004, 5.7350789E-005, 8.5810068E-003, 4.3613612E+002
 4.1005662E+001, 9.1108575E-002, 1.3062827E-001, 4.3694028E-002, 4.9407533E-004, 6.9302272E-005, 8.6762202E-003, 4.3822379E+002
 4.2008894E+001, 9.0466916E-002, 1.3122025E-001, 4.3867580E-002, 4.9945092E-004, 7.3938109E-005, 8.7163885E-003, 4.3687493E+002
 4.3000534E+001, 8.8338292E-002, 1.3316949E-001, 4.4446337E-002, 5.3046208E-004, 8.7128579E-005, 8.8515059E-003, 4.3618011E+002
 4.4003089E+001, 8.6660272E-002, 1.3468327E-001, 4.4906637E-002, 5.7437514E-004, 1.0017701E-004, 8.9606907E-003, 4.3478160E+002
 4.5005323E+001, 8.4075951E-002, 1.3705363E-001, 4.5608651E-002, 6.0882145E-004, 1.1539178E-004, 9.1242999E-003, 4.3687504E+002
 4.6000376E+001, 8.2300012E-002, 1.3865019E-001, 4.6096486E-002, 6.5949748E-004, 1.3272808E-004, 9.2403903E-003, 4.3972325E+002
 4.7009332E+001, 8.1516060E-002, 1.3938069E-001, 4.6307565E-002, 6.6045491E-004, 1.3454602E-004, 9.2887404E-003, 4.3882319E+002
 4.8009601E+001, 7.9520158E-002, 1.4117701E-001, 4.6855387E-002, 7.1555078E-004, 1.5447455E-004, 9.4189448E-003, 4.3789627E+002
 4.9010216E+001, 7.8203821E-002, 1.4238027E-001, 4.7213742E-002, 7.3668266E-004, 1.6222894E-004, 9.5027787E-003, 4.3922558E+002
 5.0005529E+001, 7.7178193E-002, 1.4329376E-001, 4.7496677E-002, 7.7268885E-004, 1.7610675E-004, 9.5707050E-003, 4.3925782E+002
 5.1010130E+001, 7.5423314E-002, 1.4493246E-001, 4.7968281E-002, 7.7138544E-004, 1.8233480E-004, 9.6784270E-003, 4.3857435E+002
 5.2005757E+001, 7.4671752E-002, 1.4562404E-001, 4.8171166E-002, 7.7797984E-004, 1.9449418E-004, 9.7254211E-003, 4.3965847E+002
 5.3009420E+001, 7.2092289E-002, 1.4796063E-001, 4.8877937E-002, 8.3886621E-004, 2.0519920E-004, 9.8924731E-003, 4.3946718E+002
 5.4007986E+001, 7.0091875E-002, 1.4980582E-001, 4.9420631E-002, 8.5864023E-004, 2.0531225E-004, 1.0018324E-002, 4.4085179E+002
 5.5001333E+001, 6.8820136E-002, 1.5094207E-001, 4.9771713E-002, 9.0178749E-004, 2.1400493E-004, 1.0102462E-002, 4.4184081E+002
 5.6008672E+001, 6.7013325E-002, 1.5261993E-001, 5.0257679E-002, 9.0623578E-004, 2.3296835E-004, 1.0213999E-002, 4.4319001E+002
 5.7009846E+001, 6.6058227E-002, 1.5346329E-001, 5.0523083E-002, 9.4708512E-004, 2.4101799E-004, 1.0278341E-002, 4.4253643E+002
 5.8006938E+001, 6.4684169E-002, 1.5470658E-001, 5.0898884E-002, 9.7907946E-004, 2.5545755E-004, 1.0367143E-002, 4.4431709E+002
 5.9005007E+001, 6.3841392E-002, 1.5548506E-001, 5.1126833E-002, 9.8562234E-004, 2.5989506E-004, 1.0419853E-002, 4.4297646E+002
 6.0000683E+001, 6.2749906E-002, 1.5650590E-001, 5.1420572E-002, 9.8465235E-004, 2.5717087E-004, 1.0486925E-002, 4.4270565E+002
 6.1005829E+001, 6.1755944E-002, 1.5741263E-001, 5.1691540E-002, 1.0022596E-003, 2.6280203E-004, 1.0550460E-002, 4.4200490E+002
 6.2011005E+001, 6.0500502E-002, 1.5854910E-001, 5.2035211E-002, 1.0317594E-003, 2.7227129E-004, 1.0631687E-002, 4.4243594E+002
 6.3007564E+001, 5.9170631E-002, 1.5978465E-001, 5.2394057E-002, 1.0367209E-003, 2.7459887E-004, 1.0714181E-002, 4.4260259E+002
 6.4002676E+001, 5.8015401E-002, 1.6084749E-001, 5.2707639E-002, 1.0499472E-003, 2.7782054E-004, 1.0787066E-002, 4.4276544E+002
 6.5003059E+001, 5.6123128E-002, 1.6254538E-001, 5.3229399E-002, 1.1091231E-003, 2.8394419E-004, 1.0911657E-002, 4.4348659E+002
 6.6002575E+001, 5.5048877E-002, 1.6353118E-001, 5.3520766E-002, 1.1224019E-003, 2.9348381E-004, 1.0979476E-002, 4.4534958E+002
 6.7004219E+001, 5.4043670E-002, 1.6446398E-001, 5.3791146E-002, 1.1252718E-003, 3.0506040E-004, 1.1041569E-002, 4.4605570E+002
 6.8010458E+001, 5.2736371E-002, 1.6562660E-001, 5.4153175E-002, 1.1745247E-003, 3.1307936E-004, 1.1128754E-002, 4.4736926E+002
 6.9010034E+001, 5.1948571E-002, 1.6636939E-001, 5.4363254E-002, 1.1672134E-003, 3.1835041E-004, 1.1176142E-002, 4.4779757E+002
 7.0005811E+001, 5.0934012E-002, 1.6728668E-001, 5.4642064E-002, 1.1935347E-003, 3.1809303E-004, 1.1242241E-002, 4.4610791E+002
 7.1007159E+001, 4.9330707E-002, 1.6875111E-001, 5.5079424E-002, 1.2214182E-003, 3.2144974E-004, 1.1344736E-002, 4.4819189E+002
 7.2011176E+001, 4.9659744E-002, 1.6848100E-001, 5.4983648E-002, 1.1886903E-003, 3.2279181E-004, 1.1319916E-002, 4.4631285E+002
 7.3000916E+001, 4.7394280E-002, 1.7053605E-001, 5.5604525E-002, 1.2408281E-003, 3.2584158E-004, 1.1466537E-002, 4.4647120E+002
 7.4011880E+001, 4.6044053E-002, 1.7176774E-001, 5.5972878E-002, 1.2652279E-003, 3.3117822E-004, 1.1552946E-002, 4.5006069E+002
 7.5000479E+001, 4.5969180E-002, 1.7181068E-001, 5.5997357E-002, 1.2874228E-003, 3.3860119E-004, 1.1560535E-002, 4.4818876E+002
 7.6007554E+001, 4.5478722E-002, 1.7228832E-001, 5.6125434E-002, 1.2698919E-003, 3.4018702E-004, 1.1588256E-002, 4.4848248E+002
 7.7001414E+001, 4.4217422E-002, 1.7342530E-001, 5.6473013E-002, 1.3061276E-003, 3.3697089E-004, 1.1670960E-002, 4.4814741E+002
 7.8008988E+001, 4.2430527E-002, 1.7502450E-001, 5.6966433E-002, 1.3655015E-003, 3.4341200E-004, 1.1789089E-002, 4.5090202E+002
 7.9007677E+001, 4.2367200E-002, 1.7508072E-001, 5.6984056E-002, 1.3680901E-003, 3.4318529E-004, 1.1793349E-002, 4.4910132E+002
 8.0006457E+001, 4.1501069E-002, 1.7587075E-001, 5.7220054E-002, 1.3832734E-003, 3.4936022E-004, 1.1848674E-002, 4.4981151E+002
 8.1004907E+001, 4.0619355E-002, 1.7676101E-001, 5.7445703E-002, 1.3265761E-003, 3.3923666E-004, 1.1895190E-002, 4.5014144E+002
 8.2008059E+001, 3.9858329E-002, 1.7742207E-001, 5.7659374E-002, 1.3688840E-003, 3.4461163E-004, 1.1947831E-002, 4.4993861E+002
 8.3005963E+001, 3.8706839E-002, 1.7846441E-001, 5.7975210E-002, 1.3970291E-003, 3.4766422E-004, 1.2022563E-002, 4.5125124E+002
 8.4005071E+001, 3.8277379E-002, 1.7886918E-001, 5.8089462E-002, 1.3926635E-003, 3.5327341E-004, 1.2048304E-002, 4.5184855E+002
 8.5005248E+001, 3.7072420E-002, 1.7997382E-001, 5.8419374E-002, 1.4135149E-003, 3.3763092E-004, 1.2125577E-002, 4.5072451E+002
 8.6005390E+001, 3.6969326E-002, 1.8001944E-001, 5.8455110E-002, 1.4549488E-003, 3.5281295E-004, 1.2137469E-002, 4.5092582E+002
 8.7009175E+001, 3.5845201E-002, 1.8102782E-001, 5.8764651E-002, 1.4895319E-003, 3.6072797E-004, 1.2211343E-002, 4.5162119E+002
 8.8006648E+001, 3.5161664E-002, 1.8166034E-001, 5.8949931E-002, 1.4949168E-003, 3.5867954E-004, 1.2254185E-002, 4.5178003E+002
 8.9005871E+001, 3.5135380E-002, 1.8173030E-001, 5.8949578E-002, 1.4573024E-003, 3.4746632E-004, 1.2250730E-002, 4.5143311E+002
 9.0004273E+001, 3.4075197E-002, 1.8268410E-001, 5.9240818E-002, 1.4871974E-003, 3.5642666E-004, 1.2320002E-002, 4.5187793E+002
 9.1001602E+001, 3.3166129E-002, 1.8335030E-001, 5.9518272E-002, 1.6434950E-003, 3.7479614E-004, 1.2397424E-002, 4.5160344E+002
 9.2007534E+001, 3.2208415E-002, 1.8437966E-001, 5.9752525E-002, 1.5291414E-003, 3.5431215E-004, 1.2440745E-002, 4.5375702E+002
 9.3011974E+001, 3.1935099E-002, 1.8462082E-001, 5.9828013E-002, 1.5401340E-003, 3.6116434E-004, 1.2458996E-002, 4.5350310E+002
 9.4002264E+001, 3.0974200E-002, 1.8542560E-001, 6.0103759E-002, 1.6201650E-003, 3.6558105E-004, 1.2529197E-002, 4.5334438E+002
 9.5003950E+001, 3.1138032E-002, 1.8533511E-001, 6.0047944E-002, 1.5658136E-003, 3.6388966E-004, 1.2511579E-002, 4.5381562E+002
 9.6009283E+001, 2.9773131E-002, 1.8647096E-001, 6.0441084E-002, 1.6859969E-003, 3.6954232E-004, 1.2612209E-002, 4.5400937E+002
 9.7004732E+001, 2.9382586E-002, 1.8681070E-001, 6.0548830E-002, 1.7041387E-003, 3.8886566E-004, 1.2638492E-002, 4.5429623E+002
 9.8000186E+001, 2.8562027E-002, 1.8751213E-001, 6.0782736E-002, 1.7620352E-003, 3.8224278E-004, 1.2697135E-002, 4.5473448E+002
 9.9002474E+001, 2.8576674E-002, 1.8753112E-001, 6.0773325E-002, 1.7347607E-003, 3.7534098E-004, 1.2692538E-002, 4.5451477E+002
 1.0000108E+002, 2.7604027E-002, 1.8844793E-001, 6.1032842E-002, 1.7261407E-003, 3.8099647E-004, 1.2751113E-002, 4.5410398E+002
 1.0100479E+002, 2.6873056E-002, 1.8906532E-001, 6.1242700E-002, 1.7843581E-003, 3.7446971E-004, 1.2804286E-002, 4.5498588E+002
 1.0200718E+002, 2.6078568E-002, 1.8973079E-001, 6.1470528E-002, 1.8502136E-003, 3.7950953E-004, 1.2862266E-002, 4.5679739E+002
 1.0300592E+002, 2.6159740E-002, 1.8972754E-001, 6.1435770E-002, 1.7883192E-003, 3.7117625E-004, 1.2848780E-002, 4.5540477E+002
 1.0400567E+002, 2.5126990E-002, 1.9057037E-001, 6.1735403E-002, 1.8920568E-003, 3.8459381E-004, 1.2926573E-002, 4.5679104E+002
 1.0501150E+002, 2.4952469E-002, 1.9073296E-001, 6.1782262E-002, 1.8920576E-003, 3.8625307E-004, 1.2937289E-002, 4.5544229E+002
 1.0600954E+002, 2.5020459E-002, 1.9072542E-001, 6.1754223E-002, 1.8447015E-003, 3.7783544E-004, 1.2926637E-002, 4.5438943E+002
 1.0700197E+002, 2.4300104E-002, 1.9135813E-001, 6.1956125E-002, 1.8803442E-003, 3.7398449E-004, 1.2975979E-002, 4.5463609E+002
 1.0801024E+002, 2.3733502E-002, 1.9182489E-001, 6.2118631E-002, 1.9316187E-003, 3.9096796E-004, 1.3017738E-002, 4.5535140E+002
 1.0900585E+002, 2.4002952E-002, 1.9152365E-001, 6.2053494E-002, 1.9714679E-003, 4.0998160E-004, 1.3006429E-002, 4.5512151E+002
 1.1000509E+002, 2.3017892E-002, 1.9247488E-001, 6.2315313E-002, 1.9485998E-003, 3.8533105E-004, 1.3064217E-002, 4.5382561E+002
 1.1100436E+002, 2.2562882E-002, 1.9280416E-001, 6.2455633E-002, 2.0316114E-003, 3.8856379E-004, 1.3103718E-002, 4.5456192E+002
 1.1200896E+002, 2.1932588E-002, 1.9339067E-001, 6.2625463E-002, 2.0330311E-003, 3.9029067E-004, 1.3142678E-002, 4.5665721E+002
 1.1300383E+002, 2.1750822E-002, 1.9336859E-001, 6.2709794E-002, 2.1988797E-003, 4.0067707E-004, 1.3176786E-002, 4.5607463E+002
 1.1400404E+002, 2.0910599E-002, 1.9419507E-001, 6.2926818E-002, 2.1602370E-003, 4.1094699E-004, 1.3222970E-002, 4.5672432E+002
 1.1500963E+002, 2.1094169E-002, 1.9406669E-001, 6.2869249E-002, 2.1226542E-003, 4.1061972E-004, 1.3206451E-002, 4.5670314E+002
 1.1600970E+002, 2.0794982E-002, 1.9428209E-001, 6.2963139E-002, 2.1806533E-003, 3.9981923E-004, 1.3233083E-002, 4.5572105E+002
 1.1700943E+002, 2.0772346E-002, 1.9410397E-001, 6.3004698E-002, 2.3506637E-003, 4.2267683E-004, 1.3257800E-002, 4.5539237E+002
 1.1800826E+002, 2.0236793E-002, 1.9474231E-001, 6.3124854E-002, 2.2337680E-003, 4.0105275E-004, 1.3274804E-002, 4.5568892E+002
 1.1900384E+002, 1.9952140E-002, 1.9504086E-001, 6.3195759E-002, 2.2060264E-003, 3.9615127E-004, 1.3288531E-002, 4.5592298E+002
 1.2001114E+002, 1.9225992E-002, 1.9539304E-001, 6.3449542E-002, 2.4846460E-003, 4.3034882E-004, 1.3371487E-002, 4.5661853E+002
 1.2100212E+002, 1.9157564E-002, 1.9567414E-001, 6.3427376E-002, 2.2959940E-003, 4.2300044E-004, 1.3349561E-002, 4.5905526E+002
 1.2200950E+002, 1.9206531E-002, 1.9545661E-001, 6.3445282E-002, 2.4434563E-003, 4.3810205E-004, 1.3366845E-002, 4.5761992E+002
 1.2300267E+002, 1.8992108E-002, 1.9575406E-001, 6.3487235E-002, 2.3631703E-003, 4.1274566E-004, 1.3369233E-002, 4.5603001E+002
 1.2400089E+002, 1.8834712E-002, 1.9574289E-001, 6.3557956E-002, 2.4984648E-003, 4.2895180E-004, 1.3397508E-002, 4.5662185E+002
 1.2500775E+002, 1.8587186E-002, 1.9613801E-001, 6.3595326E-002, 2.3584330E-003, 4.1067590E-004, 1.3393521E-002, 4.5693783E+002
 1.2600044E+002, 1.7960201E-002, 1.9666354E-001, 6.3775413E-002, 2.4107114E-003, 4.1134486E-004, 1.3439367E-002, 4.5682329E+002
 1.2700051E+002, 1.7392661E-002, 1.9711006E-001, 6.3943699E-002, 2.4830675E-003, 4.1456845E-004, 1.3484311E-002, 4.5801141E+002
 1.2800254E+002, 1.7150939E-002, 1.9733358E-001, 6.4008396E-002, 2.4836350E-003, 4.2167603E-004, 1.3499164E-002, 4.5620147E+002
 1.2900459E+002, 1.6552449E-002, 1.9753513E-001, 6.4236142E-002, 2.7937901E-003, 4.3454058E-004, 1.3578954E-002, 4.5724548E+002
 1.3001164E+002, 1.7013131E-002, 1.9723400E-001, 6.4088624E-002, 2.6827332E-003, 4.2490388E-004, 1.3535293E-002, 4.5575825E+002
 1.3100479E+002, 1.6468071E-002, 1.9770079E-001, 6.4243041E-002, 2.7190630E-003, 4.2774889E-004, 1.3573848E-002, 4.5710544E+002
 1.3200661E+002, 1.6503586E-002, 1.9786821E-001, 6.4197410E-002, 2.5472831E-003, 4.0812986E-004, 1.3548047E-002, 4.5839084E+002
 1.3300784E+002, 1.6155470E-002, 1.9799983E-001, 6.4327998E-002, 2.7165831E-003, 4.0773799E-004, 1.3593025E-002, 4.5796396E+002
 1.3400625E+002, 1.5210542E-002, 1.9850291E-001, 6.4650581E-002, 3.0414676E-003, 4.4424999E-004, 1.3695846E-002, 4.5735379E+002
 1.3500564E+002, 1.6014553E-002, 1.9801723E-001, 6.4384027E-002, 2.8101619E-003, 4.4115164E-004, 1.3614238E-002, 4.5705578E+002
 1.3600737E+002, 1.5386328E-002, 1.9858563E-001, 6.4557310E-002, 2.8273449E-003, 4.3441165E-004, 1.3655384E-002, 4.5700427E+002
 1.3700629E+002, 1.5118736E-002, 1.9857525E-001, 6.4676493E-002, 3.0508436E-003, 4.5655965E-004, 1.3702625E-002, 4.5777375E+002
 1.3800134E+002, 1.5195753E-002, 1.9850158E-001, 6.4655472E-002, 3.0512986E-003, 4.6230393E-004, 1.3697867E-002, 4.5696693E+002
 1.3900401E+002, 1.5016653E-002, 1.9871635E-001, 6.4695009E-002, 3.0103799E-003, 4.5871651E-004, 1.3703247E-002, 4.5775814E+002
 1.4000228E+002, 1.4164231E-002, 1.9934377E-001, 6.4956331E-002, 3.1574493E-003, 4.6060092E-004, 1.3776134E-002, 4.5990646E+002
 1.4100735E+002, 1.5388167E-002, 1.9854725E-001, 6.4562826E-002, 2.8577378E-003, 4.4333501E-004, 1.3659371E-002, 4.5800490E+002
 1.4200450E+002, 1.5023780E-002, 1.9879553E-001, 6.4677725E-002, 2.9369892E-003, 4.4966830E-004, 1.3692729E-002, 4.5678534E+002
 1.4300136E+002, 1.3821523E-002, 1.9958142E-001, 6.5065642E-002, 3.2318905E-003, 4.4793147E-004, 1.3807759E-002, 4.5696908E+002
 1.4401177E+002, 1.4155102E-002, 1.9951904E-001, 6.4929868E-002, 3.0164912E-003, 4.3451455E-004, 1.3757460E-002, 4.5678816E+002
 1.4500866E+002, 1.4329698E-002, 1.9904996E-001, 6.4938202E-002, 3.2790943E-003, 4.6186258E-004, 1.3782855E-002, 4.5782542E+002
 1.4600539E+002, 1.3495940E-002, 1.9971309E-001, 6.5180915E-002, 3.3736861E-003, 4.9540863E-004, 1.3846843E-002, 4.5758609E+002
 1.4700226E+002, 1.3685464E-002, 1.9962387E-001, 6.5114445E-002, 3.2990925E-003, 4.8392055E-004, 1.3824968E-002, 4.5861016E+002
 1.4801054E+002, 1.3886795E-002, 1.9936878E-001, 6.5074637E-002, 3.3605607E-003, 4.6933699E-004, 1.3821336E-002, 4.5523508E+002
 1.4901000E+002, 1.3406388E-002, 1.9974450E-001, 6.5218530E-002, 3.4255354E-003, 4.6280254E-004, 1.3860030E-002, 4.5582692E+002
 1.5000078E+002, 1.3907457E-002, 1.9939872E-001, 6.5059037E-002, 3.3163472E-003, 4.7537003E-004, 1.3813828E-002, 4.5652456E+002
 1.5100927E+002, 1.3061739E-002, 1.9996087E-001, 6.5330689E-002, 3.5165893E-003, 4.6910503E-004, 1.3893815E-002, 4.5656644E+002
 1.5200499E+002, 1.3387123E-002, 2.0011350E-001, 6.5159799E-002, 3.1235505E-003, 4.3566895E-004, 1.3819595E-002, 4.5623019E+002
 1.5301011E+002, 1.3001970E-002, 2.0026840E-001, 6.5300834E-002, 3.2998453E-003, 4.5060964E-004, 1.3867607E-002, 4.5599747E+002
 1.5400800E+002, 1.2706716E-002, 2.0033237E-001, 6.5418032E-002, 3.4805724E-003, 4.7446983E-004, 1.3910576E-002, 4.5742602E+002
