s,,,,,,,
Time,"O2 EXHAUST","CO2 EXHAUST","H2O EXHAUST","CO EXHAUST","FUEL EXHAUST","SOOT EXHAUST","TEMP EXHAUST"
 0.0000000E+000, 2.3099739E-001, 5.9146498E-004, 5.9412091E-003, 0.0000000E+000, 0.0000000E+000, 0.0000000E+000, 2.0000000E+001
 1.0023637E+000, 2.3099739E-001, 5.9146498E-004, 5.9412091E-003, 1.8792108E-029, 5.9528360E-029, 5.9202679E-030, 2.0249583E+001
 2.0054034E+000, 2.2482162E-001, 5.2305861E-003, 8.5988594E-003, 5.1848818E-005, 1.0910680E-004, 4.7899273E-005, 8.3060089E+001
 3.0006748E+000, 2.2379368E-001, 5.9712641E-003, 9.0529335E-003, 8.3624826E-005, 1.1677018E-004, 6.0631013E-005, 9.3767969E+001
 4.0054420E+000, 2.1992762E-001, 8.8076577E-003, 1.0736699E-002, 1.6193867E-004, 1.9429245E-004, 1.0000271E-004, 1.2709247E+002
 5.0066221E+000, 2.1705195E-001, 1.0974463E-002, 1.1978080E-002, 1.8604235E-004, 2.0796472E-004, 1.2235041E-004, 1.5213522E+002
 6.0013422E+000, 2.1334688E-001, 1.3756419E-002, 1.3576278E-002, 2.2058296E-004, 2.5240409E-004, 1.5182031E-004, 1.8170468E+002
 7.0004751E+000, 2.0871748E-001, 1.7270986E-002, 1.5567418E-002, 2.4193888E-004, 2.6765043E-004, 1.8422987E-004, 2.1775729E+002
 8.0015635E+000, 2.0628735E-001, 1.9097965E-002, 1.6614802E-002, 2.6289215E-004, 2.9759388E-004, 2.0320908E-004, 2.3685247E+002
 9.0063152E+000, 2.0094730E-001, 2.3192613E-002, 1.8904678E-002, 2.6395071E-004, 2.7801965E-004, 2.3581327E-004, 2.7139068E+002
 1.0007386E+001, 1.9629204E-001, 2.6796481E-002, 2.0893381E-002, 2.4365672E-004, 2.3998141E-004, 2.5991687E-004, 2.9924764E+002
 1.1002123E+001, 1.9334300E-001, 2.9068950E-002, 2.2155464E-002, 2.3728170E-004, 2.2259085E-004, 2.7650521E-004, 3.1420345E+002
 1.2000907E+001, 1.8916478E-001, 3.2320007E-002, 2.3936980E-002, 2.0903725E-004, 1.7697565E-004, 2.9609895E-004, 3.3471458E+002
 1.3000812E+001, 1.8566374E-001, 3.5029493E-002, 2.5432563E-002, 1.9412270E-004, 1.5028936E-004, 3.1429492E-004, 3.5006116E+002
 1.4003135E+001, 1.7893068E-001, 4.0246448E-002, 2.8306503E-002, 1.6089231E-004, 1.0105202E-004, 3.4835366E-004, 3.7386206E+002
 1.5000233E+001, 1.7477083E-001, 4.3470086E-002, 3.0081765E-002, 1.3989656E-004, 7.1713188E-005, 3.6929908E-004, 3.8315174E+002
 1.6008664E+001, 1.7183434E-001, 4.5748343E-002, 3.1334393E-002, 1.2345849E-004, 4.9192858E-005, 3.8375582E-004, 3.9039959E+002
 1.7001603E+001, 1.6698281E-001, 4.9487748E-002, 3.3409029E-002, 1.1130072E-004, 2.8966229E-005, 4.1069159E-004, 4.0184558E+002
 1.8003686E+001, 1.6312707E-001, 5.2451193E-002, 3.5059627E-002, 1.0680709E-004, 1.8432423E-005, 4.3315039E-004, 4.0787878E+002
 1.9009182E+001, 1.5949680E-001, 5.5237102E-002, 3.6614575E-002, 1.0515550E-004, 1.1523193E-005, 4.5482041E-004, 4.1064925E+002
 2.0008404E+001, 1.5634303E-001, 5.7653965E-002, 3.7966137E-002, 1.0578675E-004, 7.7131772E-006, 4.7406644E-004, 4.1285022E+002
 2.1005822E+001, 1.5241809E-001, 6.0659025E-002, 3.9648810E-002, 1.0830083E-004, 4.6467885E-006, 4.9837058E-004, 4.2044906E+002
 2.2002659E+001, 1.4970437E-001, 6.2736165E-002, 4.0812306E-002, 1.1036610E-004, 3.1011484E-006, 5.1524079E-004, 4.1589959E+002
 2.3008112E+001, 1.4331398E-001, 6.7623829E-002, 4.3552988E-002, 1.1751869E-004, 1.5540209E-006, 5.5543379E-004, 4.3196366E+002
 2.4006161E+001, 1.4091640E-001, 6.9457325E-002, 4.4581303E-002, 1.2036909E-004, 1.2350671E-006, 5.7054748E-004, 4.3241560E+002
 2.5002774E+001, 1.3960761E-001, 7.0458534E-002, 4.5142544E-002, 1.2169964E-004, 9.4087377E-007, 5.7875165E-004, 4.2782649E+002
 2.6003836E+001, 1.3764742E-001, 7.1957445E-002, 4.5983278E-002, 1.2408608E-004, 7.9159586E-007, 5.9111948E-004, 4.2853787E+002
 2.7009664E+001, 1.3223224E-001, 7.6097963E-002, 4.8305967E-002, 1.3090807E-004, 4.2620687E-007, 6.2533347E-004, 4.3963088E+002
 2.8006487E+001, 1.3211302E-001, 7.6189013E-002, 4.8357111E-002, 1.3111210E-004, 5.6778964E-007, 6.2609753E-004, 4.2759521E+002
 2.9007542E+001, 1.2995576E-001, 7.7838280E-002, 4.9282456E-002, 1.3395814E-004, 5.1360757E-007, 6.3975362E-004, 4.3010601E+002
 3.0001232E+001, 1.2861121E-001, 7.8865992E-002, 4.9859252E-002, 1.3587734E-004, 5.4098358E-007, 6.4829471E-004, 4.2265722E+002
 3.1008639E+001, 1.2557131E-001, 8.1190234E-002, 5.1163157E-002, 1.3977391E-004, 4.1419197E-007, 6.6751494E-004, 4.2830686E+002
 3.2007821E+001, 1.2313870E-001, 8.3049869E-002, 5.2206640E-002, 1.4306816E-004, 4.2873395E-007, 6.8293134E-004, 4.2640244E+002
 3.3004968E+001, 1.2054319E-001, 8.5034279E-002, 5.3319943E-002, 1.4643059E-004, 3.5294067E-007, 6.9934904E-004, 4.2734395E+002
 3.4008666E+001, 1.1948670E-001, 8.5841928E-002, 5.3773133E-002, 1.4786147E-004, 3.6721170E-007, 7.0604450E-004, 4.3470965E+002
 3.5004065E+001, 1.1843350E-001, 8.6646976E-002, 5.4224931E-002, 1.4934159E-004, 4.2957208E-007, 7.1273005E-004, 4.2374493E+002
 3.6009843E+001, 1.1651249E-001, 8.8115898E-002, 5.5048857E-002, 1.5169132E-004, 3.1427303E-007, 7.2485282E-004, 4.3010302E+002
 3.7001804E+001, 1.1344224E-001, 9.0463499E-002, 5.6365727E-002, 1.5551638E-004, 2.0915810E-007, 7.4424227E-004, 4.3693408E+002
 3.8010201E+001, 1.1153739E-001, 9.1919268E-002, 5.7182933E-002, 1.5836716E-004, 3.5638194E-007, 7.5636946E-004, 4.2780439E+002
 3.9006145E+001, 1.1032093E-001, 9.2849140E-002, 5.7704769E-002, 1.6006467E-004, 3.5103378E-007, 7.6408899E-004, 4.2727549E+002
 4.0009717E+001, 1.0769527E-001, 9.4856002E-002, 5.8831180E-002, 1.6387075E-004, 3.7495587E-007, 7.8078021E-004, 4.2785462E+002
 4.1004941E+001, 1.0681217E-001, 9.5531874E-002, 5.9209760E-002, 1.6453948E-004, 2.7279060E-007, 7.8626883E-004, 4.3463158E+002
 4.2004667E+001, 1.0468427E-001, 9.7158510E-002, 6.0122561E-002, 1.6746889E-004, 3.0635200E-007, 7.9976403E-004, 4.3323687E+002
 4.3000561E+001, 1.0587205E-001, 9.6250313E-002, 5.9613104E-002, 1.6598048E-004, 3.4977451E-007, 7.9226112E-004, 4.1753294E+002
 4.4008225E+001, 1.0245780E-001, 9.8860580E-002, 6.1077607E-002, 1.7046594E-004, 3.4662380E-007, 8.1387030E-004, 4.3078256E+002
 4.5002717E+001, 1.0332103E-001, 9.8200561E-002, 6.0707365E-002, 1.6938281E-004, 2.9014992E-007, 8.0841735E-004, 4.2619643E+002
 4.6003542E+001, 1.0080460E-001, 1.0012151E-001, 6.1787612E-002, 1.7465723E-004, 8.0273604E-007, 8.2474695E-004, 4.2177750E+002
 4.7005650E+001, 9.5883733E-002, 1.0385767E-001, 6.3905954E-002, 1.9861750E-004, 4.9440397E-006, 8.5947208E-004, 4.3285559E+002
 4.8003113E+001, 9.6195945E-002, 1.0361619E-001, 6.3772867E-002, 2.0010237E-004, 5.2947377E-006, 8.5788400E-004, 4.2861900E+002
 4.9006872E+001, 9.5702200E-002, 1.0400227E-001, 6.3982047E-002, 1.9488164E-004, 4.4824037E-006, 8.5980703E-004, 4.2730277E+002
 5.0004712E+001, 9.4999542E-002, 1.0453352E-001, 6.4285085E-002, 1.9973712E-004, 6.0332945E-006, 8.6505811E-004, 4.1447787E+002
 5.1002759E+001, 9.2341212E-002, 1.0653835E-001, 6.5433248E-002, 2.2167562E-004, 1.1379429E-005, 8.8565656E-004, 4.3010786E+002
 5.2001110E+001, 9.1989072E-002, 1.0679882E-001, 6.5586869E-002, 2.2804956E-004, 1.2687892E-005, 8.8909515E-004, 4.2166095E+002
 5.3003631E+001, 9.0254674E-002, 1.0811333E-001, 6.6334099E-002, 2.3800355E-004, 1.5003085E-005, 9.0164242E-004, 4.2168324E+002
 5.4010263E+001, 8.9241252E-002, 1.0887114E-001, 6.6773528E-002, 2.5060626E-004, 1.9170750E-005, 9.1036102E-004, 4.2412986E+002
 5.5002391E+001, 8.8374811E-002, 1.0951206E-001, 6.7151543E-002, 2.6629541E-004, 2.2123147E-005, 9.1882329E-004, 4.1813025E+002
 5.6008627E+001, 8.4446834E-002, 1.1245745E-001, 6.8853313E-002, 3.1035471E-004, 3.1047992E-005, 9.5164483E-004, 4.2791789E+002
 5.7003614E+001, 8.5752644E-002, 1.1147891E-001, 6.8286430E-002, 2.9454975E-004, 3.3980903E-005, 9.4048809E-004, 4.2158601E+002
 5.8009711E+001, 8.2611919E-002, 1.1382255E-001, 6.9650741E-002, 3.3769128E-004, 4.1276784E-005, 9.6835316E-004, 4.2724246E+002
 5.9000400E+001, 8.1754151E-002, 1.1447674E-001, 7.0018714E-002, 3.3956760E-004, 4.4153760E-005, 9.7393168E-004, 4.2956255E+002
 6.0003995E+001, 8.2837616E-002, 1.1365124E-001, 6.9552954E-002, 3.3609163E-004, 4.4891628E-005, 9.6665253E-004, 4.1981975E+002
 6.1003849E+001, 8.1360349E-002, 1.1474522E-001, 7.0196437E-002, 3.6150637E-004, 5.3870125E-005, 9.8080139E-004, 4.1988549E+002
 6.2003767E+001, 7.9293523E-002, 1.1631552E-001, 7.1085967E-002, 3.7093989E-004, 5.4774607E-005, 9.9525841E-004, 4.2747094E+002
 6.3008514E+001, 7.8272169E-002, 1.1706173E-001, 7.1533343E-002, 3.9498271E-004, 6.5599536E-005, 1.0063607E-003, 4.1953840E+002
 6.4001111E+001, 7.7338938E-002, 1.1777270E-001, 7.1934093E-002, 3.9768409E-004, 6.7761410E-005, 1.0125666E-003, 4.2133582E+002
 6.5008002E+001, 7.4996986E-002, 1.1955534E-001, 7.2940489E-002, 4.0570032E-004, 7.1809097E-005, 1.0283960E-003, 4.2488570E+002
 6.6003738E+001, 7.5221762E-002, 1.1937011E-001, 7.2847902E-002, 4.1436155E-004, 7.4484156E-005, 1.0288055E-003, 4.1924991E+002
 6.7005998E+001, 7.3960031E-002, 1.2026560E-001, 7.3409005E-002, 4.6238790E-004, 8.7557856E-005, 1.0462773E-003, 4.2559981E+002
 6.8003545E+001, 7.3646968E-002, 1.2052675E-001, 7.3536692E-002, 4.4792466E-004, 8.5421156E-005, 1.0452128E-003, 4.2431637E+002
 6.9007648E+001, 7.2380239E-002, 1.2147235E-001, 7.4086411E-002, 4.6475349E-004, 9.1011196E-005, 1.0563307E-003, 4.1994410E+002
 7.0005220E+001, 7.0198298E-002, 1.2313791E-001, 7.5023223E-002, 4.6946839E-004, 9.0599252E-005, 1.0705199E-003, 4.2456092E+002
 7.1005143E+001, 7.0216192E-002, 1.2311893E-001, 7.5017037E-002, 4.7297095E-004, 9.1817484E-005, 1.0711277E-003, 4.1589108E+002
 7.2001284E+001, 6.8882047E-002, 1.2409811E-001, 7.5600581E-002, 5.0173151E-004, 1.0241258E-004, 1.0850928E-003, 4.2152234E+002
 7.3004611E+001, 6.8107113E-002, 1.2466979E-001, 7.5938267E-002, 5.1615598E-004, 1.1064335E-004, 1.0927340E-003, 4.2070389E+002
 7.4007468E+001, 6.5567703E-002, 1.2658700E-001, 7.7035240E-002, 5.3631398E-004, 1.1059870E-004, 1.1122544E-003, 4.2539336E+002
 7.5008435E+001, 6.5250023E-002, 1.2682407E-001, 7.7172639E-002, 5.4021214E-004, 1.1502109E-004, 1.1149723E-003, 4.2312090E+002
 7.6007324E+001, 6.5972092E-002, 1.2624907E-001, 7.6869073E-002, 5.5431712E-004, 1.2213653E-004, 1.1134779E-003, 4.2165119E+002
 7.7008865E+001, 6.4438817E-002, 1.2744333E-001, 7.7520205E-002, 5.4139624E-004, 1.1927055E-004, 1.1201248E-003, 4.2532222E+002
 7.8001536E+001, 6.4008154E-002, 1.2775051E-001, 7.7710999E-002, 5.5654357E-004, 1.2521341E-004, 1.1258311E-003, 4.2940408E+002
 7.9005409E+001, 6.3805495E-002, 1.2793328E-001, 7.7789905E-002, 5.3813564E-004, 1.2003700E-004, 1.1232932E-003, 4.1902216E+002
 8.0003151E+001, 6.1627082E-002, 1.2954804E-001, 7.8739203E-002, 5.7522219E-004, 1.2773615E-004, 1.1440852E-003, 4.2141689E+002
 8.1002620E+001, 6.0024631E-002, 1.3070732E-001, 7.9445876E-002, 6.2176290E-004, 1.3786966E-004, 1.1633213E-003, 4.1860260E+002
 8.2004727E+001, 6.0300083E-002, 1.3050011E-001, 7.9326637E-002, 6.1904843E-004, 1.3793643E-004, 1.1610957E-003, 4.3148647E+002
 8.3005718E+001, 6.0024157E-002, 1.3072329E-001, 7.9440177E-002, 6.1022138E-004, 1.4366431E-004, 1.1609504E-003, 4.1772378E+002
 8.4005852E+001, 5.8122540E-002, 1.3216969E-001, 8.0258052E-002, 6.1774438E-004, 1.4469354E-004, 1.1740145E-003, 4.2414640E+002
 8.5002723E+001, 5.9504742E-002, 1.3110443E-001, 7.9667130E-002, 6.2127299E-004, 1.4939701E-004, 1.1663552E-003, 4.1668393E+002
 8.6004730E+001, 5.7199460E-002, 1.3287139E-001, 8.0655881E-002, 6.2220692E-004, 1.4094796E-004, 1.1805281E-003, 4.2475937E+002
 8.7000115E+001, 5.7252662E-002, 1.3278853E-001, 8.0644552E-002, 6.4993363E-004, 1.5294472E-004, 1.1858723E-003, 4.2178198E+002
 8.8007330E+001, 5.5680526E-002, 1.3397161E-001, 8.1324661E-002, 6.6489690E-004, 1.5446177E-004, 1.1984642E-003, 4.1862705E+002
 8.9007454E+001, 5.4297233E-002, 1.3504109E-001, 8.1914091E-002, 6.5834983E-004, 1.5524315E-004, 1.2055036E-003, 4.2253249E+002
 9.0001790E+001, 5.4167619E-002, 1.3515486E-001, 8.1965829E-002, 6.4895276E-004, 1.5018788E-004, 1.2043699E-003, 4.2005655E+002
 9.1005468E+001, 5.3202869E-002, 1.3586034E-001, 8.2389641E-002, 6.7232417E-004, 1.5157885E-004, 1.2150048E-003, 4.2071630E+002
 9.2004528E+001, 5.4069648E-002, 1.3519288E-001, 8.2017898E-002, 6.7338180E-004, 1.6068956E-004, 1.2099563E-003, 4.2162303E+002
 9.3008409E+001, 5.3489216E-002, 1.3558250E-001, 8.2283110E-002, 7.1096093E-004, 1.6683443E-004, 1.2211679E-003, 4.1719611E+002
 9.4000991E+001, 5.0692030E-002, 1.3774156E-001, 8.3477381E-002, 7.0112861E-004, 1.6070681E-004, 1.2361116E-003, 4.2177356E+002
 9.5007058E+001, 4.9837068E-002, 1.3840532E-001, 8.3841099E-002, 6.9538912E-004, 1.5938196E-004, 1.2401179E-003, 4.1947300E+002
 9.6003025E+001, 4.9389798E-002, 1.3874586E-001, 8.4033212E-002, 6.9681215E-004, 1.6055013E-004, 1.2431183E-003, 4.2481738E+002
 9.7003287E+001, 4.9266917E-002, 1.3882368E-001, 8.4090480E-002, 7.0772480E-004, 1.6408907E-004, 1.2460948E-003, 4.2475091E+002
 9.8003817E+001, 4.8348884E-002, 1.3951011E-001, 8.4488958E-002, 7.1947606E-004, 1.6542108E-004, 1.2540648E-003, 4.2396624E+002
 9.9000290E+001, 4.8930482E-002, 1.3908547E-001, 8.4232759E-002, 7.0455541E-004, 1.6765890E-004, 1.2474789E-003, 4.1856917E+002
 1.0000995E+002, 4.7810207E-002, 1.3990310E-001, 8.4725123E-002, 7.3257766E-004, 1.7094296E-004, 1.2600069E-003, 4.1736767E+002
 1.0100877E+002, 4.6531332E-002, 1.4086630E-001, 8.5277506E-002, 7.4373049E-004, 1.7592416E-004, 1.2700358E-003, 4.2016876E+002
 1.0200184E+002, 4.6911407E-002, 1.4052372E-001, 8.5129627E-002, 7.7824686E-004, 1.8460000E-004, 1.2747955E-003, 4.2099781E+002
 1.0300502E+002, 4.6129779E-002, 1.4106583E-001, 8.5481142E-002, 8.1668626E-004, 1.9334622E-004, 1.2873990E-003, 4.2779363E+002
 1.0400747E+002, 4.6315648E-002, 1.4102953E-001, 8.5370869E-002, 7.4540924E-004, 1.7394326E-004, 1.2716897E-003, 4.1535998E+002
 1.0500032E+002, 4.5185973E-002, 1.4187880E-001, 8.5859079E-002, 7.5616963E-004, 1.7973071E-004, 1.2807329E-003, 4.2476471E+002
 1.0600240E+002, 4.3851188E-002, 1.4289711E-001, 8.6432158E-002, 7.5931078E-004, 1.8068101E-004, 1.2894640E-003, 4.2395748E+002
 1.0700788E+002, 4.5328229E-002, 1.4173244E-001, 8.5807623E-002, 7.8024358E-004, 1.9464540E-004, 1.2847845E-003, 4.1800274E+002
 1.0800423E+002, 4.2888306E-002, 1.4359237E-001, 8.6856763E-002, 7.8785882E-004, 1.8951417E-004, 1.3011382E-003, 4.1663446E+002
 1.0900899E+002, 4.2048123E-002, 1.4421338E-001, 8.7224991E-002, 8.0456468E-004, 1.8300219E-004, 1.3096630E-003, 4.2528677E+002
 1.1000430E+002, 4.3014533E-002, 1.4346816E-001, 8.6811024E-002, 8.0660443E-004, 1.9208778E-004, 1.3042121E-003, 4.1293388E+002
 1.1100233E+002, 4.4163500E-002, 1.4260437E-001, 8.6313118E-002, 7.9463233E-004, 1.9466265E-004, 1.2947920E-003, 4.1650937E+002
 1.1200001E+002, 4.2071265E-002, 1.4424719E-001, 8.7199052E-002, 7.6908765E-004, 1.8065131E-004, 1.3022541E-003, 4.2370710E+002
 1.1301000E+002, 4.0849463E-002, 1.4517288E-001, 8.7725478E-002, 7.7627571E-004, 1.8268711E-004, 1.3111286E-003, 4.1905538E+002
 1.1400591E+002, 4.0008230E-002, 1.4580318E-001, 8.8090310E-002, 7.8621703E-004, 1.8325723E-004, 1.3182632E-003, 4.1893528E+002
 1.1500112E+002, 3.9615038E-002, 1.4603307E-001, 8.8279689E-002, 8.3444767E-004, 1.9432552E-004, 1.3305166E-003, 4.2258428E+002
 1.1600093E+002, 3.9840557E-002, 1.4588277E-001, 8.8175353E-002, 8.1837479E-004, 1.9781066E-004, 1.3258505E-003, 4.2091553E+002
 1.1700368E+002, 3.8192558E-002, 1.4707673E-001, 8.8902661E-002, 8.6587501E-004, 2.0142325E-004, 1.3455685E-003, 4.2108630E+002
 1.1800419E+002, 3.6924246E-002, 1.4807177E-001, 8.9441145E-002, 8.5186102E-004, 1.8571592E-004, 1.3504037E-003, 4.2834200E+002
 1.1900140E+002, 3.9923937E-002, 1.4577708E-001, 8.8152362E-002, 8.4693036E-004, 2.0138649E-004, 1.3311935E-003, 4.1699655E+002
 1.2000999E+002, 3.9281614E-002, 1.4629442E-001, 8.8419472E-002, 8.2951039E-004, 2.0167418E-004, 1.3315148E-003, 4.1775575E+002
 1.2100970E+002, 3.7369945E-002, 1.4774396E-001, 8.9243341E-002, 8.4038239E-004, 2.0125420E-004, 1.3453283E-003, 4.2055850E+002
 1.2200885E+002, 3.6088129E-002, 1.4866732E-001, 8.9811628E-002, 8.8169808E-004, 1.9851351E-004, 1.3615685E-003, 4.2713593E+002
 1.2300426E+002, 3.4886185E-002, 1.4959852E-001, 9.0323716E-002, 8.7508422E-004, 1.9580082E-004, 1.3675002E-003, 4.2456786E+002
 1.2400614E+002, 3.6248829E-002, 1.4860298E-001, 8.9724483E-002, 8.4119112E-004, 1.9595293E-004, 1.3522952E-003, 4.1507119E+002
 1.2500619E+002, 3.7270960E-002, 1.4779249E-001, 8.9293447E-002, 8.5859486E-004, 2.0741937E-004, 1.3496526E-003, 4.1756091E+002
 1.2600785E+002, 3.5945160E-002, 1.4877319E-001, 8.9873008E-002, 8.8347396E-004, 2.0493647E-004, 1.3627899E-003, 4.1995636E+002
 1.2700860E+002, 3.3868930E-002, 1.5028642E-001, 9.0787811E-002, 9.3811340E-004, 2.0097655E-004, 1.3865768E-003, 4.2976217E+002
 1.2801038E+002, 3.3856242E-002, 1.5031451E-001, 9.0787364E-002, 9.2534025E-004, 2.0119409E-004, 1.3840352E-003, 4.1786556E+002
 1.2900637E+002, 3.3207575E-002, 1.5089240E-001, 9.1040613E-002, 8.7014646E-004, 1.9436166E-004, 1.3766622E-003, 4.2790264E+002
 1.3000457E+002, 3.3690292E-002, 1.5049754E-001, 9.0840602E-002, 8.8653111E-004, 2.0161802E-004, 1.3770853E-003, 4.1746991E+002
 1.3100655E+002, 3.3213630E-002, 1.5086553E-001, 9.1044909E-002, 8.8543434E-004, 1.9552734E-004, 1.3797575E-003, 4.1711877E+002
 1.3200651E+002, 3.3207989E-002, 1.5092190E-001, 9.1031893E-002, 8.5017979E-004, 1.8848718E-004, 1.3725752E-003, 4.2941433E+002
 1.3300141E+002, 3.3080177E-002, 1.5101583E-001, 9.1087733E-002, 8.5282927E-004, 1.8965547E-004, 1.3738911E-003, 4.1837019E+002
 1.3400548E+002, 3.2838953E-002, 1.5117307E-001, 9.1198888E-002, 8.7127058E-004, 1.9564988E-004, 1.3791246E-003, 4.3085249E+002
 1.3500349E+002, 3.1639098E-002, 1.5200766E-001, 9.1739493E-002, 9.2995863E-004, 1.9809053E-004, 1.3984217E-003, 4.2424635E+002
 1.3600601E+002, 3.1496295E-002, 1.5205057E-001, 9.1820864E-002, 9.7539225E-004, 2.0414935E-004, 1.4085915E-003, 4.2720787E+002
 1.3700308E+002, 3.1214521E-002, 1.5228140E-001, 9.1936030E-002, 9.6446284E-004, 2.0906278E-004, 1.4080518E-003, 4.2144536E+002
 1.3800344E+002, 3.1131764E-002, 1.5238792E-001, 9.1958111E-002, 9.3482163E-004, 2.0687718E-004, 1.4024806E-003, 4.1597620E+002
 1.3901031E+002, 3.1196603E-002, 1.5232763E-001, 9.1932935E-002, 9.4158439E-004, 2.1169062E-004, 1.4034672E-003, 4.2676233E+002
 1.4000912E+002, 3.2037726E-002, 1.5158869E-001, 9.1599854E-002, 1.0048736E-003, 2.2911060E-004, 1.4113185E-003, 4.1995851E+002
 1.4100964E+002, 2.9520761E-002, 1.5347537E-001, 9.2693270E-002, 1.0356628E-003, 2.1781896E-004, 1.4328978E-003, 4.1812662E+002
 1.4200687E+002, 3.0449031E-002, 1.5288497E-001, 9.2258975E-002, 9.5307346E-004, 2.0638196E-004, 1.4103598E-003, 4.1800276E+002
 1.4300219E+002, 3.1277769E-002, 1.5229300E-001, 9.1890634E-002, 9.2339474E-004, 2.0399125E-004, 1.3992576E-003, 4.1989521E+002
 1.4400154E+002, 3.0777494E-002, 1.5263035E-001, 9.2118908E-002, 9.5485008E-004, 2.0818599E-004, 1.4087310E-003, 4.2060995E+002
 1.4500261E+002, 3.0023833E-002, 1.5317506E-001, 9.2451671E-002, 9.7728048E-004, 2.1148294E-004, 1.4178911E-003, 4.1707747E+002
 1.4600314E+002, 2.8993420E-002, 1.5389380E-001, 9.2915119E-002, 1.0261542E-003, 2.1465573E-004, 1.4341488E-003, 4.1646387E+002
 1.4700920E+002, 2.9273047E-002, 1.5368403E-001, 9.2793748E-002, 1.0228845E-003, 2.1558679E-004, 1.4317828E-003, 4.1732067E+002
 1.4800804E+002, 2.9017783E-002, 1.5390494E-001, 9.2894540E-002, 1.0049637E-003, 2.1869871E-004, 1.4296519E-003, 4.2628536E+002
 1.4900283E+002, 2.7995347E-002, 1.5474117E-001, 9.3317922E-002, 9.7011565E-004, 2.0517447E-004, 1.4287236E-003, 4.2654615E+002
 1.5000008E+002, 2.6708881E-002, 1.5557418E-001, 9.3916419E-002, 1.0753240E-003, 2.1280690E-004, 1.4580740E-003, 4.2648111E+002
 1.5100695E+002, 2.8014651E-002, 1.5474196E-001, 9.3304210E-002, 9.5893327E-004, 2.0816124E-004, 1.4263103E-003, 4.2241081E+002
 1.5200283E+002, 2.7294150E-002, 1.5524111E-001, 9.3628703E-002, 9.9497921E-004, 2.1443617E-004, 1.4380563E-003, 4.2216098E+002
 1.5301039E+002, 2.7241474E-002, 1.5526757E-001, 9.3654659E-002, 1.0038399E-003, 2.2083798E-004, 1.4401827E-003, 4.2525604E+002
 1.5400526E+002, 2.6776715E-002, 1.5556965E-001, 9.3871429E-002, 1.0417572E-003, 2.1793712E-004, 1.4507753E-003, 4.2704535E+002
