s,,,,,,,
Time,"O2 EXHAUST","CO2 EXHAUST","H2O EXHAUST","CO EXHAUST","FUEL EXHAUST","SOOT EXHAUST","TEMP EXHAUST"
 0.0000000E+000, 2.3099739E-001, 5.9146498E-004, 5.9412091E-003, 0.0000000E+000, 0.0000000E+000, 0.0000000E+000, 2.0000000E+001
 1.0048829E+000, 2.3099739E-001, 5.9146498E-004, 5.9412091E-003, 1.2293800E-031, 1.3034917E-030, 3.6510539E-032, 2.0494289E+001
 2.0019316E+000, 2.2266249E-001, 8.2016962E-003, 9.1401610E-003, 4.3128240E-005, 2.9730283E-004, 5.5159404E-005, 1.0102498E+002
 3.0037265E+000, 2.1861226E-001, 1.1897659E-002, 1.0707525E-002, 7.8261840E-005, 3.6801851E-004, 8.5017569E-005, 1.3912372E+002
 4.0061466E+000, 2.1283754E-001, 1.7209330E-002, 1.2932988E-002, 9.9803236E-005, 4.4146966E-004, 1.2166414E-004, 1.9162575E+002
 5.0036345E+000, 2.0530972E-001, 2.4155372E-002, 1.5841607E-002, 1.2572580E-004, 4.4827051E-004, 1.6910016E-004, 2.5062797E+002
 6.0045088E+000, 2.0023886E-001, 2.8843926E-002, 1.7795904E-002, 1.3371411E-004, 4.6407756E-004, 1.9906181E-004, 2.8957599E+002
 7.0012857E+000, 1.9483027E-001, 3.3872958E-002, 1.9883071E-002, 1.3222814E-004, 4.0866778E-004, 2.2902353E-004, 3.2698969E+002
 8.0018837E+000, 1.8547565E-001, 4.2601673E-002, 2.3491476E-002, 1.1423053E-004, 2.6152001E-004, 2.7769075E-004, 3.8341537E+002
 9.0063626E+000, 1.7646225E-001, 5.1007777E-002, 2.6967852E-002, 9.8382746E-005, 1.3053683E-004, 3.2488052E-004, 4.2470519E+002
 1.0007214E+001, 1.7022504E-001, 5.6817181E-002, 2.9372603E-002, 8.9943804E-005, 6.0217735E-005, 3.5803696E-004, 4.4736603E+002
 1.1000748E+001, 1.6290126E-001, 6.3618296E-002, 3.2196356E-002, 8.9329812E-005, 1.7445455E-005, 3.9885837E-004, 4.7049134E+002
 1.2000681E+001, 1.5587340E-001, 7.0131729E-002, 3.4906023E-002, 9.4588289E-005, 1.9034425E-006, 4.3921818E-004, 4.8203952E+002
 1.3003969E+001, 1.4980809E-001, 7.5747212E-002, 3.7244550E-002, 1.0176194E-004, 1.8888928E-007, 4.7458521E-004, 4.9148220E+002
 1.4000712E+001, 1.4037746E-001, 8.4476937E-002, 4.0880640E-002, 1.1363153E-004, 2.2536233E-007, 5.2972140E-004, 5.1119950E+002
 1.5005936E+001, 1.3575032E-001, 8.8760287E-002, 4.2664670E-002, 1.1938754E-004, 1.7649785E-007, 5.5675997E-004, 5.1168784E+002
 1.6004968E+001, 1.3015478E-001, 9.3939928E-002, 4.4822090E-002, 1.2643609E-004, 2.7115403E-007, 5.8947542E-004, 5.1196805E+002
 1.7000370E+001, 1.2454774E-001, 9.9130345E-002, 4.6983932E-002, 1.3342711E-004, 2.0168865E-007, 6.2224332E-004, 5.1750230E+002
 1.8000933E+001, 1.1806782E-001, 1.0512845E-001, 4.9482375E-002, 1.4171384E-004, 4.6900862E-007, 6.6015524E-004, 5.2378163E+002
 1.9005134E+001, 1.1261907E-001, 1.1017258E-001, 5.1583149E-002, 1.4836071E-004, 1.6614956E-007, 6.9196777E-004, 5.2320652E+002
 2.0009380E+001, 1.0719335E-001, 1.1519470E-001, 5.3675125E-002, 1.5537479E-004, 7.4402316E-007, 7.2372721E-004, 5.2843909E+002
 2.1003599E+001, 1.0333129E-001, 1.1877011E-001, 5.5164140E-002, 1.6001315E-004, 2.8228676E-007, 7.4626092E-004, 5.2693312E+002
 2.2003128E+001, 9.9518473E-002, 1.2229880E-001, 5.6634284E-002, 1.6521982E-004, 1.3843386E-006, 7.6863629E-004, 5.2434141E+002
 2.3004792E+001, 9.7430483E-002, 1.2421899E-001, 5.7440257E-002, 1.7451391E-004, 2.0794863E-005, 7.8221018E-004, 5.1484539E+002
 2.4004549E+001, 9.1862709E-002, 1.2924966E-001, 5.9593912E-002, 2.4452688E-004, 2.2312998E-004, 8.2765288E-004, 5.2731769E+002
 2.5005663E+001, 9.0524262E-002, 1.3016504E-001, 6.0129235E-002, 4.1266594E-004, 7.4760215E-004, 8.6954714E-004, 5.1035629E+002
 2.6000824E+001, 8.7580434E-002, 1.3278724E-001, 6.1277359E-002, 4.7642568E-004, 8.7208559E-004, 8.9913342E-004, 5.1052752E+002
 2.7005241E+001, 8.4831838E-002, 1.3508681E-001, 6.2352096E-002, 6.0620165E-004, 1.2662977E-003, 9.4106180E-004, 5.0945115E+002
 2.8003098E+001, 8.3402274E-002, 1.3616188E-001, 6.2912023E-002, 7.2949878E-004, 1.7052262E-003, 9.7421493E-004, 4.9910724E+002
 2.9001528E+001, 8.1551490E-002, 1.3740697E-001, 6.3652552E-002, 9.7167353E-004, 2.4696682E-003, 1.0341146E-003, 4.9667791E+002
 3.0001898E+001, 8.0798405E-002, 1.3777661E-001, 6.3957402E-002, 1.1359357E-003, 3.0307878E-003, 1.0718838E-003, 4.8668007E+002
 3.1003087E+001, 7.9526394E-002, 1.3881480E-001, 6.4467909E-002, 1.2212611E-003, 3.1852496E-003, 1.0965979E-003, 4.8678151E+002
 3.2007966E+001, 7.8502079E-002, 1.3939847E-001, 6.4875921E-002, 1.4012002E-003, 3.8282983E-003, 1.1390483E-003, 4.7880531E+002
 3.3002513E+001, 7.7408546E-002, 1.4032193E-001, 6.5284089E-002, 1.4290243E-003, 4.0857230E-003, 1.1506303E-003, 4.7515108E+002
 3.4002164E+001, 7.6829772E-002, 1.4056035E-001, 6.5527629E-002, 1.5854523E-003, 4.5514045E-003, 1.1859140E-003, 4.6654755E+002
 3.5006216E+001, 7.6292428E-002, 1.4074054E-001, 6.5719805E-002, 1.7145262E-003, 5.2707420E-003, 1.2149293E-003, 4.6161903E+002
 3.6009594E+001, 7.5801174E-002, 1.4087481E-001, 6.5898180E-002, 1.8490905E-003, 5.9724932E-003, 1.2448560E-003, 4.5291939E+002
 3.7002512E+001, 7.4604656E-002, 1.4171598E-001, 6.6394872E-002, 2.0076469E-003, 6.2862767E-003, 1.2842292E-003, 4.5261555E+002
 3.8003761E+001, 7.3739729E-002, 1.4214327E-001, 6.6698637E-002, 2.1474838E-003, 7.2059262E-003, 1.3170620E-003, 4.5249999E+002
 3.9005115E+001, 7.3660820E-002, 1.4199594E-001, 6.6737826E-002, 2.2564716E-003, 7.5894891E-003, 1.3397578E-003, 4.4614858E+002
 4.0000442E+001, 7.2666033E-002, 1.4245092E-001, 6.7107826E-002, 2.4549949E-003, 8.5945589E-003, 1.3854556E-003, 4.4310966E+002
 4.1003360E+001, 7.2772975E-002, 1.4244970E-001, 6.7040628E-002, 2.3838965E-003, 8.5580479E-003, 1.3700646E-003, 4.3899391E+002
 4.2001216E+001, 7.1895492E-002, 1.4278955E-001, 6.7394659E-002, 2.6152631E-003, 9.3989463E-003, 1.4221748E-003, 4.3897377E+002
 4.3005861E+001, 7.1632854E-002, 1.4264818E-001, 6.7435148E-002, 2.7275172E-003, 1.0528660E-002, 1.4456160E-003, 4.3131534E+002
 4.4005034E+001, 7.1443909E-002, 1.4272450E-001, 6.7486659E-002, 2.7505437E-003, 1.0853163E-002, 1.4510590E-003, 4.2684786E+002
 4.5008195E+001, 7.0830993E-002, 1.4297528E-001, 6.7716251E-002, 2.8879217E-003, 1.1521122E-002, 1.4822959E-003, 4.2702236E+002
 4.6002918E+001, 7.1002343E-002, 1.4274583E-001, 6.7589728E-002, 2.8577806E-003, 1.2027490E-002, 1.4743944E-003, 4.2088016E+002
 4.7003219E+001, 7.0199156E-002, 1.4306482E-001, 6.7845131E-002, 2.9955209E-003, 1.3197129E-002, 1.5061223E-003, 4.2725049E+002
 4.8005302E+001, 7.0359796E-002, 1.4281545E-001, 6.7741532E-002, 2.9982001E-003, 1.3648812E-002, 1.5052020E-003, 4.1774715E+002
 4.9006564E+001, 6.9817016E-002, 1.4297382E-001, 6.7941325E-002, 3.1451191E-003, 1.4387926E-002, 1.5379471E-003, 4.1769618E+002
 5.0010499E+001, 6.9864599E-002, 1.4279274E-001, 6.7871363E-002, 3.1542111E-003, 1.4971915E-002, 1.5388260E-003, 4.1411321E+002
 5.1005493E+001, 6.9827956E-002, 1.4261983E-001, 6.7812844E-002, 3.1734679E-003, 1.5821510E-002, 1.5419544E-003, 4.1164031E+002
 5.2005425E+001, 6.9921910E-002, 1.4240253E-001, 6.7744971E-002, 3.1999552E-003, 1.6271341E-002, 1.5463785E-003, 4.0821669E+002
 5.3007809E+001, 6.9980773E-002, 1.4221867E-001, 6.7692643E-002, 3.2281150E-003, 1.6707054E-002, 1.5513659E-003, 4.0669479E+002
 5.4009509E+001, 6.9917242E-002, 1.4197673E-001, 6.7635007E-002, 3.2802500E-003, 1.7800172E-002, 1.5611933E-003, 4.0295180E+002
 5.5009682E+001, 6.9893631E-002, 1.4171451E-001, 6.7559595E-002, 3.3223252E-003, 1.8874669E-002, 1.5687219E-003, 4.0021676E+002
 5.6006921E+001, 6.9951570E-002, 1.4156504E-001, 6.7505525E-002, 3.3331348E-003, 1.9256647E-002, 1.5701621E-003, 3.9963716E+002
 5.7011692E+001, 7.0029406E-002, 1.4135327E-001, 6.7403521E-002, 3.3224975E-003, 1.9969331E-002, 1.5665878E-003, 4.0095330E+002
 5.8007893E+001, 7.0671531E-002, 1.4060023E-001, 6.7047001E-002, 3.2818125E-003, 2.0943174E-002, 1.5532537E-003, 3.9236191E+002
 5.9003330E+001, 7.0607166E-002, 1.4054390E-001, 6.7045491E-002, 3.3074215E-003, 2.1332217E-002, 1.5584568E-003, 3.9133571E+002
 6.0002520E+001, 7.1061461E-002, 1.4000076E-001, 6.6790833E-002, 3.2808544E-003, 2.2056437E-002, 1.5494404E-003, 3.8746907E+002
 6.1011360E+001, 7.1350654E-002, 1.3951541E-001, 6.6575585E-002, 3.2726899E-003, 2.3115740E-002, 1.5447551E-003, 3.8684291E+002
 6.2004872E+001, 7.1689372E-002, 1.3912307E-001, 6.6394005E-002, 3.2556689E-003, 2.3580523E-002, 1.5387113E-003, 3.8013254E+002
 6.3007703E+001, 7.2350292E-002, 1.3826225E-001, 6.5996652E-002, 3.2214646E-003, 2.4936771E-002, 1.5261318E-003, 3.8128720E+002
 6.4004794E+001, 7.2384274E-002, 1.3805805E-001, 6.5913682E-002, 3.2280324E-003, 2.5702014E-002, 1.5263259E-003, 3.7710487E+002
 6.5010661E+001, 7.2820575E-002, 1.3767051E-001, 6.5716773E-002, 3.1906421E-003, 2.5843328E-002, 1.5159026E-003, 3.7355549E+002
 6.6002676E+001, 7.3511789E-002, 1.3685715E-001, 6.5352843E-002, 3.1684620E-003, 2.6776939E-002, 1.5062090E-003, 3.7272435E+002
 6.7000789E+001, 7.3520095E-002, 1.3683267E-001, 6.5317370E-002, 3.1429459E-003, 2.7005566E-002, 1.5005415E-003, 3.7109084E+002
 6.8004147E+001, 7.4453145E-002, 1.3569155E-001, 6.4829793E-002, 3.1363576E-003, 2.8329102E-002, 1.4922492E-003, 3.6866733E+002
 6.9001874E+001, 7.5031544E-002, 1.3495554E-001, 6.4498439E-002, 3.1153829E-003, 2.9382463E-002, 1.4832826E-003, 3.6484509E+002
 7.0002475E+001, 7.5158620E-002, 1.3477587E-001, 6.4451443E-002, 3.1453970E-003, 2.9493281E-002, 1.4886952E-003, 3.6406318E+002
 7.1007076E+001, 7.5229817E-002, 1.3471407E-001, 6.4366426E-002, 3.0843787E-003, 2.9833662E-002, 1.4751218E-003, 3.5968494E+002
 7.2011382E+001, 7.6482192E-002, 1.3323209E-001, 6.3710657E-002, 3.0516544E-003, 3.1519736E-002, 1.4591232E-003, 3.5766035E+002
 7.3011124E+001, 7.6629460E-002, 1.3312474E-001, 6.3634849E-002, 3.0188132E-003, 3.1577537E-002, 1.4513711E-003, 3.5635900E+002
 7.4011407E+001, 7.6837372E-002, 1.3268688E-001, 6.3532989E-002, 3.1075255E-003, 3.2195090E-002, 1.4679313E-003, 3.5558493E+002
 7.5009319E+001, 7.7528673E-002, 1.3192711E-001, 6.3130528E-002, 3.0215107E-003, 3.3255432E-002, 1.4447489E-003, 3.5033762E+002
 7.6000119E+001, 7.8038979E-002, 1.3152679E-001, 6.2934199E-002, 2.9886385E-003, 3.3110070E-002, 1.4352253E-003, 3.4459923E+002
 7.7008364E+001, 7.8167300E-002, 1.3132595E-001, 6.2844605E-002, 2.9845058E-003, 3.3515523E-002, 1.4331231E-003, 3.4859286E+002
 7.8000427E+001, 7.8662132E-002, 1.3063117E-001, 6.2518357E-002, 2.9521926E-003, 3.4804633E-002, 1.4219523E-003, 3.4589169E+002
 7.9006471E+001, 7.9337181E-002, 1.2988369E-001, 6.2184691E-002, 2.9316081E-003, 3.5491874E-002, 1.4129998E-003, 3.4521064E+002
 8.0003296E+001, 7.9345675E-002, 1.2985825E-001, 6.2089920E-002, 2.8456797E-003, 3.6080624E-002, 1.3942564E-003, 3.4322146E+002
 8.1012660E+001, 7.9818727E-002, 1.2935864E-001, 6.1832844E-002, 2.7964223E-003, 3.6655042E-002, 1.3805921E-003, 3.4038819E+002
 8.2004440E+001, 7.9970797E-002, 1.2903530E-001, 6.1714757E-002, 2.8179845E-003, 3.7376725E-002, 1.3833130E-003, 3.3784265E+002
 8.3003387E+001, 8.0562159E-002, 1.2850815E-001, 6.1394839E-002, 2.7137407E-003, 3.7893005E-002, 1.3575853E-003, 3.4297924E+002
 8.4007083E+001, 8.1129187E-002, 1.2775468E-001, 6.1098376E-002, 2.7367722E-003, 3.8817141E-002, 1.3580347E-003, 3.3681832E+002
 8.5006140E+001, 8.1221865E-002, 1.2777130E-001, 6.1000444E-002, 2.6264093E-003, 3.8990792E-002, 1.3342562E-003, 3.4097691E+002
 8.6004954E+001, 8.1792442E-002, 1.2691840E-001, 6.0621309E-002, 2.6095895E-003, 4.0597635E-002, 1.3254867E-003, 3.3620555E+002
 8.7007213E+001, 8.2017715E-002, 1.2674263E-001, 6.0519445E-002, 2.5790577E-003, 4.0623590E-002, 1.3178222E-003, 3.3197529E+002
 8.8005316E+001, 8.1920529E-002, 1.2675712E-001, 6.0473373E-002, 2.5276649E-003, 4.1278899E-002, 1.3067920E-003, 3.4068823E+002
 8.9001347E+001, 8.3047218E-002, 1.2542948E-001, 5.9830496E-002, 2.4413823E-003, 4.3105039E-002, 1.2801348E-003, 3.3626567E+002
 9.0009685E+001, 8.2603206E-002, 1.2602501E-001, 6.0107838E-002, 2.4672195E-003, 4.2096824E-002, 1.2893078E-003, 3.3149726E+002
 9.1000250E+001, 8.3189357E-002, 1.2514697E-001, 5.9718588E-002, 2.4510256E-003, 4.3749804E-002, 1.2805224E-003, 3.3042226E+002
 9.2004050E+001, 8.3493236E-002, 1.2500257E-001, 5.9613835E-002, 2.4013232E-003, 4.3403429E-002, 1.2688976E-003, 3.2716160E+002
 9.3013852E+001, 8.3282503E-002, 1.2521195E-001, 5.9672126E-002, 2.3715436E-003, 4.3514078E-002, 1.2637154E-003, 3.3322449E+002
 9.4002952E+001, 8.3988529E-002, 1.2412366E-001, 5.9163251E-002, 2.3248788E-003, 4.5808170E-002, 1.2470733E-003, 3.3265440E+002
 9.5008118E+001, 8.3900176E-002, 1.2426570E-001, 5.9208013E-002, 2.3086554E-003, 4.5624044E-002, 1.2444177E-003, 3.3098817E+002
 9.6006103E+001, 8.4257278E-002, 1.2379764E-001, 5.8982227E-002, 2.2801322E-003, 4.6429839E-002, 1.2354305E-003, 3.3164638E+002
 9.7011208E+001, 8.4391268E-002, 1.2382916E-001, 5.8966210E-002, 2.2460261E-003, 4.5905842E-002, 1.2282389E-003, 3.2581968E+002
 9.8008144E+001, 8.4642751E-002, 1.2327965E-001, 5.8727906E-002, 2.2442427E-003, 4.7389051E-002, 1.2245493E-003, 3.2334855E+002
 9.9002941E+001, 8.4401202E-002, 1.2375202E-001, 5.8889994E-002, 2.2025356E-003, 4.6478695E-002, 1.2183664E-003, 3.2390698E+002
 1.0000764E+002, 8.5117930E-002, 1.2261315E-001, 5.8351930E-002, 2.1485776E-003, 4.9005098E-002, 1.1998426E-003, 3.2500571E+002
 1.0101211E+002, 8.5340485E-002, 1.2237858E-001, 5.8207419E-002, 2.1010052E-003, 4.9417065E-002, 1.1881383E-003, 3.2564550E+002
 1.0200048E+002, 8.5056264E-002, 1.2253371E-001, 5.8310961E-002, 2.1441029E-003, 4.9667562E-002, 1.1983984E-003, 3.2658846E+002
 1.0300520E+002, 8.5000885E-002, 1.2257935E-001, 5.8302135E-002, 2.1157572E-003, 4.9861409E-002, 1.1925407E-003, 3.2953315E+002
 1.0400392E+002, 8.5268564E-002, 1.2244563E-001, 5.8231166E-002, 2.0967948E-003, 4.9440240E-002, 1.1876311E-003, 3.1849816E+002
 1.0501483E+002, 8.5321489E-002, 1.2215686E-001, 5.8103767E-002, 2.0956297E-003, 5.0563055E-002, 1.1856441E-003, 3.3182399E+002
 1.0601477E+002, 8.5676524E-002, 1.2145468E-001, 5.7803991E-002, 2.0973614E-003, 5.2289269E-002, 1.1817966E-003, 3.2626158E+002
 1.0701291E+002, 8.5451141E-002, 1.2191535E-001, 5.7980111E-002, 2.0749509E-003, 5.1249768E-002, 1.1797180E-003, 3.2048398E+002
 1.0800312E+002, 8.5483065E-002, 1.2167368E-001, 5.7895149E-002, 2.0965092E-003, 5.2109877E-002, 1.1829304E-003, 3.2490356E+002
 1.0900349E+002, 8.5595182E-002, 1.2131434E-001, 5.7757344E-002, 2.1151656E-003, 5.3188800E-002, 1.1848070E-003, 3.2709910E+002
 1.1001482E+002, 8.5461593E-002, 1.2162809E-001, 5.7859215E-002, 2.0808470E-003, 5.2507269E-002, 1.1792684E-003, 3.2074851E+002
 1.1100995E+002, 8.5813842E-002, 1.2114449E-001, 5.7647208E-002, 2.0736280E-003, 5.3280661E-002, 1.1747971E-003, 3.2408486E+002
 1.1200221E+002, 8.5921763E-002, 1.2082114E-001, 5.7534498E-002, 2.1018209E-003, 5.4153805E-002, 1.1789532E-003, 3.2271912E+002
 1.1300256E+002, 8.6107537E-002, 1.2037041E-001, 5.7399072E-002, 2.1624862E-003, 5.5092373E-002, 1.1893685E-003, 3.2385033E+002
 1.1400609E+002, 8.5960785E-002, 1.2069779E-001, 5.7456994E-002, 2.0772244E-003, 5.4704778E-002, 1.1728904E-003, 3.1923217E+002
 1.1501202E+002, 8.5681794E-002, 1.2065483E-001, 5.7477942E-002, 2.1252291E-003, 5.5825964E-002, 1.1830225E-003, 3.2672611E+002
 1.1600210E+002, 8.6160356E-002, 1.2019085E-001, 5.7278399E-002, 2.1187210E-003, 5.5958534E-002, 1.1788208E-003, 3.2589079E+002
 1.1700373E+002, 8.5881855E-002, 1.2022725E-001, 5.7340943E-002, 2.1734275E-003, 5.6668634E-002, 1.1908794E-003, 3.2827125E+002
 1.1801059E+002, 8.6093563E-002, 1.1997469E-001, 5.7195135E-002, 2.1329536E-003, 5.7169308E-002, 1.1806030E-003, 3.2244763E+002
 1.1900004E+002, 8.6108583E-002, 1.1995111E-001, 5.7176181E-002, 2.1238123E-003, 5.7268161E-002, 1.1784835E-003, 3.2186198E+002
 1.2001560E+002, 8.5742135E-002, 1.2043487E-001, 5.7360591E-002, 2.1029968E-003, 5.6720707E-002, 1.1768908E-003, 3.2042152E+002
 1.2101111E+002, 8.6268306E-002, 1.1957018E-001, 5.7035560E-002, 2.1481625E-003, 5.8208464E-002, 1.1814616E-003, 3.2162990E+002
 1.2201014E+002, 8.5609414E-002, 1.2010188E-001, 5.7315651E-002, 2.2111773E-003, 5.8205757E-002, 1.1982978E-003, 3.2678583E+002
 1.2300945E+002, 8.6073634E-002, 1.1980009E-001, 5.7145716E-002, 2.1618889E-003, 5.7897492E-002, 1.1858150E-003, 3.1867091E+002
 1.2400235E+002, 8.5965756E-002, 1.1965386E-001, 5.7067164E-002, 2.1502930E-003, 5.9112443E-002, 1.1824297E-003, 3.2019619E+002
 1.2501034E+002, 8.6289942E-002, 1.1904334E-001, 5.6890080E-002, 2.2371488E-003, 6.0042844E-002, 1.1975496E-003, 3.2414306E+002
 1.2600265E+002, 8.5899040E-002, 1.1944993E-001, 5.7070738E-002, 2.2480830E-003, 5.9772934E-002, 1.2023629E-003, 3.2761556E+002
 1.2701078E+002, 8.5877981E-002, 1.1934799E-001, 5.7011803E-002, 2.2343487E-003, 6.0419482E-002, 1.1987796E-003, 3.2063144E+002
 1.2801240E+002, 8.5891618E-002, 1.1924720E-001, 5.7014556E-002, 2.2825203E-003, 6.0545685E-002, 1.2085960E-003, 3.2195380E+002
 1.2900331E+002, 8.5879134E-002, 1.1922021E-001, 5.7010232E-002, 2.2906318E-003, 6.0677369E-002, 1.2101890E-003, 3.2330834E+002
 1.3001363E+002, 8.5846562E-002, 1.1898585E-001, 5.6952168E-002, 2.3381043E-003, 6.1628986E-002, 1.2190528E-003, 3.2882260E+002
 1.3100164E+002, 8.5996775E-002, 1.1891486E-001, 5.6898523E-002, 2.3114509E-003, 6.1468289E-002, 1.2128577E-003, 3.2517704E+002
 1.3200386E+002, 8.6035090E-002, 1.1896446E-001, 5.6872362E-002, 2.2611566E-003, 6.1368693E-002, 1.2022739E-003, 3.1884768E+002
 1.3301327E+002, 8.5804099E-002, 1.1882051E-001, 5.6892537E-002, 2.3529398E-003, 6.2494597E-002, 1.2212702E-003, 3.2580510E+002
 1.3400290E+002, 8.6062297E-002, 1.1871749E-001, 5.6822891E-002, 2.3216550E-003, 6.2044106E-002, 1.2138792E-003, 3.2092546E+002
 1.3500051E+002, 8.5858561E-002, 1.1863095E-001, 5.6854106E-002, 2.3980547E-003, 6.2875815E-002, 1.2298916E-003, 3.2232939E+002
 1.3600261E+002, 8.6250438E-002, 1.1817493E-001, 5.6637841E-002, 2.3729630E-003, 6.3455157E-002, 1.2217186E-003, 3.2146654E+002
 1.3700401E+002, 8.6060304E-002, 1.1817218E-001, 5.6726731E-002, 2.4702196E-003, 6.3714988E-002, 1.2427463E-003, 3.2100140E+002
 1.3801434E+002, 8.6288367E-002, 1.1796532E-001, 5.6569771E-002, 2.3971754E-003, 6.4124469E-002, 1.2256975E-003, 3.1818582E+002
 1.3901184E+002, 8.5912143E-002, 1.1832549E-001, 5.6745387E-002, 2.4236098E-003, 6.3915876E-002, 1.2335852E-003, 3.2128035E+002
 1.4001236E+002, 8.5941596E-002, 1.1801140E-001, 5.6695086E-002, 2.5136233E-003, 6.4719930E-002, 1.2511730E-003, 3.2803396E+002
 1.4100096E+002, 8.6058809E-002, 1.1807132E-001, 5.6677117E-002, 2.4650681E-003, 6.4221425E-002, 1.2410261E-003, 3.2257735E+002
 1.4201246E+002, 8.6127197E-002, 1.1771283E-001, 5.6582680E-002, 2.5289397E-003, 6.5218371E-002, 1.2526908E-003, 3.2273195E+002
 1.4300816E+002, 8.6003042E-002, 1.1766741E-001, 5.6608456E-002, 2.5791094E-003, 6.5669814E-002, 1.2632742E-003, 3.2588541E+002
 1.4401157E+002, 8.6157724E-002, 1.1770386E-001, 5.6572512E-002, 2.5218035E-003, 6.5170460E-002, 1.2510926E-003, 3.1684766E+002
 1.4500082E+002, 8.5568742E-002, 1.1820317E-001, 5.6839013E-002, 2.5837915E-003, 6.5022788E-002, 1.2675111E-003, 3.2622927E+002
 1.4601059E+002, 8.6431097E-002, 1.1720701E-001, 5.6491587E-002, 2.6570871E-003, 6.5505295E-002, 1.2773732E-003, 3.2473335E+002
 1.4700301E+002, 8.6213946E-002, 1.1741040E-001, 5.6505009E-002, 2.5841409E-003, 6.5926204E-002, 1.2628161E-003, 3.1894491E+002
 1.4801173E+002, 8.6136470E-002, 1.1741378E-001, 5.6573589E-002, 2.6549350E-003, 6.5827253E-002, 1.2781538E-003, 3.1786904E+002
 1.4900690E+002, 8.6131539E-002, 1.1770522E-001, 5.6595392E-002, 2.5453250E-003, 6.5138391E-002, 1.2561900E-003, 3.1131830E+002
 1.5001280E+002, 8.5989109E-002, 1.1780380E-001, 5.6652880E-002, 2.5632207E-003, 6.5188711E-002, 1.2606559E-003, 3.0206874E+002
 1.5100027E+002, 8.6813768E-002, 1.1648173E-001, 5.6523760E-002, 3.0092123E-003, 6.5152432E-002, 1.3491937E-003, 2.9806318E+002
 1.5200476E+002, 8.6413328E-002, 1.1680802E-001, 5.6985895E-002, 3.3456154E-003, 6.3377282E-002, 1.4239397E-003, 3.0803837E+002
 1.5300324E+002, 8.6449827E-002, 1.1623015E-001, 5.7226775E-002, 3.8538127E-003, 6.2911764E-002, 1.5304169E-003, 3.1021237E+002
 1.5400206E+002, 8.7253012E-002, 1.1498824E-001, 5.6890649E-002, 4.0515924E-003, 6.4059384E-002, 1.5657361E-003, 2.9892850E+002
