s,,,,,,,
Time,"O2 EXHAUST","CO2 EXHAUST","H2O EXHAUST","CO EXHAUST","FUEL EXHAUST","SOOT EXHAUST","TEMP EXHAUST"
 0.0000000E+000, 2.3099739E-001, 5.9146498E-004, 5.9412091E-003, 0.0000000E+000, 0.0000000E+000, 0.0000000E+000, 2.0000000E+001
 1.0012234E+000, 2.3099739E-001, 5.9146498E-004, 5.9412091E-003, 1.2583863E-026, 3.8201941E-026, 3.7789771E-027, 2.1960228E+001
 2.0055015E+000, 2.1937976E-001, 9.2806632E-003, 1.0963286E-002, 1.3181611E-004, 1.3962286E-004, 9.7224760E-005, 1.3271819E+002
 3.0014619E+000, 2.1261221E-001, 1.4395913E-002, 1.3881789E-002, 1.7911327E-004, 1.5852815E-004, 1.4790339E-004, 1.9237557E+002
 4.0001555E+000, 2.0007106E-001, 2.3976054E-002, 1.9264859E-002, 2.0193882E-004, 1.5126164E-004, 2.2858963E-004, 2.8936053E+002
 5.0057960E+000, 1.9023500E-001, 3.1553214E-002, 2.3471990E-002, 1.7991947E-004, 1.1231331E-004, 2.8373563E-004, 3.5599003E+002
 6.0075588E+000, 1.7947328E-001, 3.9884705E-002, 2.8064483E-002, 1.2915714E-004, 5.3836190E-005, 3.3862670E-004, 4.1473895E+002
 7.0018352E+000, 1.6702004E-001, 4.9490151E-002, 3.3386761E-002, 9.2524608E-005, 7.0956705E-006, 4.0664790E-004, 4.6914113E+002
 8.0009797E+000, 1.5577625E-001, 5.8099030E-002, 3.8206746E-002, 9.9320546E-005, 7.0637585E-008, 4.7618632E-004, 5.0736773E+002
 9.0041187E+000, 1.4394703E-001, 6.7142234E-002, 4.3280909E-002, 1.1519951E-004, 1.9564019E-007, 5.5112415E-004, 5.3233712E+002
 1.0000566E+001, 1.3287509E-001, 7.5606733E-002, 4.8030168E-002, 1.2991126E-004, 2.7694466E-007, 6.2123377E-004, 5.4607568E+002
 1.1007494E+001, 1.2729018E-001, 7.9875423E-002, 5.0425994E-002, 1.3792689E-004, 9.7302469E-007, 6.5671946E-004, 5.4689573E+002
 1.2008118E+001, 1.1270134E-001, 9.1027588E-002, 5.6684031E-002, 1.5793161E-004, 1.6988733E-006, 7.4922496E-004, 5.6633813E+002
 1.3003078E+001, 1.0563973E-001, 9.6418584E-002, 5.9714466E-002, 1.7180461E-004, 8.1478152E-006, 7.9485180E-004, 5.7259692E+002
 1.4005051E+001, 9.7702334E-002, 1.0248693E-001, 6.3118929E-002, 1.8207105E-004, 9.3506128E-006, 8.4505385E-004, 5.7926842E+002
 1.5004446E+001, 8.9572863E-002, 1.0843024E-001, 6.6665983E-002, 3.6115425E-004, 1.7371578E-004, 9.3079494E-004, 5.8602961E+002
 1.6007128E+001, 8.7528756E-002, 1.0967725E-001, 6.7603129E-002, 5.5230181E-004, 4.2251897E-004, 9.8201442E-004, 5.6972691E+002
 1.7007081E+001, 8.4033673E-002, 1.1222580E-001, 6.9133715E-002, 6.3657074E-004, 4.7151962E-004, 1.0203986E-003, 5.6641854E+002
 1.8005388E+001, 8.0651868E-002, 1.1397892E-001, 7.0746165E-002, 1.1399302E-003, 1.1101342E-003, 1.1431748E-003, 5.5447711E+002
 1.9000526E+001, 8.1282234E-002, 1.1366543E-001, 7.0443212E-002, 1.0382832E-003, 9.7971369E-004, 1.1187022E-003, 5.5072571E+002
 2.0008434E+001, 7.6796915E-002, 1.1650483E-001, 7.2495968E-002, 1.4084672E-003, 1.3445567E-003, 1.2212509E-003, 5.4525860E+002
 2.1000078E+001, 7.7165228E-002, 1.1632263E-001, 7.2331790E-002, 1.3584433E-003, 1.1869742E-003, 1.2089858E-003, 5.4277481E+002
 2.2007908E+001, 7.5375045E-002, 1.1728597E-001, 7.3170501E-002, 1.5976322E-003, 1.5473711E-003, 1.2683577E-003, 5.3411125E+002
 2.3002479E+001, 7.3173345E-002, 1.1855104E-001, 7.4205084E-002, 1.8579591E-003, 1.8133081E-003, 1.3346884E-003, 5.3233178E+002
 2.4002223E+001, 7.1480938E-002, 1.1948307E-001, 7.5010813E-002, 2.0842720E-003, 2.0325624E-003, 1.3910260E-003, 5.3738478E+002
 2.5003018E+001, 7.0748514E-002, 1.1902609E-001, 7.5491328E-002, 2.6708111E-003, 3.0073587E-003, 1.5143267E-003, 5.2321103E+002
 2.6004913E+001, 7.0011540E-002, 1.1957361E-001, 7.5822165E-002, 2.6901966E-003, 2.9475585E-003, 1.5228499E-003, 5.2138197E+002
 2.7004975E+001, 6.8096629E-002, 1.2089564E-001, 7.6675646E-002, 2.7812369E-003, 3.0286331E-003, 1.5530016E-003, 5.2465862E+002
 2.8000411E+001, 6.7497701E-002, 1.2034488E-001, 7.7130778E-002, 3.3882106E-003, 3.7896223E-003, 1.6799813E-003, 5.1796476E+002
 2.9007308E+001, 6.6880940E-002, 1.2088823E-001, 7.7399575E-002, 3.3598781E-003, 3.6217141E-003, 1.6781463E-003, 5.2075903E+002
 3.0007058E+001, 6.6812622E-002, 1.2066126E-001, 7.7471790E-002, 3.5186286E-003, 3.9064480E-003, 1.7107019E-003, 5.1140227E+002
 3.1001713E+001, 6.5961950E-002, 1.2069808E-001, 7.7934019E-002, 3.8707303E-003, 4.5132587E-003, 1.7871800E-003, 5.0346224E+002
 3.2000213E+001, 6.5512277E-002, 1.2060317E-001, 7.8208163E-002, 4.1311867E-003, 4.8749207E-003, 1.8427862E-003, 5.0849326E+002
 3.3002184E+001, 6.4787037E-002, 1.2029612E-001, 7.8656660E-002, 4.6255343E-003, 5.7224874E-003, 1.9473243E-003, 4.9718367E+002
 3.4003818E+001, 6.4270740E-002, 1.2102677E-001, 7.8825280E-002, 4.4343901E-003, 5.3874114E-003, 1.9117419E-003, 5.0384877E+002
 3.5000160E+001, 6.4385606E-002, 1.2059995E-001, 7.8842793E-002, 4.6380982E-003, 5.6421842E-003, 1.9524447E-003, 4.9710757E+002
 3.6000942E+001, 6.2956514E-002, 1.2055431E-001, 7.9697412E-002, 5.3377178E-003, 6.3897998E-003, 2.1034639E-003, 4.9302823E+002
 3.7004633E+001, 6.3189615E-002, 1.1988216E-001, 7.9678339E-002, 5.6219221E-003, 6.8625619E-003, 2.1596448E-003, 4.8679380E+002
 3.8002012E+001, 6.3250954E-002, 1.2031325E-001, 7.9577443E-002, 5.3493569E-003, 6.3820590E-003, 2.1040762E-003, 4.8454206E+002
 3.9007365E+001, 6.2829504E-002, 1.1969948E-001, 7.9839341E-002, 5.8339003E-003, 7.7251802E-003, 2.2040701E-003, 4.8796163E+002
 4.0003438E+001, 6.3014826E-002, 1.1965515E-001, 7.9733130E-002, 5.7693528E-003, 7.6987175E-003, 2.1897534E-003, 4.8555501E+002
 4.1000142E+001, 6.2709624E-002, 1.1977364E-001, 7.9851870E-002, 5.8122421E-003, 8.0005828E-003, 2.1999717E-003, 4.7673376E+002
 4.2005295E+001, 6.2998991E-002, 1.1924480E-001, 7.9772277E-002, 5.9845743E-003, 8.3313371E-003, 2.2330792E-003, 4.7553761E+002
 4.3006413E+001, 6.3030052E-002, 1.1886701E-001, 7.9829502E-002, 6.1980441E-003, 8.5924222E-003, 2.2762819E-003, 4.7670359E+002
 4.4007544E+001, 6.3031701E-002, 1.1873268E-001, 7.9832434E-002, 6.2608244E-003, 8.8322826E-003, 2.2888046E-003, 4.7902028E+002
 4.5006239E+001, 6.2836439E-002, 1.1881374E-001, 7.9867821E-002, 6.2549080E-003, 9.2664427E-003, 2.2881674E-003, 4.7836150E+002
 4.6006194E+001, 6.3104665E-002, 1.1819904E-001, 7.9817506E-002, 6.4886979E-003, 9.6731493E-003, 2.3338942E-003, 4.7142627E+002
 4.7003806E+001, 6.2878583E-002, 1.1786507E-001, 7.9937266E-002, 6.7349236E-003, 1.0531397E-002, 2.3845333E-003, 4.7075651E+002
 4.8006827E+001, 6.2807984E-002, 1.1773421E-001, 8.0021153E-002, 6.8592914E-003, 1.0563799E-002, 2.4104083E-003, 4.7121947E+002
 4.9000761E+001, 6.3100171E-002, 1.1749161E-001, 7.9878977E-002, 6.8547097E-003, 1.0706051E-002, 2.4074994E-003, 4.6788940E+002
 5.0002657E+001, 6.3150646E-002, 1.1746730E-001, 7.9833916E-002, 6.8303271E-003, 1.0822908E-002, 2.4020321E-003, 4.6382223E+002
 5.1002265E+001, 6.3164549E-002, 1.1733034E-001, 7.9829910E-002, 6.8887671E-003, 1.1059892E-002, 2.4135950E-003, 4.6753940E+002
 5.2003763E+001, 6.3581834E-002, 1.1668088E-001, 7.9640629E-002, 7.0293565E-003, 1.1775219E-002, 2.4388825E-003, 4.6388273E+002
 5.3005408E+001, 6.3916486E-002, 1.1685052E-001, 7.9396810E-002, 6.7604869E-003, 1.1557367E-002, 2.3820475E-003, 4.6818434E+002
 5.4009413E+001, 6.4123591E-002, 1.1605287E-001, 7.9415143E-002, 7.1303241E-003, 1.2154136E-002, 2.4557652E-003, 4.6258481E+002
 5.5009078E+001, 6.4267070E-002, 1.1585944E-001, 7.9341087E-002, 7.1583409E-003, 1.2396777E-002, 2.4602988E-003, 4.6232601E+002
 5.6006498E+001, 6.4184123E-002, 1.1547150E-001, 7.9396875E-002, 7.3773977E-003, 1.3161589E-002, 2.5046324E-003, 4.5536220E+002
 5.7006556E+001, 6.4417044E-002, 1.1527748E-001, 7.9303652E-002, 7.3893891E-003, 1.3151622E-002, 2.5056929E-003, 4.5761481E+002
 5.8002952E+001, 6.4564327E-002, 1.1483269E-001, 7.9218546E-002, 7.5222376E-003, 1.3942514E-002, 2.5309241E-003, 4.5816895E+002
 5.9006114E+001, 6.5103131E-002, 1.1414443E-001, 7.9052455E-002, 7.6957812E-003, 1.4084600E-002, 2.5630325E-003, 4.5197014E+002
 6.0007666E+001, 6.5578947E-002, 1.1399910E-001, 7.8768125E-002, 7.5353898E-003, 1.4150882E-002, 2.5271799E-003, 4.5131322E+002
 6.1006754E+001, 6.5586417E-002, 1.1401688E-001, 7.8727804E-002, 7.4964458E-003, 1.4334496E-002, 2.5188950E-003, 4.4949736E+002
 6.2005890E+001, 6.6127214E-002, 1.1345587E-001, 7.8486835E-002, 7.5553971E-003, 1.4681215E-002, 2.5272161E-003, 4.4836055E+002
 6.3003513E+001, 6.6300276E-002, 1.1321569E-001, 7.8379943E-002, 7.5788708E-003, 1.5096232E-002, 2.5303980E-003, 4.4382269E+002
 6.4003114E+001, 6.6613954E-002, 1.1255848E-001, 7.8320081E-002, 7.8236980E-003, 1.5456614E-002, 2.5781766E-003, 4.4577300E+002
 6.5006045E+001, 6.6423685E-002, 1.1257783E-001, 7.8417481E-002, 7.8928706E-003, 1.5607518E-002, 2.5932971E-003, 4.4591049E+002
 6.6008156E+001, 6.6517418E-002, 1.1236261E-001, 7.8363416E-002, 7.9468933E-003, 1.5976443E-002, 2.6032861E-003, 4.4642445E+002
 6.7005324E+001, 6.7045581E-002, 1.1179690E-001, 7.8153994E-002, 8.0322902E-003, 1.6189622E-002, 2.6172915E-003, 4.4308707E+002
 6.8006994E+001, 6.7011258E-002, 1.1189598E-001, 7.8160293E-002, 7.9930597E-003, 1.6098179E-002, 2.6095861E-003, 4.4070006E+002
 6.9008431E+001, 6.6789009E-002, 1.1155356E-001, 7.8310980E-002, 8.2666393E-003, 1.6765526E-002, 2.6660762E-003, 4.4439277E+002
 7.0008656E+001, 6.6793856E-002, 1.1124378E-001, 7.8348833E-002, 8.4351364E-003, 1.7121697E-002, 2.7000863E-003, 4.4447900E+002
 7.1005855E+001, 6.6834128E-002, 1.1104170E-001, 7.8306871E-002, 8.4934695E-003, 1.7612399E-002, 2.7111122E-003, 4.4221265E+002
 7.2000016E+001, 6.6620153E-002, 1.1127514E-001, 7.8388376E-002, 8.4544054E-003, 1.7538323E-002, 2.7045054E-003, 4.4173715E+002
 7.3006716E+001, 6.6728822E-002, 1.1064400E-001, 7.8429433E-002, 8.7683352E-003, 1.8075950E-002, 2.7674426E-003, 4.4246176E+002
 7.4003979E+001, 6.6842247E-002, 1.1100298E-001, 7.8255927E-002, 8.4718743E-003, 1.7970512E-002, 2.7061352E-003, 4.4240935E+002
 7.5000740E+001, 6.6918990E-002, 1.1093411E-001, 7.8197765E-002, 8.4570944E-003, 1.8147004E-002, 2.7023936E-003, 4.4153202E+002
 7.6005228E+001, 6.7274744E-002, 1.1040148E-001, 7.8004648E-002, 8.5432112E-003, 1.8911971E-002, 2.7168189E-003, 4.4141942E+002
 7.7007742E+001, 6.7384474E-002, 1.1042029E-001, 7.7965153E-002, 8.5025425E-003, 1.8662553E-002, 2.7081670E-003, 4.3975754E+002
 7.8003947E+001, 6.6899481E-002, 1.1033983E-001, 7.8235943E-002, 8.7545755E-003, 1.9163595E-002, 2.7620655E-003, 4.4231550E+002
 7.9002498E+001, 6.6926575E-002, 1.1040796E-001, 7.8196244E-002, 8.6930368E-003, 1.9162336E-002, 2.7492891E-003, 4.3912902E+002
 8.0003883E+001, 6.6881790E-002, 1.1051555E-001, 7.8169904E-002, 8.6252361E-003, 1.9299858E-002, 2.7354704E-003, 4.4232343E+002
 8.1004800E+001, 6.6970136E-002, 1.1035227E-001, 7.8116169E-002, 8.6561929E-003, 1.9586766E-002, 2.7408788E-003, 4.4110785E+002
 8.2003456E+001, 6.7167896E-002, 1.1006091E-001, 7.8086271E-002, 8.7610846E-003, 1.9522898E-002, 2.7612702E-003, 4.3913979E+002
 8.3007662E+001, 6.7267121E-002, 1.1008452E-001, 7.7996856E-002, 8.6803242E-003, 1.9617002E-002, 2.7439832E-003, 4.3927976E+002
 8.4009883E+001, 6.7035439E-002, 1.1003635E-001, 7.8069084E-002, 8.7614814E-003, 2.0229430E-002, 2.7611652E-003, 4.4002118E+002
 8.5010253E+001, 6.7217013E-002, 1.0992635E-001, 7.8001307E-002, 8.7559680E-003, 2.0110001E-002, 2.7591019E-003, 4.3919120E+002
 8.6007888E+001, 6.7291709E-002, 1.0968574E-001, 7.7937983E-002, 8.8147224E-003, 2.0665634E-002, 2.7699148E-003, 4.3954873E+002
 8.7009788E+001, 6.7239975E-002, 1.0983739E-001, 7.7951155E-002, 8.7573562E-003, 2.0500459E-002, 2.7587008E-003, 4.3604791E+002
 8.8003622E+001, 6.6940758E-002, 1.0979090E-001, 7.8096650E-002, 8.8949582E-003, 2.0936987E-002, 2.7881081E-003, 4.3878906E+002
 8.9007282E+001, 6.7112135E-002, 1.0963662E-001, 7.7990972E-002, 8.8806576E-003, 2.1182127E-002, 2.7837952E-003, 4.3931096E+002
 9.0004100E+001, 6.7049968E-002, 1.0960288E-001, 7.8032545E-002, 8.9287674E-003, 2.1250025E-002, 2.7939382E-003, 4.4138825E+002
 9.1007878E+001, 6.7380997E-002, 1.0959239E-001, 7.7836518E-002, 8.7776803E-003, 2.1106391E-002, 2.7611640E-003, 4.3483834E+002
 9.2003137E+001, 6.7088253E-002, 1.1001852E-001, 7.7877255E-002, 8.6220556E-003, 2.1232948E-002, 2.7308614E-003, 4.3839894E+002
 9.3002664E+001, 6.7340646E-002, 1.0986918E-001, 7.7716851E-002, 8.5622382E-003, 2.1469949E-002, 2.7167390E-003, 4.4138992E+002
 9.4001279E+001, 6.7210206E-002, 1.0973195E-001, 7.7838868E-002, 8.7197025E-003, 2.1527925E-002, 2.7497248E-003, 4.3715895E+002
 9.5000419E+001, 6.7344098E-002, 1.0964695E-001, 7.7746242E-002, 8.6848231E-003, 2.1711719E-002, 2.7415067E-003, 4.3964905E+002
 9.6004614E+001, 6.7422217E-002, 1.0933529E-001, 7.7688853E-002, 8.7800847E-003, 2.2356439E-002, 2.7596572E-003, 4.3889039E+002
 9.7002111E+001, 6.7602446E-002, 1.0975658E-001, 7.7545158E-002, 8.4770589E-003, 2.1665249E-002, 2.6974194E-003, 4.3571626E+002
 9.8007453E+001, 6.7377137E-002, 1.0972693E-001, 7.7613813E-002, 8.5470193E-003, 2.2236754E-002, 2.7123249E-003, 4.4009608E+002
 9.9008429E+001, 6.7439942E-002, 1.0952947E-001, 7.7633065E-002, 8.6495970E-003, 2.2245305E-002, 2.7329584E-003, 4.4225813E+002
 1.0000666E+002, 6.7522626E-002, 1.0952578E-001, 7.7539975E-002, 8.5786453E-003, 2.2484891E-002, 2.7175786E-003, 4.3796769E+002
 1.0100182E+002, 6.7546035E-002, 1.0940381E-001, 7.7516384E-002, 8.6151964E-003, 2.2774050E-002, 2.7245241E-003, 4.3797581E+002
 1.0200479E+002, 6.7786485E-002, 1.0939250E-001, 7.7359947E-002, 8.4963864E-003, 2.2764021E-002, 2.6987277E-003, 4.3805734E+002
 1.0300595E+002, 6.7591543E-002, 1.0949443E-001, 7.7461173E-002, 8.5313290E-003, 2.2747831E-002, 2.7070941E-003, 4.3990326E+002
 1.0400040E+002, 6.7664605E-002, 1.0947058E-001, 7.7352760E-002, 8.4579435E-003, 2.3162165E-002, 2.6910291E-003, 4.3804914E+002
 1.0500504E+002, 6.7537362E-002, 1.0972392E-001, 7.7433545E-002, 8.4077532E-003, 2.2692096E-002, 2.6821703E-003, 4.3910142E+002
 1.0600151E+002, 6.7289030E-002, 1.0953639E-001, 7.7522712E-002, 8.5649985E-003, 2.3543764E-002, 2.7147146E-003, 4.3987636E+002
 1.0700068E+002, 6.7606935E-002, 1.0966987E-001, 7.7362939E-002, 8.3769207E-003, 2.2946308E-002, 2.6750729E-003, 4.4197796E+002
 1.0800925E+002, 6.7387336E-002, 1.0955010E-001, 7.7406387E-002, 8.4681653E-003, 2.3827899E-002, 2.6938726E-003, 4.4261896E+002
 1.0900984E+002, 6.7402385E-002, 1.0982918E-001, 7.7417054E-002, 8.3501955E-003, 2.3148839E-002, 2.6705509E-003, 4.3705646E+002
 1.1000623E+002, 6.7443915E-002, 1.0976868E-001, 7.7329115E-002, 8.3095542E-003, 2.3639937E-002, 2.6612813E-003, 4.4133777E+002
 1.1100447E+002, 6.7536274E-002, 1.0969727E-001, 7.7245995E-002, 8.2765722E-003, 2.3910999E-002, 2.6535816E-003, 4.3823124E+002
 1.1200456E+002, 6.7546552E-002, 1.0977988E-001, 7.7239808E-002, 8.2344079E-003, 2.3743625E-002, 2.6451109E-003, 4.4086810E+002
 1.1300133E+002, 6.7574411E-002, 1.0974276E-001, 7.7223238E-002, 8.2379775E-003, 2.3803451E-002, 2.6455901E-003, 4.3767949E+002
 1.1400287E+002, 6.7579379E-002, 1.0972006E-001, 7.7236646E-002, 8.2583584E-003, 2.3744457E-002, 2.6498201E-003, 4.3898464E+002
 1.1500745E+002, 6.7865222E-002, 1.0943689E-001, 7.7039754E-002, 8.2304031E-003, 2.4332072E-002, 2.6415353E-003, 4.3693986E+002
 1.1600959E+002, 6.7680699E-002, 1.0960426E-001, 7.7131179E-002, 8.2281625E-003, 2.4204170E-002, 2.6423732E-003, 4.3778005E+002
 1.1700752E+002, 6.7843608E-002, 1.0934501E-001, 7.7073343E-002, 8.2978800E-003, 2.4395177E-002, 2.6554091E-003, 4.3966477E+002
 1.1800228E+002, 6.7723957E-002, 1.0935440E-001, 7.7164732E-002, 8.3656477E-003, 2.4308850E-002, 2.6701458E-003, 4.4036412E+002
 1.1900117E+002, 6.7636035E-002, 1.0970259E-001, 7.7132908E-002, 8.1859705E-003, 2.4185578E-002, 2.6340215E-003, 4.3897862E+002
 1.2000973E+002, 6.7620376E-002, 1.0967650E-001, 7.7146829E-002, 8.2086525E-003, 2.4215987E-002, 2.6387231E-003, 4.3940797E+002
 1.2100931E+002, 6.7716038E-002, 1.0943743E-001, 7.7086219E-002, 8.2683990E-003, 2.4664472E-002, 2.6497623E-003, 4.3974388E+002
 1.2200460E+002, 6.7509868E-002, 1.0953922E-001, 7.7177539E-002, 8.2960506E-003, 2.4756694E-002, 2.6565505E-003, 4.3929918E+002
 1.2300768E+002, 6.7575626E-002, 1.0963758E-001, 7.7146010E-002, 8.2264037E-003, 2.4484175E-002, 2.6422575E-003, 4.3985055E+002
 1.2400705E+002, 6.7416966E-002, 1.0976431E-001, 7.7213748E-002, 8.2239245E-003, 2.4475448E-002, 2.6427230E-003, 4.3778834E+002
 1.2500286E+002, 6.7636390E-002, 1.0954731E-001, 7.7118820E-002, 8.2452202E-003, 2.4577550E-002, 2.6456155E-003, 4.3860070E+002
 1.2600544E+002, 6.7634634E-002, 1.0935949E-001, 7.7116388E-002, 8.3280880E-003, 2.4970298E-002, 2.6620623E-003, 4.4030790E+002
 1.2700415E+002, 6.7638578E-002, 1.0945317E-001, 7.7092095E-002, 8.2672188E-003, 2.4919622E-002, 2.6496326E-003, 4.3903689E+002
 1.2800774E+002, 6.7700067E-002, 1.0952785E-001, 7.7000422E-002, 8.1624040E-003, 2.5084164E-002, 2.6275451E-003, 4.4111955E+002
 1.2900603E+002, 6.7795279E-002, 1.0971856E-001, 7.6895496E-002, 7.9945277E-003, 2.4961577E-002, 2.5927290E-003, 4.3983128E+002
 1.3001081E+002, 6.7811654E-002, 1.0975017E-001, 7.6887116E-002, 7.9735713E-003, 2.4882948E-002, 2.5884442E-003, 4.3946201E+002
 1.3100844E+002, 6.7777896E-002, 1.0956016E-001, 7.6867808E-002, 8.0451281E-003, 2.5517822E-002, 2.6024276E-003, 4.3908306E+002
 1.3200772E+002, 6.7766104E-002, 1.0968969E-001, 7.6935312E-002, 8.0384877E-003, 2.4893348E-002, 2.6020120E-003, 4.3802474E+002
 1.3300214E+002, 6.7875177E-002, 1.0954111E-001, 7.6852895E-002, 8.0405304E-003, 2.5242622E-002, 2.6012809E-003, 4.3957066E+002
 1.3400349E+002, 6.7899084E-002, 1.0938712E-001, 7.6873237E-002, 8.1250571E-003, 2.5320687E-002, 2.6183527E-003, 4.3781766E+002
 1.3500968E+002, 6.7711531E-002, 1.0966475E-001, 7.6907627E-002, 8.0296042E-003, 2.5341318E-002, 2.5998948E-003, 4.4013750E+002
 1.3600722E+002, 6.7769320E-002, 1.0970436E-001, 7.6915670E-002, 8.0168164E-003, 2.4972714E-002, 2.5974394E-003, 4.3637627E+002
 1.3700843E+002, 6.7758219E-002, 1.0961043E-001, 7.6855433E-002, 8.0133760E-003, 2.5577317E-002, 2.5959551E-003, 4.4064769E+002
 1.3800324E+002, 6.7776927E-002, 1.0956478E-001, 7.6878649E-002, 8.0513404E-003, 2.5445585E-002, 2.6038079E-003, 4.3926120E+002
 1.3900797E+002, 6.7872990E-002, 1.0972579E-001, 7.6775940E-002, 7.8985315E-003, 2.5364274E-002, 2.5720174E-003, 4.3836011E+002
 1.4000824E+002, 6.8072747E-002, 1.0957385E-001, 7.6609560E-002, 7.8362929E-003, 2.5862620E-002, 2.5573518E-003, 4.3653059E+002
 1.4100894E+002, 6.7706827E-002, 1.0981300E-001, 7.6845996E-002, 7.9157791E-003, 2.5450354E-002, 2.5764391E-003, 4.4252962E+002
 1.4200134E+002, 6.7870640E-002, 1.0964361E-001, 7.6734709E-002, 7.9041466E-003, 2.5791532E-002, 2.5725845E-003, 4.4093418E+002
 1.4300573E+002, 6.8045433E-002, 1.0964958E-001, 7.6715327E-002, 7.8834206E-003, 2.5171865E-002, 2.5681443E-003, 4.3776811E+002
 1.4400213E+002, 6.7996503E-002, 1.0964410E-001, 7.6670591E-002, 7.8526332E-003, 2.5663565E-002, 2.5614419E-003, 4.3726750E+002
 1.4500281E+002, 6.7925947E-002, 1.0940842E-001, 7.6722294E-002, 7.9996908E-003, 2.6101856E-002, 2.5913993E-003, 4.3851987E+002
 1.4600515E+002, 6.7925859E-002, 1.0937142E-001, 7.6785818E-002, 8.0648842E-003, 2.5781670E-002, 2.6052111E-003, 4.3813379E+002
 1.4700201E+002, 6.7945410E-002, 1.0966061E-001, 7.6697596E-002, 7.8667578E-003, 2.5676524E-002, 2.5646285E-003, 4.3791504E+002
 1.4800974E+002, 6.7669169E-002, 1.0978835E-001, 7.6834563E-002, 7.9188563E-003, 2.5726605E-002, 2.5769114E-003, 4.4066124E+002
 1.4900372E+002, 6.7846508E-002, 1.0986727E-001, 7.6729130E-002, 7.7994831E-003, 2.5485564E-002, 2.5517054E-003, 4.3917721E+002
 1.5000879E+002, 6.7799216E-002, 1.0982535E-001, 7.6721034E-002, 7.8130739E-003, 2.5815329E-002, 2.5543162E-003, 4.3739119E+002
 1.5100608E+002, 6.7768264E-002, 1.0974768E-001, 7.6796625E-002, 7.9063946E-003, 2.5629138E-002, 2.5738930E-003, 4.4163895E+002
 1.5200187E+002, 6.8200747E-002, 1.0970905E-001, 7.6514370E-002, 7.7002727E-003, 2.5652619E-002, 2.5289891E-003, 4.3959624E+002
 1.5300013E+002, 6.8125824E-002, 1.0984216E-001, 7.6491673E-002, 7.6243063E-003, 2.5842773E-002, 2.5136056E-003, 4.3831709E+002
 1.5400125E+002, 6.7919710E-002, 1.0957872E-001, 7.6689163E-002, 7.8977180E-003, 2.5997266E-002, 2.5706814E-003, 4.3600163E+002
