s,,,,,,,
Time,"O2 EXHAUST","CO2 EXHAUST","H2O EXHAUST","CO EXHAUST","FUEL EXHAUST","SOOT EXHAUST","TEMP EXHAUST"
 0.0000000E+000, 2.3099739E-001, 5.9146498E-004, 5.9412091E-003, 0.0000000E+000, 0.0000000E+000, 0.0000000E+000, 2.0000000E+001
 1.0015799E+000, 2.3099739E-001, 5.9146498E-004, 5.9412091E-003, 9.6927486E-027, 3.3467935E-026, 2.7560186E-027, 2.2006411E+001
 2.0036750E+000, 2.1689062E-001, 1.1145471E-002, 1.2030398E-002, 1.5186804E-004, 2.1852224E-004, 1.1630828E-004, 1.5268685E+002
 3.0057884E+000, 2.1038511E-001, 1.6021903E-002, 1.4839278E-002, 2.1829287E-004, 2.9613576E-004, 1.6923756E-004, 2.1122926E+002
 4.0006964E+000, 2.0067397E-001, 2.3468413E-002, 1.9005118E-002, 2.2134347E-004, 2.5033615E-004, 2.2877490E-004, 2.8395695E+002
 5.0027612E+000, 1.8772404E-001, 3.3474214E-002, 2.4541287E-002, 1.7670604E-004, 1.5773618E-004, 2.9822936E-004, 3.6906826E+002
 6.0062132E+000, 1.7031594E-001, 4.6943114E-002, 3.1977754E-002, 1.0409486E-004, 3.1493011E-005, 3.8901276E-004, 4.5343225E+002
 7.0060643E+000, 1.5549228E-001, 5.8315209E-002, 3.8328782E-002, 1.0028496E-004, 4.7706840E-007, 4.7810426E-004, 4.9852422E+002
 8.0068475E+000, 1.3886679E-001, 7.1025717E-002, 4.5460134E-002, 1.2217236E-004, 4.3746773E-007, 5.8333849E-004, 5.3295118E+002
 9.0057650E+000, 1.2760356E-001, 7.9636987E-002, 5.0291290E-002, 1.3678040E-004, 4.5667496E-007, 6.5458615E-004, 5.4454633E+002
 1.0005566E+001, 1.0797393E-001, 9.4641219E-002, 5.8711754E-002, 1.6436758E-004, 3.1821397E-006, 7.7918949E-004, 5.7920172E+002
 1.1005845E+001, 9.8467988E-002, 1.0187974E-001, 6.2794052E-002, 1.9361095E-004, 3.0446140E-005, 8.4274999E-004, 5.7909392E+002
 1.2007607E+001, 8.7257159E-002, 1.0967989E-001, 6.7719055E-002, 6.4465510E-004, 8.3029169E-004, 1.0020197E-003, 5.7602110E+002
 1.3002780E+001, 8.3128534E-002, 1.1159312E-001, 6.9598623E-002, 1.2936076E-003, 2.6087470E-003, 1.1575691E-003, 5.5082375E+002
 1.4008195E+001, 7.9914840E-002, 1.1300138E-001, 7.1109326E-002, 1.8716624E-003, 3.8575571E-003, 1.2937833E-003, 5.3505852E+002
 1.5000018E+001, 7.7611335E-002, 1.1338475E-001, 7.2207620E-002, 2.5800857E-003, 5.8913899E-003, 1.4501055E-003, 5.1877702E+002
 1.6000818E+001, 7.6046643E-002, 1.1352690E-001, 7.3026707E-002, 3.1704025E-003, 7.0535533E-003, 1.5789616E-003, 4.9717792E+002
 1.7007967E+001, 7.4960106E-002, 1.1346829E-001, 7.3424136E-002, 3.5204132E-003, 9.2322717E-003, 1.6542401E-003, 4.8718395E+002
 1.8002437E+001, 7.4211456E-002, 1.1354363E-001, 7.3790336E-002, 3.7799282E-003, 9.9331192E-003, 1.7109903E-003, 4.7206131E+002
 1.9010142E+001, 7.3073315E-002, 1.1319783E-001, 7.4223184E-002, 4.2874346E-003, 1.2673635E-002, 1.8180780E-003, 4.6749729E+002
 2.0010460E+001, 7.3887255E-002, 1.1234549E-001, 7.3774545E-002, 4.3141136E-003, 1.3743713E-002, 1.8171163E-003, 4.5498392E+002
 2.1005457E+001, 7.4131786E-002, 1.1187674E-001, 7.3608144E-002, 4.3938842E-003, 1.4680430E-002, 1.8306744E-003, 4.4419401E+002
 2.2002720E+001, 7.4284582E-002, 1.1175073E-001, 7.3395800E-002, 4.2857216E-003, 1.5607950E-002, 1.8062793E-003, 4.2976740E+002
 2.3001222E+001, 7.4244455E-002, 1.1076588E-001, 7.3389355E-002, 4.7256193E-003, 1.7756998E-002, 1.8936830E-003, 4.2849272E+002
 2.4004887E+001, 7.4572005E-002, 1.1024091E-001, 7.2964269E-002, 4.6316611E-003, 2.0061290E-002, 1.8692133E-003, 4.1466159E+002
 2.5001174E+001, 7.4309223E-002, 1.1040835E-001, 7.3001792E-002, 4.5896725E-003, 2.0593078E-002, 1.8614546E-003, 4.0562743E+002
 2.6002727E+001, 7.4630456E-002, 1.0983417E-001, 7.2650212E-002, 4.5741575E-003, 2.2565388E-002, 1.8535669E-003, 4.0091257E+002
 2.7006773E+001, 7.4801270E-002, 1.0973786E-001, 7.2515030E-002, 4.5111963E-003, 2.2881321E-002, 1.8391840E-003, 3.8707297E+002
 2.8000973E+001, 7.5366655E-002, 1.0917725E-001, 7.2078763E-002, 4.4203744E-003, 2.4334654E-002, 1.8151071E-003, 3.8089487E+002
 2.9005472E+001, 7.6125017E-002, 1.0806131E-001, 7.1563019E-002, 4.5156947E-003, 2.6571665E-002, 1.8269186E-003, 3.7664433E+002
 3.0010228E+001, 7.6982041E-002, 1.0721658E-001, 7.0972776E-002, 4.4300137E-003, 2.8324498E-002, 1.8017089E-003, 3.6449670E+002
 3.1008677E+001, 7.7314922E-002, 1.0700996E-001, 7.0736397E-002, 4.3365161E-003, 2.8809867E-002, 1.7798475E-003, 3.5848971E+002
 3.2003999E+001, 7.8121486E-002, 1.0619056E-001, 7.0169764E-002, 4.2583752E-003, 3.0576655E-002, 1.7564696E-003, 3.5383993E+002
 3.3010769E+001, 7.9066841E-002, 1.0543164E-001, 6.9566354E-002, 4.1223094E-003, 3.1873954E-002, 1.7210346E-003, 3.4303846E+002
 3.4012995E+001, 8.0513087E-002, 1.0405113E-001, 6.8727598E-002, 4.0775459E-003, 3.3768809E-002, 1.7004427E-003, 3.3552304E+002
 3.5002858E+001, 8.2282121E-002, 1.0222495E-001, 6.7847631E-002, 4.1963015E-003, 3.5453448E-002, 1.7117066E-003, 3.3358069E+002
 3.6007529E+001, 8.2999950E-002, 1.0184510E-001, 6.7349694E-002, 3.9740636E-003, 3.6297497E-002, 1.6606216E-003, 3.2698761E+002
 3.7003008E+001, 8.3625610E-002, 1.0145673E-001, 6.7043853E-002, 3.9040612E-003, 3.6352214E-002, 1.6424047E-003, 3.1502079E+002
 3.8006319E+001, 8.4707632E-002, 1.0063372E-001, 6.6420437E-002, 3.7790953E-003, 3.7330670E-002, 1.6088631E-003, 3.1324023E+002
 3.9016904E+001, 8.5988848E-002, 9.9557907E-002, 6.5736142E-002, 3.7179443E-003, 3.8355167E-002, 1.5871305E-003, 3.0247418E+002
 4.0011487E+001, 8.7088532E-002, 9.8664344E-002, 6.5165132E-002, 3.6644822E-003, 3.9074539E-002, 1.5685011E-003, 2.9606760E+002
 4.1001197E+001, 8.7617204E-002, 9.8309486E-002, 6.4975179E-002, 3.6696601E-003, 3.8749223E-002, 1.5668142E-003, 2.8700607E+002
 4.2001016E+001, 8.7329599E-002, 9.8507158E-002, 6.5106001E-002, 3.6857469E-003, 3.8746821E-002, 1.5718578E-003, 2.7698976E+002
 4.3013250E+001, 8.7341684E-002, 9.8355516E-002, 6.5069644E-002, 3.7261364E-003, 3.9220729E-002, 1.5794001E-003, 2.6602433E+002
 4.4011890E+001, 8.8305641E-002, 9.7470963E-002, 6.4650937E-002, 3.7874250E-003, 3.9544137E-002, 1.5856687E-003, 2.5783906E+002
 4.5001115E+001, 9.0578820E-002, 9.5671034E-002, 6.3703245E-002, 3.8333057E-003, 3.9496939E-002, 1.5813642E-003, 2.5423773E+002
 4.6005282E+001, 9.0187341E-002, 9.5856149E-002, 6.3887451E-002, 3.8977400E-003, 3.9621210E-002, 1.5967700E-003, 2.4619552E+002
 4.7007708E+001, 9.3046430E-002, 9.2976504E-002, 6.2623329E-002, 4.1780025E-003, 4.1223128E-002, 1.6346493E-003, 2.3965237E+002
 4.8002622E+001, 9.4727372E-002, 9.1568472E-002, 6.1876232E-002, 4.2113046E-003, 4.1627020E-002, 1.6307239E-003, 2.4053838E+002
 4.9000847E+001, 9.4382244E-002, 9.1966288E-002, 6.2056336E-002, 4.1758420E-003, 4.1164238E-002, 1.6261941E-003, 2.3867226E+002
 5.0005350E+001, 9.5163985E-002, 9.1359174E-002, 6.1706995E-002, 4.1683705E-003, 4.1269746E-002, 1.6197777E-003, 2.3944837E+002
 5.1001168E+001, 9.6456116E-002, 8.9720122E-002, 6.1045713E-002, 4.3785614E-003, 4.3216854E-002, 1.6523062E-003, 2.3765889E+002
 5.2010609E+001, 9.6971297E-002, 8.9090891E-002, 6.0756992E-002, 4.4322824E-003, 4.4100588E-002, 1.6589588E-003, 2.3468251E+002
 5.3006773E+001, 9.7316890E-002, 8.8718129E-002, 6.0571978E-002, 4.4526901E-003, 4.4542444E-002, 1.6604292E-003, 2.3372276E+002
 5.4002442E+001, 9.7747858E-002, 8.8310882E-002, 6.0324913E-002, 4.4396843E-003, 4.5081124E-002, 1.6543976E-003, 2.3616975E+002
 5.5010177E+001, 9.8040106E-002, 8.7811060E-002, 6.0153311E-002, 4.5286126E-003, 4.5912612E-002, 1.6696910E-003, 2.3473971E+002
 5.6001199E+001, 9.8485631E-002, 8.7096196E-002, 5.9881958E-002, 4.6354979E-003, 4.7147704E-002, 1.6871713E-003, 2.3359815E+002
 5.7006516E+001, 9.8876035E-002, 8.6588669E-002, 5.9640636E-002, 4.6728443E-003, 4.8017481E-002, 1.6912431E-003, 2.3207566E+002
 5.8005095E+001, 9.9079166E-002, 8.6288617E-002, 5.9506231E-002, 4.7017477E-003, 4.8595765E-002, 1.6951272E-003, 2.3125783E+002
 5.9002916E+001, 9.9390155E-002, 8.5958263E-002, 5.9346137E-002, 4.7227027E-003, 4.8943745E-002, 1.6970508E-003, 2.3016270E+002
 6.0010237E+001, 9.9633328E-002, 8.5366893E-002, 5.9108521E-002, 4.8034066E-003, 5.0569067E-002, 1.7098445E-003, 2.2794262E+002
 6.1003517E+001, 1.0015845E-001, 8.4721921E-002, 5.8799648E-002, 4.8486533E-003, 5.1567254E-002, 1.7145396E-003, 2.2592310E+002
 6.2011888E+001, 1.0035359E-001, 8.4672148E-002, 5.8700670E-002, 4.7919054E-003, 5.1465834E-002, 1.7018670E-003, 2.2652097E+002
 6.3003030E+001, 1.0064941E-001, 8.4260398E-002, 5.8481356E-002, 4.8046200E-003, 5.2404340E-002, 1.7013669E-003, 2.2633392E+002
 6.4013382E+001, 1.0069262E-001, 8.4144318E-002, 5.8464451E-002, 4.8432536E-003, 5.2558011E-002, 1.7088090E-003, 2.2659592E+002
 6.5008649E+001, 1.0095103E-001, 8.3560029E-002, 5.8298705E-002, 4.9753655E-003, 5.3660712E-002, 1.7327793E-003, 2.2241141E+002
 6.6007581E+001, 1.0134401E-001, 8.3020787E-002, 5.8055150E-002, 5.0252605E-003, 5.4596116E-002, 1.7393158E-003, 2.2187068E+002
 6.7004930E+001, 1.0164824E-001, 8.2804325E-002, 5.7894161E-002, 4.9943017E-003, 5.4753218E-002, 1.7309065E-003, 2.2417943E+002
 6.8011863E+001, 1.0161496E-001, 8.2619211E-002, 5.7911207E-002, 5.0914041E-003, 5.5151239E-002, 1.7504548E-003, 2.2074240E+002
 6.9004495E+001, 1.0189314E-001, 8.1992844E-002, 5.7744462E-002, 5.2413612E-003, 5.6260753E-002, 1.7779537E-003, 2.2177379E+002
 7.0013645E+001, 1.0191768E-001, 8.2014915E-002, 5.7687651E-002, 5.1875719E-003, 5.6466950E-002, 1.7664907E-003, 2.2030635E+002
 7.1001912E+001, 1.0213722E-001, 8.1825174E-002, 5.7530574E-002, 5.1491186E-003, 5.6899826E-002, 1.7566724E-003, 2.1949489E+002
 7.2009901E+001, 1.0250893E-001, 8.1142893E-002, 5.7285808E-002, 5.2629789E-003, 5.8213394E-002, 1.7759199E-003, 2.1846968E+002
 7.3002765E+001, 1.0244318E-001, 8.1023949E-002, 5.7363216E-002, 5.3769396E-003, 5.8242233E-002, 1.7996372E-003, 2.1772659E+002
 7.4005194E+001, 1.0274566E-001, 8.0917283E-002, 5.7131577E-002, 5.2425546E-003, 5.8627776E-002, 1.7697188E-003, 2.1812335E+002
 7.5006034E+001, 1.0294273E-001, 8.0900363E-002, 5.6980555E-002, 5.1312139E-003, 5.8775950E-002, 1.7454949E-003, 2.2006377E+002
 7.6009514E+001, 1.0281378E-001, 8.0684946E-002, 5.7025672E-002, 5.2651838E-003, 5.9458282E-002, 1.7727819E-003, 2.2023750E+002
 7.7006389E+001, 1.0310532E-001, 8.0010708E-002, 5.6741318E-002, 5.3466686E-003, 6.1335073E-002, 1.7850905E-003, 2.1835544E+002
 7.8004943E+001, 1.0327421E-001, 8.0040302E-002, 5.6649690E-002, 5.2602316E-003, 6.1140969E-002, 1.7666213E-003, 2.2033396E+002
 7.9008715E+001, 1.0330647E-001, 7.9796310E-002, 5.6682993E-002, 5.3950839E-003, 6.1281421E-002, 1.7938707E-003, 2.1722441E+002
 8.0002517E+001, 1.0335888E-001, 7.9441461E-002, 5.6661845E-002, 5.5379703E-003, 6.1893875E-002, 1.8219842E-003, 2.1977714E+002
 8.1010310E+001, 1.0342260E-001, 7.9348512E-002, 5.6608415E-002, 5.5379021E-003, 6.2142778E-002, 1.8212357E-003, 2.1906905E+002
 8.2000097E+001, 1.0361199E-001, 7.9110815E-002, 5.6528735E-002, 5.5807331E-003, 6.2316319E-002, 1.8286244E-003, 2.2043002E+002
 8.3002901E+001, 1.0357348E-001, 7.8965878E-002, 5.6535113E-002, 5.6516687E-003, 6.2722981E-002, 1.8428286E-003, 2.1926509E+002
 8.4012773E+001, 1.0373993E-001, 7.8539911E-002, 5.6370861E-002, 5.7152338E-003, 6.3887220E-002, 1.8532197E-003, 2.2019576E+002
 8.5000201E+001, 1.0372031E-001, 7.8383830E-002, 5.6413448E-002, 5.8184955E-003, 6.4012904E-002, 1.8743289E-003, 2.1950565E+002
 8.6001018E+001, 1.0385093E-001, 7.7969532E-002, 5.6344333E-002, 5.9501120E-003, 6.4713994E-002, 1.8995343E-003, 2.1984399E+002
 8.7006553E+001, 1.0389799E-001, 7.8126284E-002, 5.6254727E-002, 5.8101349E-003, 6.4763988E-002, 1.8704871E-003, 2.2005228E+002
 8.8002078E+001, 1.0393362E-001, 7.7877183E-002, 5.6177963E-002, 5.8631772E-003, 6.5582298E-002, 1.8799981E-003, 2.2066041E+002
 8.9004205E+001, 1.0392308E-001, 7.7652173E-002, 5.6105783E-002, 5.9097106E-003, 6.6517017E-002, 1.8882918E-003, 2.2117981E+002
 9.0005018E+001, 1.0401633E-001, 7.7436988E-002, 5.6087122E-002, 5.9907650E-003, 6.6668572E-002, 1.9041288E-003, 2.1890571E+002
 9.1003130E+001, 1.0430960E-001, 7.7121807E-002, 5.5830111E-002, 5.9311963E-003, 6.7660801E-002, 1.8887525E-003, 2.1940983E+002
 9.2004620E+001, 1.0425257E-001, 7.7133216E-002, 5.5858817E-002, 5.9490278E-003, 6.7697981E-002, 1.8927011E-003, 2.1914572E+002
 9.3004613E+001, 1.0418001E-001, 7.6868469E-002, 5.5887952E-002, 6.0919936E-003, 6.8341767E-002, 1.9215443E-003, 2.1945247E+002
 9.4004805E+001, 1.0414695E-001, 7.6846260E-002, 5.5869382E-002, 6.0884383E-003, 6.8638271E-002, 1.9206008E-003, 2.1991912E+002
 9.5011946E+001, 1.0423289E-001, 7.6611294E-002, 5.5750861E-002, 6.1022899E-003, 6.9477870E-002, 1.9217440E-003, 2.1883976E+002
 9.6002710E+001, 1.0426472E-001, 7.6432328E-002, 5.5730616E-002, 6.1669386E-003, 6.9823645E-002, 1.9343187E-003, 2.1895288E+002
 9.7003895E+001, 1.0442016E-001, 7.6261610E-002, 5.5594330E-002, 6.1369691E-003, 7.0357133E-002, 1.9264868E-003, 2.1775592E+002
 9.8006504E+001, 1.0463368E-001, 7.5860383E-002, 5.5513195E-002, 6.2519803E-003, 7.0761679E-002, 1.9482013E-003, 2.1816845E+002
 9.9012555E+001, 1.0461584E-001, 7.5561335E-002, 5.5524425E-002, 6.3957290E-003, 7.1356097E-002, 1.9769424E-003, 2.1796486E+002
 1.0000672E+002, 1.0452437E-001, 7.5295433E-002, 5.5526828E-002, 6.5191519E-003, 7.2246492E-002, 2.0015492E-003, 2.1782658E+002
 1.0100173E+002, 1.0453070E-001, 7.5045882E-002, 5.5519607E-002, 6.6260449E-003, 7.2756949E-002, 2.0227069E-003, 2.1852876E+002
 1.0200407E+002, 1.0464810E-001, 7.4836724E-002, 5.5436000E-002, 6.6543401E-003, 7.3198335E-002, 2.0271774E-003, 2.1717672E+002
 1.0300185E+002, 1.0470026E-001, 7.4812395E-002, 5.5385969E-002, 6.6261396E-003, 7.3339007E-002, 2.0208840E-003, 2.1595732E+002
 1.0400955E+002, 1.0474413E-001, 7.4729894E-002, 5.5286420E-002, 6.5865088E-003, 7.3935660E-002, 2.0116595E-003, 2.1655868E+002
 1.0500594E+002, 1.0477015E-001, 7.4522190E-002, 5.5215610E-002, 6.6256100E-003, 7.4675514E-002, 2.0184811E-003, 2.1650656E+002
 1.0600468E+002, 1.0484157E-001, 7.4238533E-002, 5.5140455E-002, 6.6948011E-003, 7.5402973E-002, 2.0312125E-003, 2.1648508E+002
 1.0701143E+002, 1.0475663E-001, 7.4123251E-002, 5.5192618E-002, 6.7881865E-003, 7.5660890E-002, 2.0505080E-003, 2.1733681E+002
 1.0800585E+002, 1.0472160E-001, 7.3975157E-002, 5.5220717E-002, 6.8770688E-003, 7.5924767E-002, 2.0685698E-003, 2.1731097E+002
 1.0900238E+002, 1.0470093E-001, 7.3724789E-002, 5.5190984E-002, 6.9676386E-003, 7.6688733E-002, 2.0861903E-003, 2.1480493E+002
 1.1001136E+002, 1.0493417E-001, 7.3264400E-002, 5.4991789E-002, 7.0188060E-003, 7.7859141E-002, 2.0936267E-003, 2.1423845E+002
 1.1101146E+002, 1.0480280E-001, 7.3085614E-002, 5.5065836E-002, 7.1583955E-003, 7.8300104E-002, 2.1224181E-003, 2.1560351E+002
 1.1201036E+002, 1.0480729E-001, 7.3115310E-002, 5.5028177E-002, 7.1161645E-003, 7.8456091E-002, 2.1135161E-003, 2.1519008E+002
 1.1300132E+002, 1.0477202E-001, 7.2860458E-002, 5.5042252E-002, 7.2424795E-003, 7.9018352E-002, 2.1388345E-003, 2.1455865E+002
 1.1400921E+002, 1.0473250E-001, 7.2648587E-002, 5.5079501E-002, 7.3671893E-003, 7.9369968E-002, 2.1641443E-003, 2.1550373E+002
 1.1500756E+002, 1.0474065E-001, 7.2460248E-002, 5.5038164E-002, 7.4203954E-003, 7.9963497E-002, 2.1741702E-003, 2.1423367E+002
 1.1600545E+002, 1.0485768E-001, 7.2414535E-002, 5.4903754E-002, 7.3362030E-003, 8.0398867E-002, 2.1555941E-003, 2.1310168E+002
 1.1700589E+002, 1.0495312E-001, 7.2114064E-002, 5.4933318E-002, 7.4924997E-003, 8.0410733E-002, 2.1870363E-003, 2.1475935E+002
 1.1801279E+002, 1.0497454E-001, 7.2181511E-002, 5.4874185E-002, 7.4165345E-003, 8.0554844E-002, 2.1711337E-003, 2.1458177E+002
 1.1900493E+002, 1.0501768E-001, 7.2064993E-002, 5.4836326E-002, 7.4393655E-003, 8.0839467E-002, 2.1751537E-003, 2.1414042E+002
 1.2000240E+002, 1.0490085E-001, 7.1770432E-002, 5.4878622E-002, 7.6066440E-003, 8.1644852E-002, 2.2090224E-003, 2.1540612E+002
 1.2101192E+002, 1.0481052E-001, 7.1666739E-002, 5.4927385E-002, 7.6923078E-003, 8.1923426E-002, 2.2267389E-003, 2.1497798E+002
 1.2200453E+002, 1.0488848E-001, 7.1455447E-002, 5.4861352E-002, 7.7357140E-003, 8.2424430E-002, 2.2344624E-003, 2.1551956E+002
 1.2300219E+002, 1.0485386E-001, 7.1361546E-002, 5.4848973E-002, 7.7692412E-003, 8.2830492E-002, 2.2409761E-003, 2.1381741E+002
 1.2400696E+002, 1.0488610E-001, 7.1251609E-002, 5.4839491E-002, 7.8109758E-003, 8.2971718E-002, 2.2491377E-003, 2.1647262E+002
 1.2500028E+002, 1.0506356E-001, 7.1095230E-002, 5.4746536E-002, 7.8072230E-003, 8.3116852E-002, 2.2470899E-003, 2.1536293E+002
 1.2601192E+002, 1.0508113E-001, 7.1008413E-002, 5.4745161E-002, 7.8449950E-003, 8.3223395E-002, 2.2545767E-003, 2.1548693E+002
 1.2700551E+002, 1.0515626E-001, 7.0712093E-002, 5.4718682E-002, 7.9569987E-003, 8.3658806E-002, 2.2764700E-003, 2.1442796E+002
 1.2801045E+002, 1.0515468E-001, 7.0495504E-002, 5.4717273E-002, 8.0536130E-003, 8.4101215E-002, 2.2956640E-003, 2.1433153E+002
 1.2901045E+002, 1.0515667E-001, 7.0369523E-002, 5.4688769E-002, 8.0886158E-003, 8.4517910E-002, 2.3022434E-003, 2.1421632E+002
 1.3001212E+002, 1.0523420E-001, 7.0209032E-002, 5.4660243E-002, 8.1377654E-003, 8.4688223E-002, 2.3116097E-003, 2.1452253E+002
 1.3101204E+002, 1.0532328E-001, 7.0004056E-002, 5.4628890E-002, 8.2046015E-003, 8.4915647E-002, 2.3244514E-003, 2.1440319E+002
 1.3201197E+002, 1.0539562E-001, 7.0055776E-002, 5.4568669E-002, 8.1339557E-003, 8.4885407E-002, 2.3095746E-003, 2.1383469E+002
 1.3301190E+002, 1.0544942E-001, 6.9775711E-002, 5.4515139E-002, 8.2183663E-003, 8.5545223E-002, 2.3256272E-003, 2.1528736E+002
 1.3401183E+002, 1.0546602E-001, 6.9646656E-002, 5.4489540E-002, 8.2567033E-003, 8.5889149E-002, 2.3329034E-003, 2.1440512E+002
 1.3500747E+002, 1.0542702E-001, 6.9553422E-002, 5.4478266E-002, 8.2908547E-003, 8.6305256E-002, 2.3395575E-003, 2.1447803E+002
 1.3600041E+002, 1.0538582E-001, 6.9471674E-002, 5.4446603E-002, 8.3042979E-003, 8.6834168E-002, 2.3418223E-003, 2.1515292E+002
 1.3700010E+002, 1.0527660E-001, 6.9195333E-002, 5.4494755E-002, 8.4676921E-003, 8.7535679E-002, 2.3749942E-003, 2.1544988E+002
 1.3800608E+002, 1.0538967E-001, 6.8977253E-002, 5.4423484E-002, 8.5095100E-003, 8.7936299E-002, 2.3823199E-003, 2.1484715E+002
 1.3901043E+002, 1.0559674E-001, 6.8978798E-002, 5.4268521E-002, 8.3866493E-003, 8.8030808E-002, 2.3557492E-003, 2.1281991E+002
 1.4000409E+002, 1.0580367E-001, 6.8679757E-002, 5.4111193E-002, 8.3975213E-003, 8.8733255E-002, 2.3557405E-003, 2.1312635E+002
 1.4100240E+002, 1.0573827E-001, 6.8753222E-002, 5.4158815E-002, 8.4019700E-003, 8.8565757E-002, 2.3572831E-003, 2.1333902E+002
 1.4200871E+002, 1.0582505E-001, 6.8518115E-002, 5.4051704E-002, 8.4245829E-003, 8.9331470E-002, 2.3603205E-003, 2.1302685E+002
 1.4300112E+002, 1.0579551E-001, 6.8393550E-002, 5.4025306E-002, 8.4611381E-003, 8.9863655E-002, 2.3672475E-003, 2.1375257E+002
 1.4400933E+002, 1.0549212E-001, 6.8096030E-002, 5.4254088E-002, 8.7756085E-003, 9.0296646E-002, 2.4329391E-003, 2.1458924E+002
 1.4500710E+002, 1.0548475E-001, 6.8012648E-002, 5.4236886E-002, 8.8002056E-003, 9.0598311E-002, 2.4376033E-003, 2.1397376E+002
 1.4600907E+002, 1.0556777E-001, 6.7900696E-002, 5.4070038E-002, 8.7217388E-003, 9.1506872E-002, 2.4197445E-003, 2.1407009E+002
 1.4700077E+002, 1.0559992E-001, 6.7839782E-002, 5.3976094E-002, 8.6768716E-003, 9.2075023E-002, 2.4095576E-003, 2.1334458E+002
 1.4801252E+002, 1.0572907E-001, 6.7743526E-002, 5.3858602E-002, 8.6281646E-003, 9.2454795E-002, 2.3982596E-003, 2.1451302E+002
 1.4900262E+002, 1.0573168E-001, 6.7580094E-002, 5.3887293E-002, 8.7237183E-003, 9.2588453E-002, 2.4176429E-003, 2.1359260E+002
 1.5000031E+002, 1.0563357E-001, 6.7545261E-002, 5.3955638E-002, 8.7934300E-003, 9.2642392E-002, 2.4324513E-003, 2.1439690E+002
 1.5100380E+002, 1.0565932E-001, 6.7352996E-002, 5.3919803E-002, 8.8522827E-003, 9.3136254E-002, 2.4436674E-003, 2.1444972E+002
 1.5200106E+002, 1.0557842E-001, 6.7165387E-002, 5.3948248E-002, 8.9600945E-003, 9.3666881E-002, 2.4655137E-003, 2.1494270E+002
 1.5300220E+002, 1.0561814E-001, 6.6979550E-002, 5.3896951E-002, 9.0039830E-003, 9.4185677E-002, 2.4735429E-003, 2.1429684E+002
 1.5400900E+002, 1.0575038E-001, 6.6888360E-002, 5.3831733E-002, 8.9928534E-003, 9.4218780E-002, 2.4704139E-003, 2.1369820E+002
