s,,,,,,,
Time,"O2 EXHAUST","CO2 EXHAUST","H2O EXHAUST","CO EXHAUST","FUEL EXHAUST","SOOT EXHAUST","TEMP EXHAUST"
 0.0000000E+000, 2.3099739E-001, 5.9146498E-004, 5.9412091E-003, 0.0000000E+000, 0.0000000E+000, 0.0000000E+000, 2.0000000E+001
 1.0003075E+000, 2.3099739E-001, 5.9146498E-004, 5.9412091E-003, 9.1635576E-027, 5.5727174E-026, 2.4526427E-027, 2.0879958E+001
 2.0011438E+000, 2.2015474E-001, 1.0504896E-002, 1.0131101E-002, 7.9196463E-005, 1.8770194E-004, 7.6832316E-005, 1.2118051E+002
 3.0008727E+000, 2.1474110E-001, 1.5445658E-002, 1.2229160E-002, 1.2902625E-004, 2.6230132E-004, 1.1736614E-004, 1.7062689E+002
 4.0033729E+000, 2.0644939E-001, 2.3094179E-002, 1.5429388E-002, 1.5501767E-004, 2.9597267E-004, 1.6904728E-004, 2.4076060E+002
 5.0006874E+000, 1.9881881E-001, 3.0146447E-002, 1.8374844E-002, 1.7317997E-004, 2.9760950E-004, 2.1544386E-004, 2.9678903E+002
 6.0029781E+000, 1.9103773E-001, 3.7385974E-002, 2.1371441E-002, 1.6273245E-004, 2.4599152E-004, 2.5677756E-004, 3.4760852E+002
 7.0066606E+000, 1.8362708E-001, 4.4304434E-002, 2.4221715E-002, 1.3833169E-004, 1.7223700E-004, 2.9315875E-004, 3.9241672E+002
 8.0017412E+000, 1.7212509E-001, 5.5040887E-002, 2.8646027E-002, 1.0163494E-004, 5.8427941E-005, 3.4987021E-004, 4.4409226E+002
 9.0053339E+000, 1.6496442E-001, 6.1702760E-002, 3.1402641E-002, 9.1129399E-005, 1.8098265E-005, 3.8771293E-004, 4.6597709E+002
 1.0003626E+001, 1.5960193E-001, 6.6679355E-002, 3.3468693E-002, 9.0584036E-005, 2.2740313E-006, 4.1756254E-004, 4.7562761E+002
 1.1001353E+001, 1.4744889E-001, 7.7930701E-002, 3.8154253E-002, 1.0498702E-004, 4.0636774E-007, 4.8843138E-004, 5.1209276E+002
 1.2005196E+001, 1.4038063E-001, 8.4473375E-002, 4.0879559E-002, 1.1405749E-004, 6.2236880E-007, 5.2979212E-004, 5.2145138E+002
 1.3002337E+001, 1.3627960E-001, 8.8270218E-002, 4.2460628E-002, 1.1880767E-004, 2.3756311E-007, 5.5368345E-004, 5.2223656E+002
 1.4006584E+001, 1.3371463E-001, 9.0644466E-002, 4.3449605E-002, 1.2209955E-004, 2.9231376E-007, 5.6869277E-004, 5.1924521E+002
 1.5004192E+001, 1.3084270E-001, 9.3303108E-002, 4.4556875E-002, 1.2560397E-004, 1.9928796E-007, 5.8546062E-004, 5.1801444E+002
 1.6003063E+001, 1.2688744E-001, 9.6964541E-002, 4.6081849E-002, 1.3049692E-004, 1.2134627E-007, 6.0856744E-004, 5.2513618E+002
 1.7007713E+001, 1.2341114E-001, 1.0018242E-001, 4.7422185E-002, 1.3490378E-004, 1.8010559E-007, 6.2889815E-004, 5.2581083E+002
 1.8008424E+001, 1.1985320E-001, 1.0347576E-001, 4.8794023E-002, 1.3949014E-004, 3.4671291E-007, 6.4972208E-004, 5.3286910E+002
 1.9001734E+001, 1.2045706E-001, 1.0291703E-001, 4.8561147E-002, 1.3856917E-004, 1.3811723E-007, 6.4615824E-004, 5.2483128E+002
 2.0005169E+001, 1.1899585E-001, 1.0426965E-001, 4.9124538E-002, 1.4040595E-004, 1.2132986E-007, 6.5470080E-004, 5.2523992E+002
 2.1003142E+001, 1.1685805E-001, 1.0624854E-001, 4.9948795E-002, 1.4310988E-004, 1.4991763E-007, 6.6720217E-004, 5.2576760E+002
 2.2005721E+001, 1.1505972E-001, 1.0791318E-001, 5.0642173E-002, 1.4539975E-004, 1.5365201E-007, 6.7772164E-004, 5.2603625E+002
 2.3003394E+001, 1.1489475E-001, 1.0806598E-001, 5.0705759E-002, 1.4554826E-004, 1.3225328E-007, 6.7867386E-004, 5.2558574E+002
 2.4003522E+001, 1.1189866E-001, 1.1083926E-001, 5.1860962E-002, 1.4940285E-004, 2.2375614E-007, 6.9620782E-004, 5.2324581E+002
 2.5005605E+001, 1.1044730E-001, 1.1218273E-001, 5.2420561E-002, 1.5124990E-004, 2.4387031E-007, 7.0469747E-004, 5.3163484E+002
 2.6006944E+001, 1.1034576E-001, 1.1227680E-001, 5.2459691E-002, 1.5132437E-004, 2.0136017E-007, 7.0528003E-004, 5.2303935E+002
 2.7001954E+001, 1.1072539E-001, 1.1192554E-001, 5.2313286E-002, 1.5073998E-004, 9.1137056E-008, 7.0303841E-004, 5.2149520E+002
 2.8004624E+001, 1.0923930E-001, 1.1330125E-001, 5.2886248E-002, 1.5256216E-004, 6.6347982E-008, 7.1171680E-004, 5.1848595E+002
 2.9005409E+001, 1.0741081E-001, 1.1499367E-001, 5.3591280E-002, 1.5497971E-004, 2.0321919E-007, 7.2243116E-004, 5.2482177E+002
 3.0003305E+001, 1.0604332E-001, 1.1625953E-001, 5.4118530E-002, 1.5669587E-004, 2.2248282E-007, 7.3042516E-004, 5.2392078E+002
 3.1002924E+001, 1.0616932E-001, 1.1614294E-001, 5.4069947E-002, 1.5651429E-004, 1.5481264E-007, 7.2968379E-004, 5.2375481E+002
 3.2007860E+001, 1.0544997E-001, 1.1680860E-001, 5.4347332E-002, 1.5755580E-004, 4.3061631E-007, 7.3391755E-004, 5.2694248E+002
 3.3006716E+001, 1.0471114E-001, 1.1749272E-001, 5.4632164E-002, 1.5835916E-004, 2.1532679E-007, 7.3821098E-004, 5.2729189E+002
 3.4004472E+001, 1.0276995E-001, 1.1928942E-001, 5.5380643E-002, 1.6093218E-004, 4.4200390E-007, 7.4958692E-004, 5.2286022E+002
 3.5005306E+001, 1.0229735E-001, 1.1972711E-001, 5.5562831E-002, 1.6139896E-004, 2.0005249E-007, 7.5232358E-004, 5.2467604E+002
 3.6001902E+001, 1.0212517E-001, 1.1988660E-001, 5.5629193E-002, 1.6154295E-004, 1.2592889E-007, 7.5331514E-004, 5.1995729E+002
 3.7005851E+001, 1.0017490E-001, 1.2168967E-001, 5.6381582E-002, 1.6547004E-004, 1.9783622E-006, 7.6502243E-004, 5.2077146E+002
 3.8005146E+001, 9.9584764E-002, 1.2223813E-001, 5.6608691E-002, 1.6478572E-004, 1.9747760E-007, 7.6817705E-004, 5.2825292E+002
 3.9000557E+001, 9.9824656E-002, 1.2201627E-001, 5.6516158E-002, 1.6435323E-004, 5.5124146E-008, 7.6674745E-004, 5.1575915E+002
 4.0002387E+001, 9.7492257E-002, 1.2417479E-001, 5.7415548E-002, 1.6763975E-004, 4.7598977E-007, 7.8045655E-004, 5.2662561E+002
 4.1001656E+001, 9.8167711E-002, 1.2354987E-001, 5.7155047E-002, 1.6656315E-004, 2.4497085E-007, 7.7646053E-004, 5.2473868E+002
 4.2002859E+001, 9.8136836E-002, 1.2357857E-001, 5.7166925E-002, 1.6651913E-004, 1.5128892E-007, 7.7662386E-004, 5.2110444E+002
 4.3005733E+001, 9.5682576E-002, 1.2584350E-001, 5.8114455E-002, 1.7404105E-004, 6.2473309E-006, 7.9189018E-004, 5.2264519E+002
 4.4005548E+001, 9.5318771E-002, 1.2618619E-001, 5.8253644E-002, 1.7070587E-004, 1.0582113E-006, 7.9323210E-004, 5.2626301E+002
 4.5008539E+001, 9.4712834E-002, 1.2674774E-001, 5.8487163E-002, 1.7106563E-004, 4.3687465E-007, 7.9669142E-004, 5.2266138E+002
 4.6008578E+001, 9.5217449E-002, 1.2627967E-001, 5.8292767E-002, 1.7103303E-004, 1.3302711E-006, 7.9386580E-004, 5.2347497E+002
 4.7002735E+001, 9.4308629E-002, 1.2711717E-001, 5.8643941E-002, 1.7467713E-004, 4.1735086E-006, 7.9969746E-004, 5.2374768E+002
 4.8004050E+001, 9.2810744E-002, 1.2847061E-001, 5.9227437E-002, 1.9769698E-004, 3.3652556E-005, 8.1282844E-004, 5.2863414E+002
 4.9007110E+001, 9.2849811E-002, 1.2846132E-001, 5.9207490E-002, 1.8045597E-004, 9.9813801E-006, 8.0904196E-004, 5.2410456E+002
 5.0001432E+001, 9.3072156E-002, 1.2826156E-001, 5.9120654E-002, 1.7629442E-004, 4.7023719E-006, 8.0693857E-004, 5.2454943E+002
 5.1005623E+001, 9.2953280E-002, 1.2836017E-001, 5.9168828E-002, 1.8402640E-004, 1.3176598E-005, 8.0920538E-004, 5.2419563E+002
 5.2004118E+001, 9.2588269E-002, 1.2866630E-001, 5.9314567E-002, 2.0401200E-004, 4.5780245E-005, 8.1537323E-004, 5.2817444E+002
 5.3006307E+001, 9.2370158E-002, 1.2890306E-001, 5.9392947E-002, 1.8262125E-004, 1.1319325E-005, 8.1217049E-004, 5.2503599E+002
 5.4005482E+001, 9.2856977E-002, 1.2844342E-001, 5.9206832E-002, 1.8771362E-004, 1.9560028E-005, 8.1050454E-004, 5.1341928E+002
 5.5000418E+001, 9.2178322E-002, 1.2908494E-001, 5.9466122E-002, 1.8010128E-004, 7.5701622E-006, 8.1272048E-004, 5.2156096E+002
 5.6001567E+001, 9.1019452E-002, 1.3014286E-001, 5.9915212E-002, 1.9061102E-004, 2.3173819E-005, 8.2136503E-004, 5.2250761E+002
 5.7000182E+001, 9.1118777E-002, 1.3005528E-001, 5.9876344E-002, 1.8792272E-004, 1.7995969E-005, 8.2025595E-004, 5.2689518E+002
 5.8001754E+001, 9.0396948E-002, 1.3070224E-001, 6.0158151E-002, 2.0203832E-004, 3.8867724E-005, 8.2720604E-004, 5.2849612E+002
 5.9002961E+001, 9.2460007E-002, 1.2882266E-001, 5.9357697E-002, 1.8062889E-004, 9.5130610E-006, 8.1125524E-004, 5.2272675E+002
 6.0004434E+001, 9.1107578E-002, 1.3006235E-001, 5.9881225E-002, 1.9001022E-004, 2.1125091E-005, 8.2075019E-004, 5.2101847E+002
 6.1005954E+001, 8.9831455E-002, 1.3117121E-001, 6.0383977E-002, 2.3544879E-004, 9.9658655E-005, 8.3725928E-004, 5.2586879E+002
 6.2001324E+001, 8.9696098E-002, 1.3128446E-001, 6.0437562E-002, 2.4251737E-004, 1.1508939E-004, 8.3947067E-004, 5.2656068E+002
 6.3001499E+001, 8.9502833E-002, 1.3149325E-001, 6.0509436E-002, 2.2649858E-004, 7.1849585E-005, 8.3726185E-004, 5.2628892E+002
 6.4001975E+001, 9.0748517E-002, 1.3038483E-001, 6.0021470E-002, 1.9679886E-004, 2.9810941E-005, 8.2416096E-004, 5.2522651E+002
 6.5003709E+001, 8.9369297E-002, 1.3162856E-001, 6.0558938E-002, 2.1932879E-004, 6.0693641E-005, 8.3652526E-004, 5.2098857E+002
 6.6001727E+001, 8.9517728E-002, 1.3148729E-001, 6.0501665E-002, 2.2085069E-004, 6.8622866E-005, 8.3600391E-004, 5.3020937E+002
 6.7003678E+001, 8.8787270E-002, 1.3216471E-001, 6.0783899E-002, 2.2181747E-004, 6.2533758E-005, 8.4029229E-004, 5.1761014E+002
 6.8006783E+001, 9.0914065E-002, 1.3023055E-001, 5.9957780E-002, 1.9720423E-004, 3.1027471E-005, 8.2331962E-004, 5.2167364E+002
 6.9002422E+001, 8.9316538E-002, 1.3165227E-001, 6.0583399E-002, 2.3501207E-004, 8.5548976E-005, 8.4006151E-004, 5.2116837E+002
 7.0007040E+001, 8.8344744E-002, 1.3249590E-001, 6.0963733E-002, 2.6738807E-004, 1.6219652E-004, 8.5214706E-004, 5.2168334E+002
 7.1007386E+001, 8.9692247E-002, 1.3136158E-001, 6.0428818E-002, 1.9868138E-004, 3.1271057E-005, 8.3045001E-004, 5.2418787E+002
 7.2008438E+001, 8.9002772E-002, 1.3198915E-001, 6.0697268E-002, 2.0706355E-004, 3.6565747E-005, 8.3604275E-004, 5.2340167E+002
 7.3003973E+001, 8.8735322E-002, 1.3223503E-001, 6.0799931E-002, 2.0770045E-004, 4.2674577E-005, 8.3766120E-004, 5.2216410E+002
 7.4002642E+001, 8.9820533E-002, 1.3122812E-001, 6.0381981E-002, 2.0788055E-004, 4.4515564E-005, 8.3163684E-004, 5.1351009E+002
 7.5002916E+001, 8.7441515E-002, 1.3338214E-001, 6.1307956E-002, 2.4166174E-004, 8.7226146E-005, 8.5191712E-004, 5.2445191E+002
 7.6007224E+001, 8.6727158E-002, 1.3401316E-001, 6.1588868E-002, 2.6189778E-004, 1.1397053E-004, 8.6009549E-004, 5.2874290E+002
 7.7000285E+001, 8.5506559E-002, 1.3507548E-001, 6.2068688E-002, 3.0350309E-004, 1.9211185E-004, 8.7549490E-004, 5.2833468E+002
 7.8005373E+001, 8.6716440E-002, 1.3398707E-001, 6.1595515E-002, 2.8081403E-004, 1.7008833E-004, 8.6403151E-004, 5.1977791E+002
 7.9006545E+001, 8.6946098E-002, 1.3375339E-001, 6.1512058E-002, 2.9531043E-004, 1.8106391E-004, 8.6576095E-004, 5.1883552E+002
 8.0004290E+001, 8.7630680E-002, 1.3321020E-001, 6.1234076E-002, 2.3901843E-004, 8.6685974E-005, 8.5030980E-004, 5.1835910E+002
 8.1005827E+001, 8.7238241E-002, 1.3357381E-001, 6.1385642E-002, 2.3962131E-004, 8.4457046E-005, 8.5262981E-004, 5.2498241E+002
 8.2003685E+001, 8.7886474E-002, 1.3298547E-001, 6.1133872E-002, 2.3161099E-004, 7.2357700E-005, 8.4735376E-004, 5.2139160E+002
 8.3000905E+001, 8.6278340E-002, 1.3446749E-001, 6.1755226E-002, 2.3797847E-004, 7.7446157E-005, 8.5765581E-004, 5.2998892E+002
 8.4006534E+001, 8.7349003E-002, 1.3346126E-001, 6.1343552E-002, 2.4465754E-004, 1.0059032E-004, 8.5304179E-004, 5.2259165E+002
 8.5002950E+001, 8.7462266E-002, 1.3333296E-001, 6.1303639E-002, 2.5900198E-004, 1.2430833E-004, 8.5537300E-004, 5.2463518E+002
 8.6003634E+001, 8.6644115E-002, 1.3406978E-001, 6.1624551E-002, 2.7494252E-004, 1.3190173E-004, 8.6325900E-004, 5.2235028E+002
 8.7005303E+001, 8.7045307E-002, 1.3373236E-001, 6.1463927E-002, 2.5294922E-004, 1.0057340E-004, 8.5646838E-004, 5.1651424E+002
 8.8006172E+001, 8.7999034E-002, 1.3288410E-001, 6.1090079E-002, 2.2978593E-004, 6.9148681E-005, 8.4634842E-004, 5.1924275E+002
 8.9005795E+001, 8.5362084E-002, 1.3515801E-001, 6.2133252E-002, 3.3598898E-004, 2.3993176E-004, 8.8302100E-004, 5.2273756E+002
 9.0007117E+001, 8.7645013E-002, 1.3317611E-001, 6.1231603E-002, 2.5157435E-004, 1.0946005E-004, 8.5282130E-004, 5.1727005E+002
 9.1005624E+001, 8.7576339E-002, 1.3322890E-001, 6.1260641E-002, 2.5917337E-004, 1.1531585E-004, 8.5478342E-004, 5.2164479E+002
 9.2008635E+001, 8.6303159E-002, 1.3436588E-001, 6.1756491E-002, 2.8470839E-004, 1.6764836E-004, 8.6715523E-004, 5.2157819E+002
 9.3007033E+001, 8.6473398E-002, 1.3425025E-001, 6.1685178E-002, 2.5965354E-004, 1.1888465E-004, 8.6103763E-004, 5.2335017E+002
 9.4002188E+001, 8.5601652E-002, 1.3500958E-001, 6.2029795E-002, 2.9106648E-004, 1.6176978E-004, 8.7240706E-004, 5.3017396E+002
 9.5005685E+001, 8.6790147E-002, 1.3394065E-001, 6.1568699E-002, 2.7248161E-004, 1.1717915E-004, 8.6194889E-004, 5.1868517E+002
 9.6006107E+001, 8.7948706E-002, 1.3293662E-001, 6.1109160E-002, 2.2682632E-004, 5.9344354E-005, 8.4602431E-004, 5.2837325E+002
 9.7005186E+001, 8.8048758E-002, 1.3285291E-001, 6.1068415E-002, 2.2043992E-004, 5.4838149E-005, 8.4413836E-004, 5.2403004E+002
 9.8006843E+001, 8.5920538E-002, 1.3475504E-001, 6.1900867E-002, 2.6610717E-004, 1.1742452E-004, 8.6547369E-004, 5.2207222E+002
 9.9002899E+001, 8.6802507E-002, 1.3398576E-001, 6.1552295E-002, 2.3488859E-004, 7.5600634E-005, 8.5408638E-004, 5.2290880E+002
 1.0000363E+002, 8.7750140E-002, 1.3311074E-001, 6.1186729E-002, 2.3250427E-004, 7.2442410E-005, 8.4830137E-004, 5.2057391E+002
 1.0100716E+002, 8.6471558E-002, 1.3427730E-001, 6.1682294E-002, 2.4447732E-004, 9.0420091E-005, 8.5791675E-004, 5.2166828E+002
 1.0200568E+002, 8.6961163E-002, 1.3382518E-001, 6.1492987E-002, 2.4281597E-004, 9.1473234E-005, 8.5483475E-004, 5.2361184E+002
 1.0300587E+002, 8.5956360E-002, 1.3470253E-001, 6.1889567E-002, 2.7741198E-004, 1.4056652E-004, 8.6760357E-004, 5.1990978E+002
 1.0400634E+002, 8.6894087E-002, 1.3388576E-001, 6.1519609E-002, 2.4436829E-004, 8.9875897E-005, 8.5553538E-004, 5.2327516E+002
 1.0500047E+002, 8.7299127E-002, 1.3346952E-001, 6.1370782E-002, 2.7011203E-004, 1.2726475E-004, 8.5859922E-004, 5.1594317E+002
 1.0600540E+002, 8.6405343E-002, 1.3425810E-001, 6.1721999E-002, 2.9559468E-004, 1.6408376E-004, 8.6886164E-004, 5.2559253E+002
 1.0700282E+002, 8.4983655E-002, 1.3560514E-001, 6.2264112E-002, 2.7713424E-004, 1.3919273E-004, 8.7297874E-004, 5.2695398E+002
 1.0800756E+002, 8.6886861E-002, 1.3388395E-001, 6.1523577E-002, 2.4944154E-004, 9.9564949E-005, 8.5662222E-004, 5.2660594E+002
 1.0900688E+002, 8.6150579E-002, 1.3454170E-001, 6.1812041E-002, 2.6586118E-004, 1.1899179E-004, 8.6413582E-004, 5.1762149E+002
 1.1000257E+002, 8.6417497E-002, 1.3430530E-001, 6.1707288E-002, 2.5879575E-004, 1.0896855E-004, 8.6118351E-004, 5.2625807E+002
 1.1100344E+002, 8.7353225E-002, 1.3345985E-001, 6.1342678E-002, 2.4429083E-004, 9.1069346E-005, 8.5295395E-004, 5.1840333E+002
 1.1200407E+002, 8.8119733E-002, 1.3273279E-001, 6.1049357E-002, 2.5354164E-004, 1.1236745E-004, 8.5057746E-004, 5.2199934E+002
 1.1300483E+002, 8.5643874E-002, 1.3501771E-001, 6.2006446E-002, 2.6235870E-004, 1.1103125E-004, 8.6624431E-004, 5.2647414E+002
 1.1400140E+002, 8.6034154E-002, 1.3465084E-001, 6.1856138E-002, 2.6457534E-004, 1.2107352E-004, 8.6451482E-004, 5.2453197E+002
 1.1500629E+002, 8.6382540E-002, 1.3434444E-001, 6.1720564E-002, 2.5556226E-004, 9.6769354E-005, 8.6071948E-004, 5.2005522E+002
 1.1600412E+002, 8.6681545E-002, 1.3409902E-001, 6.1599377E-002, 2.3490874E-004, 7.0348069E-005, 8.5477279E-004, 5.1836845E+002
 1.1700349E+002, 8.4787437E-002, 1.3565839E-001, 6.2357394E-002, 3.5366479E-004, 2.8684134E-004, 8.8985884E-004, 5.2048450E+002
 1.1800445E+002, 8.5915278E-002, 1.3474737E-001, 6.1904311E-002, 2.7325173E-004, 1.3369608E-004, 8.6697342E-004, 5.2042061E+002
 1.1900714E+002, 8.5688073E-002, 1.3490883E-001, 6.1999930E-002, 3.0390787E-004, 1.8195270E-004, 8.7457897E-004, 5.1820853E+002
 1.2000737E+002, 8.6452537E-002, 1.3424201E-001, 6.1698882E-002, 2.7797579E-004, 1.3919294E-004, 8.6495248E-004, 5.1967914E+002
 1.2100293E+002, 8.5376179E-002, 1.3517721E-001, 6.2121326E-002, 3.1469182E-004, 2.1533538E-004, 8.7852848E-004, 5.2148772E+002
 1.2200642E+002, 8.6141056E-002, 1.3454466E-001, 6.1816783E-002, 2.6962598E-004, 1.2411608E-004, 8.6496824E-004, 5.1890166E+002
 1.2300056E+002, 8.8005011E-002, 1.3287343E-001, 6.1087647E-002, 2.3197756E-004, 8.0107396E-005, 8.4675839E-004, 5.2571817E+002
 1.2400614E+002, 8.6142811E-002, 1.3453239E-001, 6.1817178E-002, 2.7554980E-004, 1.3872345E-004, 8.6617613E-004, 5.1982371E+002
 1.2500712E+002, 8.5400607E-002, 1.3519178E-001, 6.2110244E-002, 2.9609845E-004, 1.5172957E-004, 8.7459296E-004, 5.2750228E+002
 1.2600347E+002, 8.7086139E-002, 1.3367329E-001, 6.1451494E-002, 2.6594037E-004, 1.2269963E-004, 8.5892360E-004, 5.1999574E+002
 1.2700525E+002, 8.6671835E-002, 1.3403732E-001, 6.1615551E-002, 2.7972120E-004, 1.3514917E-004, 8.6409752E-004, 5.1616972E+002
 1.2800081E+002, 8.7010305E-002, 1.3375639E-001, 6.1478106E-002, 2.5748849E-004, 1.1302269E-004, 8.5759529E-004, 5.1519102E+002
 1.2900781E+002, 8.8132897E-002, 1.3274894E-001, 6.1039689E-002, 2.3597177E-004, 8.4040084E-005, 8.4687298E-004, 5.2481850E+002
 1.3000301E+002, 8.6899234E-002, 1.3384411E-001, 6.1523394E-002, 2.6700082E-004, 1.2802208E-004, 8.6018173E-004, 5.2022503E+002
 1.3100730E+002, 8.6377323E-002, 1.3430597E-001, 6.1728631E-002, 2.8140956E-004, 1.4589603E-004, 8.6608058E-004, 5.2666963E+002
 1.3200237E+002, 8.6389809E-002, 1.3431417E-001, 6.1719296E-002, 2.6779571E-004, 1.3410300E-004, 8.6318433E-004, 5.1629331E+002
 1.3300182E+002, 8.6219353E-002, 1.3446623E-001, 6.1788394E-002, 2.7407334E-004, 1.2501806E-004, 8.6545822E-004, 5.2048013E+002
 1.3400058E+002, 8.4918685E-002, 1.3558234E-001, 6.2303877E-002, 3.2990864E-004, 2.1442538E-004, 8.8426055E-004, 5.1987551E+002
 1.3500502E+002, 8.6278726E-002, 1.3443816E-001, 6.1760370E-002, 2.5654386E-004, 1.0281124E-004, 8.6149626E-004, 5.2655339E+002
 1.3600190E+002, 8.7563236E-002, 1.3327830E-001, 6.1259290E-002, 2.3572525E-004, 8.0238965E-005, 8.5000729E-004, 5.2462147E+002
 1.3700747E+002, 8.6635961E-002, 1.3410589E-001, 6.1621792E-002, 2.5594800E-004, 1.1104703E-004, 8.5936653E-004, 5.2545315E+002
 1.3800717E+002, 8.5209165E-002, 1.3540279E-001, 6.2176299E-002, 2.7306180E-004, 1.3175183E-004, 8.7087907E-004, 5.2041476E+002
 1.3900201E+002, 8.4811688E-002, 1.3570776E-001, 6.2343208E-002, 3.1611430E-004, 1.7380850E-004, 8.8203097E-004, 5.2724359E+002
 1.4000217E+002, 8.5789357E-002, 1.3488799E-001, 6.1949477E-002, 2.5903218E-004, 1.0652478E-004, 8.6474341E-004, 5.2357477E+002
 1.4100572E+002, 8.4765561E-002, 1.3577594E-001, 6.2354100E-002, 2.9755331E-004, 1.6506983E-004, 8.7842541E-004, 5.2167572E+002
 1.4200234E+002, 8.5563857E-002, 1.3505943E-001, 6.2042374E-002, 2.8232895E-004, 1.4437630E-004, 8.7081667E-004, 5.2695573E+002
 1.4300286E+002, 8.6135024E-002, 1.3458699E-001, 6.1813180E-002, 2.4689305E-004, 8.7198915E-005, 8.6030430E-004, 5.2051931E+002
 1.4400350E+002, 8.5328009E-002, 1.3529498E-001, 6.2130116E-002, 2.7154169E-004, 1.2956380E-004, 8.6990098E-004, 5.2033003E+002
 1.4500285E+002, 8.5359760E-002, 1.3527474E-001, 6.2116952E-002, 2.6640852E-004, 1.1702689E-004, 8.6866837E-004, 5.1733709E+002
 1.4600090E+002, 8.3892940E-002, 1.3651150E-001, 6.2700954E-002, 3.4205611E-004, 2.4513767E-004, 8.9248412E-004, 5.2632308E+002
 1.4700823E+002, 8.4869364E-002, 1.3568909E-001, 6.2312198E-002, 2.9130436E-004, 1.5814149E-004, 8.7655033E-004, 5.2731904E+002
 1.4800165E+002, 8.5467669E-002, 1.3515375E-001, 6.2079026E-002, 2.7961059E-004, 1.3654031E-004, 8.7079644E-004, 5.2585400E+002
 1.4900213E+002, 8.6979233E-002, 1.3372345E-001, 6.1498556E-002, 2.9418993E-004, 1.8400329E-004, 8.6533825E-004, 5.1629973E+002
 1.5000849E+002, 8.5021770E-002, 1.3555153E-001, 6.2252497E-002, 2.8855268E-004, 1.5685174E-004, 8.7512661E-004, 5.2323937E+002
 1.5100397E+002, 8.4454331E-002, 1.3603986E-001, 6.2480566E-002, 3.1553814E-004, 1.7380733E-004, 8.8390611E-004, 5.2431861E+002
 1.5200310E+002, 8.4723973E-002, 1.3581173E-001, 6.2371447E-002, 3.0017534E-004, 1.6247707E-004, 8.7920829E-004, 5.2515604E+002
 1.5300230E+002, 8.6659813E-002, 1.3401801E-001, 6.1626188E-002, 2.9969147E-004, 1.5912229E-004, 8.6830230E-004, 5.2420041E+002
 1.5400367E+002, 8.5578272E-002, 1.3504917E-001, 6.2037296E-002, 2.8140566E-004, 1.3535723E-004, 8.7055508E-004, 5.2550792E+002
