s,,,,,,,
Time,"O2 EXHAUST","CO2 EXHAUST","H2O EXHAUST","CO EXHAUST","FUEL EXHAUST","SOOT EXHAUST","TEMP EXHAUST"
 0.0000000E+000, 2.3099739E-001, 5.9146498E-004, 5.9412092E-003, 0.0000000E+000, 0.0000000E+000, 0.0000000E+000, 2.0000000E+001
 1.0049472E+000, 2.3099739E-001, 5.9146498E-004, 5.9412092E-003, 1.3031297E-031, 1.3140676E-030, 3.8498241E-032, 2.0573622E+001
 2.0039232E+000, 2.2276970E-001, 8.0995563E-003, 9.1027250E-003, 4.2890694E-005, 2.9168861E-004, 5.4438226E-005, 1.0069097E+002
 3.0034241E+000, 2.1801175E-001, 1.2448979E-002, 1.0946750E-002, 8.0187123E-005, 3.5037816E-004, 8.8643094E-005, 1.4425230E+002
 4.0057021E+000, 2.1214860E-001, 1.7828435E-002, 1.3208569E-002, 1.0673508E-004, 4.4667322E-004, 1.2675023E-004, 1.9724239E+002
 5.0006929E+000, 2.0667644E-001, 2.2866104E-002, 1.5323830E-002, 1.2826586E-004, 4.7696465E-004, 1.6172195E-004, 2.4257142E+002
 6.0026588E+000, 1.9837238E-001, 3.0558678E-002, 1.8528693E-002, 1.3451274E-004, 4.5773067E-004, 2.0941415E-004, 3.0594278E+002
 7.0058345E+000, 1.9327041E-001, 3.5295134E-002, 2.0502171E-002, 1.3827499E-004, 3.9895906E-004, 2.3876090E-004, 3.3767908E+002
 8.0062750E+000, 1.8502642E-001, 4.2986037E-002, 2.3684531E-002, 1.2111351E-004, 2.6789400E-004, 2.8142381E-004, 3.8146869E+002
 9.0056274E+000, 1.7846275E-001, 4.9105644E-002, 2.6217622E-002, 1.0846853E-004, 1.7478299E-004, 3.1558709E-004, 4.1063517E+002
 1.0001373E+001, 1.7040735E-001, 5.6609067E-002, 2.9325985E-002, 9.5637037E-005, 7.6977383E-005, 3.5804879E-004, 4.4028774E+002
 1.1001449E+001, 1.6230457E-001, 6.4139687E-002, 3.2452263E-002, 8.9905497E-005, 1.4680504E-005, 4.0219674E-004, 4.6816706E+002
 1.2006220E+001, 1.5265050E-001, 7.3079226E-002, 3.6177901E-002, 9.8538311E-005, 1.0811771E-006, 4.5791432E-004, 4.8718017E+002
 1.3001333E+001, 1.4960631E-001, 7.5896425E-002, 3.7352700E-002, 1.0201358E-004, 1.2731577E-007, 4.7563493E-004, 4.8540846E+002
 1.4006119E+001, 1.4099757E-001, 8.3861375E-002, 4.0675130E-002, 1.1286504E-004, 8.0724258E-008, 5.2595569E-004, 5.0224887E+002
 1.5003722E+001, 1.3434067E-001, 9.0020319E-002, 4.3244294E-002, 1.2133610E-004, 1.2775897E-007, 5.6488368E-004, 5.0930926E+002
 1.6004823E+001, 1.3162768E-001, 9.2530577E-002, 4.4291291E-002, 1.2464139E-004, 9.6591407E-008, 5.8071833E-004, 5.0376058E+002
 1.7005719E+001, 1.2374677E-001, 9.9822238E-002, 4.7332778E-002, 1.3447949E-004, 7.8761755E-008, 6.2676480E-004, 5.1476025E+002
 1.8006745E+001, 1.1720677E-001, 1.0587304E-001, 4.9856828E-002, 1.4279750E-004, 1.0903388E-007, 6.6500834E-004, 5.1726586E+002
 1.9003072E+001, 1.1235497E-001, 1.1036213E-001, 5.1729272E-002, 1.4881390E-004, 9.6313552E-008, 6.9334806E-004, 5.1768126E+002
 2.0000800E+001, 1.0779558E-001, 1.1458038E-001, 5.3488953E-002, 1.5468345E-004, 1.4301278E-007, 7.2002430E-004, 5.2065054E+002
 2.1000959E+001, 1.0337323E-001, 1.1867219E-001, 5.5195639E-002, 1.6011495E-004, 1.1869446E-007, 7.4584475E-004, 5.1749487E+002
 2.2001480E+001, 9.8432600E-002, 1.2324249E-001, 5.7102663E-002, 1.6697999E-004, 2.6174724E-007, 7.7485572E-004, 5.1872236E+002
 2.3006882E+001, 9.5554758E-002, 1.2590180E-001, 5.8214337E-002, 1.7309936E-004, 7.8651478E-007, 7.9219190E-004, 5.1736629E+002
 2.4002397E+001, 9.3057059E-002, 1.2820563E-001, 5.9180295E-002, 1.8142259E-004, 2.8796686E-006, 8.0785855E-004, 5.1426761E+002
 2.5008381E+001, 8.6504772E-002, 1.3424017E-001, 6.1717168E-002, 2.1020483E-004, 9.5575608E-006, 8.5039173E-004, 5.2246859E+002
 2.6001105E+001, 8.5031709E-002, 1.3559993E-001, 6.2286532E-002, 2.1432523E-004, 1.0692226E-005, 8.5946861E-004, 5.1499424E+002
 2.7004567E+001, 8.1250830E-002, 1.3906253E-001, 6.3756556E-002, 2.4584442E-004, 1.6493711E-005, 8.8709092E-004, 5.1472734E+002
 2.8008282E+001, 7.6462903E-002, 1.4347008E-001, 6.5610823E-002, 2.6830040E-004, 2.2415314E-005, 9.1846401E-004, 5.2091076E+002
 2.9004645E+001, 7.5409563E-002, 1.4443850E-001, 6.6018999E-002, 2.7403329E-004, 2.4757551E-005, 9.2552854E-004, 5.1550232E+002
 3.0000195E+001, 7.0631811E-002, 1.4883948E-001, 6.7869031E-002, 2.9489800E-004, 2.6842457E-005, 9.5652087E-004, 5.1400058E+002
 3.1006485E+001, 6.7208469E-002, 1.5199379E-001, 6.9194402E-002, 3.0922314E-004, 2.7730633E-005, 9.7859906E-004, 5.1486088E+002
 3.2000790E+001, 6.4745478E-002, 1.5426532E-001, 7.0147223E-002, 3.1784525E-004, 2.8640043E-005, 9.9413517E-004, 5.1311559E+002
 3.3004061E+001, 6.1618335E-002, 1.5714121E-001, 7.1359584E-002, 3.3505588E-004, 3.0415749E-005, 1.0151544E-003, 5.1295239E+002
 3.4006266E+001, 5.7734521E-002, 1.6073096E-001, 7.2859397E-002, 3.4247890E-004, 3.2177565E-005, 1.0383765E-003, 5.1439165E+002
 3.5006393E+001, 5.3278751E-002, 1.6482858E-001, 7.4586855E-002, 3.6707283E-004, 3.5008157E-005, 1.0683405E-003, 5.1823818E+002
 3.6005986E+001, 5.2738786E-002, 1.6532264E-001, 7.4796666E-002, 3.7164205E-004, 3.7511983E-005, 1.0722972E-003, 5.1328261E+002
 3.7000615E+001, 4.9693730E-002, 1.6811463E-001, 7.5979654E-002, 3.9461669E-004, 4.1321491E-005, 1.0940467E-003, 5.1144690E+002
 3.8002573E+001, 4.5084372E-002, 1.7236729E-001, 7.7762573E-002, 4.0980210E-004, 4.1232931E-005, 1.1229276E-003, 5.1804613E+002
 3.9009808E+001, 4.2509208E-002, 1.7473560E-001, 7.8760493E-002, 4.2350468E-004, 4.5266713E-005, 1.1401361E-003, 5.1684955E+002
 4.0005567E+001, 3.9227467E-002, 1.7775204E-001, 8.0033413E-002, 4.4292131E-004, 4.6655429E-005, 1.1624752E-003, 5.1738945E+002
 4.1006690E+001, 3.7235640E-002, 1.7959240E-001, 8.0803269E-002, 4.4769454E-004, 4.4819171E-005, 1.1745880E-003, 5.1394171E+002
 4.2000326E+001, 3.2636093E-002, 1.8382531E-001, 8.2585968E-002, 4.7121017E-004, 4.4611830E-005, 1.2051360E-003, 5.2170044E+002
 4.3006412E+001, 3.1081909E-002, 1.8521797E-001, 8.3199817E-002, 5.0748611E-004, 5.0787941E-005, 1.2213053E-003, 5.1897272E+002
 4.4001463E+001, 2.7103018E-002, 1.8887592E-001, 8.4743578E-002, 5.3114140E-004, 4.8434688E-005, 1.2484187E-003, 5.2371167E+002
 4.5002081E+001, 2.3327265E-002, 1.9234533E-001, 8.6208352E-002, 5.5420745E-004, 5.0796918E-005, 1.2742697E-003, 5.2895563E+002
 4.6008941E+001, 2.1412048E-002, 1.9405034E-001, 8.6969345E-002, 6.0846323E-004, 5.3365263E-005, 1.2961761E-003, 5.2662586E+002
 4.7007930E+001, 2.0558762E-002, 1.9482638E-001, 8.7302597E-002, 6.1949039E-004, 5.6539164E-005, 1.3032166E-003, 5.1865901E+002
 4.8001476E+001, 1.7839554E-002, 1.9728579E-001, 8.8370331E-002, 6.6649147E-004, 5.9377671E-005, 1.3281133E-003, 5.2041884E+002
 4.9002374E+001, 1.6034937E-002, 1.9881079E-001, 8.9113619E-002, 7.8037757E-004, 6.7031069E-005, 1.3617200E-003, 5.1541276E+002
 5.0007538E+001, 1.3673055E-002, 2.0082712E-001, 9.0081977E-002, 9.1584628E-004, 6.3042848E-005, 1.4029147E-003, 5.2112727E+002
 5.1001425E+001, 1.0999188E-002, 2.0253976E-001, 9.1361602E-002, 1.5078558E-003, 9.5554638E-005, 1.5401633E-003, 5.2396378E+002
 5.2005246E+001, 9.4249630E-003, 2.0299509E-001, 9.2289937E-002, 2.2789993E-003, 1.6811025E-004, 1.7082428E-003, 5.1484961E+002
 5.3007274E+001, 7.7154363E-003, 2.0369446E-001, 9.3228057E-002, 2.9546176E-003, 2.5819684E-004, 1.8573120E-003, 5.1119581E+002
 5.4007894E+001, 7.3709881E-003, 2.0425367E-001, 9.3277042E-002, 2.7633331E-003, 2.8214409E-004, 1.8196697E-003, 5.0960280E+002
 5.5001407E+001, 5.1911673E-003, 2.0556233E-001, 9.4366154E-002, 3.3312177E-003, 2.0757312E-004, 1.9493112E-003, 5.1276151E+002
 5.6004697E+001, 4.5442362E-003, 2.0520841E-001, 9.4911623E-002, 4.0543238E-003, 3.3302431E-004, 2.1022153E-003, 5.0695352E+002
 5.7006699E+001, 4.5877392E-003, 2.0471160E-001, 9.5023327E-002, 4.3871044E-003, 4.7306870E-004, 2.1705714E-003, 4.9947764E+002
 5.8001418E+001, 4.0718134E-003, 2.0465663E-001, 9.5404360E-002, 4.8081502E-003, 4.4335328E-004, 2.2605136E-003, 4.9625351E+002
 5.9005606E+001, 3.6836005E-003, 2.0405093E-001, 9.5849858E-002, 5.5363383E-003, 5.9434902E-004, 2.4129902E-003, 4.8810033E+002
 6.0007681E+001, 3.7651838E-003, 2.0246290E-001, 9.6277144E-002, 6.6722142E-003, 8.5944278E-004, 2.6469576E-003, 4.8599538E+002
 6.1010352E+001, 3.3586948E-003, 2.0316935E-001, 9.6354653E-002, 6.4455992E-003, 6.7631906E-004, 2.6026268E-003, 4.8535676E+002
 6.2006574E+001, 3.0967450E-003, 2.0214121E-001, 9.6830852E-002, 7.3897926E-003, 9.6062433E-004, 2.7988706E-003, 4.8096448E+002
 6.3003903E+001, 2.9749996E-003, 2.0074444E-001, 9.7289153E-002, 8.4767317E-003, 1.5047616E-003, 3.0234992E-003, 4.7322486E+002
 6.4011075E+001, 3.0122979E-003, 2.0135948E-001, 9.7113848E-002, 8.0252125E-003, 1.1738510E-003, 2.9303970E-003, 4.7673017E+002
 6.5011075E+001, 2.6716412E-003, 2.0064701E-001, 9.7541662E-002, 8.7819789E-003, 1.4462736E-003, 3.0883579E-003, 4.6804853E+002
 6.6006834E+001, 2.7015904E-003, 2.0054521E-001, 9.7555315E-002, 8.8403476E-003, 1.4428073E-003, 3.1002589E-003, 4.6829223E+002
 6.7009069E+001, 2.6661121E-003, 1.9875336E-001, 9.8101698E-002, 1.0189886E-002, 1.8873590E-003, 3.3788088E-003, 4.6177586E+002
 6.8000543E+001, 2.6318730E-003, 1.9894863E-001, 9.8090631E-002, 1.0092591E-002, 1.7063782E-003, 3.3591243E-003, 4.6093240E+002
 6.9005447E+001, 2.6201130E-003, 1.9722347E-001, 9.8612518E-002, 1.1387160E-002, 2.0660218E-003, 3.6262900E-003, 4.5939061E+002
 7.0005166E+001, 2.6491148E-003, 1.9626834E-001, 9.8801686E-002, 1.2002520E-002, 2.7168687E-003, 3.7524722E-003, 4.5215109E+002
 7.1002610E+001, 2.8926892E-003, 1.9502594E-001, 9.9015938E-002, 1.2765826E-002, 2.8964743E-003, 3.9086417E-003, 4.5027719E+002
 7.2000216E+001, 2.8184231E-003, 1.9461291E-001, 9.9223890E-002, 1.3161136E-002, 2.7814861E-003, 3.9909082E-003, 4.4601763E+002
 7.3000924E+001, 2.7581728E-003, 1.9405101E-001, 9.9419563E-002, 1.3610062E-002, 2.9794222E-003, 4.0837742E-003, 4.4685904E+002
 7.4010832E+001, 2.7109053E-003, 1.9323966E-001, 9.9713997E-002, 1.4269279E-002, 3.0280833E-003, 4.2202238E-003, 4.4259707E+002
 7.5011517E+001, 2.7424260E-003, 1.9289906E-001, 9.9782620E-002, 1.4489365E-002, 3.1648618E-003, 4.2653590E-003, 4.4147846E+002
 7.6003164E+001, 2.7855286E-003, 1.9180376E-001, 1.0005146E-001, 1.5247076E-002, 3.5581523E-003, 4.4212160E-003, 4.3953394E+002
 7.7007121E+001, 2.9146968E-003, 1.9026742E-001, 1.0039711E-001, 1.6276519E-002, 4.0123022E-003, 4.6326760E-003, 4.3912352E+002
 7.8008795E+001, 2.7888709E-003, 1.9008687E-001, 1.0045849E-001, 1.6421904E-002, 4.5287455E-003, 4.6627610E-003, 4.3381589E+002
 7.9012029E+001, 2.7505098E-003, 1.8894551E-001, 1.0081641E-001, 1.7291872E-002, 4.8182308E-003, 4.8424084E-003, 4.3399729E+002
 8.0004499E+001, 2.7544972E-003, 1.8882351E-001, 1.0085594E-001, 1.7385946E-002, 4.8077928E-003, 4.8618429E-003, 4.3635681E+002
 8.1001028E+001, 3.0095159E-003, 1.8787416E-001, 1.0088827E-001, 1.7835171E-002, 5.4476061E-003, 4.9524400E-003, 4.3168831E+002
 8.2003481E+001, 2.9855389E-003, 1.8676750E-001, 1.0128155E-001, 1.8724947E-002, 5.3951379E-003, 5.1365421E-003, 4.2944275E+002
 8.3008251E+001, 2.8791069E-003, 1.8691173E-001, 1.0135170E-001, 1.8733969E-002, 5.1289262E-003, 5.1393447E-003, 4.2925682E+002
 8.4011941E+001, 2.9642791E-003, 1.8571708E-001, 1.0162417E-001, 1.9538563E-002, 5.5235196E-003, 5.3046550E-003, 4.2865221E+002
 8.5006593E+001, 3.0559062E-003, 1.8457316E-001, 1.0186926E-001, 2.0292811E-002, 5.9544263E-003, 5.4594768E-003, 4.2777550E+002
 8.6005908E+001, 2.9908056E-003, 1.8387714E-001, 1.0209584E-001, 2.0832745E-002, 6.2547986E-003, 5.5710474E-003, 4.2383769E+002
 8.7007550E+001, 3.0340238E-003, 1.8362355E-001, 1.0215457E-001, 2.1003811E-002, 6.2283972E-003, 5.6061965E-003, 4.2364375E+002
 8.8000891E+001, 3.1008385E-003, 1.8237522E-001, 1.0239295E-001, 2.1798436E-002, 7.0117834E-003, 5.7690472E-003, 4.2091327E+002
 8.9001313E+001, 3.1043991E-003, 1.8167293E-001, 1.0259460E-001, 2.2314349E-002, 7.1883362E-003, 5.8754294E-003, 4.2179034E+002
 9.0009191E+001, 3.3181314E-003, 1.8109632E-001, 1.0257968E-001, 2.2550930E-002, 7.5393629E-003, 5.9226799E-003, 4.2216488E+002
 9.1003772E+001, 2.9994472E-003, 1.8088974E-001, 1.0289629E-001, 2.2969751E-002, 7.3776210E-003, 6.0112313E-003, 4.2099206E+002
 9.2009960E+001, 3.0784777E-003, 1.7961037E-001, 1.0312596E-001, 2.3769137E-002, 8.2244428E-003, 6.1749159E-003, 4.2176456E+002
 9.3002406E+001, 3.1241392E-003, 1.7960696E-001, 1.0310721E-001, 2.3750640E-002, 8.1535828E-003, 6.1709295E-003, 4.1753128E+002
 9.4010041E+001, 3.0737820E-003, 1.7912202E-001, 1.0323021E-001, 2.4091838E-002, 8.5933092E-003, 6.2411628E-003, 4.1578049E+002
 9.5001443E+001, 3.1228252E-003, 1.7854404E-001, 1.0335341E-001, 2.4472218E-002, 8.8034458E-003, 6.3192355E-003, 4.1609399E+002
 9.6007552E+001, 3.0837512E-003, 1.7825194E-001, 1.0349906E-001, 2.4750030E-002, 8.6745416E-003, 6.3770386E-003, 4.2054857E+002
 9.7003936E+001, 3.3479697E-003, 1.7686346E-001, 1.0368780E-001, 2.5552215E-002, 9.2133975E-003, 6.5406651E-003, 4.1598598E+002
 9.8006205E+001, 3.3431638E-003, 1.7600032E-001, 1.0394437E-001, 2.6195316E-002, 9.4161371E-003, 6.6733477E-003, 4.1334484E+002
 9.9008567E+001, 3.5345590E-003, 1.7569834E-001, 1.0398954E-001, 2.6370619E-002, 8.9501791E-003, 6.7091120E-003, 4.0930559E+002
 1.0000484E+002, 3.6726947E-003, 1.7340036E-001, 1.0463828E-001, 2.8044452E-002, 9.0671756E-003, 7.0541405E-003, 4.0847213E+002
 1.0101213E+002, 3.7750378E-003, 1.7242567E-001, 1.0492297E-001, 2.8762923E-002, 8.8771052E-003, 7.2023091E-003, 4.0876648E+002
 1.0201049E+002, 4.5770152E-003, 1.6955181E-001, 1.0528912E-001, 3.0392281E-002, 9.0760805E-003, 7.5343324E-003, 4.1289341E+002
 1.0301119E+002, 4.0363026E-003, 1.6875674E-001, 1.0575871E-001, 3.1232877E-002, 1.0096595E-002, 7.7097717E-003, 4.0968253E+002
 1.0400237E+002, 4.4563411E-003, 1.6757356E-001, 1.0601284E-001, 3.2005597E-002, 9.1823124E-003, 7.8683124E-003, 4.1316046E+002
 1.0500869E+002, 4.6128165E-003, 1.6784458E-001, 1.0587708E-001, 3.1744230E-002, 8.8043901E-003, 7.8139064E-003, 4.0085424E+002
 1.0600850E+002, 8.3179741E-003, 1.6473892E-001, 1.0402218E-001, 3.1167909E-002, 1.0714635E-002, 7.6716344E-003, 3.9514432E+002
 1.0700728E+002, 1.0827158E-002, 1.6210914E-001, 1.0279187E-001, 3.1038260E-002, 1.2905360E-002, 7.6279988E-003, 4.0045255E+002
 1.0800775E+002, 7.8851769E-003, 1.6259775E-001, 1.0507885E-001, 3.3196890E-002, 1.0446261E-002, 8.0937513E-003, 4.0236690E+002
 1.0900723E+002, 1.2392358E-002, 1.6010118E-001, 1.0238906E-001, 3.1488424E-002, 1.2814309E-002, 7.7124157E-003, 3.9175562E+002
 1.1000335E+002, 1.3965476E-002, 1.5795967E-001, 1.0187576E-001, 3.1886590E-002, 1.3621468E-002, 7.7848827E-003, 4.0078062E+002
 1.1101465E+002, 1.2077824E-002, 1.5828392E-001, 1.0324678E-001, 3.3169774E-002, 1.2601507E-002, 8.0619515E-003, 3.9577348E+002
 1.1200701E+002, 1.4340072E-002, 1.5729861E-001, 1.0174864E-001, 3.2043807E-002, 1.4145128E-002, 7.8146091E-003, 3.7796604E+002
 1.1300073E+002, 1.3352907E-002, 1.5742231E-001, 1.0274400E-001, 3.3015671E-002, 1.2029923E-002, 8.0237176E-003, 4.0585668E+002
 1.1400296E+002, 1.5231125E-002, 1.5613117E-001, 1.0149387E-001, 3.2285281E-002, 1.4294949E-002, 7.8593477E-003, 3.8449957E+002
 1.1500457E+002, 1.5754899E-002, 1.5452313E-001, 1.0173170E-001, 3.3228304E-002, 1.3895340E-002, 8.0518440E-003, 3.8199414E+002
 1.1600580E+002, 1.5985991E-002, 1.5503676E-001, 1.0140744E-001, 3.2667141E-002, 1.3854584E-002, 7.9346236E-003, 3.6787203E+002
 1.1701187E+002, 1.5781525E-002, 1.5752867E-001, 1.0087318E-001, 3.1023847E-002, 1.2938378E-002, 7.5973084E-003, 3.6935029E+002
 1.1801061E+002, 1.5946766E-002, 1.5635560E-001, 1.0118149E-001, 3.1852933E-002, 1.2740576E-002, 7.7679979E-003, 3.6942624E+002
 1.1900959E+002, 1.6381145E-002, 1.5341345E-001, 1.0183077E-001, 3.3806988E-002, 1.2906627E-002, 8.1692256E-003, 3.7005551E+002
 1.2000778E+002, 1.5838568E-002, 1.5450810E-001, 1.0193784E-001, 3.3440554E-002, 1.2337293E-002, 8.0972549E-003, 3.7284662E+002
 1.2100069E+002, 1.7086972E-002, 1.5233434E-001, 1.0167725E-001, 3.4115665E-002, 1.3043507E-002, 8.2289049E-003, 3.6517624E+002
 1.2200380E+002, 1.7871856E-002, 1.4915977E-001, 1.0209402E-001, 3.5930405E-002, 1.3610540E-002, 8.5988640E-003, 3.6564133E+002
 1.2300142E+002, 1.7602734E-002, 1.4946277E-001, 1.0230668E-001, 3.6016266E-002, 1.2848512E-002, 8.6190960E-003, 3.7230059E+002
 1.2400898E+002, 1.7055663E-002, 1.5027278E-001, 1.0252908E-001, 3.5892914E-002, 1.2173539E-002, 8.5975273E-003, 3.7648630E+002
 1.2500239E+002, 1.8297229E-002, 1.4593180E-001, 1.0294040E-001, 3.8210546E-002, 1.3200494E-002, 9.0682812E-003, 3.7097239E+002
 1.2601042E+002, 1.8367204E-002, 1.4633113E-001, 1.0277200E-001, 3.7861280E-002, 1.3122977E-002, 8.9958035E-003, 3.7338545E+002
 1.2700440E+002, 1.8515781E-002, 1.4509962E-001, 1.0308405E-001, 3.8720588E-002, 1.3088939E-002, 9.1726211E-003, 3.7019341E+002
 1.2800831E+002, 1.9023797E-002, 1.4424078E-001, 1.0299428E-001, 3.9000239E-002, 1.3227094E-002, 9.2274045E-003, 3.7086416E+002
 1.2900401E+002, 1.8701847E-002, 1.4415167E-001, 1.0328127E-001, 3.9336964E-002, 1.3022233E-002, 9.2990618E-003, 3.7534982E+002
 1.3000888E+002, 1.9282192E-002, 1.4226083E-001, 1.0342616E-001, 4.0310976E-002, 1.3510728E-002, 9.4965010E-003, 3.6968588E+002
 1.3100864E+002, 2.0248496E-002, 1.3932462E-001, 1.0358889E-001, 4.1759156E-002, 1.4372112E-002, 9.7893058E-003, 3.6571309E+002
 1.3201039E+002, 2.0218128E-002, 1.4041191E-001, 1.0326276E-001, 4.0946990E-002, 1.4286202E-002, 9.6217263E-003, 3.6972292E+002
 1.3301078E+002, 1.9785513E-002, 1.3928002E-001, 1.0392177E-001, 4.2125774E-002, 1.4390415E-002, 9.8676412E-003, 3.7462095E+002
 1.3400854E+002, 2.0230247E-002, 1.3798308E-001, 1.0405751E-001, 4.2829314E-002, 1.4312335E-002, 1.0010667E-002, 3.7547398E+002
 1.3500046E+002, 2.0082157E-002, 1.3893857E-001, 1.0391595E-001, 4.2264694E-002, 1.3871053E-002, 9.8953669E-003, 3.7472939E+002
 1.3600161E+002, 2.0522677E-002, 1.3739940E-001, 1.0408145E-001, 4.3106244E-002, 1.4115749E-002, 1.0066524E-002, 3.7600502E+002
 1.3701179E+002, 2.0324295E-002, 1.3699666E-001, 1.0433475E-001, 4.3545716E-002, 1.4225045E-002, 1.0158322E-002, 3.7530268E+002
 1.3800846E+002, 2.0723813E-002, 1.3544428E-001, 1.0452222E-001, 4.4416290E-002, 1.4535047E-002, 1.0335623E-002, 3.6990701E+002
 1.3901266E+002, 2.1554936E-002, 1.3419165E-001, 1.0420181E-001, 4.4631091E-002, 1.5499588E-002, 1.0374132E-002, 3.6731750E+002
 1.4000974E+002, 2.1052662E-002, 1.3529463E-001, 1.0424488E-001, 4.4195484E-002, 1.5130347E-002, 1.0287382E-002, 3.6839537E+002
 1.4100148E+002, 2.0449085E-002, 1.3409399E-001, 1.0511017E-001, 4.5616891E-002, 1.4844700E-002, 1.0584900E-002, 3.7620514E+002
 1.4201266E+002, 2.1426807E-002, 1.3208115E-001, 1.0503561E-001, 4.6414386E-002, 1.5239487E-002, 1.0743758E-002, 3.7635741E+002
 1.4300401E+002, 2.1197240E-002, 1.3180817E-001, 1.0533353E-001, 4.6841764E-002, 1.4951200E-002, 1.0833743E-002, 3.7539064E+002
 1.4400772E+002, 2.1971906E-002, 1.3048948E-001, 1.0516418E-001, 4.7239537E-002, 1.5375103E-002, 1.0911083E-002, 3.7579340E+002
 1.4501080E+002, 2.1398496E-002, 1.3150086E-001, 1.0532387E-001, 4.6963965E-002, 1.4784434E-002, 1.0858091E-002, 3.7703654E+002
 1.4600448E+002, 2.1538699E-002, 1.2996321E-001, 1.0566881E-001, 4.7993009E-002, 1.5199419E-002, 1.1069458E-002, 3.7322487E+002
 1.4700545E+002, 2.1881510E-002, 1.2915729E-001, 1.0568188E-001, 4.8356753E-002, 1.5302361E-002, 1.1142590E-002, 3.7441914E+002
 1.4800106E+002, 2.2284183E-002, 1.2797499E-001, 1.0575370E-001, 4.8945879E-002, 1.5554768E-002, 1.1261777E-002, 3.7443809E+002
 1.4901082E+002, 2.2585014E-002, 1.2713003E-001, 1.0574545E-001, 4.9306586E-002, 1.6038872E-002, 1.1334024E-002, 3.6893612E+002
 1.5001287E+002, 2.3030838E-002, 1.2479814E-001, 1.0613179E-001, 5.0723622E-002, 1.6518217E-002, 1.1623791E-002, 3.7251168E+002
 1.5100731E+002, 2.3460362E-002, 1.2471845E-001, 1.0581111E-001, 5.0425504E-002, 1.6814498E-002, 1.1559395E-002, 3.7232312E+002
 1.5200125E+002, 2.3166051E-002, 1.2348607E-001, 1.0644971E-001, 5.1625069E-002, 1.6665656E-002, 1.1809159E-002, 3.7837201E+002
 1.5301093E+002, 2.1577772E-002, 1.2555183E-001, 1.0706637E-001, 5.1365126E-002, 1.5451758E-002, 1.1765870E-002, 3.8365154E+002
 1.5401114E+002, 2.2003454E-002, 1.2312192E-001, 1.0753244E-001, 5.2906636E-002, 1.5731700E-002, 1.2081733E-002, 3.7804964E+002
