s,,,,,,,
Time,"O2 EXHAUST","CO2 EXHAUST","H2O EXHAUST","CO EXHAUST","FUEL EXHAUST","SOOT EXHAUST","TEMP EXHAUST"
 0.0000000E+000, 2.3099739E-001, 5.9146498E-004, 5.9412092E-003, 0.0000000E+000, 0.0000000E+000, 0.0000000E+000, 2.0000000E+001
 1.0033762E+000, 2.3099739E-001, 5.9146498E-004, 5.9412092E-003, 1.0772504E-028, 3.8520718E-028, 5.4399575E-029, 2.2597582E+001
 2.0016930E+000, 2.1843544E-001, 9.9441061E-003, 1.1375816E-002, 1.5704101E-004, 2.3376202E-004, 1.0767238E-004, 1.4066584E+002
 3.0034168E+000, 2.1148783E-001, 1.5158615E-002, 1.4380434E-002, 2.2443357E-004, 2.8639607E-004, 1.6338074E-004, 2.0231385E+002
 4.0000864E+000, 2.0059263E-001, 2.3493865E-002, 1.9059069E-002, 2.3481373E-004, 2.5928432E-004, 2.3155742E-004, 2.8582222E+002
 5.0001228E+000, 1.8292684E-001, 3.7143175E-002, 2.6615348E-002, 1.6940159E-004, 1.3169342E-004, 3.2553014E-004, 3.9854601E+002
 6.0023968E+000, 1.6864722E-001, 4.8200687E-002, 3.2716463E-002, 1.0051417E-004, 2.1542897E-005, 3.9825065E-004, 4.6764090E+002
 7.0078754E+000, 1.5763346E-001, 5.6644036E-002, 3.7439340E-002, 9.8236329E-005, 6.2173507E-007, 4.6456876E-004, 4.9981678E+002
 8.0091537E+000, 1.4012381E-001, 7.0023409E-002, 4.4956595E-002, 1.2079527E-004, 1.6745516E-007, 5.7526752E-004, 5.4310117E+002
 9.0066646E+000, 1.2796737E-001, 7.9310454E-002, 5.0176101E-002, 1.3765915E-004, 4.8146524E-007, 6.5236538E-004, 5.5700559E+002
 1.0010056E+001, 1.0879729E-001, 9.3957593E-002, 5.8406461E-002, 1.6298533E-004, 4.1089425E-007, 7.7368842E-004, 5.8770936E+002
 1.1008783E+001, 9.9367090E-002, 1.0116168E-001, 6.2455533E-002, 1.7624564E-004, 4.6091973E-007, 8.3353261E-004, 5.8219394E+002
 1.2005620E+001, 8.0755098E-002, 1.1537990E-001, 7.0447032E-002, 2.0251124E-004, 8.0093120E-007, 9.5166331E-004, 6.0444130E+002
 1.3009436E+001, 7.0402470E-002, 1.2328226E-001, 7.4894086E-002, 2.2136549E-004, 1.7687454E-006, 1.0182318E-003, 6.0692433E+002
 1.4009056E+001, 5.8463958E-002, 1.3240422E-001, 8.0019583E-002, 2.3696976E-004, 2.0120439E-006, 1.0937534E-003, 6.0379663E+002
 1.5006760E+001, 4.4930233E-002, 1.4267444E-001, 8.5851732E-002, 3.0251031E-004, 8.5465818E-006, 1.1890670E-003, 6.1778462E+002
 1.6005797E+001, 3.7964639E-002, 1.4798731E-001, 8.8845550E-002, 3.1829818E-004, 6.9532897E-006, 1.2344891E-003, 6.0936858E+002
 1.7001360E+001, 2.4323597E-002, 1.5843522E-001, 9.4693778E-002, 3.1877764E-004, 7.8693741E-006, 1.3172593E-003, 6.1690618E+002
 1.8000381E+001, 1.1019385E-002, 1.6641523E-001, 1.0110237E-001, 1.8341185E-003, 6.4140572E-005, 1.7052938E-003, 6.3399337E+002
 1.9006544E+001, 5.2302753E-003, 1.6873556E-001, 1.0416514E-001, 3.2129973E-003, 6.9180393E-004, 2.0192919E-003, 6.1440744E+002
 2.0003441E+001, 8.4450882E-004, 1.6938386E-001, 1.0688371E-001, 5.0516465E-003, 9.2157143E-004, 2.4186347E-003, 5.9644405E+002
 2.1001734E+001, 1.2626478E-003, 1.6437068E-001, 1.0778279E-001, 7.9535624E-003, 3.6160783E-003, 3.0011612E-003, 5.5914665E+002
 2.2009261E+001, 1.9598120E-003, 1.6181260E-001, 1.0803865E-001, 9.2726809E-003, 4.2259617E-003, 3.2637468E-003, 5.3020012E+002
 2.3000170E+001, 1.8884586E-003, 1.6018415E-001, 1.0845382E-001, 1.0311823E-002, 5.2056882E-003, 3.4736618E-003, 5.2062085E+002
 2.4002305E+001, 1.8122192E-003, 1.5888731E-001, 1.0887741E-001, 1.1209727E-002, 5.4940289E-003, 3.6559156E-003, 5.0757047E+002
 2.5000533E+001, 1.8789407E-003, 1.5817034E-001, 1.0896504E-001, 1.1593771E-002, 6.1029213E-003, 3.7325859E-003, 4.9032783E+002
 2.6001194E+001, 2.0305189E-003, 1.5606321E-001, 1.0928478E-001, 1.2770145E-002, 7.6944538E-003, 3.9681392E-003, 4.7552244E+002
 2.7006794E+001, 2.0923143E-003, 1.5324008E-001, 1.0977003E-001, 1.4391637E-002, 1.0065072E-002, 4.2934658E-003, 4.6912852E+002
 2.8003287E+001, 2.1257997E-003, 1.5221789E-001, 1.0999861E-001, 1.5018363E-002, 1.0551307E-002, 4.4197523E-003, 4.5892868E+002
 2.9011623E+001, 2.3348317E-003, 1.5050775E-001, 1.1012731E-001, 1.5873024E-002, 1.2290618E-002, 4.5894711E-003, 4.4589496E+002
 3.0002621E+001, 2.4669116E-003, 1.4982719E-001, 1.1019319E-001, 1.6223293E-002, 1.2688788E-002, 4.6591870E-003, 4.3562701E+002
 3.1007090E+001, 2.5344119E-003, 1.4828986E-001, 1.1049090E-001, 1.7130862E-002, 1.3632487E-002, 4.8416131E-003, 4.3140592E+002
 3.2005644E+001, 2.4877600E-003, 1.4675680E-001, 1.1079725E-001, 1.8045119E-002, 1.4989954E-002, 5.0255089E-003, 4.2385163E+002
 3.3004791E+001, 2.6369779E-003, 1.4561043E-001, 1.1087686E-001, 1.8612842E-002, 1.6159062E-002, 5.1381655E-003, 4.1400589E+002
 3.4013076E+001, 2.8066745E-003, 1.4361838E-001, 1.1111935E-001, 1.9679456E-002, 1.7922075E-002, 5.3510973E-003, 4.0942251E+002
 3.5009378E+001, 2.9191467E-003, 1.4176642E-001, 1.1144346E-001, 2.0746196E-002, 1.9141865E-002, 5.5651622E-003, 4.0581729E+002
 3.6001751E+001, 3.2148434E-003, 1.4048010E-001, 1.1155017E-001, 2.1393975E-002, 1.9812348E-002, 5.6938735E-003, 3.9969784E+002
 3.7004893E+001, 3.3969438E-003, 1.3910149E-001, 1.1165830E-001, 2.2086005E-002, 2.1130864E-002, 5.8313450E-003, 3.9227903E+002
 3.8004154E+001, 3.5777446E-003, 1.3787506E-001, 1.1182294E-001, 2.2752850E-002, 2.1803788E-002, 5.9646177E-003, 3.8577814E+002
 3.9009695E+001, 3.8911510E-003, 1.3619485E-001, 1.1191840E-001, 2.3567242E-002, 2.3253574E-002, 6.1259383E-003, 3.7854409E+002
 4.0002451E+001, 5.6441686E-003, 1.3403988E-001, 1.1145737E-001, 2.4147705E-002, 2.3079872E-002, 6.2333398E-003, 3.7054850E+002
 4.1002868E+001, 6.4356006E-003, 1.3480529E-001, 1.1057251E-001, 2.3126036E-002, 2.3711683E-002, 6.0203499E-003, 3.4903621E+002
 4.2009637E+001, 7.8446446E-003, 1.3413273E-001, 1.0982158E-001, 2.2834315E-002, 2.3807105E-002, 5.9524831E-003, 3.3386577E+002
 4.3013122E+001, 1.5522070E-002, 1.2970382E-001, 1.0589471E-001, 2.1709219E-002, 2.4833156E-002, 5.6762206E-003, 3.2955811E+002
 4.4001115E+001, 1.4166112E-002, 1.2801149E-001, 1.0741961E-001, 2.3635974E-002, 2.4454014E-002, 6.0759309E-003, 3.2953259E+002
 4.5011399E+001, 1.4237520E-002, 1.2751451E-001, 1.0763988E-001, 2.4021872E-002, 2.3788405E-002, 6.1547333E-003, 3.2285306E+002
 4.6000350E+001, 1.5654860E-002, 1.2576342E-001, 1.0701283E-001, 2.4303576E-002, 2.5232150E-002, 6.2012829E-003, 3.1541578E+002
 4.7005479E+001, 1.6957782E-002, 1.2430295E-001, 1.0639374E-001, 2.4463940E-002, 2.6525178E-002, 6.2241158E-003, 3.1015793E+002
 4.8007867E+001, 1.7480126E-002, 1.2302863E-001, 1.0625031E-001, 2.4913864E-002, 2.7768746E-002, 6.3105041E-003, 3.0470355E+002
 4.9013882E+001, 1.8233253E-002, 1.2171960E-001, 1.0596204E-001, 2.5265963E-002, 2.9012441E-002, 6.3756433E-003, 3.0006319E+002
 5.0012516E+001, 1.9418342E-002, 1.2065887E-001, 1.0528706E-001, 2.5208379E-002, 3.0345180E-002, 6.3549107E-003, 2.9500386E+002
 5.1001614E+001, 2.0329572E-002, 1.1911266E-001, 1.0491907E-001, 2.5603174E-002, 3.1893377E-002, 6.4273290E-003, 2.9195725E+002
 5.2011227E+001, 2.1137249E-002, 1.1752495E-001, 1.0471497E-001, 2.6141765E-002, 3.2945760E-002, 6.5302471E-003, 2.9266709E+002
 5.3014829E+001, 2.1726739E-002, 1.1675827E-001, 1.0447234E-001, 2.6289706E-002, 3.3510658E-002, 6.5559025E-003, 2.9252835E+002
 5.4007381E+001, 2.2881358E-002, 1.1556464E-001, 1.0386019E-001, 2.6339175E-002, 3.4847705E-002, 6.5570706E-003, 2.9335917E+002
 5.5006190E+001, 2.3063009E-002, 1.1485673E-001, 1.0390341E-001, 2.6683652E-002, 3.5233428E-002, 6.6253283E-003, 2.9299163E+002
 5.6005000E+001, 2.3531522E-002, 1.1426345E-001, 1.0362331E-001, 2.6728354E-002, 3.6188085E-002, 6.6302227E-003, 2.9219870E+002
 5.7003810E+001, 2.4248440E-002, 1.1307237E-001, 1.0330883E-001, 2.7008849E-002, 3.7509342E-002, 6.6809437E-003, 2.9444237E+002
 5.8002619E+001, 2.4400370E-002, 1.1250762E-001, 1.0326810E-001, 2.7226889E-002, 3.8251218E-002, 6.7232272E-003, 2.9316735E+002
 5.9007219E+001, 2.4460325E-002, 1.1214430E-001, 1.0321564E-001, 2.7348083E-002, 3.9047636E-002, 6.7463406E-003, 2.9260020E+002
 6.0012865E+001, 2.5090591E-002, 1.1118364E-001, 1.0286459E-001, 2.7500009E-002, 4.0496647E-002, 6.7713197E-003, 2.9145423E+002
 6.1003309E+001, 2.5473515E-002, 1.1038111E-001, 1.0277477E-001, 2.7782753E-002, 4.1051886E-002, 6.8255937E-003, 2.8940875E+002
 6.2004350E+001, 2.5974860E-002, 1.0994745E-001, 1.0242594E-001, 2.7704022E-002, 4.1975592E-002, 6.8052865E-003, 2.8825456E+002
 6.3005391E+001, 2.6063332E-002, 1.0938030E-001, 1.0243038E-001, 2.7958309E-002, 4.2708253E-002, 6.8553225E-003, 2.8766066E+002
 6.4006432E+001, 2.6277141E-002, 1.0864189E-001, 1.0230945E-001, 2.8192163E-002, 4.4032030E-002, 6.8996250E-003, 2.8634335E+002
 6.5007473E+001, 2.6467378E-002, 1.0813007E-001, 1.0222611E-001, 2.8353854E-002, 4.4771472E-002, 6.9302458E-003, 2.8640965E+002
 6.6000082E+001, 2.6725198E-002, 1.0757515E-001, 1.0214753E-001, 2.8537082E-002, 4.5285879E-002, 6.9651422E-003, 2.8727011E+002
 6.7013693E+001, 2.6912788E-002, 1.0722333E-001, 1.0203866E-001, 2.8608344E-002, 4.5875284E-002, 6.9776401E-003, 2.8532650E+002
 6.8007716E+001, 2.6963279E-002, 1.0669646E-001, 1.0205022E-001, 2.8850745E-002, 4.6642155E-002, 7.0254464E-003, 2.8397074E+002
 6.9010989E+001, 2.6928633E-002, 1.0635391E-001, 1.0209864E-001, 2.9040386E-002, 4.7169758E-002, 7.0633982E-003, 2.8454604E+002
 7.0005683E+001, 2.7249942E-002, 1.0555417E-001, 1.0186027E-001, 2.9211143E-002, 4.8891346E-002, 7.0936891E-003, 2.8417531E+002
 7.1000613E+001, 2.7460636E-002, 1.0498711E-001, 1.0174083E-001, 2.9369867E-002, 4.9877947E-002, 7.1232379E-003, 2.8251102E+002
 7.2011706E+001, 2.7582676E-002, 1.0455436E-001, 1.0175424E-001, 2.9570448E-002, 5.0148090E-002, 7.1628203E-003, 2.8131502E+002
 7.3000669E+001, 2.7643535E-002, 1.0396912E-001, 1.0176136E-001, 2.9835316E-002, 5.1015234E-002, 7.2149824E-003, 2.8130402E+002
 7.4004846E+001, 2.7695932E-002, 1.0380542E-001, 1.0173640E-001, 2.9888461E-002, 5.1276521E-002, 7.2250827E-003, 2.8028562E+002
 7.5009023E+001, 2.7945023E-002, 1.0344875E-001, 1.0150152E-001, 2.9865855E-002, 5.2395734E-002, 7.2174192E-003, 2.7867662E+002
 7.6002551E+001, 2.7971012E-002, 1.0280363E-001, 1.0149856E-001, 3.0150435E-002, 5.3589416E-002, 7.2733352E-003, 2.7946792E+002
 7.7001460E+001, 2.8305177E-002, 1.0227397E-001, 1.0135910E-001, 3.0275179E-002, 5.4110624E-002, 7.2958921E-003, 2.7840006E+002
 7.8013689E+001, 2.8855798E-002, 1.0188382E-001, 1.0102360E-001, 3.0186206E-002, 5.4660382E-002, 7.2737317E-003, 2.7875567E+002
 7.9003917E+001, 2.9276344E-002, 1.0113519E-001, 1.0084672E-001, 3.0378701E-002, 5.5488016E-002, 7.3090837E-003, 2.7720029E+002
 8.0012773E+001, 2.9237816E-002, 1.0067676E-001, 1.0093560E-001, 3.0650489E-002, 5.6013103E-002, 7.3637312E-003, 2.7651054E+002
 8.1007240E+001, 2.9260408E-002, 1.0015370E-001, 1.0092603E-001, 3.0875794E-002, 5.7018790E-002, 7.4079033E-003, 2.7820650E+002
 8.2000518E+001, 2.9342091E-002, 1.0000261E-001, 1.0082918E-001, 3.0868644E-002, 5.7575912E-002, 7.4051774E-003, 2.7610448E+002
 8.3008846E+001, 2.9328855E-002, 9.9519458E-002, 1.0087453E-001, 3.1118192E-002, 5.8313036E-002, 7.4548618E-003, 2.7659807E+002
 8.4002125E+001, 2.9350364E-002, 9.9106279E-002, 1.0092165E-001, 3.1337281E-002, 5.8755289E-002, 7.4985682E-003, 2.7590148E+002
 8.5010453E+001, 2.9176685E-002, 9.8830991E-002, 1.0103354E-001, 3.1547300E-002, 5.9337196E-002, 7.5414214E-003, 2.7627004E+002
 8.6003731E+001, 2.9090550E-002, 9.8466832E-002, 1.0107670E-001, 3.1743539E-002, 6.0154698E-002, 7.5806182E-003, 2.7623588E+002
 8.7012059E+001, 2.9228445E-002, 9.7982153E-002, 1.0099507E-001, 3.1895386E-002, 6.1047631E-002, 7.6093439E-003, 2.7677949E+002
 8.8006439E+001, 2.9073088E-002, 9.7652684E-002, 1.0108186E-001, 3.2110297E-002, 6.1815656E-002, 7.6528182E-003, 2.7737926E+002
 8.9000223E+001, 2.8855884E-002, 9.7341206E-002, 1.0117854E-001, 3.2325768E-002, 6.2744602E-002, 7.6965557E-003, 2.7863530E+002
 9.0009861E+001, 2.8895767E-002, 9.7085029E-002, 1.0114028E-001, 3.2410310E-002, 6.3323906E-002, 7.7126576E-003, 2.7706764E+002
 9.1013514E+001, 2.9002719E-002, 9.6588177E-002, 1.0108195E-001, 3.2585681E-002, 6.4226472E-002, 7.7463306E-003, 2.7688503E+002
 9.2011666E+001, 2.9268047E-002, 9.6324911E-002, 1.0087887E-001, 3.2545139E-002, 6.4896269E-002, 7.7355584E-003, 2.7565542E+002
 9.3003442E+001, 2.9843278E-002, 9.5657160E-002, 1.0061349E-001, 3.2632146E-002, 6.5463908E-002, 7.7489320E-003, 2.7454259E+002
 9.4007513E+001, 2.9900039E-002, 9.5441425E-002, 1.0063386E-001, 3.2742520E-002, 6.5531257E-002, 7.7708901E-003, 2.7480996E+002
 9.5011770E+001, 2.9485980E-002, 9.5235288E-002, 1.0089450E-001, 3.3038160E-002, 6.6060359E-002, 7.8326476E-003, 2.7386597E+002
 9.6007503E+001, 2.9597248E-002, 9.4747796E-002, 1.0080689E-001, 3.3187239E-002, 6.7106667E-002, 7.8607582E-003, 2.7456448E+002
 9.7006122E+001, 2.9944133E-002, 9.4228495E-002, 1.0055211E-001, 3.3220285E-002, 6.8264768E-002, 7.8637400E-003, 2.7411917E+002
 9.8012337E+001, 3.0513581E-002, 9.3974230E-002, 1.0023326E-001, 3.3082998E-002, 6.8363147E-002, 7.8322938E-003, 2.7162143E+002
 9.9005962E+001, 3.0561217E-002, 9.3633676E-002, 1.0024637E-001, 3.3243658E-002, 6.8761587E-002, 7.8640471E-003, 2.7290340E+002
 1.0000282E+002, 3.0184493E-002, 9.3628280E-002, 1.0050894E-001, 3.3450670E-002, 6.8723901E-002, 7.9083882E-003, 2.7166230E+002
 1.0100693E+002, 3.0356217E-002, 9.3284972E-002, 1.0039086E-001, 3.3511490E-002, 6.9419217E-002, 7.9187152E-003, 2.7119337E+002
 1.0200876E+002, 3.0588456E-002, 9.2819895E-002, 1.0025250E-001, 3.3610160E-002, 7.0229694E-002, 7.9361943E-003, 2.7201060E+002
 1.0300211E+002, 3.0750232E-002, 9.2643372E-002, 1.0017885E-001, 3.3630351E-002, 7.0360835E-002, 7.9391273E-003, 2.7194164E+002
 1.0401028E+002, 3.0732427E-002, 9.2156862E-002, 1.0022269E-001, 3.3880346E-002, 7.1132947E-002, 7.9888810E-003, 2.7217071E+002
 1.0501104E+002, 3.0286470E-002, 9.1774034E-002, 1.0055924E-001, 3.4312410E-002, 7.1678903E-002, 8.0784904E-003, 2.7335731E+002
 1.0600952E+002, 3.0393739E-002, 9.1478616E-002, 1.0044985E-001, 3.4359630E-002, 7.2493819E-002, 8.0862808E-003, 2.7354488E+002
 1.0700795E+002, 3.0337691E-002, 9.1007851E-002, 1.0052440E-001, 3.4626429E-002, 7.3204767E-002, 8.1397620E-003, 2.7489209E+002
 1.0800553E+002, 3.0220151E-002, 9.0864203E-002, 1.0055662E-001, 3.4716806E-002, 7.3781710E-002, 8.1580053E-003, 2.7484205E+002
 1.0901298E+002, 2.9894971E-002, 9.0749825E-002, 1.0075893E-001, 3.4926029E-002, 7.4117430E-002, 8.2019597E-003, 2.7452917E+002
 1.1000614E+002, 2.9899870E-002, 9.0304730E-002, 1.0077357E-001, 3.5135173E-002, 7.4892482E-002, 8.2432828E-003, 2.7629477E+002
 1.1100118E+002, 2.9841068E-002, 9.0042617E-002, 1.0076032E-001, 3.5242986E-002, 7.5740641E-002, 8.2643282E-003, 2.7580527E+002
 1.1201152E+002, 2.9688344E-002, 8.9729180E-002, 1.0086366E-001, 3.5463172E-002, 7.6363843E-002, 8.3090597E-003, 2.7626047E+002
 1.1301488E+002, 2.9639972E-002, 8.9432765E-002, 1.0090373E-001, 3.5626229E-002, 7.6908286E-002, 8.3416769E-003, 2.7603495E+002
 1.1400891E+002, 2.9500942E-002, 8.9271439E-002, 1.0096953E-001, 3.5750158E-002, 7.7403038E-002, 8.3669736E-003, 2.7658156E+002
 1.1500596E+002, 2.9533933E-002, 8.8864810E-002, 1.0099794E-001, 3.5952028E-002, 7.7899723E-002, 8.4070401E-003, 2.7642155E+002
 1.1600499E+002, 2.9304445E-002, 8.8674950E-002, 1.0113276E-001, 3.6142298E-002, 7.8402783E-002, 8.4463347E-003, 2.7718249E+002
 1.1701248E+002, 2.9238800E-002, 8.8318338E-002, 1.0121696E-001, 3.6365710E-002, 7.8867080E-002, 8.4914155E-003, 2.7725678E+002
 1.1800410E+002, 2.9156067E-002, 8.8009220E-002, 1.0122652E-001, 3.6512074E-002, 7.9767894E-002, 8.5203546E-003, 2.7785441E+002
 1.1900359E+002, 2.9005249E-002, 8.7909972E-002, 1.0131409E-001, 3.6624965E-002, 8.0054132E-002, 8.5437750E-003, 2.7667319E+002
 1.2000221E+002, 2.8972446E-002, 8.7476874E-002, 1.0136507E-001, 3.6856822E-002, 8.0738477E-002, 8.5900622E-003, 2.7724475E+002
 1.2100732E+002, 2.8781125E-002, 8.7184355E-002, 1.0148553E-001, 3.7081295E-002, 8.1375319E-002, 8.6358783E-003, 2.7813065E+002
 1.2201226E+002, 2.8737080E-002, 8.7031933E-002, 1.0150511E-001, 3.7164717E-002, 8.1741468E-002, 8.6525600E-003, 2.7750820E+002
 1.2300242E+002, 2.8745276E-002, 8.6732781E-002, 1.0145565E-001, 3.7260535E-002, 8.2607320E-002, 8.6707407E-003, 2.7687347E+002
 1.2400736E+002, 2.8686118E-002, 8.6396816E-002, 1.0151431E-001, 3.7455398E-002, 8.3160870E-002, 8.7098644E-003, 2.7764294E+002
 1.2501230E+002, 2.8697997E-002, 8.6155953E-002, 1.0151624E-001, 3.7563894E-002, 8.3578781E-002, 8.7312224E-003, 2.7728608E+002
 1.2600246E+002, 2.8509057E-002, 8.5872609E-002, 1.0166175E-001, 3.7803101E-002, 8.4033128E-002, 8.7802694E-003, 2.7778783E+002
 1.2700877E+002, 2.8451128E-002, 8.5679367E-002, 1.0170594E-001, 3.7923488E-002, 8.4386723E-002, 8.8045533E-003, 2.7711148E+002
 1.2801212E+002, 2.8290053E-002, 8.5467651E-002, 1.0176932E-001, 3.8068440E-002, 8.5088454E-002, 8.8339596E-003, 2.7700300E+002
 1.2900999E+002, 2.8297657E-002, 8.5203576E-002, 1.0171537E-001, 3.8145263E-002, 8.5914662E-002, 8.8483452E-003, 2.7744087E+002
 1.3001291E+002, 2.8221235E-002, 8.4965889E-002, 1.0177047E-001, 3.8293995E-002, 8.6366508E-002, 8.8783553E-003, 2.7742997E+002
 1.3100083E+002, 2.8307898E-002, 8.4728174E-002, 1.0168447E-001, 3.8333505E-002, 8.7008380E-002, 8.8849484E-003, 2.7768355E+002
 1.3201102E+002, 2.8039326E-002, 8.4736867E-002, 1.0183001E-001, 3.8444140E-002, 8.7213129E-002, 8.9087386E-003, 2.7779853E+002
 1.3300589E+002, 2.7877688E-002, 8.4570362E-002, 1.0194079E-001, 3.8604664E-002, 8.7535232E-002, 8.9418395E-003, 2.7803760E+002
 1.3400077E+002, 2.7877495E-002, 8.4180676E-002, 1.0190835E-001, 3.8753768E-002, 8.8511322E-002, 8.9707291E-003, 2.7821005E+002
 1.3501095E+002, 2.7887723E-002, 8.3859189E-002, 1.0192228E-001, 3.8907231E-002, 8.9022632E-002, 9.0010908E-003, 2.7852166E+002
 1.3600476E+002, 2.7774663E-002, 8.3584106E-002, 1.0203227E-001, 3.9114624E-002, 8.9363320E-002, 9.0433814E-003, 2.7825988E+002
 1.3700047E+002, 2.7697186E-002, 8.3295925E-002, 1.0207307E-001, 3.9275099E-002, 9.0008081E-002, 9.0755106E-003, 2.7796257E+002
 1.3801105E+002, 2.7695337E-002, 8.3124011E-002, 1.0205777E-001, 3.9340161E-002, 9.0452159E-002, 9.0881020E-003, 2.7785917E+002
 1.3900120E+002, 2.7548197E-002, 8.2935092E-002, 1.0215287E-001, 3.9498591E-002, 9.0855095E-002, 9.1205769E-003, 2.7832918E+002
 1.4000788E+002, 2.7569698E-002, 8.2648445E-002, 1.0214718E-001, 3.9621567E-002, 9.1370923E-002, 9.1446778E-003, 2.7808525E+002
 1.4100423E+002, 2.7515034E-002, 8.2318505E-002, 1.0223645E-001, 3.9836717E-002, 9.1705195E-002, 9.1881976E-003, 2.7790550E+002
 1.4201261E+002, 2.7372944E-002, 8.2298088E-002, 1.0225537E-001, 3.9862648E-002, 9.2221134E-002, 9.1935981E-003, 2.7933674E+002
 1.4300593E+002, 2.7348784E-002, 8.2191120E-002, 1.0226775E-001, 3.9920050E-002, 9.2458316E-002, 9.2050601E-003, 2.7849044E+002
 1.4401431E+002, 2.7289800E-002, 8.2029525E-002, 1.0231177E-001, 4.0026232E-002, 9.2754407E-002, 9.2265485E-003, 2.7870119E+002
 1.4500763E+002, 2.7158556E-002, 8.1699796E-002, 1.0241346E-001, 4.0252043E-002, 9.3330683E-002, 9.2723570E-003, 2.8027839E+002
 1.4600096E+002, 2.7050207E-002, 8.1544805E-002, 1.0246914E-001, 4.0364971E-002, 9.3747372E-002, 9.2953447E-003, 2.8022982E+002
 1.4700933E+002, 2.7035118E-002, 8.1266698E-002, 1.0247664E-001, 4.0494740E-002, 9.4317408E-002, 9.3209697E-003, 2.7980453E+002
 1.4800266E+002, 2.7002213E-002, 8.0955665E-002, 1.0252255E-001, 4.0668423E-002, 9.4790524E-002, 9.3557491E-003, 2.7932373E+002
 1.4901103E+002, 2.6954049E-002, 8.0751978E-002, 1.0256054E-001, 4.0788612E-002, 9.5162428E-002, 9.3799082E-003, 2.7898660E+002
 1.5000436E+002, 2.6919207E-002, 8.0559528E-002, 1.0258186E-001, 4.0891005E-002, 9.5559151E-002, 9.4003407E-003, 2.7974290E+002
 1.5101273E+002, 2.6768102E-002, 8.0234695E-002, 1.0268065E-001, 4.1112813E-002, 9.6226298E-002, 9.4453298E-003, 2.7943960E+002
 1.5200606E+002, 2.6881095E-002, 7.9766235E-002, 1.0265705E-001, 4.1301588E-002, 9.6833208E-002, 9.4821001E-003, 2.7996127E+002
 1.5300101E+002, 2.6976151E-002, 7.9653961E-002, 1.0258077E-001, 4.1292403E-002, 9.7130636E-002, 9.4792439E-003, 2.7866100E+002
 1.5400793E+002, 2.7034321E-002, 7.9471604E-002, 1.0252623E-001, 4.1331473E-002, 9.7587220E-002, 9.4861799E-003, 2.7853482E+002
