s,,,,,,,
Time,"O2 EXHAUST","CO2 EXHAUST","H2O EXHAUST","CO EXHAUST","FUEL EXHAUST","SOOT EXHAUST","TEMP EXHAUST"
 0.0000000E+000, 2.3099739E-001, 5.9146498E-004, 5.9412091E-003, 0.0000000E+000, 0.0000000E+000, 0.0000000E+000, 2.0000000E+001
 1.0010346E+000, 2.3099739E-001, 5.9146498E-004, 5.9412091E-003, 3.1124610E-025, 2.8825661E-025, 6.5569297E-025, 2.2444712E+001
 2.0006719E+000, 2.1795852E-001, 1.0288630E-002, 1.1581270E-002, 1.7550928E-004, 2.4285139E-004, 1.1464884E-004, 1.4655155E+002
 3.0008323E+000, 2.0567173E-001, 1.9603082E-002, 1.6873918E-002, 2.4438434E-004, 2.6026647E-004, 2.0319819E-004, 2.4889503E+002
 4.0028020E+000, 1.9276214E-001, 2.9554585E-002, 2.2396505E-002, 2.1311211E-004, 1.9090893E-004, 2.7511527E-004, 3.4430566E+002
 5.0041027E+000, 1.7569681E-001, 4.2818705E-002, 2.9672272E-002, 1.0378427E-004, 3.6424007E-005, 3.5633501E-004, 4.5171842E+002
 6.0045568E+000, 1.5513205E-001, 5.8587687E-002, 3.8484045E-002, 1.0264735E-004, 1.6328123E-006, 4.8076982E-004, 5.2775133E+002
 7.0065759E+000, 1.4071851E-001, 6.9608672E-002, 4.4666195E-002, 1.2061105E-004, 1.0598060E-006, 5.7179649E-004, 5.6056713E+002
 8.0047231E+000, 1.2831761E-001, 7.9086808E-002, 4.9985993E-002, 1.3852222E-004, 2.7853917E-006, 6.5061292E-004, 5.8415310E+002
 9.0042271E+000, 1.1604138E-001, 8.8456372E-002, 5.5255055E-002, 1.6434023E-004, 1.3646404E-005, 7.3028175E-004, 5.9987774E+002
 1.0004523E+001, 9.8884306E-002, 1.0157515E-001, 6.2613336E-002, 1.8525533E-004, 1.6707577E-005, 8.3853370E-004, 6.2332497E+002
 1.1006576E+001, 8.9546748E-002, 1.0855982E-001, 6.6644679E-002, 2.8694060E-004, 1.5893255E-004, 9.1576181E-004, 6.2017569E+002
 1.2007707E+001, 8.3117116E-002, 1.1247518E-001, 6.9575265E-002, 8.7825781E-004, 1.0616977E-003, 1.0746669E-003, 6.0443529E+002
 1.3003818E+001, 7.5812704E-002, 1.1591185E-001, 7.3054716E-002, 2.1207263E-003, 3.1515153E-003, 1.3706822E-003, 5.9521306E+002
 1.4009555E+001, 7.6281030E-002, 1.1549243E-001, 7.2816785E-002, 2.1194914E-003, 3.5020240E-003, 1.3671004E-003, 5.7130982E+002
 1.5005855E+001, 7.4488146E-002, 1.1617036E-001, 7.3723162E-002, 2.5391023E-003, 4.0173270E-003, 1.4632542E-003, 5.6611454E+002
 1.6006531E+001, 7.4020540E-002, 1.1529190E-001, 7.4077057E-002, 3.2141008E-003, 5.5047138E-003, 1.6023647E-003, 5.5101670E+002
 1.7007603E+001, 7.6063692E-002, 1.1338215E-001, 7.3257072E-002, 3.4112766E-003, 5.8409562E-003, 1.6299293E-003, 5.2981292E+002
 1.8009592E+001, 7.5683901E-002, 1.1328721E-001, 7.3428221E-002, 3.5918008E-003, 6.5496519E-003, 1.6682420E-003, 5.2370312E+002
 1.9007063E+001, 7.7952695E-002, 1.1137808E-001, 7.2477787E-002, 3.6849110E-003, 6.7530510E-003, 1.6732941E-003, 5.1078890E+002
 2.0008521E+001, 7.8494795E-002, 1.1008210E-001, 7.2368447E-002, 4.1757605E-003, 7.7282155E-003, 1.7692567E-003, 5.0821035E+002
 2.1002733E+001, 7.9312458E-002, 1.0955353E-001, 7.1943097E-002, 4.0741626E-003, 8.0000722E-003, 1.7430961E-003, 5.0095991E+002
 2.2001434E+001, 8.0270474E-002, 1.0868092E-001, 7.1512972E-002, 4.1214599E-003, 8.3954083E-003, 1.7464321E-003, 4.9483568E+002
 2.3006851E+001, 7.9722197E-002, 1.0927849E-001, 7.1632631E-002, 3.9535222E-003, 8.7592250E-003, 1.7148220E-003, 5.1233443E+002
 2.4000033E+001, 8.1620118E-002, 1.0842328E-001, 7.0625151E-002, 3.5347027E-003, 8.7823598E-003, 1.6174403E-003, 5.0398338E+002
 2.5004498E+001, 8.1846863E-002, 1.0789302E-001, 7.0384962E-002, 3.5861897E-003, 1.0371533E-002, 1.6243954E-003, 4.9038193E+002
 2.6003973E+001, 8.2178488E-002, 1.0746110E-001, 7.0131698E-002, 3.5814108E-003, 1.1410999E-002, 1.6199511E-003, 4.8597411E+002
 2.7001124E+001, 8.1281615E-002, 1.0778192E-001, 7.0627651E-002, 3.8320632E-003, 1.1441316E-002, 1.6767215E-003, 4.8311902E+002
 2.8002199E+001, 8.1343537E-002, 1.0777231E-001, 7.0607721E-002, 3.8200296E-003, 1.1325824E-002, 1.6740413E-003, 4.7870099E+002
 2.9003949E+001, 8.0190372E-002, 1.0715735E-001, 7.1244688E-002, 4.6050524E-003, 1.3395213E-002, 1.8390439E-003, 4.7437616E+002
 3.0000211E+001, 7.8020248E-002, 1.0773386E-001, 7.2255876E-002, 5.1574052E-003, 1.5032309E-002, 1.9631224E-003, 4.7186486E+002
 3.1008087E+001, 7.7064994E-002, 1.0827572E-001, 7.2696249E-002, 5.2670229E-003, 1.5214193E-002, 1.9911255E-003, 4.6878817E+002
 3.2004968E+001, 7.6191335E-002, 1.0869503E-001, 7.3223881E-002, 5.4970262E-003, 1.4757376E-002, 2.0442045E-003, 4.5971658E+002
 3.3008339E+001, 7.4339964E-002, 1.0851426E-001, 7.4207139E-002, 6.3636230E-003, 1.6733260E-002, 2.2302898E-003, 4.7020698E+002
 3.4008939E+001, 7.3835511E-002, 1.0909994E-001, 7.4443795E-002, 6.2895807E-003, 1.6213244E-002, 2.2188977E-003, 4.6359703E+002
 3.5009216E+001, 7.2427098E-002, 1.0888844E-001, 7.5324304E-002, 7.0833763E-003, 1.7041419E-002, 2.3889828E-003, 4.6505727E+002
 3.6006185E+001, 7.1559879E-002, 1.0967318E-001, 7.5569307E-002, 6.9326589E-003, 1.7587989E-002, 2.3625793E-003, 4.6845324E+002
 3.7000226E+001, 7.0940760E-002, 1.0970129E-001, 7.5847454E-002, 7.1438348E-003, 1.8387969E-002, 2.4084974E-003, 4.6603370E+002
 3.8002401E+001, 7.0658037E-002, 1.0873723E-001, 7.6008433E-002, 7.7066950E-003, 2.0469222E-002, 2.5226705E-003, 4.5963552E+002
 3.9002756E+001, 7.0220386E-002, 1.0883826E-001, 7.6314282E-002, 7.9027905E-003, 2.0198052E-002, 2.5658972E-003, 4.5851362E+002
 4.0000989E+001, 6.9291453E-002, 1.0876868E-001, 7.6839481E-002, 8.3524026E-003, 2.0950526E-002, 2.6626331E-003, 4.5584588E+002
 4.1009368E+001, 6.8777991E-002, 1.0909891E-001, 7.7119779E-002, 8.4270359E-003, 2.0701401E-002, 2.6813914E-003, 4.5524910E+002
 4.2003948E+001, 6.8230231E-002, 1.0918187E-001, 7.7340512E-002, 8.5683195E-003, 2.1451704E-002, 2.7126203E-003, 4.5878625E+002
 4.3000741E+001, 6.7477686E-002, 1.0897593E-001, 7.7766617E-002, 9.0004831E-003, 2.2352318E-002, 2.8045034E-003, 4.5650378E+002
 4.4007004E+001, 6.7152576E-002, 1.0848202E-001, 7.8008162E-002, 9.4136528E-003, 2.3183926E-002, 2.8899996E-003, 4.4969474E+002
 4.5004035E+001, 6.6781379E-002, 1.0855793E-001, 7.8217851E-002, 9.5464149E-003, 2.3281216E-002, 2.9193259E-003, 4.4932655E+002
 4.6006450E+001, 6.6350619E-002, 1.0874811E-001, 7.8508421E-002, 9.6905163E-003, 2.2900191E-002, 2.9520070E-003, 4.5157747E+002
 4.7007911E+001, 6.5485925E-002, 1.0835029E-001, 7.8931086E-002, 1.0208648E-002, 2.4667557E-002, 3.0609779E-003, 4.5439406E+002
 4.8000214E+001, 6.5014578E-002, 1.0848162E-001, 7.9250803E-002, 1.0402291E-002, 2.4391051E-002, 3.1039136E-003, 4.5665235E+002
 4.9001525E+001, 6.4697920E-002, 1.0872789E-001, 7.9420739E-002, 1.0426869E-002, 2.4171511E-002, 3.1111777E-003, 4.5488791E+002
 5.0000944E+001, 6.4311139E-002, 1.0841605E-001, 7.9597205E-002, 1.0709388E-002, 2.5304095E-002, 3.1698459E-003, 4.5484025E+002
 5.1011194E+001, 6.4399864E-002, 1.0848048E-001, 7.9586608E-002, 1.0670603E-002, 2.4873182E-002, 3.1619613E-003, 4.5031833E+002
 5.2002017E+001, 6.4127628E-002, 1.0790368E-001, 7.9823931E-002, 1.1116952E-002, 2.5674204E-002, 3.2539809E-003, 4.4746479E+002
 5.3007684E+001, 6.3840711E-002, 1.0784150E-001, 8.0008835E-002, 1.1291495E-002, 2.5846324E-002, 3.2912559E-003, 4.4793246E+002
 5.4003923E+001, 6.3092322E-002, 1.0819076E-001, 8.0395457E-002, 1.1443086E-002, 2.5879428E-002, 3.3268174E-003, 4.5124753E+002
 5.5009378E+001, 6.2791846E-002, 1.0787569E-001, 8.0558060E-002, 1.1714880E-002, 2.6744830E-002, 3.3831383E-003, 4.5239928E+002
 5.6000190E+001, 6.2720276E-002, 1.0720706E-001, 8.0710146E-002, 1.2133831E-002, 2.7419215E-002, 3.4685030E-003, 4.5007244E+002
 5.7005410E+001, 6.2723075E-002, 1.0727237E-001, 8.0677716E-002, 1.2079565E-002, 2.7479669E-002, 3.4572783E-003, 4.4802205E+002
 5.8007966E+001, 6.2345238E-002, 1.0724580E-001, 8.1008675E-002, 1.2351268E-002, 2.7055462E-002, 3.5158545E-003, 4.5218227E+002
 5.9003973E+001, 6.2179204E-002, 1.0698049E-001, 8.1134258E-002, 1.2569866E-002, 2.7492144E-002, 3.5610569E-003, 4.4561303E+002
 6.0005765E+001, 6.1921411E-002, 1.0751810E-001, 8.1143010E-002, 1.2338901E-002, 2.7451453E-002, 3.5153336E-003, 4.5252995E+002
 6.1001251E+001, 6.2034250E-002, 1.0702122E-001, 8.1139919E-002, 1.2558503E-002, 2.7980448E-002, 3.5589225E-003, 4.4684759E+002
 6.2005020E+001, 6.1524064E-002, 1.0711091E-001, 8.1414357E-002, 1.2737065E-002, 2.8228293E-002, 3.5982682E-003, 4.5361865E+002
 6.3000074E+001, 6.1698290E-002, 1.0681492E-001, 8.1391248E-002, 1.2849662E-002, 2.8229516E-002, 3.6202905E-003, 4.4661319E+002
 6.4000683E+001, 6.1718550E-002, 1.0636771E-001, 8.1431862E-002, 1.3081954E-002, 2.8775399E-002, 3.6670181E-003, 4.4407834E+002
 6.5007906E+001, 6.1468600E-002, 1.0651409E-001, 8.1529494E-002, 1.3095124E-002, 2.8922907E-002, 3.6710259E-003, 4.4290329E+002
 6.6003579E+001, 6.1337131E-002, 1.0584656E-001, 8.1760950E-002, 1.3575298E-002, 2.9352920E-002, 3.7696451E-003, 4.4370703E+002
 6.7003208E+001, 6.1142922E-002, 1.0639589E-001, 8.1766927E-002, 1.3335757E-002, 2.9041511E-002, 3.7221575E-003, 4.4846263E+002
 6.8005898E+001, 6.0952564E-002, 1.0613259E-001, 8.1942220E-002, 1.3591862E-002, 2.9267605E-002, 3.7754901E-003, 4.4639247E+002
 6.9001391E+001, 6.0725615E-002, 1.0669580E-001, 8.1956766E-002, 1.3353210E-002, 2.9012092E-002, 3.7283049E-003, 4.4863382E+002
 7.0008395E+001, 6.0906052E-002, 1.0579798E-001, 8.2030533E-002, 1.3811037E-002, 2.9574046E-002, 3.8202689E-003, 4.4951719E+002
 7.1001474E+001, 6.0591203E-002, 1.0658089E-001, 8.2124460E-002, 1.3535565E-002, 2.8759644E-002, 3.7668513E-003, 4.5320873E+002
 7.2001628E+001, 6.0609491E-002, 1.0681482E-001, 8.1978712E-002, 1.3318450E-002, 2.9125078E-002, 3.7217255E-003, 4.5165778E+002
 7.3007623E+001, 6.0447096E-002, 1.0667223E-001, 8.2066144E-002, 1.3452510E-002, 2.9540948E-002, 3.7496067E-003, 4.5334673E+002
 7.4000134E+001, 6.0670396E-002, 1.0669423E-001, 8.1882300E-002, 1.3298071E-002, 2.9706444E-002, 3.7163654E-003, 4.5275618E+002
 7.5004145E+001, 6.0545715E-002, 1.0667191E-001, 8.1918542E-002, 1.3338116E-002, 3.0045202E-002, 3.7248550E-003, 4.5290068E+002
 7.6005827E+001, 6.0770414E-002, 1.0654658E-001, 8.1818929E-002, 1.3314406E-002, 2.9973605E-002, 3.7187337E-003, 4.5050613E+002
 7.7001568E+001, 6.0933183E-002, 1.0642140E-001, 8.1691772E-002, 1.3270741E-002, 3.0330268E-002, 3.7082978E-003, 4.5070527E+002
 7.8007726E+001, 6.0950061E-002, 1.0648162E-001, 8.1637074E-002, 1.3201506E-002, 3.0480066E-002, 3.6937943E-003, 4.5319698E+002
 7.9001008E+001, 6.0602806E-002, 1.0688015E-001, 8.1848125E-002, 1.3189394E-002, 2.9833041E-002, 3.6943215E-003, 4.5217107E+002
 8.0002616E+001, 6.1057171E-002, 1.0656575E-001, 8.1514428E-002, 1.3067932E-002, 3.0627839E-002, 3.6655587E-003, 4.4928454E+002
 8.1003353E+001, 6.0832627E-002, 1.0680029E-001, 8.1575421E-002, 1.3012903E-002, 3.0722680E-002, 3.6555071E-003, 4.4710516E+002
 8.2003543E+001, 6.0805912E-002, 1.0670461E-001, 8.1621881E-002, 1.3092019E-002, 3.0734799E-002, 3.6718689E-003, 4.4788084E+002
 8.3001210E+001, 6.0724798E-002, 1.0661752E-001, 8.1601639E-002, 1.3117333E-002, 3.1369755E-002, 3.6766604E-003, 4.5023783E+002
 8.4001636E+001, 6.0588116E-002, 1.0681826E-001, 8.1672581E-002, 1.3083519E-002, 3.1103689E-002, 3.6709301E-003, 4.5051202E+002
 8.5004847E+001, 6.0892220E-002, 1.0662617E-001, 8.1576806E-002, 1.3091373E-002, 3.0809263E-002, 3.6711093E-003, 4.4591209E+002
 8.6008117E+001, 6.0903650E-002, 1.0652601E-001, 8.1528717E-002, 1.3099602E-002, 3.1257062E-002, 3.6720998E-003, 4.4511447E+002
 8.7008356E+001, 6.0751502E-002, 1.0693654E-001, 8.1542726E-002, 1.2928000E-002, 3.0994405E-002, 3.6382152E-003, 4.4336279E+002
 8.8011372E+001, 6.0573854E-002, 1.0708843E-001, 8.1629040E-002, 1.2928709E-002, 3.0900064E-002, 3.6395691E-003, 4.5179707E+002
 8.9007536E+001, 6.0942521E-002, 1.0664060E-001, 8.1432130E-002, 1.2973456E-002, 3.1467540E-002, 3.6457128E-003, 4.4697937E+002
 9.0003518E+001, 6.0848482E-002, 1.0666147E-001, 8.1421351E-002, 1.2957550E-002, 3.1884789E-002, 3.6424382E-003, 4.4915714E+002
 9.1005431E+001, 6.0975557E-002, 1.0689403E-001, 8.1305150E-002, 1.2761604E-002, 3.1616815E-002, 3.6018787E-003, 4.4673452E+002
 9.2008597E+001, 6.0957008E-002, 1.0653215E-001, 8.1421325E-002, 1.3013835E-002, 3.1687985E-002, 3.6535932E-003, 4.4625282E+002
 9.3002851E+001, 6.0994570E-002, 1.0661885E-001, 8.1338250E-002, 1.2910610E-002, 3.1875216E-002, 3.6319446E-003, 4.4739225E+002
 9.4006964E+001, 6.0827775E-002, 1.0651051E-001, 8.1377091E-002, 1.2992203E-002, 3.2542882E-002, 3.6487455E-003, 4.5005305E+002
 9.5005289E+001, 6.0747316E-002, 1.0622602E-001, 8.1511949E-002, 1.3224952E-002, 3.2603544E-002, 3.6968562E-003, 4.4500090E+002
 9.6003374E+001, 6.1107690E-002, 1.0634093E-001, 8.1269665E-002, 1.2981460E-002, 3.2376989E-002, 3.6450795E-003, 4.4652815E+002
 9.7009005E+001, 6.0952180E-002, 1.0609523E-001, 8.1430678E-002, 1.3218082E-002, 3.2511716E-002, 3.6943351E-003, 4.4920352E+002
 9.8001536E+001, 6.1004287E-002, 1.0595742E-001, 8.1418381E-002, 1.3269864E-002, 3.2642610E-002, 3.7044504E-003, 4.4408365E+002
 9.9005166E+001, 6.0776574E-002, 1.0661628E-001, 8.1449720E-002, 1.3000921E-002, 3.2097638E-002, 3.6514659E-003, 4.4621855E+002
 1.0000090E+002, 6.0882375E-002, 1.0625237E-001, 8.1395832E-002, 1.3121903E-002, 3.2708411E-002, 3.6747684E-003, 4.5089953E+002
 1.0100457E+002, 6.1066665E-002, 1.0597621E-001, 8.1337261E-002, 1.3198291E-002, 3.2848290E-002, 3.6891136E-003, 4.4588424E+002
 1.0200978E+002, 6.0706075E-002, 1.0632354E-001, 8.1510089E-002, 1.3180322E-002, 3.2594522E-002, 3.6879708E-003, 4.4500452E+002
 1.0300830E+002, 6.0706018E-002, 1.0651776E-001, 8.1480866E-002, 1.3070433E-002, 3.2392811E-002, 3.6657287E-003, 4.5062008E+002
 1.0400575E+002, 6.0831277E-002, 1.0626829E-001, 8.1326488E-002, 1.3062718E-002, 3.3319407E-002, 3.6620911E-003, 4.4769845E+002
 1.0500027E+002, 6.0598795E-002, 1.0670774E-001, 8.1437266E-002, 1.2953459E-002, 3.2734848E-002, 3.6419228E-003, 4.5150211E+002
 1.0600361E+002, 6.0793114E-002, 1.0667233E-001, 8.1316279E-002, 1.2873442E-002, 3.2744860E-002, 3.6243296E-003, 4.5207385E+002
 1.0700547E+002, 6.0886806E-002, 1.0632496E-001, 8.1264188E-002, 1.2988562E-002, 3.3362325E-002, 3.6464944E-003, 4.4568551E+002
 1.0800209E+002, 6.0665452E-002, 1.0680869E-001, 8.1385025E-002, 1.2866812E-002, 3.2581780E-002, 3.6239724E-003, 4.4831259E+002
 1.0900034E+002, 6.0913811E-002, 1.0633694E-001, 8.1237764E-002, 1.2962481E-002, 3.3389917E-002, 3.6409461E-003, 4.4511373E+002
 1.1000461E+002, 6.1005074E-002, 1.0658874E-001, 8.1152208E-002, 1.2781922E-002, 3.3043305E-002, 3.6038678E-003, 4.5200686E+002
 1.1101053E+002, 6.1044941E-002, 1.0642995E-001, 8.1113092E-002, 1.2822914E-002, 3.3432698E-002, 3.6114835E-003, 4.4638349E+002
 1.1200249E+002, 6.0876120E-002, 1.0669202E-001, 8.1249234E-002, 1.2811830E-002, 3.2775666E-002, 3.6111545E-003, 4.4822849E+002
 1.1301043E+002, 6.1049318E-002, 1.0626694E-001, 8.1134635E-002, 1.2912786E-002, 3.3602446E-002, 3.6296411E-003, 4.4469841E+002
 1.1400788E+002, 6.0896582E-002, 1.0645898E-001, 8.1202492E-002, 1.2880837E-002, 3.3439517E-002, 3.6242459E-003, 4.4576008E+002
 1.1500854E+002, 6.0995002E-002, 1.0646247E-001, 8.1133336E-002, 1.2824631E-002, 3.3451141E-002, 3.6121124E-003, 4.4589736E+002
 1.1600806E+002, 6.1081936E-002, 1.0614651E-001, 8.1116268E-002, 1.2952461E-002, 3.3817863E-002, 3.6372744E-003, 4.4414766E+002
 1.1700373E+002, 6.1077326E-002, 1.0610166E-001, 8.1085415E-002, 1.2949209E-002, 3.4116627E-002, 3.6362176E-003, 4.4545074E+002
 1.1800552E+002, 6.0921474E-002, 1.0624032E-001, 8.1223589E-002, 1.2995083E-002, 3.3636335E-002, 3.6472374E-003, 4.4915545E+002
 1.1900058E+002, 6.1167935E-002, 1.0634471E-001, 8.0940492E-002, 1.2727269E-002, 3.4157740E-002, 3.5901183E-003, 4.4731845E+002
 1.2000283E+002, 6.0994170E-002, 1.0629830E-001, 8.1137121E-002, 1.2901563E-002, 3.3754883E-002, 3.6274616E-003, 4.4713926E+002
 1.2100115E+002, 6.0859789E-002, 1.0649503E-001, 8.1207982E-002, 1.2869456E-002, 3.3487664E-002, 3.6220686E-003, 4.4645113E+002
 1.2200651E+002, 6.1171306E-002, 1.0603354E-001, 8.0985529E-002, 1.2901908E-002, 3.4478305E-002, 3.6254461E-003, 4.4462817E+002
 1.2300548E+002, 6.1001538E-002, 1.0647407E-001, 8.1070314E-002, 1.2771155E-002, 3.3791457E-002, 3.6006350E-003, 4.4858588E+002
 1.2400744E+002, 6.1098794E-002, 1.0663110E-001, 8.1018065E-002, 1.2658650E-002, 3.3400434E-002, 3.5775322E-003, 4.5280650E+002
 1.2500608E+002, 6.1495782E-002, 1.0608627E-001, 8.0822381E-002, 1.2747550E-002, 3.4033646E-002, 3.5924625E-003, 4.4543174E+002
 1.2600637E+002, 6.1465444E-002, 1.0625303E-001, 8.0732494E-002, 1.2604273E-002, 3.4387977E-002, 3.5627820E-003, 4.4570825E+002
 1.2700299E+002, 6.1745079E-002, 1.0604655E-001, 8.0621180E-002, 1.2607203E-002, 3.4320094E-002, 3.5617830E-003, 4.4762515E+002
 1.2800290E+002, 6.1989284E-002, 1.0594891E-001, 8.0530792E-002, 1.2577691E-002, 3.4055518E-002, 3.5546242E-003, 4.4066682E+002
 1.2900876E+002, 6.2077460E-002, 1.0608368E-001, 8.0455038E-002, 1.2457443E-002, 3.3891805E-002, 3.5296709E-003, 4.4836721E+002
 1.3000748E+002, 6.2045850E-002, 1.0611555E-001, 8.0454343E-002, 1.2443130E-002, 3.3964926E-002, 3.5268263E-003, 4.4384793E+002
 1.3100918E+002, 6.2581119E-002, 1.0604819E-001, 8.0227610E-002, 1.2290463E-002, 3.3273063E-002, 3.4932580E-003, 4.4775485E+002
 1.3200547E+002, 6.2388198E-002, 1.0597838E-001, 8.0316547E-002, 1.2393422E-002, 3.3663232E-002, 3.5149852E-003, 4.5058334E+002
 1.3300424E+002, 6.2571727E-002, 1.0597966E-001, 8.0134867E-002, 1.2250712E-002, 3.4021806E-002, 3.4841189E-003, 4.4621592E+002
 1.3401010E+002, 6.3085097E-002, 1.0556724E-001, 7.9914010E-002, 1.2258533E-002, 3.4065178E-002, 3.4825502E-003, 4.4215283E+002
 1.3500858E+002, 6.2804097E-002, 1.0584888E-001, 8.0058891E-002, 1.2247368E-002, 3.3782592E-002, 3.4823602E-003, 4.4077817E+002
 1.3600830E+002, 6.2504004E-002, 1.0578911E-001, 8.0229954E-002, 1.2410500E-002, 3.4090571E-002, 3.5171857E-003, 4.4644531E+002
 1.3700593E+002, 6.2795540E-002, 1.0555620E-001, 8.0015176E-002, 1.2346116E-002, 3.4666162E-002, 3.5014161E-003, 4.4757371E+002
 1.3800469E+002, 6.3213907E-002, 1.0591235E-001, 7.9818791E-002, 1.2027823E-002, 3.3438051E-002, 3.4353574E-003, 4.4539392E+002
 1.3900060E+002, 6.3358900E-002, 1.0580677E-001, 7.9740144E-002, 1.2012691E-002, 3.3529580E-002, 3.4312489E-003, 4.5348460E+002
 1.4000672E+002, 6.3649272E-002, 1.0599180E-001, 7.9538360E-002, 1.1769801E-002, 3.3205405E-002, 3.3801563E-003, 4.4430096E+002
 1.4100894E+002, 6.3484458E-002, 1.0587484E-001, 7.9606506E-002, 1.1877627E-002, 3.3700296E-002, 3.4025641E-003, 4.4844148E+002
 1.4200891E+002, 6.3573577E-002, 1.0582365E-001, 7.9623841E-002, 1.1912299E-002, 3.3322702E-002, 3.4096597E-003, 4.4441997E+002
 1.4300239E+002, 6.4126459E-002, 1.0574251E-001, 7.9309934E-002, 1.1698952E-002, 3.3124674E-002, 3.3628553E-003, 4.4521210E+002
 1.4400486E+002, 6.4161652E-002, 1.0567278E-001, 7.9239807E-002, 1.1676191E-002, 3.3550016E-002, 3.3573812E-003, 4.4859685E+002
 1.4500766E+002, 6.4937488E-002, 1.0526188E-001, 7.8771124E-002, 1.1489217E-002, 3.4032473E-002, 3.3136790E-003, 4.4693289E+002
 1.4600046E+002, 6.4549249E-002, 1.0596755E-001, 7.8919496E-002, 1.1291508E-002, 3.3338773E-002, 3.2764770E-003, 4.4517658E+002
 1.4700055E+002, 6.5184457E-002, 1.0509002E-001, 7.8594060E-002, 1.1426933E-002, 3.4439674E-002, 3.2988457E-003, 4.4501310E+002
 1.4800562E+002, 6.5063680E-002, 1.0548808E-001, 7.8643040E-002, 1.1287079E-002, 3.3854322E-002, 3.2717301E-003, 4.4413333E+002
 1.4900366E+002, 6.5134149E-002, 1.0570161E-001, 7.8432124E-002, 1.1028430E-002, 3.4446351E-002, 3.2174574E-003, 4.4645490E+002
 1.5000189E+002, 6.5094894E-002, 1.0575697E-001, 7.8533083E-002, 1.1081289E-002, 3.3875256E-002, 3.2293295E-003, 4.4866039E+002
 1.5100225E+002, 6.5478955E-002, 1.0561096E-001, 7.8279506E-002, 1.0946385E-002, 3.4134511E-002, 3.1989871E-003, 4.4222465E+002
 1.5200951E+002, 6.5414206E-002, 1.0546880E-001, 7.8280077E-002, 1.1012117E-002, 3.4680943E-002, 3.2120882E-003, 4.4439981E+002
 1.5300886E+002, 6.5419870E-002, 1.0573222E-001, 7.8288027E-002, 1.0899309E-002, 3.4088689E-002, 3.1897598E-003, 4.4125839E+002
 1.5400062E+002, 6.5832871E-002, 1.0542036E-001, 7.7913267E-002, 1.0746109E-002, 3.5305127E-002, 3.1541519E-003, 4.4173374E+002
