s,,,,,,,
Time,"O2 EXHAUST","CO2 EXHAUST","H2O EXHAUST","CO EXHAUST","FUEL EXHAUST","SOOT EXHAUST","TEMP EXHAUST"
 0.0000000E+000, 2.3099739E-001, 5.9146498E-004, 5.9412092E-003, 0.0000000E+000, 0.0000000E+000, 0.0000000E+000, 2.0000000E+001
 1.0004598E+000, 2.3099739E-001, 5.9146498E-004, 5.9412092E-003, 5.0484876E-032, 6.1386308E-031, 1.5406788E-032, 2.0525854E+001
 2.0020575E+000, 2.2319187E-001, 6.9484020E-003, 9.5265498E-003, 3.7913154E-005, 2.8068543E-004, 5.0842439E-005, 9.6734726E+001
 3.0035636E+000, 2.1939275E-001, 1.0042901E-002, 1.1288724E-002, 6.9125295E-005, 3.2270981E-004, 7.8326710E-005, 1.3146485E+002
 4.0009924E+000, 2.1257160E-001, 1.5626046E-002, 1.4436743E-002, 1.0111440E-004, 4.3089794E-004, 1.2269918E-004, 1.9381328E+002
 5.0000361E+000, 2.0810443E-001, 1.9274111E-002, 1.6501466E-002, 1.2809753E-004, 5.0154922E-004, 1.5299628E-004, 2.3034098E+002
 6.0026955E+000, 2.0191407E-001, 2.4399852E-002, 1.9355970E-002, 1.2918802E-004, 4.9491678E-004, 1.8767019E-004, 2.7769697E+002
 7.0016758E+000, 1.9313178E-001, 3.1700123E-002, 2.3414039E-002, 1.2449343E-004, 3.8281569E-004, 2.3571413E-004, 3.3579530E+002
 8.0008967E+000, 1.8665297E-001, 3.7092736E-002, 2.6405341E-002, 1.1607108E-004, 2.9901310E-004, 2.7014126E-004, 3.7198959E+002
 9.0056068E+000, 1.8029341E-001, 4.2395383E-002, 2.9341546E-002, 1.0365212E-004, 1.9829927E-004, 3.0310696E-004, 4.0067171E+002
 1.0003050E+001, 1.7136423E-001, 4.9829824E-002, 3.3462638E-002, 8.9854679E-005, 8.6785886E-005, 3.5010071E-004, 4.3726868E+002
 1.1006253E+001, 1.6415498E-001, 5.5817248E-002, 3.6789406E-002, 8.4972856E-005, 2.9607436E-005, 3.8928362E-004, 4.5808522E+002
 1.2005998E+001, 1.5663674E-001, 6.2044222E-002, 4.0258738E-002, 8.7437163E-005, 4.3434170E-006, 4.3165125E-004, 4.7626429E+002
 1.3002295E+001, 1.5075210E-001, 6.6909409E-002, 4.2974502E-002, 9.3451487E-005, 6.3682753E-007, 4.6563018E-004, 4.8135500E+002
 1.4003810E+001, 1.4458418E-001, 7.2007297E-002, 4.5820925E-002, 1.0036619E-004, 1.5405089E-007, 5.0136571E-004, 4.9128028E+002
 1.5007545E+001, 1.3690626E-001, 7.8352754E-002, 4.9364288E-002, 1.0925290E-004, 4.1987798E-008, 5.4590652E-004, 5.0020217E+002
 1.6003876E+001, 1.3184763E-001, 8.2533401E-002, 5.1698854E-002, 1.1514940E-004, 5.2607352E-008, 5.7526074E-004, 5.0705833E+002
 1.7004274E+001, 1.2543938E-001, 8.7829495E-002, 5.4656260E-002, 1.2258012E-004, 4.2784402E-008, 6.1243866E-004, 5.0687416E+002
 1.8003389E+001, 1.1919070E-001, 9.2993467E-002, 5.7540092E-002, 1.2998565E-004, 1.3260214E-007, 6.4872343E-004, 5.1284602E+002
 1.9000066E+001, 1.1537003E-001, 9.6151009E-002, 5.9303350E-002, 1.3445186E-004, 1.5121007E-007, 6.7089670E-004, 5.1363287E+002
 2.0006288E+001, 1.1159692E-001, 9.9269290E-002, 6.1044643E-002, 1.3883147E-004, 1.0872575E-007, 6.9278760E-004, 5.1298686E+002
 2.1002639E+001, 1.0583448E-001, 1.0403156E-001, 6.3704033E-002, 1.4557435E-004, 1.2917556E-007, 7.2623125E-004, 5.1393132E+002
 2.2002028E+001, 1.0317919E-001, 1.0622626E-001, 6.4929372E-002, 1.4849088E-004, 7.7637612E-008, 7.4160286E-004, 5.1037017E+002
 2.3007405E+001, 9.8932040E-002, 1.0973636E-001, 6.6889413E-002, 1.5338226E-004, 7.3936409E-008, 7.6623614E-004, 5.0977195E+002
 2.4002542E+001, 9.2471132E-002, 1.1506851E-001, 6.9873531E-002, 1.6600563E-004, 1.7816194E-006, 8.0476969E-004, 5.1873810E+002
 2.5007562E+001, 9.0495704E-002, 1.1669097E-001, 7.0788459E-002, 1.7526721E-004, 4.1762033E-006, 8.1765677E-004, 5.1324068E+002
 2.6005743E+001, 8.6912525E-002, 1.1963867E-001, 7.2446356E-002, 1.8868716E-004, 8.0969151E-006, 8.4033982E-004, 5.0839475E+002
 2.7008556E+001, 8.3744797E-002, 1.2222839E-001, 7.3917403E-002, 2.1180779E-004, 1.4586456E-005, 8.6269747E-004, 5.0858694E+002
 2.8005446E+001, 7.9185109E-002, 1.2596510E-001, 7.6032039E-002, 2.3895785E-004, 2.1294141E-005, 8.9362572E-004, 5.1052083E+002
 2.9001965E+001, 7.6245510E-002, 1.2837805E-001, 7.7394116E-002, 2.5379996E-004, 2.4406008E-005, 9.1302073E-004, 5.1240139E+002
 3.0003807E+001, 7.3555516E-002, 1.3060605E-001, 7.8633418E-002, 2.5315500E-004, 2.6348276E-005, 9.2785248E-004, 5.0958638E+002
 3.1009862E+001, 6.9465220E-002, 1.3395662E-001, 8.0531125E-002, 2.7873695E-004, 3.1151082E-005, 9.5585001E-004, 5.0847143E+002
 3.2010283E+001, 6.7568085E-002, 1.3550508E-001, 8.1413070E-002, 2.9441089E-004, 3.4891623E-005, 9.6961476E-004, 5.0391472E+002
 3.3005825E+001, 6.3796044E-002, 1.3860984E-001, 8.3157700E-002, 3.0729472E-004, 3.9203014E-005, 9.9323815E-004, 5.0821725E+002
 3.4001962E+001, 6.1441427E-002, 1.4053398E-001, 8.4251257E-002, 3.2493111E-004, 4.5099389E-005, 1.0099479E-003, 5.0564435E+002
 3.5005457E+001, 5.6920750E-002, 1.4425661E-001, 8.6342359E-002, 3.3979502E-004, 4.5738626E-005, 1.0381473E-003, 5.1015649E+002
 3.6005138E+001, 5.4770069E-002, 1.4602672E-001, 8.7337333E-002, 3.4737752E-004, 4.7047425E-005, 1.0516665E-003, 5.0987191E+002
 3.7002354E+001, 5.2609869E-002, 1.4783210E-001, 8.8327553E-002, 3.3589379E-004, 4.3585298E-005, 1.0613348E-003, 5.0962069E+002
 3.8006628E+001, 4.8681178E-002, 1.5101492E-001, 9.0162512E-002, 3.8541141E-004, 5.2046751E-005, 1.0933371E-003, 5.1064902E+002
 3.9001820E+001, 4.5451006E-002, 1.5368699E-001, 9.1652147E-002, 3.8722541E-004, 5.3006619E-005, 1.1116798E-003, 5.1230279E+002
 4.0006730E+001, 4.2727987E-002, 1.5589523E-001, 9.2924016E-002, 4.2060071E-004, 5.4251375E-005, 1.1336729E-003, 5.0822503E+002
 4.1003668E+001, 4.1691411E-002, 1.5673893E-001, 9.3406545E-002, 4.3070030E-004, 5.7512618E-005, 1.1415072E-003, 5.0576342E+002
 4.2005574E+001, 3.6668873E-002, 1.6089545E-001, 9.5722728E-002, 4.3272086E-004, 5.5594786E-005, 1.1698683E-003, 5.1253129E+002
 4.3001366E+001, 3.3788880E-002, 1.6321697E-001, 9.7072056E-002, 4.7737036E-004, 6.2315806E-005, 1.1950398E-003, 5.1453016E+002
 4.4008834E+001, 3.1538629E-002, 1.6503973E-001, 9.8122974E-002, 5.0578262E-004, 6.8264541E-005, 1.2133787E-003, 5.1486663E+002
 4.5008925E+001, 2.9653508E-002, 1.6655144E-001, 9.9008678E-002, 5.4038008E-004, 7.4753607E-005, 1.2309538E-003, 5.0666254E+002
 4.6005707E+001, 2.6667083E-002, 1.6904343E-001, 1.0037898E-001, 5.2725334E-004, 7.0414371E-005, 1.2448832E-003, 5.1398339E+002
 4.7000755E+001, 2.3920851E-002, 1.7122879E-001, 1.0167614E-001, 5.9035336E-004, 7.6073332E-005, 1.2730956E-003, 5.1254695E+002
 4.8005074E+001, 2.1486405E-002, 1.7320094E-001, 1.0281339E-001, 6.2124004E-004, 8.0415922E-005, 1.2929688E-003, 5.1455462E+002
 4.9007300E+001, 1.9132716E-002, 1.7510117E-001, 1.0391682E-001, 6.5693941E-004, 7.6245014E-005, 1.3133907E-003, 5.1688076E+002
 5.0008616E+001, 1.4859089E-002, 1.7843403E-001, 1.0595929E-001, 8.0332808E-004, 9.0434940E-005, 1.3671706E-003, 5.2222639E+002
 5.1005515E+001, 1.3713470E-002, 1.7940441E-001, 1.0647999E-001, 7.8813878E-004, 8.7021847E-005, 1.3704340E-003, 5.1549995E+002
 5.2007512E+001, 1.2498289E-002, 1.8024749E-001, 1.0709949E-001, 9.0547909E-004, 8.8386242E-005, 1.4012569E-003, 5.1596512E+002
 5.3002973E+001, 9.3573399E-003, 1.8214283E-001, 1.0879948E-001, 1.4094053E-003, 1.1937348E-004, 1.5220356E-003, 5.1750059E+002
 5.4003516E+001, 8.6164192E-003, 1.8236172E-001, 1.0927838E-001, 1.6884599E-003, 1.5705887E-004, 1.5833368E-003, 5.1027953E+002
 5.5010521E+001, 7.5445893E-003, 1.8246047E-001, 1.1004256E-001, 2.2428265E-003, 2.5691606E-004, 1.7028590E-003, 5.0327714E+002
 5.6008461E+001, 6.1014891E-003, 1.8262525E-001, 1.1108037E-001, 2.9818691E-003, 2.7869104E-004, 1.8624197E-003, 5.0571608E+002
 5.7003860E+001, 5.6563106E-003, 1.8293165E-001, 1.1130367E-001, 3.0231886E-003, 3.0410563E-004, 1.8733376E-003, 4.9618691E+002
 5.8006416E+001, 5.3898493E-003, 1.8241128E-001, 1.1167265E-001, 3.5382023E-003, 4.3970564E-004, 1.9802626E-003, 4.9163435E+002
 5.9006408E+001, 4.0744916E-003, 1.8201870E-001, 1.1281652E-001, 4.6023999E-003, 4.6238796E-004, 2.2057928E-003, 4.9469483E+002
 6.0004287E+001, 4.1680280E-003, 1.8191410E-001, 1.1275955E-001, 4.6039504E-003, 5.9264757E-004, 2.2054230E-003, 4.8780367E+002
 6.1008924E+001, 3.7610287E-003, 1.8089124E-001, 1.1339663E-001, 5.5473749E-003, 8.5391541E-004, 2.4008250E-003, 4.8702019E+002
 6.2000376E+001, 3.5457523E-003, 1.8128394E-001, 1.1343611E-001, 5.4070361E-003, 7.5171946E-004, 2.3733741E-003, 4.8431219E+002
 6.3009376E+001, 3.2717863E-003, 1.8131158E-001, 1.1363471E-001, 5.5501506E-003, 7.5451029E-004, 2.4042441E-003, 4.8049709E+002
 6.4000425E+001, 3.0650760E-003, 1.7947126E-001, 1.1436092E-001, 6.9199384E-003, 1.3268175E-003, 2.6855688E-003, 4.6906550E+002
 6.5000333E+001, 3.2896326E-003, 1.7909554E-001, 1.1433846E-001, 7.0654606E-003, 1.2629636E-003, 2.7142445E-003, 4.7415762E+002
 6.6006506E+001, 3.0329473E-003, 1.7798208E-001, 1.1489342E-001, 7.9841392E-003, 1.5267355E-003, 2.9037323E-003, 4.6657815E+002
 6.7010899E+001, 2.9580193E-003, 1.7820597E-001, 1.1490240E-001, 7.8930182E-003, 1.3425658E-003, 2.8856991E-003, 4.6733259E+002
 6.8008743E+001, 3.0172941E-003, 1.7624604E-001, 1.1545708E-001, 9.1811220E-003, 1.9814000E-003, 3.1487071E-003, 4.5826356E+002
 6.9002294E+001, 2.8908117E-003, 1.7618244E-001, 1.1560990E-001, 9.3273446E-003, 1.8007059E-003, 3.1796297E-003, 4.5716869E+002
 7.0008403E+001, 2.8102857E-003, 1.7563957E-001, 1.1582446E-001, 9.7320295E-003, 2.0494858E-003, 3.2627490E-003, 4.5720258E+002
 7.1005787E+001, 2.8850128E-003, 1.7458443E-001, 1.1607540E-001, 1.0388614E-002, 2.4754300E-003, 3.3964353E-003, 4.4960530E+002
 7.2009184E+001, 2.8596020E-003, 1.7400015E-001, 1.1625219E-001, 1.0782058E-002, 2.7834596E-003, 3.4768667E-003, 4.4920797E+002
 7.3000410E+001, 2.8078402E-003, 1.7328926E-001, 1.1661362E-001, 1.1371923E-002, 2.4438855E-003, 3.5985579E-003, 4.5025824E+002
 7.4009892E+001, 2.7581926E-003, 1.7125229E-001, 1.1716673E-001, 1.2695012E-002, 3.7011862E-003, 3.8685517E-003, 4.4484224E+002
 7.5006434E+001, 2.9678605E-003, 1.7222616E-001, 1.1676749E-001, 1.1956987E-002, 3.0607312E-003, 3.7168573E-003, 4.3880576E+002
 7.6005538E+001, 2.8388906E-003, 1.7099915E-001, 1.1725989E-001, 1.2876333E-002, 3.3602899E-003, 3.9057254E-003, 4.4304172E+002
 7.7009526E+001, 2.8783009E-003, 1.6998456E-001, 1.1750826E-001, 1.3513629E-002, 3.8668669E-003, 4.0355488E-003, 4.3934705E+002
 7.8000678E+001, 2.8833192E-003, 1.6959866E-001, 1.1762992E-001, 1.3776799E-002, 3.9522697E-003, 4.0893810E-003, 4.3855003E+002
 7.9004274E+001, 2.8849048E-003, 1.6911242E-001, 1.1775336E-001, 1.4085877E-002, 4.2433009E-003, 4.1523826E-003, 4.3860789E+002
 8.0006394E+001, 3.0500435E-003, 1.6810138E-001, 1.1792519E-001, 1.4661358E-002, 4.6360185E-003, 4.2689762E-003, 4.2959580E+002
 8.1003238E+001, 3.0152118E-003, 1.6752578E-001, 1.1813202E-001, 1.5073868E-002, 4.8015519E-003, 4.3535530E-003, 4.3185834E+002
 8.2005926E+001, 3.0549944E-003, 1.6593587E-001, 1.1862598E-001, 1.6152256E-002, 5.1134494E-003, 4.5740818E-003, 4.3566028E+002
 8.3010495E+001, 3.1692321E-003, 1.6578414E-001, 1.1860187E-001, 1.6199203E-002, 5.0715280E-003, 4.5831278E-003, 4.2929966E+002
 8.4006216E+001, 3.1133579E-003, 1.6485969E-001, 1.1891525E-001, 1.6847486E-002, 5.4400211E-003, 4.7159122E-003, 4.2919606E+002
 8.5010297E+001, 3.0430484E-003, 1.6408897E-001, 1.1915279E-001, 1.7370437E-002, 5.9764854E-003, 4.8228585E-003, 4.2701219E+002
 8.6008210E+001, 3.0181326E-003, 1.6402621E-001, 1.1919101E-001, 1.7427663E-002, 5.9970502E-003, 4.8347064E-003, 4.2924899E+002
 8.7002702E+001, 3.2381990E-003, 1.6262485E-001, 1.1946112E-001, 1.8249655E-002, 6.4033973E-003, 5.0015302E-003, 4.1977987E+002
 8.8002098E+001, 3.1526871E-003, 1.6255418E-001, 1.1958270E-001, 1.8374605E-002, 6.2366804E-003, 5.0278445E-003, 4.2561956E+002
 8.9001203E+001, 3.2167121E-003, 1.6151927E-001, 1.1984886E-001, 1.9033934E-002, 6.5835195E-003, 5.1622549E-003, 4.2578176E+002
 9.0004755E+001, 3.3973001E-003, 1.6126138E-001, 1.1979175E-001, 1.9101775E-002, 6.6573717E-003, 5.1750677E-003, 4.1767285E+002
 9.1008690E+001, 3.1785936E-003, 1.5961246E-001, 1.2038432E-001, 2.0285721E-002, 7.6286217E-003, 5.4178347E-003, 4.1941563E+002
 9.2008042E+001, 3.4084853E-003, 1.5940818E-001, 1.2028465E-001, 2.0296654E-002, 7.6220054E-003, 5.4188062E-003, 4.2446330E+002
 9.3006105E+001, 3.4383692E-003, 1.5924389E-001, 1.2027229E-001, 2.0359616E-002, 7.8937349E-003, 5.4312027E-003, 4.1792053E+002
 9.4000489E+001, 3.5597188E-003, 1.5875203E-001, 1.2035451E-001, 2.0637787E-002, 7.9207936E-003, 5.4875389E-003, 4.1727437E+002
 9.5011774E+001, 3.5963346E-003, 1.5813805E-001, 1.2055672E-001, 2.1062518E-002, 7.8895618E-003, 5.5744774E-003, 4.1627880E+002
 9.6008941E+001, 3.4377383E-003, 1.5722756E-001, 1.2097460E-001, 2.1785601E-002, 8.0874141E-003, 5.7233921E-003, 4.1697191E+002
 9.7007771E+001, 3.5442850E-003, 1.5694045E-001, 1.2090409E-001, 2.1857607E-002, 8.6029710E-003, 5.7369035E-003, 4.1534552E+002
 9.8004350E+001, 3.3953688E-003, 1.5621865E-001, 1.2119742E-001, 2.2402536E-002, 9.0646437E-003, 5.8488904E-003, 4.1870945E+002
 9.9010783E+001, 3.6429558E-003, 1.5556531E-001, 1.2120300E-001, 2.2691998E-002, 9.3068438E-003, 5.9065632E-003, 4.1267259E+002
 1.0000561E+002, 3.6546112E-003, 1.5504114E-001, 1.2134878E-001, 2.3034628E-002, 9.5092684E-003, 5.9765033E-003, 4.1177461E+002
 1.0100648E+002, 3.6894299E-003, 1.5454529E-001, 1.2146492E-001, 2.3341834E-002, 9.7205131E-003, 6.0390385E-003, 4.1251364E+002
 1.0200020E+002, 3.7548356E-003, 1.5408254E-001, 1.2159351E-001, 2.3643227E-002, 9.6692588E-003, 6.1005489E-003, 4.1215558E+002
 1.0300959E+002, 3.8313493E-003, 1.5270395E-001, 1.2190620E-001, 2.4489984E-002, 1.0397229E-002, 6.2728368E-003, 4.1265254E+002
 1.0400025E+002, 3.9082919E-003, 1.5248936E-001, 1.2193197E-001, 2.4603258E-002, 1.0363978E-002, 6.2956812E-003, 4.0715511E+002
 1.0500305E+002, 3.8711056E-003, 1.5181147E-001, 1.2214339E-001, 2.5064659E-002, 1.0719042E-002, 6.3900540E-003, 4.0859164E+002
 1.0601019E+002, 3.8815542E-003, 1.5112860E-001, 1.2251476E-001, 2.5648472E-002, 1.0008700E-002, 6.5106345E-003, 4.1239370E+002
 1.0700498E+002, 4.0203486E-003, 1.5039711E-001, 1.2259822E-001, 2.6033553E-002, 1.0435842E-002, 6.5882841E-003, 4.0104607E+002
 1.0801031E+002, 4.5451384E-003, 1.4796118E-001, 1.2314667E-001, 2.7519522E-002, 1.0114831E-002, 6.8905130E-003, 4.0620469E+002
 1.0900358E+002, 4.7114751E-003, 1.4714602E-001, 1.2329896E-001, 2.7993307E-002, 1.0217338E-002, 6.9866175E-003, 4.0704986E+002
 1.1000817E+002, 7.4338797E-003, 1.4437145E-001, 1.2208341E-001, 2.8253762E-002, 1.1044297E-002, 7.0238207E-003, 4.0686466E+002
 1.1100682E+002, 6.8319835E-003, 1.4414821E-001, 1.2265079E-001, 2.8793341E-002, 1.0901250E-002, 7.1380080E-003, 4.0025346E+002
 1.1200486E+002, 1.0464324E-002, 1.4180478E-001, 1.2051015E-001, 2.8145556E-002, 1.2125804E-002, 6.9833797E-003, 4.0780830E+002
 1.1300117E+002, 1.1413156E-002, 1.4127787E-001, 1.1972003E-001, 2.7763699E-002, 1.3540053E-002, 6.8979735E-003, 3.8882829E+002
 1.1400660E+002, 9.5440025E-003, 1.4127824E-001, 1.2151311E-001, 2.9155244E-002, 1.1536198E-002, 7.1963204E-003, 3.9691335E+002
 1.1500207E+002, 1.0947909E-002, 1.4159291E-001, 1.2026742E-001, 2.8046898E-002, 1.1856862E-002, 6.9608025E-003, 3.9312200E+002
 1.1600769E+002, 1.1492457E-002, 1.3935928E-001, 1.2063959E-001, 2.9309339E-002, 1.2013606E-002, 7.2164671E-003, 3.9743548E+002
 1.1700374E+002, 1.2995939E-002, 1.3933851E-001, 1.1930356E-001, 2.8279551E-002, 1.3084371E-002, 6.9955416E-003, 3.7248671E+002
 1.1800935E+002, 1.3122485E-002, 1.3997088E-001, 1.1916000E-001, 2.7888075E-002, 1.2074950E-002, 6.9158526E-003, 3.6914091E+002
 1.1900084E+002, 1.3312657E-002, 1.3977536E-001, 1.1918927E-001, 2.7993470E-002, 1.1510692E-002, 6.9371337E-003, 3.6963714E+002
 1.2001102E+002, 1.3776072E-002, 1.3970450E-001, 1.1894394E-001, 2.7830666E-002, 1.1057985E-002, 6.9017501E-003, 3.7605058E+002
 1.2101004E+002, 1.3977314E-002, 1.3741346E-001, 1.1966015E-001, 2.9385315E-002, 1.0881245E-002, 7.2196782E-003, 3.7595829E+002
 1.2201347E+002, 1.4026074E-002, 1.3604241E-001, 1.2011271E-001, 3.0335125E-002, 1.0944063E-002, 7.4141091E-003, 3.7032339E+002
 1.2300231E+002, 1.5031913E-002, 1.3333136E-001, 1.2027634E-001, 3.1642981E-002, 1.1269631E-002, 7.6763039E-003, 3.6600597E+002
 1.2400755E+002, 1.5452979E-002, 1.3239711E-001, 1.2027936E-001, 3.2051907E-002, 1.1362751E-002, 7.7577022E-003, 3.6563643E+002
 1.2500161E+002, 1.5960505E-002, 1.3257964E-001, 1.1978592E-001, 3.1588089E-002, 1.1577112E-002, 7.6594852E-003, 3.6381785E+002
 1.2600058E+002, 1.6716704E-002, 1.2995600E-001, 1.2003185E-001, 3.2924057E-002, 1.2321042E-002, 7.9282964E-003, 3.6355671E+002
 1.2700145E+002, 1.7281501E-002, 1.2922499E-001, 1.1982197E-001, 3.3079039E-002, 1.2572098E-002, 7.9566142E-003, 3.6526544E+002
 1.2800207E+002, 1.7302712E-002, 1.2715756E-001, 1.2062965E-001, 3.4607053E-002, 1.2199573E-002, 8.2703334E-003, 3.6612044E+002
 1.2900342E+002, 1.8189942E-002, 1.2694441E-001, 1.1995606E-001, 3.4175386E-002, 1.2604837E-002, 8.1763520E-003, 3.6379161E+002
 1.3001138E+002, 1.8576157E-002, 1.2503635E-001, 1.2026597E-001, 3.5249191E-002, 1.3112917E-002, 8.3937614E-003, 3.6169706E+002
 1.3100861E+002, 1.9455161E-002, 1.2279122E-001, 1.2031992E-001, 3.6269692E-002, 1.3636759E-002, 8.5974775E-003, 3.6167586E+002
 1.3200468E+002, 1.8708600E-002, 1.2430051E-001, 1.2048825E-001, 3.5741406E-002, 1.2814977E-002, 8.4943487E-003, 3.6643240E+002
 1.3300383E+002, 1.9391040E-002, 1.2141725E-001, 1.2093038E-001, 3.7342399E-002, 1.3312726E-002, 8.8182368E-003, 3.6569363E+002
 1.3400019E+002, 2.0135471E-002, 1.2041676E-001, 1.2063561E-001, 3.7549344E-002, 1.3817027E-002, 8.8558861E-003, 3.6377263E+002
 1.3501032E+002, 2.0389227E-002, 1.1954429E-001, 1.2073996E-001, 3.8010647E-002, 1.3931231E-002, 8.9489296E-003, 3.6461946E+002
 1.3600724E+002, 2.0359791E-002, 1.1934458E-001, 1.2090792E-001, 3.8226919E-002, 1.3534287E-002, 8.9939557E-003, 3.7045673E+002
 1.3700352E+002, 2.0232694E-002, 1.1949896E-001, 1.2100295E-001, 3.8232724E-002, 1.3236205E-002, 8.9962364E-003, 3.6881526E+002
 1.3800136E+002, 2.1092044E-002, 1.1717571E-001, 1.2102161E-001, 3.9261513E-002, 1.4192029E-002, 9.2012063E-003, 3.6528586E+002
 1.3900575E+002, 2.0785938E-002, 1.1710719E-001, 1.2125486E-001, 3.9474097E-002, 1.4332022E-002, 9.2463252E-003, 3.6818707E+002
 1.4000685E+002, 2.0660528E-002, 1.1592193E-001, 1.2185472E-001, 4.0456210E-002, 1.3944483E-002, 9.4489287E-003, 3.7116394E+002
 1.4100871E+002, 2.1057617E-002, 1.1470363E-001, 1.2195748E-001, 4.1067064E-002, 1.4160450E-002, 9.5717130E-003, 3.7075959E+002
 1.4201052E+002, 2.1521483E-002, 1.1386183E-001, 1.2182406E-001, 4.1330916E-002, 1.4636735E-002, 9.6226298E-003, 3.7162881E+002
 1.4300638E+002, 2.0942927E-002, 1.1373762E-001, 1.2241339E-001, 4.1842766E-002, 1.4077447E-002, 9.7315354E-003, 3.6905709E+002
 1.4400845E+002, 2.1578430E-002, 1.1220713E-001, 1.2240910E-001, 4.2506675E-002, 1.4507699E-002, 9.8635983E-003, 3.7133084E+002
 1.4501134E+002, 2.1150415E-002, 1.1261505E-001, 1.2263453E-001, 4.2504261E-002, 1.4246336E-002, 9.8658204E-003, 3.7356426E+002
 1.4600117E+002, 2.1502237E-002, 1.1050956E-001, 1.2303800E-001, 4.3737091E-002, 1.4781231E-002, 1.0115999E-002, 3.6904697E+002
 1.4700497E+002, 2.1520906E-002, 1.0928897E-001, 1.2338173E-001, 4.4538332E-002, 1.5264729E-002, 1.0279589E-002, 3.7184961E+002
 1.4800526E+002, 2.1895803E-002, 1.0823852E-001, 1.2345550E-001, 4.5053208E-002, 1.5396132E-002, 1.0382923E-002, 3.7342808E+002
 1.4900882E+002, 2.1645736E-002, 1.0818800E-001, 1.2372941E-001, 4.5287559E-002, 1.5042993E-002, 1.0432827E-002, 3.7572281E+002
 1.5000180E+002, 2.1193355E-002, 1.0710357E-001, 1.2452829E-001, 4.6381615E-002, 1.4731056E-002, 1.0660109E-002, 3.7407702E+002
 1.5100814E+002, 2.1585064E-002, 1.0649727E-001, 1.2437665E-001, 4.6528547E-002, 1.5137372E-002, 1.0687540E-002, 3.7344892E+002
 1.5200040E+002, 2.1346159E-002, 1.0611085E-001, 1.2473243E-001, 4.6973651E-002, 1.4961782E-002, 1.0780375E-002, 3.6934229E+002
 1.5300098E+002, 2.1743625E-002, 1.0417691E-001, 1.2506149E-001, 4.8073227E-002, 1.5369775E-002, 1.1003136E-002, 3.7394071E+002
 1.5400976E+002, 2.1362424E-002, 1.0549733E-001, 1.2500999E-001, 4.7455588E-002, 1.4602053E-002, 1.0879580E-002, 3.7923426E+002
