s,,,,,,,
Time,O2 EXHAUST,CO2 EXHAUST,H2O EXHAUST,CO EXHAUST,FUEL EXHAUST,SOOT EXHAUST,TEMP EXHAUST
 0.0000000E+000, 2.3099739E-001, 5.9146498E-004, 5.9412092E-003, 0.0000000E+000, 0.0000000E+000, 0.0000000E+000, 2.0000000E+001
 1.0046646E+000, 2.3099739E-001, 5.9146498E-004, 5.9412092E-003, 3.3217826E-022, 7.0483228E-021, 3.8032888E-022, 2.0982749E+001
 2.0050183E+000, 2.1994356E-001, 9.5490757E-003, 1.1548142E-002, 3.5756518E-005, 3.0557362E-004, 4.4779990E-005, 1.3032113E+002
 3.0020887E+000, 2.1011752E-001, 1.7561970E-002, 1.6557953E-002, 6.2829223E-005, 3.4765478E-004, 8.3783379E-005, 2.2611421E+002
 4.0019709E+000, 1.9906127E-001, 2.6604910E-002, 2.2192039E-002, 7.9531789E-005, 3.5559394E-004, 1.2483096E-004, 3.1904982E+002
 5.0016857E+000, 1.8850351E-001, 3.5319409E-002, 2.7569414E-002, 5.8899609E-005, 2.1659613E-004, 1.5651273E-004, 3.9633328E+002
 6.0018051E+000, 1.7908119E-001, 4.3116114E-002, 3.2369173E-002, 3.2443421E-005, 4.9867954E-005, 1.8314317E-004, 4.4658255E+002
 7.0014708E+000, 1.6942531E-001, 5.1051179E-002, 3.7285216E-002, 2.7593540E-005, 3.2710396E-006, 2.1497959E-004, 4.8426866E+002
 8.0023711E+000, 1.5797252E-001, 6.0438094E-002, 4.3115641E-002, 3.2410789E-005, 4.6907618E-007, 2.5490406E-004, 5.2658469E+002
 9.0076086E+000, 1.4910535E-001, 6.7705348E-002, 4.7629525E-002, 3.6168744E-005, 3.8636971E-007, 2.8581928E-004, 5.4599794E+002
 1.0002342E+001, 1.4345807E-001, 7.2333496E-002, 5.0504374E-002, 3.8689765E-005, 3.6359261E-007, 3.0553502E-004, 5.5426106E+002
 1.1003408E+001, 1.3751209E-001, 7.7206436E-002, 5.3531268E-002, 4.1336104E-005, 4.3986336E-007, 3.2629185E-004, 5.6585393E+002
 1.2007625E+001, 1.3318148E-001, 8.0755312E-002, 5.5735918E-002, 4.3414129E-005, 4.8617649E-007, 3.4144100E-004, 5.6963263E+002
 1.3006750E+001, 1.3022983E-001, 8.3174637E-002, 5.7238375E-002, 4.4491016E-005, 4.3211308E-007, 3.5169558E-004, 5.7097715E+002
 1.4002918E+001, 1.2737532E-001, 8.5514117E-002, 5.8691478E-002, 4.5694196E-005, 3.8262474E-007, 3.6164642E-004, 5.7167498E+002
 1.5001022E+001, 1.2561063E-001, 8.6960275E-002, 5.9589846E-002, 4.6526261E-005, 4.0507957E-007, 3.6781650E-004, 5.6613542E+002
 1.6007310E+001, 1.2405401E-001, 8.8236181E-002, 6.0382199E-002, 4.7084134E-005, 3.6905721E-007, 3.7322242E-004, 5.7404409E+002
 1.7006929E+001, 1.2052301E-001, 9.1129637E-002, 6.2179822E-002, 4.8873157E-005, 4.8492117E-007, 3.8559408E-004, 5.7603805E+002
 1.8006697E+001, 1.2093934E-001, 9.0788910E-002, 6.1967728E-002, 4.8377179E-005, 3.0730537E-007, 3.8407605E-004, 5.6970055E+002
 1.9000422E+001, 1.1981860E-001, 9.1707136E-002, 6.2538343E-002, 4.9047352E-005, 4.3058309E-007, 3.8802411E-004, 5.7378070E+002
 2.0000111E+001, 1.1834439E-001, 9.2915345E-002, 6.3288798E-002, 4.9675027E-005, 4.2319278E-007, 3.9316451E-004, 5.7182205E+002
 2.1005152E+001, 1.1701173E-001, 9.4007791E-002, 6.3967127E-002, 5.0087727E-005, 2.9344837E-007, 3.9777919E-004, 5.6880430E+002
 2.2005353E+001, 1.1731644E-001, 9.3758016E-002, 6.3812020E-002, 4.9982940E-005, 3.3833194E-007, 3.9672186E-004, 5.7229636E+002
 2.3002116E+001, 1.1553862E-001, 9.5214763E-002, 6.4717133E-002, 5.0936890E-005, 4.0516228E-007, 4.0296195E-004, 5.6791378E+002
 2.4003894E+001, 1.1499146E-001, 9.5663535E-002, 6.4995553E-002, 5.0944243E-005, 3.1281144E-007, 4.0482286E-004, 5.6754975E+002
 2.5004994E+001, 1.1339681E-001, 9.6970258E-002, 6.5807386E-002, 5.1753768E-005, 3.5228223E-007, 4.1041041E-004, 5.7121702E+002
 2.6001318E+001, 1.1347556E-001, 9.6905784E-002, 6.5767271E-002, 5.1672414E-005, 3.4452270E-007, 4.1012584E-004, 5.7075059E+002
 2.7006760E+001, 1.1243102E-001, 9.7761962E-002, 6.6298979E-002, 5.2054615E-005, 2.6646492E-007, 4.1375508E-004, 5.6705346E+002
 2.8001540E+001, 1.1207875E-001, 9.8050523E-002, 6.6478340E-002, 5.2293696E-005, 3.7211872E-007, 4.1500190E-004, 5.6769690E+002
 2.9002424E+001, 1.1084490E-001, 9.9061696E-002, 6.7106457E-002, 5.2850988E-005, 3.5384540E-007, 4.1931085E-004, 5.6493239E+002
 3.0003742E+001, 1.0967032E-001, 1.0002437E-001, 6.7704383E-002, 5.3337458E-005, 3.2373267E-007, 4.2340368E-004, 5.7122770E+002
 3.1007434E+001, 1.0893782E-001, 1.0062462E-001, 6.8077291E-002, 5.3701951E-005, 3.4656491E-007, 4.2596876E-004, 5.6863258E+002
 3.2006030E+001, 1.0877901E-001, 1.0075461E-001, 6.8158183E-002, 5.3872841E-005, 4.2855708E-007, 4.2654399E-004, 5.6987873E+002
 3.3001374E+001, 1.0869676E-001, 1.0082231E-001, 6.8199959E-002, 5.3719831E-005, 3.1199952E-007, 4.2679166E-004, 5.6793782E+002
 3.4003849E+001, 1.0758271E-001, 1.0173530E-001, 6.8767086E-002, 5.4219669E-005, 3.1984569E-007, 4.3068153E-004, 5.6809163E+002
 3.5005813E+001, 1.0644745E-001, 1.0266514E-001, 6.9345198E-002, 5.5094877E-005, 5.1940601E-007, 4.3472165E-004, 5.7390958E+002
 3.6003696E+001, 1.0652504E-001, 1.0260197E-001, 6.9305558E-002, 5.4780873E-005, 3.6134001E-007, 4.3439261E-004, 5.6756474E+002
 3.7004854E+001, 1.0538813E-001, 1.0353367E-001, 6.9884333E-002, 5.5313345E-005, 4.0911183E-007, 4.3836696E-004, 5.7101540E+002
 3.8007800E+001, 1.0586207E-001, 1.0314559E-001, 6.9642957E-002, 5.4881461E-005, 2.4291124E-007, 4.3666650E-004, 5.7012865E+002
 3.9002361E+001, 1.0520046E-001, 1.0368763E-001, 6.9979824E-002, 5.5295789E-005, 3.1885971E-007, 4.3900109E-004, 5.6877265E+002
 4.0001784E+001, 1.0618651E-001, 1.0287938E-001, 6.9477900E-002, 5.4948004E-005, 3.8009616E-007, 4.3557781E-004, 5.7030939E+002
 4.1003862E+001, 1.0462662E-001, 1.0415782E-001, 7.0271969E-002, 5.5607319E-005, 3.7021914E-007, 4.4101596E-004, 5.6994000E+002
 4.2001408E+001, 1.0435510E-001, 1.0438049E-001, 7.0410143E-002, 5.5632131E-005, 3.1116692E-007, 4.4194382E-004, 5.6864039E+002
 4.3003595E+001, 1.0363641E-001, 1.0496910E-001, 7.0776125E-002, 5.6199143E-005, 4.7526817E-007, 4.4450413E-004, 5.7113236E+002
 4.4006170E+001, 1.0329282E-001, 1.0525085E-001, 7.0950988E-002, 5.6248635E-005, 4.0095689E-007, 4.4568207E-004, 5.6723917E+002
 4.5005058E+001, 1.0338780E-001, 1.0517307E-001, 7.0902612E-002, 5.6162010E-005, 3.8864531E-007, 4.4534126E-004, 5.6895745E+002
 4.6003260E+001, 1.0265863E-001, 1.0577053E-001, 7.1273843E-002, 5.6563946E-005, 4.3867963E-007, 4.4790281E-004, 5.7224735E+002
 4.7005414E+001, 1.0319268E-001, 1.0533296E-001, 7.1001945E-002, 5.6260529E-005, 3.9533373E-007, 4.4602482E-004, 5.7350148E+002
 4.8001726E+001, 1.0271536E-001, 1.0572420E-001, 7.1244914E-002, 5.6435891E-005, 3.6926296E-007, 4.4768338E-004, 5.6674385E+002
 4.9002119E+001, 1.0245061E-001, 1.0594097E-001, 7.1379763E-002, 5.6691465E-005, 4.2948573E-007, 4.4863630E-004, 5.6745137E+002
 5.0000987E+001, 1.0194408E-001, 1.0635605E-001, 7.1637631E-002, 5.6941120E-005, 4.4876065E-007, 4.5040958E-004, 5.6810665E+002
 5.1004573E+001, 1.0187214E-001, 1.0641531E-001, 7.1674152E-002, 5.6771924E-005, 3.5821294E-007, 4.5061883E-004, 5.7230123E+002
 5.2002785E+001, 1.0168234E-001, 1.0657056E-001, 7.1770866E-002, 5.7051473E-005, 4.7949567E-007, 4.5132198E-004, 5.6947925E+002
 5.3003461E+001, 1.0182750E-001, 1.0645190E-001, 7.1696870E-002, 5.6787252E-005, 3.5868152E-007, 4.5077369E-004, 5.6781216E+002
 5.4006864E+001, 1.0143297E-001, 1.0677494E-001, 7.1897809E-002, 5.7153306E-005, 4.6758348E-007, 4.5219062E-004, 5.7230830E+002
 5.5006491E+001, 1.0143624E-001, 1.0677232E-001, 7.1896129E-002, 5.7116273E-005, 4.4004847E-007, 4.5217181E-004, 5.6989355E+002
 5.6004359E+001, 1.0103172E-001, 1.0710399E-001, 7.2102009E-002, 5.7198652E-005, 3.8429767E-007, 4.5356363E-004, 5.6972485E+002
 5.7005769E+001, 1.0189185E-001, 1.0639929E-001, 7.1664075E-002, 5.6675826E-005, 3.0046085E-007, 4.5053185E-004, 5.6221182E+002
 5.8004132E+001, 1.0104543E-001, 1.0709295E-001, 7.2094963E-002, 5.7060703E-005, 2.9868281E-007, 4.5348832E-004, 5.6790546E+002
 5.9003290E+001, 1.0123551E-001, 1.0693696E-001, 7.1998270E-002, 5.7117529E-005, 3.8760772E-007, 4.5285421E-004, 5.7070466E+002
 6.0004069E+001, 9.9954634E-002, 1.0798631E-001, 7.2650453E-002, 5.7941617E-005, 4.9234537E-007, 4.5737853E-004, 5.6954763E+002
 6.1006412E+001, 1.0086063E-001, 1.0724427E-001, 7.2189089E-002, 5.7233815E-005, 3.2767973E-007, 4.5415239E-004, 5.6779198E+002
 6.2000596E+001, 1.0045603E-001, 1.0757575E-001, 7.2395080E-002, 5.7474908E-005, 4.0527191E-007, 4.5557746E-004, 5.7160166E+002
 6.3002365E+001, 1.0068540E-001, 1.0738788E-001, 7.2278290E-002, 5.7310563E-005, 3.3522679E-007, 4.5476383E-004, 5.6463842E+002
 6.4006288E+001, 1.0006132E-001, 1.0789925E-001, 7.2596014E-002, 5.7644128E-005, 3.7621898E-007, 4.5695404E-004, 5.6960967E+002
 6.5001249E+001, 1.0042283E-001, 1.0760272E-001, 7.2412068E-002, 5.7655558E-005, 4.5346212E-007, 4.5572791E-004, 5.7038995E+002
 6.6004841E+001, 1.0098203E-001, 1.0714475E-001, 7.2127289E-002, 5.7191282E-005, 3.5280320E-007, 4.5373095E-004, 5.6277298E+002
 6.7008009E+001, 1.0039827E-001, 1.0762298E-001, 7.2424525E-002, 5.7576653E-005, 4.2728946E-007, 4.5579495E-004, 5.7266715E+002
 6.8005436E+001, 1.0058602E-001, 1.0746934E-001, 7.2328866E-002, 5.7335846E-005, 3.4303545E-007, 4.5510678E-004, 5.6861347E+002
 6.9000599E+001, 9.9936983E-002, 1.0800114E-001, 7.2659311E-002, 5.7700839E-005, 3.7960602E-007, 4.5738837E-004, 5.6841792E+002
 7.0005742E+001, 1.0050348E-001, 1.0753700E-001, 7.2370890E-002, 5.7372874E-005, 3.2955443E-007, 4.5539501E-004, 5.6979336E+002
 7.1008006E+001, 1.0030819E-001, 1.0769678E-001, 7.2470384E-002, 5.7628306E-005, 4.4322839E-007, 4.5611179E-004, 5.7029075E+002
 7.2003788E+001, 1.0111951E-001, 1.0703217E-001, 7.2057273E-002, 5.7073107E-005, 3.2804976E-007, 4.5323915E-004, 5.7057271E+002
 7.3004393E+001, 1.0059507E-001, 1.0746159E-001, 7.2324378E-002, 5.7559655E-005, 4.6294040E-007, 4.5512264E-004, 5.7016330E+002
 7.4000746E+001, 1.0045295E-001, 1.0757829E-001, 7.2396646E-002, 5.7470453E-005, 4.1759462E-007, 4.5558701E-004, 5.6559675E+002
 7.5001012E+001, 1.0000404E-001, 1.0794618E-001, 7.2625175E-002, 5.7674308E-005, 4.0882272E-007, 4.5715496E-004, 5.6866480E+002
 7.6004389E+001, 1.0014839E-001, 1.0782808E-001, 7.2551621E-002, 5.7476376E-005, 3.3021917E-007, 4.5662321E-004, 5.6757053E+002
 7.7005889E+001, 9.9892974E-002, 1.0803731E-001, 7.2681681E-002, 5.7654945E-005, 3.5103957E-007, 4.5752837E-004, 5.6645401E+002
 7.8000558E+001, 9.9743829E-002, 1.0815900E-001, 7.2757780E-002, 5.8074194E-005, 5.5753088E-007, 4.5812246E-004, 5.7104186E+002
 7.9003238E+001, 9.8990285E-002, 1.0877688E-001, 7.3141281E-002, 5.8199162E-005, 4.3151760E-007, 4.6070923E-004, 5.7041821E+002
 8.0006376E+001, 9.9357746E-002, 1.0847585E-001, 7.2954184E-002, 5.7960709E-005, 3.5953239E-007, 4.5941088E-004, 5.6863936E+002
 8.1000807E+001, 9.9110373E-002, 1.0867834E-001, 7.3080179E-002, 5.8219223E-005, 5.1544139E-007, 4.6030527E-004, 5.7241935E+002
 8.2006856E+001, 9.9880893E-002, 1.0804705E-001, 7.2687881E-002, 5.7763121E-005, 4.1946159E-007, 4.5759193E-004, 5.7158108E+002
 8.3006564E+001, 9.9506360E-002, 1.0835401E-001, 7.2878542E-002, 5.7922119E-005, 3.8930883E-007, 4.5889781E-004, 5.6798858E+002
 8.4001590E+001, 1.0028869E-001, 1.0771305E-001, 7.2480209E-002, 5.7439808E-005, 3.6478089E-007, 4.5613880E-004, 5.6816686E+002
 8.5002419E+001, 9.9805019E-002, 1.0810946E-001, 7.2726430E-002, 5.7645636E-005, 3.3440221E-007, 4.5782532E-004, 5.6598714E+002
 8.6003934E+001, 9.9988366E-002, 1.0795910E-001, 7.2633130E-002, 5.7632553E-005, 3.6249094E-007, 4.5719954E-004, 5.6867679E+002
 8.7007562E+001, 1.0009253E-001, 1.0787378E-001, 7.2580087E-002, 5.7555925E-005, 3.5837082E-007, 4.5682960E-004, 5.6651072E+002
 8.8001424E+001, 9.9943605E-002, 1.0799599E-001, 7.2655849E-002, 5.7515838E-005, 2.7728120E-007, 4.5732736E-004, 5.6450449E+002
 8.9002405E+001, 1.0014154E-001, 1.0783345E-001, 7.2555180E-002, 5.7635830E-005, 4.6634824E-007, 4.5667964E-004, 5.6714306E+002
 9.0003244E+001, 9.9463182E-002, 1.0838945E-001, 7.2900503E-002, 5.7905699E-005, 3.8799110E-007, 4.5904111E-004, 5.6759945E+002
 9.1004308E+001, 9.9977392E-002, 1.0796849E-001, 7.2638587E-002, 5.7377559E-005, 2.1347222E-007, 4.5718376E-004, 5.6266499E+002
 9.2007297E+001, 1.0013614E-001, 1.0783807E-001, 7.2557875E-002, 5.7515294E-005, 3.2935132E-007, 4.5667295E-004, 5.6407745E+002
 9.3004194E+001, 9.9747029E-002, 1.0815689E-001, 7.2755987E-002, 5.7739721E-005, 3.5628692E-007, 4.5804198E-004, 5.7026267E+002
 9.4004395E+001, 9.9838048E-002, 1.0808218E-001, 7.2709689E-002, 5.7774289E-005, 4.0143409E-007, 4.5773986E-004, 5.6840243E+002
 9.5007186E+001, 1.0007018E-001, 1.0789215E-001, 7.2591451E-002, 5.7532236E-005, 3.2887829E-007, 4.5690065E-004, 5.6342257E+002
 9.6001516E+001, 1.0014996E-001, 1.0782676E-001, 7.2550837E-002, 5.7498029E-005, 3.2164721E-007, 4.5662241E-004, 5.6718054E+002
 9.7004997E+001, 9.9953280E-002, 1.0798779E-001, 7.2651010E-002, 5.7690518E-005, 4.0052874E-007, 4.5733083E-004, 5.7054298E+002
 9.8007944E+001, 9.9402286E-002, 1.0843944E-001, 7.2931477E-002, 5.7877095E-005, 3.4302864E-007, 4.5924211E-004, 5.6856150E+002
 9.9001320E+001, 9.9505005E-002, 1.0835506E-001, 7.2879254E-002, 5.7962547E-005, 3.9769928E-007, 4.5891084E-004, 5.6886354E+002
 1.0000299E+002, 9.9718261E-002, 1.0818054E-001, 7.2770604E-002, 5.7699526E-005, 3.3549067E-007, 4.5813137E-004, 5.6775143E+002
 1.0100679E+002, 9.9671020E-002, 1.0821908E-001, 7.2794718E-002, 5.7842189E-005, 3.6716249E-007, 4.5832163E-004, 5.6676245E+002
 1.0200392E+002, 9.9363665E-002, 1.0847080E-001, 7.2951231E-002, 5.8085962E-005, 4.6438659E-007, 4.5941681E-004, 5.6635742E+002
 1.0300354E+002, 9.9668035E-002, 1.0822162E-001, 7.2796198E-002, 5.7777119E-005, 3.8521834E-007, 4.5831819E-004, 5.6890693E+002
 1.0400014E+002, 1.0020668E-001, 1.0778025E-001, 7.2521969E-002, 5.7489861E-005, 3.4090002E-007, 4.5642794E-004, 5.6716464E+002
 1.0500804E+002, 9.9337532E-002, 1.0849245E-001, 7.2964452E-002, 5.7939491E-005, 4.0397723E-007, 4.5947511E-004, 5.6858725E+002
 1.0600229E+002, 9.9045404E-002, 1.0873168E-001, 7.3113232E-002, 5.8194952E-005, 4.3819159E-007, 4.6052104E-004, 5.6716552E+002
 1.0700701E+002, 9.8594907E-002, 1.0910066E-001, 7.3342633E-002, 5.8534380E-005, 5.2488426E-007, 4.6212260E-004, 5.7254745E+002
 1.0800136E+002, 9.9571571E-002, 1.0830050E-001, 7.2845368E-002, 5.7939041E-005, 4.2016106E-007, 4.5867972E-004, 5.6625794E+002
 1.0900628E+002, 9.9556905E-002, 1.0831279E-001, 7.2852741E-002, 5.7762602E-005, 3.3233527E-007, 4.5869283E-004, 5.6747721E+002
 1.1000657E+002, 9.9406570E-002, 1.0843560E-001, 7.2929409E-002, 5.8097886E-005, 4.5471382E-007, 4.5927351E-004, 5.6917968E+002
 1.1100460E+002, 9.9259475E-002, 1.0855612E-001, 7.3004291E-002, 5.8173651E-005, 4.9044514E-007, 4.5978913E-004, 5.7193635E+002
 1.1200205E+002, 9.9080388E-002, 1.0870312E-001, 7.3095385E-002, 5.8103017E-005, 3.9230771E-007, 4.6038303E-004, 5.6709181E+002
 1.1300050E+002, 9.9750326E-002, 1.0815434E-001, 7.2754254E-002, 5.7632808E-005, 3.1672347E-007, 4.5800851E-004, 5.6470339E+002
 1.1400418E+002, 9.9387583E-002, 1.0845102E-001, 7.2939116E-002, 5.8195844E-005, 5.2977703E-007, 4.5935841E-004, 5.7069744E+002
 1.1500105E+002, 9.9472210E-002, 1.0838177E-001, 7.2895997E-002, 5.8086014E-005, 5.0430744E-007, 4.5904795E-004, 5.7225935E+002
 1.1600167E+002, 9.9834529E-002, 1.0808509E-001, 7.2711474E-002, 5.7761320E-005, 3.8320934E-007, 4.5774913E-004, 5.6974223E+002
 1.1700778E+002, 9.9547465E-002, 1.0832030E-001, 7.2857624E-002, 5.7917882E-005, 3.9863602E-007, 4.5875724E-004, 5.6717972E+002
 1.1800471E+002, 1.0009236E-001, 1.0787374E-001, 7.2580235E-002, 5.7673730E-005, 3.9203189E-007, 4.5685472E-004, 5.7035927E+002
 1.1900349E+002, 9.9538642E-002, 1.0832725E-001, 7.2862209E-002, 5.8107977E-005, 5.0063619E-007, 4.5882679E-004, 5.6971513E+002
 1.2000731E+002, 9.9708606E-002, 1.0818823E-001, 7.2775599E-002, 5.7855204E-005, 3.8787983E-007, 4.5819661E-004, 5.6595533E+002
 1.2100061E+002, 9.9710256E-002, 1.0818689E-001, 7.2774753E-002, 5.7846003E-005, 3.9971186E-007, 4.5818907E-004, 5.6774194E+002
 1.2200031E+002, 9.9784770E-002, 1.0812582E-001, 7.2736817E-002, 5.7809542E-005, 4.1200237E-007, 4.5792825E-004, 5.6961143E+002
 1.2300023E+002, 9.9015281E-002, 1.0875633E-001, 7.3128577E-002, 5.8230481E-005, 4.5451564E-007, 4.6063080E-004, 5.6918373E+002
 1.2400792E+002, 9.8617187E-002, 1.0908230E-001, 7.3331339E-002, 5.8603231E-005, 5.0008190E-007, 4.6206127E-004, 5.7086738E+002
 1.2500169E+002, 9.9331720E-002, 1.0849715E-001, 7.2967436E-002, 5.7984957E-005, 4.0240134E-007, 4.5950435E-004, 5.6898614E+002
 1.2600660E+002, 9.9652847E-002, 1.0823402E-001, 7.2803944E-002, 5.7812041E-005, 3.9671021E-007, 4.5837707E-004, 5.6640153E+002
 1.2700104E+002, 9.9986159E-002, 1.0796088E-001, 7.2634261E-002, 5.7652665E-005, 3.8621285E-007, 4.5721121E-004, 5.7094121E+002
 1.2800511E+002, 9.9728597E-002, 1.0817204E-001, 7.2765352E-002, 5.7713339E-005, 3.4003921E-007, 4.5809912E-004, 5.6584926E+002
 1.2900392E+002, 9.8988813E-002, 1.0877812E-001, 7.3142020E-002, 5.8177991E-005, 4.0917940E-007, 4.6070983E-004, 5.6867747E+002
 1.3000492E+002, 9.9568118E-002, 1.0830353E-001, 7.2847053E-002, 5.7802456E-005, 3.7155767E-007, 4.5866301E-004, 5.7019800E+002
 1.3100772E+002, 9.9278569E-002, 1.0854076E-001, 7.2994480E-002, 5.7977844E-005, 3.6517026E-007, 4.5968350E-004, 5.6909893E+002
 1.3200693E+002, 9.9243878E-002, 1.0856916E-001, 7.3012149E-002, 5.8015917E-005, 3.9487889E-007, 4.5980930E-004, 5.6571224E+002
 1.3300419E+002, 9.9401583E-002, 1.0843990E-001, 7.2931871E-002, 5.7954205E-005, 4.0552663E-007, 4.5926053E-004, 5.6768453E+002
 1.3400333E+002, 9.9395374E-002, 1.0844498E-001, 7.2935029E-002, 5.7958497E-005, 4.2737471E-007, 4.5928251E-004, 5.6839018E+002
 1.3500291E+002, 1.0044888E-001, 1.0758159E-001, 7.2398730E-002, 5.7493736E-005, 4.0573552E-007, 4.5560569E-004, 5.6872973E+002
 1.3600573E+002, 1.0051566E-001, 1.0752709E-001, 7.2364661E-002, 5.7316110E-005, 3.1254686E-007, 4.5534179E-004, 5.6673641E+002
 1.3700748E+002, 1.0000571E-001, 1.0794486E-001, 7.2624308E-002, 5.7643506E-005, 3.8859307E-007, 4.5714287E-004, 5.7273545E+002
 1.3800196E+002, 9.9903980E-002, 1.0802828E-001, 7.2676081E-002, 5.7653349E-005, 3.4017760E-007, 4.5749064E-004, 5.6851904E+002
 1.3900263E+002, 9.9481154E-002, 1.0837472E-001, 7.2891346E-002, 5.7891141E-005, 4.1719347E-007, 4.5897698E-004, 5.6659016E+002
 1.4000011E+002, 1.0033621E-001, 1.0767417E-001, 7.2456004E-002, 5.7382023E-005, 3.0258407E-007, 4.5596531E-004, 5.6499035E+002
 1.4100493E+002, 1.0004175E-001, 1.0791539E-001, 7.2605942E-002, 5.7581924E-005, 3.2424736E-007, 4.5700760E-004, 5.6489938E+002
 1.4200498E+002, 9.9400679E-002, 1.0844083E-001, 7.2932263E-002, 5.7822662E-005, 3.4696176E-007, 4.5923621E-004, 5.7012229E+002
 1.4300724E+002, 9.9674543E-002, 1.0821637E-001, 7.2792859E-002, 5.7717422E-005, 3.3463832E-007, 4.5828366E-004, 5.6895398E+002
 1.4400689E+002, 9.9869891E-002, 1.0805603E-001, 7.2693482E-002, 5.7783684E-005, 4.8471818E-007, 4.5763355E-004, 5.6650293E+002
 1.4500058E+002, 9.9985940E-002, 1.0796145E-001, 7.2634241E-002, 5.7390432E-005, 2.4685777E-007, 4.5715737E-004, 5.6602209E+002
 1.4600727E+002, 9.9452703E-002, 1.0839799E-001, 7.2905846E-002, 5.7937139E-005, 4.4249030E-007, 4.5908323E-004, 5.7069668E+002
 1.4700387E+002, 1.0023749E-001, 1.0775516E-001, 7.2506231E-002, 5.7367669E-005, 3.0356494E-007, 4.5629781E-004, 5.7264629E+002
 1.4800545E+002, 9.9442555E-002, 1.0840637E-001, 7.2911001E-002, 5.7906514E-005, 3.6659397E-007, 4.5911139E-004, 5.6877161E+002
 1.4900451E+002, 9.9788011E-002, 1.0812367E-001, 7.2734998E-002, 5.7473403E-005, 2.3695284E-007, 4.5784726E-004, 5.6367145E+002
 1.5000741E+002, 1.0035169E-001, 1.0766158E-001, 7.2448091E-002, 5.7312579E-005, 2.9048815E-007, 4.5589824E-004, 5.6616112E+002
 1.5100570E+002, 9.9510389E-002, 1.0835082E-001, 7.2876444E-002, 5.7841854E-005, 4.1053422E-007, 4.5886736E-004, 5.7182081E+002
 1.5200025E+002, 9.9769223E-002, 1.0813875E-001, 7.2744668E-002, 5.7691231E-005, 3.4160860E-007, 4.5795646E-004, 5.6826055E+002
 1.5300627E+002, 9.9572706E-002, 1.0829991E-001, 7.2844674E-002, 5.7710199E-005, 3.0773707E-007, 4.5862822E-004, 5.6577876E+002
 1.5400672E+002, 9.9724540E-002, 1.0817532E-001, 7.2767431E-002, 5.7744906E-005, 3.6913696E-007, 4.5811947E-004, 5.6984462E+002
