s,,,,,,,
Time,O2 EXHAUST,CO2 EXHAUST,H2O EXHAUST,CO EXHAUST,FUEL EXHAUST,SOOT EXHAUST,TEMP EXHAUST
 0.0000000E+000, 2.3099739E-001, 5.9146498E-004, 5.9412092E-003, 0.0000000E+000, 0.0000000E+000, 0.0000000E+000, 2.0000000E+001
 1.0025058E+000, 2.3099739E-001, 5.9146498E-004, 5.9412092E-003, 1.4235749E-022, 1.2891533E-021, 1.6206332E-022, 2.2073323E+001
 2.0011826E+000, 2.1757702E-001, 1.0620757E-002, 1.1714340E-002, 1.2631721E-004, 3.7738844E-004, 1.0643966E-004, 1.5829585E+002
 3.0013058E+000, 2.0850691E-001, 1.7525302E-002, 1.5618785E-002, 1.5748207E-004, 3.6455122E-004, 1.6775250E-004, 2.3991991E+002
 4.0010150E+000, 1.9043567E-001, 3.1433307E-002, 2.3373591E-002, 1.3377475E-004, 1.8795660E-004, 2.7271351E-004, 3.7504311E+002
 5.0005118E+000, 1.7397911E-001, 4.4121824E-002, 3.0425613E-002, 9.4408285E-005, 4.1859840E-005, 3.6466831E-004, 4.6694262E+002
 6.0005007E+000, 1.5744233E-001, 5.6791062E-002, 3.7521099E-002, 9.7822354E-005, 4.9351602E-007, 4.6564332E-004, 5.2834797E+002
 7.0016996E+000, 1.4433186E-001, 6.6805393E-002, 4.3150756E-002, 1.1709956E-004, 7.1040207E-007, 5.4901314E-004, 5.5010320E+002
 8.0041473E+000, 1.2810919E-001, 7.9200480E-002, 5.0115699E-002, 1.3855644E-004, 7.0850497E-007, 6.5168761E-004, 5.7967106E+002
 9.0032060E+000, 1.1328190E-001, 9.0527938E-002, 5.6482014E-002, 1.5916815E-004, 8.4120164E-007, 7.4573344E-004, 5.9744032E+002
 1.0005043E+001, 1.0183975E-001, 9.9269860E-002, 6.1394680E-002, 1.7467561E-004, 9.6875627E-007, 8.1822729E-004, 6.0372146E+002
 1.1009452E+001, 8.7917820E-002, 1.0990527E-001, 6.7372356E-002, 1.9427077E-004, 1.3174519E-006, 9.0657944E-004, 6.1421840E+002
 1.2002863E+001, 7.8453772E-002, 1.1712904E-001, 7.1437830E-002, 2.1173476E-004, 2.1094027E-006, 9.6748067E-004, 6.1595727E+002
 1.3004278E+001, 6.7587101E-002, 1.2542887E-001, 7.6104148E-002, 2.2809097E-004, 2.5312880E-006, 1.0366585E-003, 6.2585792E+002
 1.4004867E+001, 6.1263235E-002, 1.3025844E-001, 7.8819941E-002, 2.3801109E-004, 2.4128368E-006, 1.0769986E-003, 6.1928436E+002
 1.5004138E+001, 5.4431135E-002, 1.3546411E-001, 8.1757680E-002, 2.5686845E-004, 3.5580719E-006, 1.1222306E-003, 6.2111280E+002
 1.6005256E+001, 4.7739391E-002, 1.4058315E-001, 8.4628841E-002, 2.6160338E-004, 2.6224549E-006, 1.1637493E-003, 6.1927527E+002
 1.7004594E+001, 4.0697109E-002, 1.4597023E-001, 8.7650325E-002, 2.6657298E-004, 2.3271359E-006, 1.2074393E-003, 6.2404552E+002
 1.8008504E+001, 3.6857725E-002, 1.4889312E-001, 8.9302102E-002, 2.7894480E-004, 2.5472679E-006, 1.2332187E-003, 6.1962558E+002
 1.9006569E+001, 3.1828169E-002, 1.5272777E-001, 9.1464120E-002, 2.9126697E-004, 2.5465714E-006, 1.2662016E-003, 6.1914958E+002
 2.0009431E+001, 2.6876045E-002, 1.5652510E-001, 9.3585812E-002, 2.8842084E-004, 2.6999923E-006, 1.2956372E-003, 6.2078269E+002
 2.1009191E+001, 2.0330318E-002, 1.6149535E-001, 9.6405958E-002, 3.1833221E-004, 3.9086730E-006, 1.3413765E-003, 6.3175410E+002
 2.2004876E+001, 1.7280387E-002, 1.6383187E-001, 9.7713604E-002, 3.1825680E-004, 2.6331051E-006, 1.3598477E-003, 6.3148467E+002
 2.3003910E+001, 1.4585965E-002, 1.6562034E-001, 9.8956811E-002, 5.0722674E-004, 8.0410987E-006, 1.4145144E-003, 6.2008471E+002
 2.4008647E+001, 9.9803574E-003, 1.6926841E-001, 1.0089308E-001, 4.2489239E-004, 4.1672090E-006, 1.4257264E-003, 6.2883190E+002
 2.5005429E+001, 7.1277096E-003, 1.7130555E-001, 1.0216382E-001, 5.2674113E-004, 4.2620674E-006, 1.4636816E-003, 6.2968643E+002
 2.6008649E+001, 3.8236972E-003, 1.7331762E-001, 1.0374762E-001, 8.8375763E-004, 5.5825769E-006, 1.5561472E-003, 6.2961292E+002
 2.7009959E+001, 2.2238575E-003, 1.7296811E-001, 1.0493147E-001, 1.9601427E-003, 7.1457752E-005, 1.7841624E-003, 6.2025949E+002
 2.8007096E+001, 1.2160788E-003, 1.7273186E-001, 1.0568499E-001, 2.6512020E-003, 9.7015983E-005, 1.9304585E-003, 6.0876190E+002
 2.9007344E+001, 4.1132185E-004, 1.6850989E-001, 1.0756945E-001, 5.9651756E-003, 2.4021268E-004, 2.6075799E-003, 5.9448689E+002
 3.0007069E+001, 3.4234602E-004, 1.6991154E-001, 1.0718684E-001, 5.0541123E-003, 9.5716478E-005, 2.4233347E-003, 5.9648851E+002
 3.1005812E+001, 4.9648244E-004, 1.6679230E-001, 1.0808351E-001, 7.1156292E-003, 1.3613335E-004, 2.8406501E-003, 5.8630990E+002
 3.2010924E+001, 7.1231021E-004, 1.6450088E-001, 1.0863729E-001, 8.5491459E-003, 3.8490434E-004, 3.1298713E-003, 5.7495235E+002
 3.3006804E+001, 9.7972879E-004, 1.6417336E-001, 1.0854078E-001, 8.6174409E-003, 5.1727317E-004, 3.1419231E-003, 5.7012037E+002
 3.4005961E+001, 8.0021430E-004, 1.6202708E-001, 1.0930672E-001, 1.0153312E-002, 8.1689090E-004, 3.4542381E-003, 5.6416904E+002
 3.5010313E+001, 7.6436379E-004, 1.6132808E-001, 1.0951446E-001, 1.0621689E-002, 1.0772458E-003, 3.5491300E-003, 5.6099619E+002
 3.6011140E+001, 7.8958405E-004, 1.6115306E-001, 1.0954161E-001, 1.0719615E-002, 1.1531989E-003, 3.5687411E-003, 5.5919163E+002
 3.7009949E+001, 8.8423413E-004, 1.6021991E-001, 1.0972949E-001, 1.1274928E-002, 1.4582077E-003, 3.6804202E-003, 5.5204676E+002
 3.8005500E+001, 9.1851833E-004, 1.5953972E-001, 1.0986774E-001, 1.1681318E-002, 1.8171415E-003, 3.7621712E-003, 5.5377982E+002
 3.9000564E+001, 8.6675786E-004, 1.5839163E-001, 1.1027028E-001, 1.2496676E-002, 1.8372232E-003, 3.9279026E-003, 5.5037702E+002
 4.0002679E+001, 9.6338929E-004, 1.5681778E-001, 1.1064976E-001, 1.3481564E-002, 2.2284691E-003, 4.1266145E-003, 5.4316523E+002
 4.1008012E+001, 8.2119814E-004, 1.5497596E-001, 1.1130713E-001, 1.4799412E-002, 2.4356520E-003, 4.3945932E-003, 5.4528253E+002
 4.2005804E+001, 8.9732960E-004, 1.5398422E-001, 1.1152929E-001, 1.5406966E-002, 2.7232522E-003, 4.5170091E-003, 5.4070199E+002
 4.3002028E+001, 9.4634842E-004, 1.5372533E-001, 1.1156548E-001, 1.5548620E-002, 2.8112362E-003, 4.5453320E-003, 5.3714351E+002
 4.4000294E+001, 9.9190744E-004, 1.5281065E-001, 1.1178455E-001, 1.6120087E-002, 3.0918622E-003, 4.6606204E-003, 5.3805146E+002
 4.5006283E+001, 9.1488241E-004, 1.5156568E-001, 1.1221502E-001, 1.7000082E-002, 3.2379210E-003, 4.8394442E-003, 5.3662748E+002
 4.6008290E+001, 9.9594861E-004, 1.5053642E-001, 1.1245199E-001, 1.7635412E-002, 3.4883154E-003, 4.9675183E-003, 5.3242142E+002
 4.7000691E+001, 9.0230962E-004, 1.4897812E-001, 1.1297238E-001, 1.8722957E-002, 3.7730926E-003, 5.1883629E-003, 5.3264780E+002
 4.8006795E+001, 9.5901575E-004, 1.4868730E-001, 1.1301380E-001, 1.8882629E-002, 3.8603489E-003, 5.2202963E-003, 5.3194735E+002
 4.9003122E+001, 9.1465225E-004, 1.4811312E-001, 1.1322627E-001, 1.9299137E-002, 3.8786656E-003, 5.3050540E-003, 5.3113048E+002
 5.0007410E+001, 9.5339860E-004, 1.4737264E-001, 1.1334598E-001, 1.9718335E-002, 4.4531845E-003, 5.3890751E-003, 5.2839764E+002
 5.1005108E+001, 8.8463740E-004, 1.4618961E-001, 1.1379180E-001, 2.0582149E-002, 4.3470105E-003, 5.5649185E-003, 5.2741608E+002
 5.2004854E+001, 9.0814008E-004, 1.4517636E-001, 1.1405752E-001, 2.1233049E-002, 4.6282386E-003, 5.6964577E-003, 5.2729447E+002
 5.3011510E+001, 9.5306023E-004, 1.4428838E-001, 1.1426831E-001, 2.1786413E-002, 4.9093636E-003, 5.8080760E-003, 5.2391447E+002
 5.4010452E+001, 9.3954758E-004, 1.4398324E-001, 1.1438894E-001, 2.2013391E-002, 4.8296275E-003, 5.8543261E-003, 5.2591808E+002
 5.5003644E+001, 9.4811634E-004, 1.4263797E-001, 1.1475532E-001, 2.2888221E-002, 5.2136041E-003, 6.0312499E-003, 5.2212974E+002
 5.6011433E+001, 9.8209532E-004, 1.4177642E-001, 1.1499109E-001, 2.3448815E-002, 5.3338580E-003, 6.1446268E-003, 5.2242400E+002
 5.7000016E+001, 1.0235592E-003, 1.4128529E-001, 1.1509867E-001, 2.3747789E-002, 5.4756233E-003, 6.2048423E-003, 5.2054241E+002
 5.8000497E+001, 9.8259682E-004, 1.4018741E-001, 1.1545188E-001, 2.4503442E-002, 5.6547246E-003, 6.3581707E-003, 5.2019499E+002
 5.9001084E+001, 9.4605439E-004, 1.3916842E-001, 1.1576982E-001, 2.5197326E-002, 5.8757445E-003, 6.4988800E-003, 5.1828394E+002
 6.0006658E+001, 8.9923053E-004, 1.3803475E-001, 1.1611223E-001, 2.5960885E-002, 6.2170870E-003, 6.6536212E-003, 5.1689351E+002
 6.1008351E+001, 9.4368990E-004, 1.3741574E-001, 1.1629077E-001, 2.6370190E-002, 6.1636264E-003, 6.7364793E-003, 5.1636487E+002
 6.2006098E+001, 8.4029320E-004, 1.3629268E-001, 1.1664777E-001, 2.7141042E-002, 6.6296076E-003, 6.8928685E-003, 5.1514477E+002
 6.3005590E+001, 8.0005859E-004, 1.3560310E-001, 1.1687292E-001, 2.7618422E-002, 6.7822171E-003, 6.9897648E-003, 5.1564061E+002
 6.4006058E+001, 7.4939296E-004, 1.3574639E-001, 1.1686432E-001, 2.7549063E-002, 6.7611024E-003, 6.9760276E-003, 5.1478706E+002
 6.5003776E+001, 7.0592777E-004, 1.3454170E-001, 1.1723488E-001, 2.8365385E-002, 7.0563316E-003, 7.1415191E-003, 5.1437636E+002
 6.6008790E+001, 6.5671551E-004, 1.3421934E-001, 1.1736471E-001, 2.8607609E-002, 7.1029014E-003, 7.1909024E-003, 5.1627299E+002
 6.7000179E+001, 6.3400359E-004, 1.3416450E-001, 1.1740549E-001, 2.8663158E-002, 7.0553621E-003, 7.2023781E-003, 5.1594397E+002
 6.8011862E+001, 6.0446860E-004, 1.3328188E-001, 1.1766378E-001, 2.9251260E-002, 7.3433566E-003, 7.3214868E-003, 5.1450971E+002
 6.9011208E+001, 5.9463008E-004, 1.3281178E-001, 1.1781649E-001, 2.9575787E-002, 7.3789460E-003, 7.3873469E-003, 5.1504521E+002
 7.0010554E+001, 5.9233910E-004, 1.3212018E-001, 1.1800574E-001, 3.0026331E-002, 7.5986999E-003, 7.4784739E-003, 5.1392030E+002
 7.1008030E+001, 5.9557948E-004, 1.3189987E-001, 1.1807204E-001, 3.0174311E-002, 7.6150757E-003, 7.5084583E-003, 5.1419872E+002
 7.2000854E+001, 5.8623794E-004, 1.3146087E-001, 1.1823250E-001, 3.0490818E-002, 7.5389830E-003, 7.5728443E-003, 5.1486638E+002
 7.3010609E+001, 5.9274252E-004, 1.3099750E-001, 1.1833448E-001, 3.0773845E-002, 7.8055904E-003, 7.6298613E-003, 5.1359997E+002
 7.4008198E+001, 5.9142893E-004, 1.3042636E-001, 1.1849020E-001, 3.1145477E-002, 7.9881739E-003, 7.7050221E-003, 5.1429196E+002
 7.5005787E+001, 6.0016422E-004, 1.3039095E-001, 1.1851105E-001, 3.1176788E-002, 7.8937919E-003, 7.7114548E-003, 5.1422834E+002
 7.6003376E+001, 6.0738779E-004, 1.3018303E-001, 1.1856533E-001, 3.1310126E-002, 7.9430135E-003, 7.7383979E-003, 5.1458510E+002
 7.7000965E+001, 6.2725961E-004, 1.2997205E-001, 1.1861062E-001, 3.1437828E-002, 8.0010045E-003, 7.7641084E-003, 5.1393173E+002
 7.8001685E+001, 6.6550436E-004, 1.2946977E-001, 1.1872294E-001, 3.1745389E-002, 8.1491692E-003, 7.8260770E-003, 5.1247839E+002
 7.9012675E+001, 6.7373426E-004, 1.2926144E-001, 1.1878095E-001, 3.1881697E-002, 8.1720720E-003, 7.8536535E-003, 5.1430816E+002
 8.0000734E+001, 7.1417747E-004, 1.2882055E-001, 1.1887155E-001, 3.2145529E-002, 8.3227255E-003, 7.9067321E-003, 5.1339814E+002
 8.1007109E+001, 7.5425306E-004, 1.2816618E-001, 1.1904807E-001, 3.2569136E-002, 8.3703332E-003, 7.9923775E-003, 5.1278608E+002
 8.2000904E+001, 7.8215434E-004, 1.2782462E-001, 1.1914210E-001, 3.2791541E-002, 8.3544780E-003, 8.0373592E-003, 5.1243650E+002
 8.3011134E+001, 7.7949168E-004, 1.2768081E-001, 1.1914053E-001, 3.2854447E-002, 8.6613678E-003, 8.0497102E-003, 5.1365853E+002
 8.4011455E+001, 8.3268934E-004, 1.2699486E-001, 1.1930923E-001, 3.3285989E-002, 8.7654029E-003, 8.1368070E-003, 5.1145844E+002
 8.5001279E+001, 8.7464955E-004, 1.2675239E-001, 1.1934866E-001, 3.3422898E-002, 8.8301132E-003, 8.1642425E-003, 5.1111980E+002
 8.6011158E+001, 8.6775493E-004, 1.2630206E-001, 1.1947652E-001, 3.3719849E-002, 8.9672104E-003, 8.2243472E-003, 5.1151971E+002
 8.7001201E+001, 8.5774091E-004, 1.2623135E-001, 1.1950560E-001, 3.3773418E-002, 8.9704671E-003, 8.2352731E-003, 5.1137680E+002
 8.8007313E+001, 8.4015602E-004, 1.2589126E-001, 1.1962647E-001, 3.4016216E-002, 8.9757640E-003, 8.2846389E-003, 5.1214167E+002
 8.9000469E+001, 8.5287303E-004, 1.2553892E-001, 1.1972480E-001, 3.4246939E-002, 9.0180930E-003, 8.3313191E-003, 5.1209337E+002
 9.0004295E+001, 8.0964677E-004, 1.2553167E-001, 1.1975075E-001, 3.4270498E-002, 9.0527205E-003, 8.3363129E-003, 5.1394610E+002
 9.1008514E+001, 8.3482462E-004, 1.2486685E-001, 1.1992768E-001, 3.4699335E-002, 9.1806674E-003, 8.4229974E-003, 5.1182183E+002
 9.2009484E+001, 8.4943590E-004, 1.2422037E-001, 1.2010247E-001, 3.5118598E-002, 9.3292814E-003, 8.5077742E-003, 5.1119199E+002
 9.3011888E+001, 7.8544281E-004, 1.2430680E-001, 1.2012966E-001, 3.5101753E-002, 9.2563386E-003, 8.5048461E-003, 5.1369735E+002
 9.4013227E+001, 7.7427024E-004, 1.2388332E-001, 1.2020618E-001, 3.5348161E-002, 9.6741378E-003, 8.5543280E-003, 5.1293993E+002
 9.5007506E+001, 8.1019625E-004, 1.2393311E-001, 1.2021145E-001, 3.5329301E-002, 9.3929642E-003, 8.5506769E-003, 5.1064194E+002
 9.6005151E+001, 7.4959389E-004, 1.2399268E-001, 1.2021170E-001, 3.5304073E-002, 9.5253102E-003, 8.5457398E-003, 5.1231990E+002
 9.7002796E+001, 7.3936430E-004, 1.2337473E-001, 1.2040530E-001, 3.5725241E-002, 9.6047894E-003, 8.6311505E-003, 5.1207064E+002
 9.8000441E+001, 7.1881995E-004, 1.2306378E-001, 1.2052334E-001, 3.5952984E-002, 9.5818343E-003, 8.6775189E-003, 5.1360140E+002
 9.9010877E+001, 7.1463067E-004, 1.2288672E-001, 1.2056369E-001, 3.6062290E-002, 9.7030730E-003, 8.6995540E-003, 5.1257959E+002
 1.0000124E+002, 6.9248783E-004, 1.2302381E-001, 1.2054466E-001, 3.5987317E-002, 9.6397239E-003, 8.6845640E-003, 5.1324370E+002
 1.0100085E+002, 7.0962337E-004, 1.2258225E-001, 1.2064915E-001, 3.6262331E-002, 9.8032172E-003, 8.7400348E-003, 5.1240743E+002
 1.0200046E+002, 6.9918714E-004, 1.2241967E-001, 1.2070636E-001, 3.6378006E-002, 9.8177533E-003, 8.7635496E-003, 5.1199990E+002
 1.0300007E+002, 7.3075179E-004, 1.2201540E-001, 1.2081093E-001, 3.6636204E-002, 9.8464598E-003, 8.8157096E-003, 5.1275296E+002
 1.0401219E+002, 7.2947826E-004, 1.2178220E-001, 1.2087373E-001, 3.6787375E-002, 9.9288436E-003, 8.8462764E-003, 5.1180295E+002
 1.0500711E+002, 7.4856849E-004, 1.2180448E-001, 1.2085881E-001, 3.6765865E-002, 9.8969831E-003, 8.8418407E-003, 5.1281004E+002
 1.0601255E+002, 7.2773333E-004, 1.2162315E-001, 1.2093279E-001, 3.6902709E-002, 9.8887905E-003, 8.8697457E-003, 5.1243615E+002
 1.0700289E+002, 7.8000072E-004, 1.2127336E-001, 1.2099154E-001, 3.7101768E-002, 1.0005110E-002, 8.9096573E-003, 5.1061455E+002
 1.0800367E+002, 8.1762022E-004, 1.2108795E-001, 1.2103994E-001, 3.7220099E-002, 9.9191520E-003, 8.9335605E-003, 5.1232103E+002
 1.0900445E+002, 8.0379885E-004, 1.2090716E-001, 1.2110123E-001, 3.7347015E-002, 9.9588997E-003, 8.9593414E-003, 5.1131551E+002
 1.1000523E+002, 7.8077989E-004, 1.2057513E-001, 1.2121481E-001, 3.7580834E-002, 1.0015703E-002, 9.0068460E-003, 5.1170187E+002
 1.1100602E+002, 7.6106769E-004, 1.2055112E-001, 1.2124456E-001, 3.7614290E-002, 9.9622726E-003, 9.0138288E-003, 5.1226895E+002
 1.1200845E+002, 7.5563651E-004, 1.2030333E-001, 1.2129752E-001, 3.7764613E-002, 1.0151726E-002, 9.0440989E-003, 5.1177324E+002
 1.1300675E+002, 7.4997129E-004, 1.1982035E-001, 1.2146824E-001, 3.8108372E-002, 1.0084534E-002, 9.1139800E-003, 5.1119123E+002
 1.1400162E+002, 7.3425706E-004, 1.2004827E-001, 1.2139337E-001, 3.7950774E-002, 1.0157714E-002, 9.0819944E-003, 5.1278463E+002
 1.1500493E+002, 7.6539810E-004, 1.1993355E-001, 1.2143939E-001, 3.8035950E-002, 9.9727474E-003, 9.0993479E-003, 5.1257951E+002
 1.1601166E+002, 7.7154857E-004, 1.1988772E-001, 1.2141255E-001, 3.8036029E-002, 1.0203743E-002, 9.0990033E-003, 5.1246540E+002
 1.1700147E+002, 7.6960805E-004, 1.1980100E-001, 1.2144334E-001, 3.8097871E-002, 1.0194681E-002, 9.1115761E-003, 5.1244304E+002
 1.1800084E+002, 8.0773823E-004, 1.1985721E-001, 1.2139991E-001, 3.8039442E-002, 1.0191524E-002, 9.0994935E-003, 5.1297779E+002
 1.1900122E+002, 8.1234466E-004, 1.2041998E-001, 1.2129118E-001, 3.7706859E-002, 9.7224219E-003, 9.0326374E-003, 5.1445124E+002
 1.2001092E+002, 8.2274455E-004, 1.2009757E-001, 1.2132185E-001, 3.7873347E-002, 1.0131674E-002, 9.0657838E-003, 5.1355776E+002
 1.2100209E+002, 8.4389174E-004, 1.2010352E-001, 1.2131299E-001, 3.7863634E-002, 1.0086383E-002, 9.0637480E-003, 5.1229560E+002
 1.2200647E+002, 8.5130340E-004, 1.2046077E-001, 1.2121281E-001, 3.7628969E-002, 9.9617824E-003, 9.0162612E-003, 5.1433265E+002
 1.2301085E+002, 8.5892812E-004, 1.2039810E-001, 1.2121898E-001, 3.7661384E-002, 1.0016742E-002, 9.0227155E-003, 5.1365666E+002
 1.2400202E+002, 8.8971279E-004, 1.2043155E-001, 1.2119301E-001, 3.7626367E-002, 9.9819363E-003, 9.0154722E-003, 5.1395146E+002
 1.2500640E+002, 9.0780585E-004, 1.2046097E-001, 1.2117070E-001, 3.7596132E-002, 9.9855120E-003, 9.0092226E-003, 5.1500832E+002
 1.2601078E+002, 9.4706821E-004, 1.2016370E-001, 1.2122143E-001, 3.7765999E-002, 1.0100929E-002, 9.0432911E-003, 5.1316511E+002
 1.2700195E+002, 9.7767295E-004, 1.2043418E-001, 1.2114277E-001, 3.7585754E-002, 9.9198771E-003, 9.0067852E-003, 5.1278171E+002
 1.2800263E+002, 9.6798988E-004, 1.2104782E-001, 1.2101099E-001, 3.7213430E-002, 9.5510005E-003, 8.9318114E-003, 5.1573107E+002
 1.2900864E+002, 1.0108192E-003, 1.2072474E-001, 1.2104775E-001, 3.7384201E-002, 9.7890004E-003, 8.9658701E-003, 5.1413846E+002
 1.3001195E+002, 1.0493540E-003, 1.2074449E-001, 1.2103416E-001, 3.7364467E-002, 9.6729374E-003, 8.9617946E-003, 5.1439891E+002
 1.3100406E+002, 1.0444655E-003, 1.2106170E-001, 1.2094816E-001, 3.7158535E-002, 9.5919118E-003, 8.9201518E-003, 5.1664993E+002
 1.3201043E+002, 1.0914018E-003, 1.2059114E-001, 1.2100480E-001, 3.7409882E-002, 9.9838019E-003, 8.9703199E-003, 5.1448946E+002
 1.3300390E+002, 1.0762570E-003, 1.2067553E-001, 1.2100485E-001, 3.7372615E-002, 9.8786425E-003, 8.9629970E-003, 5.1574947E+002
 1.3400682E+002, 1.1169830E-003, 1.2013645E-001, 1.2110519E-001, 3.7687496E-002, 1.0163512E-002, 9.0262444E-003, 5.1455288E+002
 1.3500960E+002, 1.0888765E-003, 1.2021953E-001, 1.2109899E-001, 3.7646346E-002, 1.0153467E-002, 9.0180791E-003, 5.1570752E+002
 1.3601237E+002, 1.0633500E-003, 1.2059191E-001, 1.2103442E-001, 3.7432353E-002, 9.9166362E-003, 8.9751435E-003, 5.1485575E+002
 1.3700160E+002, 1.0845032E-003, 1.2075743E-001, 1.2096869E-001, 3.7308754E-002, 9.9041492E-003, 8.9499531E-003, 5.1612584E+002
 1.3800437E+002, 1.1121146E-003, 1.2074529E-001, 1.2092063E-001, 3.7277466E-002, 1.0109376E-002, 8.9431498E-003, 5.1702831E+002
 1.3900715E+002, 1.1428060E-003, 1.2039775E-001, 1.2097514E-001, 3.7472728E-002, 1.0337225E-002, 8.9822658E-003, 5.1506808E+002
 1.4000993E+002, 1.1046966E-003, 1.2093864E-001, 1.2087318E-001, 3.7155765E-002, 1.0047871E-002, 8.9185863E-003, 5.1667064E+002
 1.4101270E+002, 1.0688291E-003, 1.2121094E-001, 1.2078356E-001, 3.6967667E-002, 1.0207577E-002, 8.8804128E-003, 5.1681346E+002
 1.4200193E+002, 1.1194506E-003, 1.2119500E-001, 1.2076663E-001, 3.6961092E-002, 1.0132724E-002, 8.8788766E-003, 5.1712469E+002
 1.4300470E+002, 1.1325966E-003, 1.2131733E-001, 1.2069270E-001, 3.6850704E-002, 1.0290015E-002, 8.8561777E-003, 5.1640832E+002
 1.4400748E+002, 1.1632141E-003, 1.2148193E-001, 1.2061673E-001, 3.6719632E-002, 1.0303020E-002, 8.8293778E-003, 5.1692916E+002
 1.4501025E+002, 1.2022638E-003, 1.2162008E-001, 1.2051485E-001, 3.6580674E-002, 1.0493117E-002, 8.8006788E-003, 5.1722527E+002
 1.4601303E+002, 1.1344484E-003, 1.2224078E-001, 1.2040220E-001, 3.6220659E-002, 1.0234581E-002, 8.7284006E-003, 5.1907480E+002
 1.4700225E+002, 1.1753424E-003, 1.2192188E-001, 1.2046101E-001, 3.6406221E-002, 1.0336419E-002, 8.7656628E-003, 5.1878961E+002
 1.4800503E+002, 1.1220831E-003, 1.2205177E-001, 1.2043441E-001, 3.6329318E-002, 1.0463701E-002, 8.7502028E-003, 5.1924825E+002
 1.4900781E+002, 1.2026866E-003, 1.2188225E-001, 1.2042046E-001, 3.6392829E-002, 1.0551256E-002, 8.7624790E-003, 5.1691484E+002
 1.5001058E+002, 1.1710135E-003, 1.2236069E-001, 1.2031300E-001, 3.6099423E-002, 1.0393226E-002, 8.7033565E-003, 5.1732794E+002
 1.5101336E+002, 1.2248323E-003, 1.2160482E-001, 1.2046322E-001, 3.6548170E-002, 1.0747628E-002, 8.7935903E-003, 5.1670137E+002
 1.5200258E+002, 1.1163604E-003, 1.2237601E-001, 1.2033700E-001, 3.6111668E-002, 1.0442543E-002, 8.7061035E-003, 5.1834820E+002
 1.5300536E+002, 1.1262274E-003, 1.2232908E-001, 1.2035436E-001, 3.6145466E-002, 1.0387835E-002, 8.7129782E-003, 5.1894671E+002
 1.5400814E+002, 1.1294251E-003, 1.2246906E-001, 1.2028610E-001, 3.6031666E-002, 1.0516522E-002, 8.6896873E-003, 5.1902710E+002
