s,,,,,,,
Time,O2 EXHAUST,CO2 EXHAUST,H2O EXHAUST,CO EXHAUST,FUEL EXHAUST,SOOT EXHAUST,TEMP EXHAUST
 0.0000000E+000, 2.3099739E-001, 5.9146498E-004, 5.9412092E-003, 0.0000000E+000, 0.0000000E+000, 0.0000000E+000, 2.0000000E+001
 1.0061774E+000, 2.3099739E-001, 5.9146498E-004, 5.9412092E-003, 4.9773463E-031, 2.6675399E-030, 1.4869180E-030, 2.0498044E+001
 2.0020364E+000, 2.2517007E-001, 5.8706694E-003, 7.4687337E-003, 1.7522855E-005, 6.5581382E-004, 3.5171697E-004, 7.7232025E+001
 3.0000688E+000, 2.2185537E-001, 8.9344246E-003, 8.3705958E-003, 5.1404720E-005, 6.2118077E-004, 5.6090227E-004, 1.0508634E+002
 4.0032599E+000, 2.1812799E-001, 1.2359123E-002, 9.3651180E-003, 6.6712769E-005, 7.9742031E-004, 7.8990155E-004, 1.3913814E+002
 5.0057201E+000, 2.1412124E-001, 1.6021497E-002, 1.0441781E-002, 1.0668637E-004, 9.5052822E-004, 1.0398533E-003, 1.7135142E+002
 6.0040466E+000, 2.0927883E-001, 2.0438658E-002, 1.1735656E-002, 1.4722405E-004, 1.2184412E-003, 1.3396759E-003, 2.1091489E+002
 7.0054959E+000, 2.0467909E-001, 2.4736049E-002, 1.2976071E-002, 1.5005109E-004, 1.1917520E-003, 1.6235072E-003, 2.4339184E+002
 8.0033556E+000, 1.9978682E-001, 2.9276709E-002, 1.4297123E-002, 1.7245802E-004, 1.1997352E-003, 1.9275713E-003, 2.7563730E+002
 9.0028310E+000, 1.9406220E-001, 3.4626838E-002, 1.5846728E-002, 1.8510878E-004, 1.1099416E-003, 2.2828889E-003, 3.0782574E+002
 1.0000547E+001, 1.8889770E-001, 3.9464883E-002, 1.7246161E-002, 1.9281579E-004, 9.9584993E-004, 2.6033957E-003, 3.3407071E+002
 1.1005322E+001, 1.8242336E-001, 4.5552964E-002, 1.9003707E-002, 1.9545533E-004, 7.8361425E-004, 3.0051977E-003, 3.6169371E+002
 1.2005939E+001, 1.7757634E-001, 5.0109277E-002, 2.0317120E-002, 1.9415659E-004, 6.4916130E-004, 3.3052048E-003, 3.7247968E+002
 1.3006378E+001, 1.7177928E-001, 5.5560398E-002, 2.1887100E-002, 1.9014500E-004, 4.9322144E-004, 3.6636029E-003, 3.8811253E+002
 1.4007603E+001, 1.6673282E-001, 6.0293459E-002, 2.3252633E-002, 1.9131289E-004, 3.8947790E-004, 3.9757889E-003, 3.9716804E+002
 1.5002937E+001, 1.6122304E-001, 6.5467043E-002, 2.4743046E-002, 1.8848128E-004, 2.7033271E-004, 4.3161501E-003, 4.1073414E+002
 1.6001791E+001, 1.5681717E-001, 6.9594273E-002, 2.5933533E-002, 1.8928342E-004, 2.0413134E-004, 4.5883309E-003, 4.1555163E+002
 1.7008212E+001, 1.5002075E-001, 7.5948287E-002, 2.7768931E-002, 1.9560268E-004, 1.3334096E-004, 5.0084541E-003, 4.2550252E+002
 1.8000335E+001, 1.4606338E-001, 7.9644390E-002, 2.8837140E-002, 2.0042597E-004, 1.0306139E-004, 5.2530845E-003, 4.2779573E+002
 1.9004051E+001, 1.4304156E-001, 8.2465132E-002, 2.9652887E-002, 2.0509108E-004, 8.2033447E-005, 5.4399893E-003, 4.2956167E+002
 2.0009484E+001, 1.4016662E-001, 8.5150557E-002, 3.0428407E-002, 2.0755396E-004, 6.4161719E-005, 5.6175038E-003, 4.3051844E+002
 2.1001877E+001, 1.3580543E-001, 8.9219237E-002, 3.1604695E-002, 2.1376970E-004, 4.7207821E-005, 5.8869885E-003, 4.3494412E+002
 2.2010672E+001, 1.3341936E-001, 9.1444093E-002, 3.2248375E-002, 2.1801240E-004, 3.8914892E-005, 6.0345305E-003, 4.3479601E+002
 2.3002380E+001, 1.3028871E-001, 9.4362545E-002, 3.3092820E-002, 2.2378100E-004, 3.0091791E-005, 6.2281121E-003, 4.3622571E+002
 2.4008362E+001, 1.2828730E-001, 9.6230041E-002, 3.3632287E-002, 2.2585520E-004, 2.4915006E-005, 6.3516369E-003, 4.3466970E+002
 2.5009392E+001, 1.2473652E-001, 9.9539138E-002, 3.4589727E-002, 2.3237778E-004, 1.9710677E-005, 6.5711264E-003, 4.3751106E+002
 2.6009104E+001, 1.2301382E-001, 1.0114437E-001, 3.5054449E-002, 2.3601904E-004, 1.5635558E-005, 6.6777025E-003, 4.3861813E+002
 2.7000196E+001, 1.2035263E-001, 1.0362325E-001, 3.5772091E-002, 2.4167533E-004, 1.3075950E-005, 6.8422895E-003, 4.3990577E+002
 2.8007721E+001, 1.1739045E-001, 1.0638259E-001, 3.6570790E-002, 2.4772939E-004, 1.1120626E-005, 7.0254462E-003, 4.4014477E+002
 2.9000040E+001, 1.1548701E-001, 1.0815254E-001, 3.7084462E-002, 2.5410785E-004, 1.1304113E-005, 7.1434649E-003, 4.3745747E+002
 3.0000350E+001, 1.1406251E-001, 1.0948057E-001, 3.7468399E-002, 2.5616883E-004, 9.9029751E-006, 7.2314324E-003, 4.3688408E+002
 3.1010033E+001, 1.1177376E-001, 1.1161130E-001, 3.8085711E-002, 2.6188316E-004, 8.8996133E-006, 7.3730869E-003, 4.3792541E+002
 3.2009560E+001, 1.0948304E-001, 1.1372529E-001, 3.8706542E-002, 2.8289823E-004, 1.2897922E-005, 7.5169190E-003, 4.3660447E+002
 3.3005734E+001, 1.0852864E-001, 1.1462121E-001, 3.8962632E-002, 2.7894212E-004, 1.1700874E-005, 7.5751180E-003, 4.3642836E+002
 3.4001161E+001, 1.0536510E-001, 1.1754221E-001, 3.9819762E-002, 3.0669726E-004, 1.6922327E-005, 7.7735823E-003, 4.3673683E+002
 3.5006790E+001, 1.0263714E-001, 1.2005328E-001, 4.0559719E-002, 3.3631124E-004, 2.7205279E-005, 7.9454288E-003, 4.3816237E+002
 3.6003075E+001, 1.0019001E-001, 1.2229196E-001, 4.1226065E-002, 3.7488752E-004, 3.7217563E-005, 8.1012442E-003, 4.4210546E+002
 3.7001226E+001, 9.9221376E-002, 1.2320794E-001, 4.1485017E-002, 3.6556118E-004, 3.3041050E-005, 8.1596138E-003, 4.3934697E+002
 3.8008945E+001, 9.6952660E-002, 1.2529512E-001, 4.2100792E-002, 3.9149249E-004, 4.0067320E-005, 8.3027332E-003, 4.3875525E+002
 3.9010604E+001, 9.5771948E-002, 1.2638577E-001, 4.2420261E-002, 4.0085211E-004, 4.5176886E-005, 8.3766211E-003, 4.3904969E+002
 4.0002801E+001, 9.4158156E-002, 1.2787080E-001, 4.2858523E-002, 4.1952146E-004, 4.7278095E-005, 8.4784977E-003, 4.3852778E+002
 4.1004863E+001, 9.2656418E-002, 1.2925304E-001, 4.3265921E-002, 4.3597409E-004, 5.2643391E-005, 8.5731240E-003, 4.3952295E+002
 4.2002976E+001, 8.9744410E-002, 1.3189544E-001, 4.4062180E-002, 4.9938662E-004, 7.1639184E-005, 8.7608738E-003, 4.4017727E+002
 4.3011403E+001, 8.8756900E-002, 1.3283133E-001, 4.4325532E-002, 4.8764139E-004, 6.9728856E-005, 8.8200366E-003, 4.4165780E+002
 4.4008967E+001, 8.7066888E-002, 1.3437171E-001, 4.4786087E-002, 5.1801481E-004, 8.3129615E-005, 8.9280710E-003, 4.3825985E+002
 4.5006443E+001, 8.4919373E-002, 1.3634630E-001, 4.5368700E-002, 5.4269410E-004, 9.4113819E-005, 9.0635015E-003, 4.3993906E+002
 4.6005835E+001, 8.3824904E-002, 1.3734190E-001, 4.5667528E-002, 5.6441681E-004, 1.0101330E-004, 9.1337765E-003, 4.3956790E+002
 4.7007156E+001, 8.1919894E-002, 1.3908567E-001, 4.6186059E-002, 5.9354036E-004, 1.0878017E-004, 9.2549478E-003, 4.4177555E+002
 4.8010134E+001, 8.0311327E-002, 1.4053880E-001, 4.6626671E-002, 6.3344648E-004, 1.2363116E-004, 9.3592756E-003, 4.4005252E+002
 4.9009994E+001, 7.8554158E-002, 1.4216510E-001, 4.7101322E-002, 6.4427668E-004, 1.3295135E-004, 9.4687822E-003, 4.4187292E+002
 5.0000677E+001, 7.6901788E-002, 1.4362181E-001, 4.7561093E-002, 7.1728078E-004, 1.4541915E-004, 9.5804434E-003, 4.4304720E+002
 5.1001622E+001, 7.5877069E-002, 1.4459995E-001, 4.7832173E-002, 6.9748494E-004, 1.5136051E-004, 9.6406646E-003, 4.4164722E+002
 5.2005133E+001, 7.4971070E-002, 1.4543519E-001, 4.8077838E-002, 7.0647752E-004, 1.5334903E-004, 9.6976405E-003, 4.3994156E+002
 5.3006040E+001, 7.3381935E-002, 1.4687538E-001, 4.8512293E-002, 7.4193440E-004, 1.6758446E-004, 9.8001624E-003, 4.4223796E+002
 5.4007651E+001, 7.2476178E-002, 1.4769912E-001, 4.8758454E-002, 7.5804531E-004, 1.8408547E-004, 9.8579073E-003, 4.4121086E+002
 5.5009085E+001, 7.0463214E-002, 1.4955598E-001, 4.9304249E-002, 7.7736824E-004, 1.8682091E-004, 9.9844301E-003, 4.4220282E+002
 5.6000386E+001, 6.8764811E-002, 1.5111587E-001, 4.9765383E-002, 7.9847213E-004, 1.9522964E-004, 1.0091762E-002, 4.4323733E+002
 5.7005705E+001, 6.7155679E-002, 1.5255753E-001, 5.0208704E-002, 8.4933832E-004, 2.0759218E-004, 1.0197685E-002, 4.4434477E+002
 5.8009011E+001, 6.5581950E-002, 1.5398027E-001, 5.0639386E-002, 8.8712160E-004, 2.2377206E-004, 1.0299555E-002, 4.4442557E+002
 5.9009143E+001, 6.5065122E-002, 1.5447629E-001, 5.0775588E-002, 8.7477388E-004, 2.2684316E-004, 1.0329598E-002, 4.4536249E+002
 6.0000535E+001, 6.3802554E-002, 1.5563942E-001, 5.1117739E-002, 8.8741226E-004, 2.3287855E-004, 1.0408966E-002, 4.4482625E+002
 6.1006370E+001, 6.2056779E-002, 1.5723880E-001, 5.1592445E-002, 9.1251890E-004, 2.4202599E-004, 1.0519760E-002, 4.4618830E+002
 6.2002764E+001, 6.1182857E-002, 1.5807038E-001, 5.1824804E-002, 8.9909380E-004, 2.4094101E-004, 1.0571687E-002, 4.4553798E+002
 6.3005498E+001, 6.0475657E-002, 1.5869124E-001, 5.2021875E-002, 9.3225843E-004, 2.4810977E-004, 1.0619718E-002, 4.4575884E+002
 6.4007852E+001, 5.8505710E-002, 1.6048490E-001, 5.2560213E-002, 9.7127547E-004, 2.5330903E-004, 1.0746298E-002, 4.4671471E+002
 6.5009203E+001, 5.8185588E-002, 1.6076195E-001, 5.2649451E-002, 9.8851513E-004, 2.6321271E-004, 1.0768255E-002, 4.4725899E+002
 6.6005740E+001, 5.6423174E-002, 1.6239131E-001, 5.3126363E-002, 1.0018191E-003, 2.6798086E-004, 1.0878494E-002, 4.4756196E+002
 6.7006710E+001, 5.5415883E-002, 1.6331217E-001, 5.3400365E-002, 1.0175566E-003, 2.7575665E-004, 1.0942559E-002, 4.4788505E+002
 6.8001991E+001, 5.5303950E-002, 1.6339027E-001, 5.3434268E-002, 1.0384908E-003, 2.8723022E-004, 1.0952196E-002, 4.4618577E+002
 6.9013027E+001, 5.3747611E-002, 1.6483670E-001, 5.3854178E-002, 1.0439626E-003, 2.8954065E-004, 1.1048698E-002, 4.4777222E+002
 7.0012335E+001, 5.2607991E-002, 1.6587423E-001, 5.4165206E-002, 1.0658927E-003, 2.9639963E-004, 1.1121781E-002, 4.4822807E+002
 7.1000262E+001, 5.1672601E-002, 1.6674302E-001, 5.4417193E-002, 1.0688057E-003, 3.0227161E-004, 1.1179665E-002, 4.4866451E+002
 7.2007554E+001, 5.0188266E-002, 1.6816483E-001, 5.4811225E-002, 1.0397954E-003, 2.8976126E-004, 1.1267150E-002, 4.5040909E+002
 7.3006767E+001, 4.9314745E-002, 1.6894787E-001, 5.5052563E-002, 1.0683513E-003, 2.8949502E-004, 1.1324881E-002, 4.5051683E+002
 7.4004109E+001, 4.8181916E-002, 1.6990056E-001, 5.5375735E-002, 1.1572635E-003, 3.0537682E-004, 1.1406735E-002, 4.4939994E+002
 7.5009803E+001, 4.6967989E-002, 1.7106217E-001, 5.5697272E-002, 1.1329492E-003, 3.0371069E-004, 1.1478079E-002, 4.4911558E+002
 7.6008352E+001, 4.6106809E-002, 1.7182799E-001, 5.5935140E-002, 1.1643539E-003, 3.1473679E-004, 1.1535286E-002, 4.5074320E+002
 7.7003557E+001, 4.5032235E-002, 1.7282184E-001, 5.6226749E-002, 1.1736778E-003, 3.0936723E-004, 1.1602786E-002, 4.5046327E+002
 7.8004864E+001, 4.4612688E-002, 1.7321063E-001, 5.6339964E-002, 1.1758021E-003, 3.1178853E-004, 1.1628866E-002, 4.5118330E+002
 7.9008458E+001, 4.3019586E-002, 1.7463929E-001, 5.6779289E-002, 1.2261518E-003, 3.1781718E-004, 1.1733820E-002, 4.5198218E+002
 8.0000870E+001, 4.3452443E-002, 1.7430906E-001, 5.6649676E-002, 1.1631500E-003, 3.0890551E-004, 1.1698546E-002, 4.5086240E+002
 8.1000071E+001, 4.2151980E-002, 1.7548655E-001, 5.7005846E-002, 1.1938582E-003, 3.1663879E-004, 1.1782735E-002, 4.5129548E+002
 8.2003566E+001, 4.1161011E-002, 1.7634093E-001, 5.7285282E-002, 1.2545361E-003, 3.2381919E-004, 1.1852056E-002, 4.5200779E+002
 8.3005971E+001, 4.0656549E-002, 1.7681119E-001, 5.7420500E-002, 1.2539940E-003, 3.3021538E-004, 1.1882933E-002, 4.5209661E+002
 8.4003412E+001, 3.9176602E-002, 1.7816576E-001, 5.7825072E-002, 1.2796936E-003, 3.2053415E-004, 1.1977719E-002, 4.5287841E+002
 8.5003078E+001, 3.9426921E-002, 1.7794128E-001, 5.7754516E-002, 1.2691417E-003, 3.3355513E-004, 1.1960662E-002, 4.5231256E+002
 8.6010729E+001, 3.8561611E-002, 1.7870289E-001, 5.7995763E-002, 1.3088704E-003, 3.3789667E-004, 1.2019376E-002, 4.5261274E+002
 8.7010854E+001, 3.7360674E-002, 1.7978727E-001, 5.8325814E-002, 1.3408345E-003, 3.3983976E-004, 1.2097697E-002, 4.5246575E+002
 8.8006534E+001, 3.6194508E-002, 1.8090556E-001, 5.8635515E-002, 1.3175880E-003, 3.2663360E-004, 1.2166415E-002, 4.5332345E+002
 8.9001133E+001, 3.6266671E-002, 1.8081111E-001, 5.8619990E-002, 1.3390901E-003, 3.3817438E-004, 1.2164801E-002, 4.5437436E+002
 9.0008054E+001, 3.5248087E-002, 1.8174297E-001, 5.8897936E-002, 1.3561458E-003, 3.3687525E-004, 1.2229874E-002, 4.5371866E+002
 9.1002552E+001, 3.4258229E-002, 1.8263549E-001, 5.9170298E-002, 1.3837361E-003, 3.3774414E-004, 1.2294613E-002, 4.5336776E+002
 9.2003049E+001, 3.4122943E-002, 1.8279078E-001, 5.9201379E-002, 1.3587176E-003, 3.3599558E-004, 1.2299483E-002, 4.5375631E+002
 9.3011051E+001, 3.2961938E-002, 1.8382921E-001, 5.9522451E-002, 1.3984672E-003, 3.3688184E-004, 1.2376446E-002, 4.5408329E+002
 9.4005810E+001, 3.2108839E-002, 1.8451921E-001, 5.9771567E-002, 1.4903264E-003, 3.4411687E-004, 1.2441618E-002, 4.5502217E+002
 9.5005921E+001, 3.2225039E-002, 1.8440860E-001, 5.9739415E-002, 1.4899570E-003, 3.5582023E-004, 1.2434250E-002, 4.5411694E+002
 9.6006800E+001, 3.1913872E-002, 1.8475256E-001, 5.9814468E-002, 1.4457850E-003, 3.4224492E-004, 1.2447447E-002, 4.5406219E+002
 9.7001788E+001, 3.1589020E-002, 1.8498592E-001, 5.9913832E-002, 1.5045758E-003, 3.5503410E-004, 1.2475434E-002, 4.5445291E+002
 9.8009977E+001, 3.0333936E-002, 1.8605839E-001, 6.0270139E-002, 1.5908200E-003, 3.5899269E-004, 1.2564610E-002, 4.5514753E+002
 9.9002283E+001, 2.9302543E-002, 1.8704386E-001, 6.0544778E-002, 1.5734753E-003, 3.4687722E-004, 1.2625839E-002, 4.5617148E+002
 1.0000305E+002, 2.8818574E-002, 1.8742786E-001, 6.0686568E-002, 1.6304492E-003, 3.5969974E-004, 1.2663364E-002, 4.5712357E+002
 1.0101025E+002, 2.9095201E-002, 1.8717420E-001, 6.0610755E-002, 1.6255667E-003, 3.6407721E-004, 1.2645600E-002, 4.5537021E+002
 1.0200664E+002, 2.7801841E-002, 1.8834449E-001, 6.0966032E-002, 1.6583501E-003, 3.6348612E-004, 1.2729759E-002, 4.5633867E+002
 1.0300410E+002, 2.7874114E-002, 1.8837177E-001, 6.0930056E-002, 1.5780901E-003, 3.4947820E-004, 1.2714347E-002, 4.5780439E+002
 1.0400551E+002, 2.7391315E-002, 1.8879750E-001, 6.1064174E-002, 1.5989864E-003, 3.5497808E-004, 1.2746886E-002, 4.5688439E+002
 1.0500465E+002, 2.7134041E-002, 1.8895837E-001, 6.1147597E-002, 1.6667880E-003, 3.6356256E-004, 1.2772027E-002, 4.5804119E+002
 1.0601237E+002, 2.6396628E-002, 1.8961712E-001, 6.1350149E-002, 1.6900879E-003, 3.7811234E-004, 1.2820440E-002, 4.5732361E+002
 1.0701101E+002, 2.5608561E-002, 1.9036344E-001, 6.1561918E-002, 1.6837971E-003, 3.6288504E-004, 1.2868277E-002, 4.5676163E+002
 1.0800707E+002, 2.5132510E-002, 1.9078007E-001, 6.1695923E-002, 1.7091667E-003, 3.5766951E-004, 1.2901176E-002, 4.5861506E+002
 1.0901070E+002, 2.4342676E-002, 1.9139934E-001, 6.1929507E-002, 1.8099662E-003, 3.7154654E-004, 1.2963605E-002, 4.5753928E+002
 1.1000648E+002, 2.4110427E-002, 1.9163114E-001, 6.1988493E-002, 1.7957206E-003, 3.7771393E-004, 1.2975827E-002, 4.5830615E+002
 1.1100449E+002, 2.4380555E-002, 1.9144280E-001, 6.1905389E-002, 1.7428936E-003, 3.6150934E-004, 1.2952086E-002, 4.5830936E+002
 1.1200741E+002, 2.3753661E-002, 1.9187395E-001, 6.2100790E-002, 1.8731258E-003, 3.8622254E-004, 1.3008428E-002, 4.5800884E+002
 1.1300652E+002, 2.3542151E-002, 1.9212911E-001, 6.2148380E-002, 1.8255306E-003, 3.7111754E-004, 1.3015038E-002, 4.5730639E+002
 1.1400161E+002, 2.2458746E-002, 1.9305052E-001, 6.2455328E-002, 1.9012753E-003, 3.8781311E-004, 1.3092008E-002, 4.5847039E+002
 1.1500865E+002, 2.2272859E-002, 1.9316997E-001, 6.2516977E-002, 1.9508882E-003, 3.7584701E-004, 1.3110518E-002, 4.5749479E+002
 1.1600400E+002, 2.2060941E-002, 1.9341933E-001, 6.2564163E-002, 1.9057677E-003, 3.7620073E-004, 1.3117278E-002, 4.5774440E+002
 1.1700191E+002, 2.1494625E-002, 1.9394912E-001, 6.2717286E-002, 1.9064331E-003, 3.6799933E-004, 1.3152337E-002, 4.5900419E+002
 1.1800626E+002, 2.1390419E-002, 1.9389372E-001, 6.2771197E-002, 2.0344431E-003, 3.9754879E-004, 1.3176136E-002, 4.5807119E+002
 1.1900779E+002, 2.1282837E-002, 1.9398055E-001, 6.2803062E-002, 2.0469061E-003, 3.9466398E-004, 1.3184531E-002, 4.5873900E+002
 1.2000117E+002, 2.0503826E-002, 1.9462252E-001, 6.3029145E-002, 2.1218846E-003, 3.9333986E-004, 1.3242918E-002, 4.5829731E+002
 1.2100180E+002, 2.0406604E-002, 1.9478304E-001, 6.3042060E-002, 2.0609304E-003, 3.9301212E-004, 1.3240426E-002, 4.5843301E+002
 1.2200168E+002, 2.0464822E-002, 1.9471538E-001, 6.3029022E-002, 2.0727340E-003, 3.9212527E-004, 1.3238498E-002, 4.5831556E+002
 1.2300996E+002, 1.9268930E-002, 1.9556836E-001, 6.3400842E-002, 2.3029235E-003, 3.9466566E-004, 1.3344074E-002, 4.5822589E+002
 1.2400253E+002, 1.9548462E-002, 1.9555613E-001, 6.3279695E-002, 2.0878393E-003, 3.8106495E-004, 1.3297148E-002, 4.5896756E+002
 1.2500979E+002, 1.9649973E-002, 1.9532676E-001, 6.3275447E-002, 2.2011432E-003, 4.0458681E-004, 1.3306327E-002, 4.5878790E+002
 1.2600374E+002, 1.8476281E-002, 1.9630198E-001, 6.3614929E-002, 2.3077622E-003, 3.9909825E-004, 1.3393462E-002, 4.5901706E+002
 1.2700308E+002, 1.8237712E-002, 1.9642236E-001, 6.3697412E-002, 2.3952039E-003, 4.1037530E-004, 1.3420146E-002, 4.5894700E+002
 1.2800643E+002, 1.8728968E-002, 1.9607606E-001, 6.3543111E-002, 2.2957086E-003, 4.1647971E-004, 1.3375989E-002, 4.5951847E+002
 1.2900954E+002, 1.8401456E-002, 1.9635239E-001, 6.3637021E-002, 2.3217516E-003, 4.1514771E-004, 1.3399785E-002, 4.5828208E+002
 1.3000935E+002, 1.8006496E-002, 1.9668031E-001, 6.3752502E-002, 2.3599156E-003, 4.0237159E-004, 1.3429580E-002, 4.5756786E+002
 1.3101154E+002, 1.7028163E-002, 1.9770098E-001, 6.3996870E-002, 2.2686976E-003, 3.8883780E-004, 1.3477289E-002, 4.6072057E+002
 1.3200846E+002, 1.7152933E-002, 1.9757694E-001, 6.3963489E-002, 2.2731527E-003, 4.0014479E-004, 1.3470070E-002, 4.6003944E+002
 1.3301250E+002, 1.7337788E-002, 1.9731901E-001, 6.3929694E-002, 2.3472909E-003, 4.0289995E-004, 1.3468967E-002, 4.5908537E+002
 1.3400933E+002, 1.6631264E-002, 1.9772479E-001, 6.4167363E-002, 2.5679460E-003, 4.1081513E-004, 1.3543026E-002, 4.6022326E+002
 1.3500345E+002, 1.5914608E-002, 1.9853011E-001, 6.4335939E-002, 2.4516485E-003, 3.9584236E-004, 1.3571164E-002, 4.6011006E+002
 1.3600430E+002, 1.6261811E-002, 1.9810137E-001, 6.4260972E-002, 2.5406296E-003, 4.0901297E-004, 1.3561987E-002, 4.5972774E+002
 1.3700717E+002, 1.5974626E-002, 1.9838987E-001, 6.4334392E-002, 2.5228324E-003, 4.0898398E-004, 1.3577185E-002, 4.6090761E+002
 1.3800102E+002, 1.5900604E-002, 1.9835410E-001, 6.4373259E-002, 2.6127980E-003, 4.1849183E-004, 1.3594119E-002, 4.5925962E+002
 1.3901114E+002, 1.5562917E-002, 1.9873335E-001, 6.4452098E-002, 2.5570863E-003, 4.1722917E-004, 1.3607168E-002, 4.6211453E+002
 1.4000926E+002, 1.5736932E-002, 1.9856321E-001, 6.4405601E-002, 2.5618500E-003, 4.2750065E-004, 1.3596976E-002, 4.6052584E+002
 1.4100257E+002, 1.5330687E-002, 1.9887799E-001, 6.4528625E-002, 2.6207204E-003, 4.1478468E-004, 1.3630345E-002, 4.6006429E+002
 1.4200165E+002, 1.5024142E-002, 1.9873340E-001, 6.4690054E-002, 2.9921840E-003, 4.4369575E-004, 1.3700469E-002, 4.5860680E+002
 1.4300435E+002, 1.5257639E-002, 1.9878780E-001, 6.4578254E-002, 2.7589391E-003, 4.1671661E-004, 1.3654039E-002, 4.5923652E+002
 1.4400050E+002, 1.4973113E-002, 1.9893361E-001, 6.4676102E-002, 2.8610961E-003, 4.3104587E-004, 1.3685555E-002, 4.6009132E+002
 1.4501316E+002, 1.4998929E-002, 1.9907951E-001, 6.4638484E-002, 2.7153323E-003, 4.1529742E-004, 1.3663914E-002, 4.5952742E+002
 1.4600666E+002, 1.4026409E-002, 1.9987391E-001, 6.4920860E-002, 2.8130000E-003, 4.2467260E-004, 1.3737214E-002, 4.6208118E+002
 1.4700425E+002, 1.4288009E-002, 1.9944845E-001, 6.4882948E-002, 2.9680231E-003, 4.4324394E-004, 1.3742415E-002, 4.5975722E+002
 1.4800342E+002, 1.4591004E-002, 1.9931547E-001, 6.4773690E-002, 2.8383319E-003, 4.3540384E-004, 1.3705841E-002, 4.5944892E+002
 1.4900470E+002, 1.4302773E-002, 1.9940003E-001, 6.4884975E-002, 2.9972898E-003, 4.4871255E-004, 1.3745500E-002, 4.5991960E+002
 1.5000051E+002, 1.4230639E-002, 1.9935773E-001, 6.4924433E-002, 3.0917636E-003, 4.5648854E-004, 1.3762969E-002, 4.5904121E+002
 1.5100867E+002, 1.4373507E-002, 1.9924552E-001, 6.4881118E-002, 3.0717918E-003, 4.6404307E-004, 1.3751292E-002, 4.5869231E+002
 1.5200285E+002, 1.3777830E-002, 1.9967326E-001, 6.5064467E-002, 3.1816760E-003, 4.7728075E-004, 1.3803046E-002, 4.5915292E+002
 1.5300173E+002, 1.3735548E-002, 1.9967303E-001, 6.5082774E-002, 3.2153151E-003, 4.8314015E-004, 1.3810243E-002, 4.5903122E+002
 1.5400261E+002, 1.3368329E-002, 1.9989191E-001, 6.5204245E-002, 3.3220887E-003, 4.9217534E-004, 1.3847565E-002, 4.5859226E+002
