s,,,,,,,
Time,"O2 EXHAUST","CO2 EXHAUST","H2O EXHAUST","CO EXHAUST","FUEL EXHAUST","SOOT EXHAUST","TEMP EXHAUST"
 0.0000000E+000, 2.3099739E-001, 5.9146498E-004, 5.9412091E-003, 0.0000000E+000, 0.0000000E+000, 0.0000000E+000, 2.0000000E+001
 1.0007231E+000, 2.3099739E-001, 5.9146498E-004, 5.9412091E-003, 7.7722918E-033, 3.9194801E-032, 3.1503525E-033, 2.0183139E+001
 2.0029984E+000, 2.2606287E-001, 4.2914125E-003, 8.0310132E-003, 1.8750688E-005, 3.0924729E-004, 3.3313389E-005, 6.9951657E+001
 3.0036668E+000, 2.2435700E-001, 5.5707239E-003, 8.7743031E-003, 4.1041976E-005, 2.8657657E-004, 4.8252257E-005, 8.5904692E+001
 4.0045506E+000, 2.1949898E-001, 9.2448454E-003, 1.0849675E-002, 5.9002742E-005, 4.1751578E-004, 8.1189672E-005, 1.3266252E+002
 5.0068789E+000, 2.1733147E-001, 1.0894607E-002, 1.1779953E-002, 6.5582057E-005, 4.2863702E-004, 9.5657616E-005, 1.5263839E+002
 6.0066993E+000, 2.1364505E-001, 1.3658197E-002, 1.3361687E-002, 9.5485427E-005, 5.3361571E-004, 1.2398005E-004, 1.8547035E+002
 7.0060386E+000, 2.0991079E-001, 1.6519870E-002, 1.4963757E-002, 9.7578075E-005, 5.1849270E-004, 1.4705913E-004, 2.1557903E+002
 8.0077804E+000, 2.0716816E-001, 1.8589846E-002, 1.6137339E-002, 1.1110921E-004, 5.8898741E-004, 1.6635423E-004, 2.3799517E+002
 9.0055903E+000, 2.0357682E-001, 2.1332388E-002, 1.7681422E-002, 1.1999421E-004, 5.7271815E-004, 1.8996126E-004, 2.6496464E+002
 1.0006705E+001, 1.9804269E-001, 2.5587896E-002, 2.0062194E-002, 1.2152003E-004, 4.8121627E-004, 2.2393790E-004, 3.0017393E+002
 1.1002641E+001, 1.9372960E-001, 2.8913641E-002, 2.1915931E-002, 1.1724374E-004, 4.0261189E-004, 2.4930769E-004, 3.2581846E+002
 1.2003848E+001, 1.8982835E-001, 3.1921734E-002, 2.3592245E-002, 1.1309728E-004, 3.3429762E-004, 2.7219406E-004, 3.4396978E+002
 1.3003866E+001, 1.8425029E-001, 3.6228402E-002, 2.5987884E-002, 1.0371987E-004, 2.3271234E-004, 3.0421567E-004, 3.6945253E+002
 1.4004050E+001, 1.8053279E-001, 3.9094804E-002, 2.7584300E-002, 9.9052804E-005, 1.7347525E-004, 3.2586912E-004, 3.8311085E+002
 1.5001656E+001, 1.7442774E-001, 4.3794975E-002, 3.0204268E-002, 9.3291787E-005, 1.0106539E-004, 3.6178476E-004, 4.0464568E+002
 1.6003876E+001, 1.7046700E-001, 4.6841077E-002, 3.1904177E-002, 9.1124549E-005, 5.9408259E-005, 3.8540009E-004, 4.1460688E+002
 1.7004252E+001, 1.6612357E-001, 5.0170666E-002, 3.3767717E-002, 9.3161523E-005, 3.8835701E-005, 4.1216675E-004, 4.1780134E+002
 1.8001253E+001, 1.6239013E-001, 5.3031831E-002, 3.5369399E-002, 9.5171656E-005, 2.3665420E-005, 4.3522395E-004, 4.2548267E+002
 1.9005682E+001, 1.5880313E-001, 5.5778851E-002, 3.6908172E-002, 9.7903658E-005, 1.3423335E-005, 4.5753488E-004, 4.2822168E+002
 2.0003574E+001, 1.5552072E-001, 5.8290624E-002, 3.8316267E-002, 1.0128744E-004, 8.0324878E-006, 4.7812687E-004, 4.3127559E+002
 2.1007813E+001, 1.5123220E-001, 6.1571544E-002, 4.0155830E-002, 1.0594419E-004, 3.3265156E-006, 5.0507572E-004, 4.3918307E+002
 2.2005163E+001, 1.4847057E-001, 6.3682968E-002, 4.1340432E-002, 1.0955307E-004, 2.9589957E-006, 5.2255101E-004, 4.3711573E+002
 2.3006529E+001, 1.4493434E-001, 6.6386812E-002, 4.2857274E-002, 1.1406696E-004, 2.2289897E-006, 5.4490622E-004, 4.3721490E+002
 2.4008049E+001, 1.4289480E-001, 6.7946183E-002, 4.3732136E-002, 1.1672083E-004, 1.9181346E-006, 5.5780994E-004, 4.3221664E+002
 2.5008861E+001, 1.3973179E-001, 7.0364600E-002, 4.5088885E-002, 1.2078312E-004, 1.4224612E-006, 5.7781065E-004, 4.3701956E+002
 2.6010076E+001, 1.3569419E-001, 7.3451604E-002, 4.6820798E-002, 1.2603294E-004, 9.0065098E-007, 6.0335463E-004, 4.4219581E+002
 2.7003835E+001, 1.3363777E-001, 7.5023947E-002, 4.7702859E-002, 1.2864707E-004, 6.9367223E-007, 6.1635233E-004, 4.4202877E+002
 2.8009150E+001, 1.3149288E-001, 7.6663593E-002, 4.8622919E-002, 1.3156698E-004, 8.4922462E-007, 6.2994834E-004, 4.4089272E+002
 2.9001575E+001, 1.2908774E-001, 7.8502549E-002, 4.9654579E-002, 1.3464985E-004, 5.0486312E-007, 6.4515549E-004, 4.4157775E+002
 3.0005685E+001, 1.2690118E-001, 8.0174144E-002, 5.0592503E-002, 1.3757569E-004, 5.5043749E-007, 6.5900539E-004, 4.3923650E+002
 3.1007853E+001, 1.2458662E-001, 8.1943574E-002, 5.1585330E-002, 1.4067963E-004, 6.1672557E-007, 6.7366738E-004, 4.3591489E+002
 3.2001419E+001, 1.2204752E-001, 8.3884815E-002, 5.2674468E-002, 1.4401037E-004, 4.1413653E-007, 6.8973691E-004, 4.4058936E+002
 3.3005900E+001, 1.1992613E-001, 8.5506713E-002, 5.3584407E-002, 1.4676985E-004, 3.9354082E-007, 7.0315787E-004, 4.3686696E+002
 3.4007597E+001, 1.1841821E-001, 8.6659445E-002, 5.4231232E-002, 1.4881386E-004, 4.6139312E-007, 7.1271446E-004, 4.3504381E+002
 3.5006388E+001, 1.1772830E-001, 8.7186897E-002, 5.4527165E-002, 1.4972236E-004, 4.5202618E-007, 7.1708146E-004, 4.3534312E+002
 3.6005613E+001, 1.1457520E-001, 8.9597508E-002, 5.5879674E-002, 1.5388316E-004, 3.5959935E-007, 7.3704176E-004, 4.3775456E+002
 3.7004502E+001, 1.1332721E-001, 9.0551567E-002, 5.6414989E-002, 1.5555157E-004, 4.3355887E-007, 7.4494623E-004, 4.3499927E+002
 3.8007951E+001, 1.1206609E-001, 9.1515721E-002, 5.6955936E-002, 1.5721068E-004, 4.3082491E-007, 7.5292851E-004, 4.3301127E+002
 3.9006594E+001, 1.0956035E-001, 9.3431335E-002, 5.8030781E-002, 1.6056599E-004, 3.6260395E-007, 7.6880073E-004, 4.3575190E+002
 4.0006487E+001, 1.0780194E-001, 9.4775503E-002, 5.8785082E-002, 1.6299354E-004, 3.9456483E-007, 7.7995394E-004, 4.3119095E+002
 4.1005634E+001, 1.0611057E-001, 9.6068740E-002, 5.9510547E-002, 1.6512648E-004, 3.2194625E-007, 7.9064071E-004, 4.3473709E+002
 4.2002143E+001, 1.0544943E-001, 9.6574105E-002, 5.9794156E-002, 1.6605208E-004, 3.7748318E-007, 7.9483676E-004, 4.3064362E+002
 4.3006220E+001, 1.0361416E-001, 9.7977118E-002, 6.0581403E-002, 1.6852556E-004, 3.6871659E-007, 8.0646519E-004, 4.2924897E+002
 4.4004341E+001, 1.0204698E-001, 9.9175323E-002, 6.1253615E-002, 1.7054751E-004, 3.3933612E-007, 8.1637655E-004, 4.3038705E+002
 4.5004513E+001, 1.0094318E-001, 1.0001932E-001, 6.1727048E-002, 1.7192103E-004, 3.0300660E-007, 8.2334700E-004, 4.3201436E+002
 4.6003576E+001, 9.8389144E-002, 1.0196618E-001, 6.2824189E-002, 1.7910662E-004, 1.6735722E-006, 8.4029514E-004, 4.3134819E+002
 4.7004035E+001, 9.7894497E-002, 1.0234314E-001, 6.3036656E-002, 1.8052534E-004, 2.2336505E-006, 8.4358266E-004, 4.3069557E+002
 4.8007354E+001, 9.6123237E-002, 1.0369144E-001, 6.3798026E-002, 1.8672384E-004, 3.8495228E-006, 8.5558462E-004, 4.2879795E+002
 4.9005172E+001, 9.4723336E-002, 1.0475409E-001, 6.4400569E-002, 1.9357602E-004, 6.0334127E-006, 8.6546943E-004, 4.2808104E+002
 5.0008705E+001, 9.2851406E-002, 1.0617013E-001, 6.5207591E-002, 2.0595343E-004, 1.0537324E-005, 8.7934413E-004, 4.2917696E+002
 5.1008366E+001, 9.2253988E-002, 1.0662699E-001, 6.5463826E-002, 2.0666844E-004, 1.0427471E-005, 8.8311109E-004, 4.3089929E+002
 5.2001955E+001, 9.0393902E-002, 1.0802634E-001, 6.6267841E-002, 2.2405576E-004, 1.7144215E-005, 8.9793799E-004, 4.2737715E+002
 5.3006637E+001, 8.8387155E-002, 1.0954226E-001, 6.7133524E-002, 2.3868649E-004, 2.2785680E-005, 9.1309000E-004, 4.3496073E+002
 5.4002250E+001, 8.7613070E-002, 1.1012208E-001, 6.7468787E-002, 2.4757180E-004, 2.6431101E-005, 9.1959726E-004, 4.2728795E+002
 5.5006520E+001, 8.6477059E-002, 1.1096944E-001, 6.7961872E-002, 2.6303355E-004, 3.2176325E-005, 9.2964301E-004, 4.2955934E+002
 5.6005722E+001, 8.5742277E-002, 1.1152479E-001, 6.8278415E-002, 2.6792902E-004, 3.6345102E-005, 9.3509342E-004, 4.3096242E+002
 5.7005013E+001, 8.3965854E-002, 1.1286240E-001, 6.9045839E-002, 2.8366719E-004, 4.3047805E-005, 9.4907527E-004, 4.2603334E+002
 5.8000592E+001, 8.3189191E-002, 1.1344531E-001, 6.9381714E-002, 2.9167389E-004, 4.7531335E-005, 9.5541686E-004, 4.2565340E+002
 5.9002664E+001, 8.1205653E-002, 1.1493042E-001, 7.0241410E-002, 3.1519524E-004, 5.4359813E-005, 9.7224921E-004, 4.2964316E+002
 6.0000861E+001, 8.0521544E-002, 1.1543400E-001, 7.0539612E-002, 3.2849588E-004, 6.3210876E-005, 9.7910914E-004, 4.2458414E+002
 6.1002157E+001, 8.0079670E-002, 1.1578314E-001, 7.0725963E-002, 3.2153809E-004, 6.0615482E-005, 9.8036403E-004, 4.2193052E+002
 6.2007346E+001, 7.7646039E-002, 1.1762343E-001, 7.1775433E-002, 3.3814817E-004, 6.5991204E-005, 9.9850902E-004, 4.3116203E+002
 6.3001650E+001, 7.7559083E-002, 1.1767670E-001, 7.1815782E-002, 3.4654901E-004, 7.3144284E-005, 1.0007482E-003, 4.2426345E+002
 6.4001663E+001, 7.5810579E-002, 1.1898170E-001, 7.2574771E-002, 3.7002938E-004, 8.0109646E-005, 1.0161477E-003, 4.2878756E+002
 6.5006477E+001, 7.5944763E-002, 1.1887462E-001, 7.2518038E-002, 3.7250945E-004, 8.3877230E-005, 1.0158377E-003, 4.2813014E+002
 6.6004042E+001, 7.4012044E-002, 1.2034120E-001, 7.3350064E-002, 3.8231945E-004, 8.7004681E-005, 1.0295564E-003, 4.2662441E+002
 6.7005542E+001, 7.2852836E-002, 1.2122273E-001, 7.3848345E-002, 3.8676659E-004, 8.9775191E-005, 1.0374888E-003, 4.3013310E+002
 6.8006918E+001, 7.2227214E-002, 1.2169161E-001, 7.4118780E-002, 3.9342830E-004, 9.5477296E-005, 1.0426376E-003, 4.2645710E+002
 6.9006975E+001, 7.0733916E-002, 1.2281230E-001, 7.4765202E-002, 4.0934085E-004, 1.0035814E-004, 1.0549421E-003, 4.2443739E+002
 7.0006318E+001, 6.9389728E-002, 1.2381953E-001, 7.5347465E-002, 4.2466339E-004, 1.0541476E-004, 1.0662218E-003, 4.2765614E+002
 7.1002514E+001, 6.8900326E-002, 1.2418529E-001, 7.5559440E-002, 4.3065686E-004, 1.0926279E-004, 1.0704108E-003, 4.2931304E+002
 7.2008350E+001, 6.7965448E-002, 1.2490938E-001, 7.5957828E-002, 4.2567164E-004, 1.0704883E-004, 1.0750571E-003, 4.2414123E+002
 7.3009218E+001, 6.5958813E-002, 1.2640982E-001, 7.6827720E-002, 4.5049142E-004, 1.1666232E-004, 1.0922917E-003, 4.3015029E+002
 7.4006669E+001, 6.5179884E-002, 1.2700180E-001, 7.7162639E-002, 4.5372060E-004, 1.1863003E-004, 1.0976711E-003, 4.3424893E+002
 7.5009216E+001, 6.4412611E-002, 1.2756497E-001, 7.7497943E-002, 4.7001981E-004, 1.2649211E-004, 1.1056511E-003, 4.2427457E+002
 7.6008247E+001, 6.4298453E-002, 1.2765573E-001, 7.7545911E-002, 4.6783516E-004, 1.2579778E-004, 1.1058959E-003, 4.2608158E+002
 7.7008382E+001, 6.3290931E-002, 1.2840965E-001, 7.7982895E-002, 4.8021092E-004, 1.2820435E-004, 1.1145351E-003, 4.2605958E+002
 7.8006996E+001, 6.3105127E-002, 1.2855151E-001, 7.8062768E-002, 4.8067359E-004, 1.2749678E-004, 1.1157569E-003, 4.2248469E+002
 7.9003566E+001, 6.1549427E-002, 1.2974337E-001, 7.8729468E-002, 4.8113740E-004, 1.2631184E-004, 1.1252808E-003, 4.2304971E+002
 8.0006481E+001, 6.0836833E-002, 1.3029666E-001, 7.9032607E-002, 4.7631848E-004, 1.2518363E-004, 1.1286127E-003, 4.2409524E+002
 8.1001182E+001, 5.9782246E-002, 1.3107959E-001, 7.9491340E-002, 4.9309232E-004, 1.3166167E-004, 1.1384330E-003, 4.2752635E+002
 8.2000222E+001, 5.8722204E-002, 1.3187828E-001, 7.9949586E-002, 5.0248728E-004, 1.3279021E-004, 1.1467811E-003, 4.2601045E+002
 8.3003209E+001, 5.8910483E-002, 1.3174254E-001, 7.9866300E-002, 4.9661124E-004, 1.3225780E-004, 1.1444363E-003, 4.2264830E+002
 8.4005652E+001, 5.7510224E-002, 1.3280964E-001, 8.0467708E-002, 5.0059421E-004, 1.3417874E-004, 1.1537354E-003, 4.2940699E+002
 8.5002562E+001, 5.6645740E-002, 1.3347597E-001, 8.0836958E-002, 4.9809895E-004, 1.3318398E-004, 1.1584638E-003, 4.3042652E+002
 8.6007487E+001, 5.5827667E-002, 1.3409705E-001, 8.1188741E-002, 5.0181023E-004, 1.3633229E-004, 1.1641776E-003, 4.2543656E+002
 8.7004208E+001, 5.4419603E-002, 1.3515353E-001, 8.1798141E-002, 5.1682822E-004, 1.4218453E-004, 1.1757808E-003, 4.3083478E+002
 8.8005569E+001, 5.4418967E-002, 1.3516178E-001, 8.1796158E-002, 5.1160702E-004, 1.4086076E-004, 1.1747162E-003, 4.2356114E+002
 8.9009009E+001, 5.3963120E-002, 1.3549764E-001, 8.1995436E-002, 5.2076763E-004, 1.4257516E-004, 1.1793541E-003, 4.2399272E+002
 9.0007002E+001, 5.3323820E-002, 1.3598637E-001, 8.2269671E-002, 5.2163157E-004, 1.4254591E-004, 1.1834053E-003, 4.2316165E+002
 9.1009373E+001, 5.2828791E-002, 1.3637584E-001, 8.2478886E-002, 5.1493462E-004, 1.4018778E-004, 1.1850354E-003, 4.2229264E+002
 9.2007546E+001, 5.1085244E-002, 1.3768335E-001, 8.3234028E-002, 5.3425768E-004, 1.4539951E-004, 1.1995551E-003, 4.2642429E+002
 9.3008716E+001, 5.0530288E-002, 1.3808520E-001, 8.3478340E-002, 5.4988599E-004, 1.5079149E-004, 1.2061144E-003, 4.2423385E+002
 9.4007711E+001, 5.0266842E-002, 1.3828509E-001, 8.3591795E-002, 5.5126321E-004, 1.5098670E-004, 1.2079929E-003, 4.2495553E+002
 9.5003714E+001, 4.9900847E-002, 1.3854210E-001, 8.3755207E-002, 5.6692969E-004, 1.5616719E-004, 1.2134153E-003, 4.2605818E+002
 9.6004081E+001, 4.8932144E-002, 1.3928055E-001, 8.4171280E-002, 5.6959547E-004, 1.5693478E-004, 1.2198308E-003, 4.2819364E+002
 9.7002048E+001, 4.7997949E-002, 1.3999225E-001, 8.4572510E-002, 5.7235118E-004, 1.5869533E-004, 1.2260543E-003, 4.2748748E+002
 9.8007863E+001, 4.7372784E-002, 1.4045144E-001, 8.4846041E-002, 5.8573507E-004, 1.6240983E-004, 1.2325813E-003, 4.2602485E+002
 9.9000369E+001, 4.7506262E-002, 1.4033735E-001, 8.4792813E-002, 5.9406229E-004, 1.6121214E-004, 1.2334813E-003, 4.2452086E+002
 1.0000702E+002, 4.8704740E-002, 1.3942506E-001, 8.4276470E-002, 5.8896445E-004, 1.6742902E-004, 1.2251650E-003, 4.2338546E+002
 1.0100461E+002, 4.7909589E-002, 1.4006249E-001, 8.4609747E-002, 5.7074936E-004, 1.5751450E-004, 1.2262631E-003, 4.2983985E+002
 1.0200166E+002, 4.5938654E-002, 1.4154159E-001, 8.5462638E-002, 5.9155058E-004, 1.6585144E-004, 1.2424593E-003, 4.2461497E+002
 1.0300022E+002, 4.5100193E-002, 1.4216142E-001, 8.5828287E-002, 6.0678921E-004, 1.7047567E-004, 1.2506578E-003, 4.2669197E+002
 1.0400074E+002, 4.4675010E-002, 1.4250781E-001, 8.6004831E-002, 5.9327869E-004, 1.6456303E-004, 1.2504728E-003, 4.2772926E+002
 1.0500623E+002, 4.4465833E-002, 1.4265752E-001, 8.6097691E-002, 6.0054856E-004, 1.6526103E-004, 1.2532298E-003, 4.2119464E+002
 1.0600737E+002, 4.3411291E-002, 1.4345229E-001, 8.6554067E-002, 6.1018336E-004, 1.6280807E-004, 1.2615987E-003, 4.2475992E+002
 1.0700403E+002, 4.3724518E-002, 1.4321323E-001, 8.6418880E-002, 6.0895426E-004, 1.6716030E-004, 1.2594426E-003, 4.2452082E+002
 1.0800891E+002, 4.1978208E-002, 1.4453641E-001, 8.7172104E-002, 6.1979675E-004, 1.6486057E-004, 1.2722509E-003, 4.2222595E+002
 1.0900230E+002, 4.1497168E-002, 1.4490181E-001, 8.7378222E-002, 6.2132763E-004, 1.7087641E-004, 1.2754713E-003, 4.2716148E+002
 1.1000072E+002, 4.0549183E-002, 1.4561793E-001, 8.7787981E-002, 6.2885996E-004, 1.6852379E-004, 1.2827634E-003, 4.2337418E+002
 1.1100595E+002, 4.0825657E-002, 1.4540948E-001, 8.7667514E-002, 6.2574557E-004, 1.7438643E-004, 1.2804413E-003, 4.2703490E+002
 1.1200193E+002, 3.9905512E-002, 1.4608638E-001, 8.8070055E-002, 6.4493289E-004, 1.7812226E-004, 1.2899456E-003, 4.2430849E+002
 1.1300775E+002, 4.0217645E-002, 1.4585822E-001, 8.7932873E-002, 6.3728758E-004, 1.7790403E-004, 1.2864871E-003, 4.2798461E+002
 1.1400349E+002, 3.8796921E-002, 1.4695384E-001, 8.8539978E-002, 6.3313655E-004, 1.7351184E-004, 1.2942515E-003, 4.2721439E+002
 1.1500698E+002, 3.8423423E-002, 1.4723262E-001, 8.8702025E-002, 6.3808273E-004, 1.7546821E-004, 1.2975261E-003, 4.2670240E+002
 1.1600257E+002, 3.7707375E-002, 1.4774157E-001, 8.9020270E-002, 6.6485521E-004, 1.8257522E-004, 1.3073439E-003, 4.2725297E+002
 1.1700961E+002, 3.8872211E-002, 1.4686737E-001, 8.8515469E-002, 6.5202123E-004, 1.8230135E-004, 1.2976545E-003, 4.2440633E+002
 1.1800519E+002, 3.7348374E-002, 1.4801850E-001, 8.9173898E-002, 6.6394014E-004, 1.7995300E-004, 1.3093354E-003, 4.2433163E+002
 1.1900658E+002, 3.7111111E-002, 1.4819720E-001, 8.9276545E-002, 6.6613367E-004, 1.7984190E-004, 1.3112230E-003, 4.2765489E+002
 1.2000224E+002, 3.7195445E-002, 1.4811461E-001, 8.9244588E-002, 6.7741191E-004, 1.8944003E-004, 1.3130107E-003, 4.2969465E+002
 1.2100373E+002, 3.6591829E-002, 1.4860749E-001, 8.9495409E-002, 6.5786409E-004, 1.7765203E-004, 1.3126775E-003, 4.2660193E+002
 1.2200784E+002, 3.5708985E-002, 1.4924314E-001, 8.9885459E-002, 6.8542651E-004, 1.8477741E-004, 1.3236679E-003, 4.2291810E+002
 1.2300233E+002, 3.5490522E-002, 1.4942787E-001, 8.9973452E-002, 6.7336151E-004, 1.8523992E-004, 1.3225177E-003, 4.2825006E+002
 1.2400332E+002, 3.4815597E-002, 1.4992461E-001, 9.0268969E-002, 6.8752344E-004, 1.8595667E-004, 1.3295099E-003, 4.2534931E+002
 1.2500689E+002, 3.4655926E-002, 1.5006642E-001, 9.0331332E-002, 6.7415545E-004, 1.8497152E-004, 1.3277383E-003, 4.3279223E+002
 1.2600810E+002, 3.4173613E-002, 1.5038720E-001, 9.0552325E-002, 7.0718817E-004, 1.9214063E-004, 1.3374230E-003, 4.2818162E+002
 1.2700167E+002, 3.4138528E-002, 1.5043874E-001, 9.0560349E-002, 6.9072884E-004, 1.8693863E-004, 1.3342685E-003, 4.2413288E+002
 1.2800938E+002, 3.4122125E-002, 1.5047311E-001, 9.0561343E-002, 6.7629311E-004, 1.8131244E-004, 1.3314164E-003, 4.2824849E+002
 1.2900823E+002, 3.3259504E-002, 1.5108384E-001, 9.0944900E-002, 7.0975492E-004, 1.9357156E-004, 1.3434865E-003, 4.2461934E+002
 1.3000528E+002, 3.3006003E-002, 1.5129037E-001, 9.1050190E-002, 7.0172025E-004, 1.8982923E-004, 1.3433807E-003, 4.2569547E+002
 1.3100032E+002, 3.2610511E-002, 1.5157479E-001, 9.1225372E-002, 7.1455730E-004, 1.9088785E-004, 1.3484075E-003, 4.2811709E+002
 1.3200025E+002, 3.2311958E-002, 1.5180011E-001, 9.1353753E-002, 7.1651838E-004, 1.9469512E-004, 1.3506134E-003, 4.2664099E+002
 1.3300742E+002, 3.1454407E-002, 1.5244094E-001, 9.1725899E-002, 7.2760242E-004, 1.9716154E-004, 1.3580789E-003, 4.2541202E+002
 1.3400857E+002, 3.0920823E-002, 1.5280941E-001, 9.1966978E-002, 7.5541786E-004, 1.9939279E-004, 1.3670116E-003, 4.2981986E+002
 1.3500397E+002, 3.1143981E-002, 1.5265850E-001, 9.1864739E-002, 7.4126331E-004, 2.0091610E-004, 1.3627553E-003, 4.2531349E+002
 1.3600645E+002, 3.0876989E-002, 1.5286468E-001, 9.1978620E-002, 7.4019505E-004, 2.0083628E-004, 1.3641544E-003, 4.2528164E+002
 1.3700633E+002, 3.1634572E-002, 1.5228992E-001, 9.1652258E-002, 7.3613341E-004, 2.0081428E-004, 1.3587309E-003, 4.2098151E+002
 1.3800242E+002, 3.0715956E-002, 1.5301750E-001, 9.2039131E-002, 7.2047601E-004, 1.9530197E-004, 1.3610954E-003, 4.2501773E+002
 1.3900609E+002, 3.0266019E-002, 1.5336940E-001, 9.2230407E-002, 7.1618584E-004, 1.9035094E-004, 1.3629493E-003, 4.2687954E+002
 1.4000147E+002, 3.0048546E-002, 1.5354421E-001, 9.2320897E-002, 7.1048623E-004, 1.9080274E-004, 1.3630980E-003, 4.2767250E+002
 1.4100403E+002, 2.9629785E-002, 1.5380414E-001, 9.2517753E-002, 7.5134831E-004, 2.0279914E-004, 1.3739959E-003, 4.2716427E+002
 1.4200923E+002, 2.9748405E-002, 1.5373902E-001, 9.2459689E-002, 7.3418011E-004, 1.9688769E-004, 1.3697658E-003, 4.2710690E+002
 1.4300211E+002, 3.1111153E-002, 1.5269166E-001, 9.1876597E-002, 7.3597692E-004, 1.9880076E-004, 1.3618735E-003, 4.2603252E+002
 1.4400563E+002, 2.9742087E-002, 1.5370852E-001, 9.2472416E-002, 7.5776490E-004, 2.0449713E-004, 1.3746285E-003, 4.2499055E+002
 1.4500486E+002, 2.9055197E-002, 1.5424200E-001, 9.2765345E-002, 7.5360652E-004, 1.9861405E-004, 1.3779466E-003, 4.2617921E+002
 1.4600892E+002, 2.7739316E-002, 1.5517933E-001, 9.3350399E-002, 8.0205541E-004, 2.0634222E-004, 1.3958422E-003, 4.2659297E+002
 1.4700804E+002, 2.8168371E-002, 1.5488686E-001, 9.3155759E-002, 7.7736573E-004, 2.0190385E-004, 1.3881869E-003, 4.2412781E+002
 1.4800940E+002, 2.8089151E-002, 1.5494690E-001, 9.3189281E-002, 7.7735480E-004, 2.0577218E-004, 1.3886593E-003, 4.2563551E+002
 1.4900664E+002, 2.7146536E-002, 1.5564242E-001, 9.3601533E-002, 7.9597856E-004, 2.0622940E-004, 1.3981887E-003, 4.3018274E+002
 1.5000241E+002, 2.7798277E-002, 1.5516042E-001, 9.3316156E-002, 7.8334194E-004, 2.1019424E-004, 1.3916431E-003, 4.2868051E+002
 1.5100973E+002, 2.6783258E-002, 1.5593272E-001, 9.3753378E-002, 7.8775214E-004, 2.0610258E-004, 1.3987038E-003, 4.2502157E+002
 1.5200175E+002, 2.6842380E-002, 1.5588913E-001, 9.3726918E-002, 7.8610726E-004, 2.0974066E-004, 1.3980032E-003, 4.2730247E+002
 1.5300605E+002, 2.6380369E-002, 1.5623356E-001, 9.3928625E-002, 7.9337396E-004, 2.0519291E-004, 1.4022990E-003, 4.2917243E+002
 1.5400290E+002, 2.6200992E-002, 1.5637137E-001, 9.4005028E-002, 7.9289624E-004, 2.0720720E-004, 1.4032853E-003, 4.2563629E+002
