s,,,,,,,
Time,"O2 EXHAUST","CO2 EXHAUST","H2O EXHAUST","CO EXHAUST","FUEL EXHAUST","SOOT EXHAUST","TEMP EXHAUST"
 0.0000000E+000, 2.3099739E-001, 5.9146498E-004, 5.9412092E-003, 0.0000000E+000, 0.0000000E+000, 0.0000000E+000, 2.0000000E+001
 1.0017460E+000, 2.3099739E-001, 5.9146498E-004, 5.9412092E-003, 2.4165308E-033, 3.9913066E-032, 7.6712984E-034, 2.0471850E+001
 2.0044500E+000, 2.2384800E-001, 6.1709485E-003, 1.0603959E-002, 1.1094169E-005, 1.7023700E-004, 3.4747952E-005, 9.3193729E+001
 3.0052953E+000, 2.1892904E-001, 1.0018882E-002, 1.3829415E-002, 2.3575001E-005, 1.9923071E-004, 5.9747342E-005, 1.3991213E+002
 4.0007520E+000, 2.1425297E-001, 1.3673074E-002, 1.6890043E-002, 3.4247944E-005, 2.5661484E-004, 8.3235242E-005, 1.8433805E+002
 5.0027505E+000, 2.1076588E-001, 1.6413487E-002, 1.9177525E-002, 3.8045082E-005, 2.4797822E-004, 9.9947523E-005, 2.1365039E+002
 6.0022067E+000, 2.0554875E-001, 2.0509341E-002, 2.2597089E-002, 4.4122658E-005, 2.5466950E-004, 1.2501223E-004, 2.5636131E+002
 7.0012308E+000, 2.0177319E-001, 2.3485206E-002, 2.5073126E-002, 4.4046911E-005, 2.3030431E-004, 1.4226004E-004, 2.8554326E+002
 8.0036110E+000, 1.9604335E-001, 2.8018421E-002, 2.8833595E-002, 3.7894020E-005, 1.4766232E-004, 1.6723946E-004, 3.2403101E+002
 9.0049370E+000, 1.9064771E-001, 3.2282565E-002, 3.2373795E-002, 3.3672085E-005, 8.3030193E-005, 1.9107196E-004, 3.5811100E+002
 1.0001752E+001, 1.8555443E-001, 3.6305661E-002, 3.5714835E-002, 3.0212218E-005, 2.9348233E-005, 2.1366948E-004, 3.8034908E+002
 1.1006036E+001, 1.7842605E-001, 4.1919331E-002, 4.0387468E-002, 3.1079464E-005, 2.0584053E-006, 2.4642238E-004, 4.1192984E+002
 1.2001525E+001, 1.7372869E-001, 4.5612884E-002, 4.3465452E-002, 3.3565984E-005, 3.0156683E-008, 2.6838321E-004, 4.2471510E+002
 1.3002033E+001, 1.6853885E-001, 4.9692838E-002, 4.6866001E-002, 3.6612418E-005, 2.7967626E-008, 2.9270575E-004, 4.4167905E+002
 1.4000942E+001, 1.6302296E-001, 5.4029109E-002, 5.0480186E-002, 3.9850259E-005, 3.4104056E-008, 3.1855634E-004, 4.5198762E+002
 1.5000632E+001, 1.6017217E-001, 5.6270241E-002, 5.2348108E-002, 4.1517840E-005, 3.3787005E-008, 3.3191554E-004, 4.5412203E+002
 1.6004810E+001, 1.5314259E-001, 6.1796473E-002, 5.6954121E-002, 4.5656274E-005, 4.4310905E-008, 3.6486262E-004, 4.7038174E+002
 1.7004322E+001, 1.4946329E-001, 6.4688954E-002, 5.9364904E-002, 4.7797620E-005, 3.3067863E-008, 3.8210213E-004, 4.7275664E+002
 1.8002496E+001, 1.4635908E-001, 6.7129308E-002, 6.1398875E-002, 4.9615300E-005, 3.4412413E-008, 3.9664928E-004, 4.7581069E+002
 1.9000407E+001, 1.4351433E-001, 6.9365698E-002, 6.3262843E-002, 5.1278697E-005, 3.1954444E-008, 4.0998007E-004, 4.7121639E+002
 2.0003673E+001, 1.3923422E-001, 7.2730473E-002, 6.6067305E-002, 5.3789688E-005, 3.7267428E-008, 4.3003879E-004, 4.7831228E+002
 2.1004182E+001, 1.3592298E-001, 7.5333596E-002, 6.8236938E-002, 5.5727017E-005, 2.4647117E-008, 4.4555588E-004, 4.7553807E+002
 2.2003635E+001, 1.3230952E-001, 7.8174295E-002, 7.0604580E-002, 5.7839701E-005, 2.5973168E-008, 4.6248883E-004, 4.7893903E+002
 2.3006653E+001, 1.3075036E-001, 7.9400040E-002, 7.1626190E-002, 5.8744231E-005, 2.3047658E-008, 4.6979378E-004, 4.7599809E+002
 2.4000915E+001, 1.2751862E-001, 8.1940592E-002, 7.3743745E-002, 6.0673472E-005, 4.6306715E-008, 4.8494614E-004, 4.7794176E+002
 2.5005241E+001, 1.2487711E-001, 8.4017238E-002, 7.5474533E-002, 6.2198080E-005, 3.4315571E-008, 4.9732044E-004, 4.7617710E+002
 2.6004629E+001, 1.2292875E-001, 8.5548937E-002, 7.6751154E-002, 6.3333590E-005, 2.5022184E-008, 5.0644987E-004, 4.7671576E+002
 2.7002332E+001, 1.2033865E-001, 8.7585032E-002, 7.8448302E-002, 6.4910587E-005, 7.5875846E-008, 5.1860015E-004, 4.7812513E+002
 2.8004352E+001, 1.1803745E-001, 8.9394201E-002, 7.9956088E-002, 6.6201331E-005, 2.3639276E-008, 5.2937258E-004, 4.7515810E+002
 2.9001875E+001, 1.1610501E-001, 9.0913383E-002, 8.1222281E-002, 6.7329841E-005, 2.3079923E-008, 5.3842789E-004, 4.7511679E+002
 3.0004588E+001, 1.1358107E-001, 9.2897550E-002, 8.2876043E-002, 6.8812906E-005, 2.8591886E-008, 5.5025678E-004, 4.7170158E+002
 3.1000942E+001, 1.1148448E-001, 9.4545691E-002, 8.4249826E-002, 7.0093014E-005, 6.7161350E-008, 5.6009274E-004, 4.7741232E+002
 3.2003883E+001, 1.0961893E-001, 9.6012371E-002, 8.5472160E-002, 7.1130266E-005, 2.4687472E-008, 5.6882390E-004, 4.7132610E+002
 3.3000360E+001, 1.0741301E-001, 9.7746507E-002, 8.6917568E-002, 7.2448551E-005, 3.5481950E-008, 5.7916694E-004, 4.7166615E+002
 3.4007988E+001, 1.0464829E-001, 9.9919964E-002, 8.8729097E-002, 7.4072321E-005, 4.5526431E-008, 5.9212414E-004, 4.7745546E+002
 3.5001057E+001, 1.0248664E-001, 1.0161933E-001, 9.0145481E-002, 7.5342863E-005, 5.6049158E-008, 6.0225520E-004, 4.7609948E+002
 3.6003847E+001, 1.0142370E-001, 1.0245499E-001, 9.0841934E-002, 7.5937001E-005, 2.6405643E-008, 6.0723062E-004, 4.7300497E+002
 3.7007967E+001, 9.9224952E-002, 1.0418352E-001, 9.2282622E-002, 7.7228158E-005, 3.3979321E-008, 6.1753529E-004, 4.7603278E+002
 3.8007267E+001, 9.6968585E-002, 1.0595730E-001, 9.3761085E-002, 7.8583800E-005, 5.6813522E-008, 6.2811631E-004, 4.7510875E+002
 3.9007548E+001, 9.6145066E-002, 1.0660475E-001, 9.4300664E-002, 7.9038563E-005, 3.2153348E-008, 6.3196990E-004, 4.7306918E+002
 4.0003137E+001, 9.3974960E-002, 1.0831076E-001, 9.5722588E-002, 8.0313668E-005, 3.2842959E-008, 6.4214051E-004, 4.7093656E+002
 4.1006475E+001, 9.1918610E-002, 1.0992730E-001, 9.7069988E-002, 8.1546921E-005, 6.2984502E-008, 6.5178310E-004, 4.7410275E+002
 4.2001069E+001, 8.9858732E-002, 1.1154669E-001, 9.8419675E-002, 8.2734355E-005, 3.5428847E-008, 6.6143241E-004, 4.7344113E+002
 4.3006068E+001, 8.7486117E-002, 1.1341191E-001, 9.9974281E-002, 8.4118740E-005, 3.8781064E-008, 6.7255011E-004, 4.8011819E+002
 4.4005856E+001, 8.5963012E-002, 1.1460921E-001, 1.0097230E-001, 8.5062959E-005, 6.7499327E-008, 6.7969855E-004, 4.7476356E+002
 4.5006170E+001, 8.6053332E-002, 1.1453829E-001, 1.0091309E-001, 8.4961201E-005, 3.7996804E-008, 6.7926525E-004, 4.7654501E+002
 4.6008112E+001, 8.3929172E-002, 1.1620816E-001, 1.0230491E-001, 8.6218229E-005, 4.2195981E-008, 6.8922236E-004, 4.7633110E+002
 4.7000107E+001, 8.1957602E-002, 1.1775791E-001, 1.0359683E-001, 8.7499438E-005, 1.1730154E-007, 6.9848771E-004, 4.7499593E+002
 4.8002440E+001, 7.9934857E-002, 1.1934735E-001, 1.0492249E-001, 8.9153526E-005, 3.7163812E-007, 7.0806335E-004, 4.7046490E+002
 4.9008558E+001, 7.8343559E-002, 1.2059605E-001, 1.0596611E-001, 9.1576620E-005, 1.2082360E-006, 7.1582703E-004, 4.7500549E+002
 5.0002693E+001, 7.7316034E-002, 1.2140289E-001, 1.0663968E-001, 9.2748046E-005, 1.8669499E-006, 7.2075901E-004, 4.7532679E+002
 5.1005189E+001, 7.6674529E-002, 1.2190662E-001, 1.0706026E-001, 9.3506804E-005, 2.0754835E-006, 7.2384400E-004, 4.7101170E+002
 5.2006120E+001, 7.4726052E-002, 1.2343060E-001, 1.0834005E-001, 9.9646456E-005, 5.5031624E-006, 7.3400156E-004, 4.7181362E+002
 5.3005069E+001, 7.3437109E-002, 1.2443963E-001, 1.0918607E-001, 1.0301918E-004, 8.2340546E-006, 7.4057851E-004, 4.6858735E+002
 5.4001968E+001, 7.1210172E-002, 1.2617733E-001, 1.1065055E-001, 1.1273687E-004, 1.3210054E-005, 7.5274310E-004, 4.7794719E+002
 5.5001565E+001, 7.0336697E-002, 1.2685124E-001, 1.1122783E-001, 1.2138059E-004, 1.9175415E-005, 7.5850596E-004, 4.7602637E+002
 5.6006042E+001, 6.9183912E-002, 1.2774446E-001, 1.1198775E-001, 1.3011058E-004, 2.7148258E-005, 7.6555970E-004, 4.7347727E+002
 5.7004182E+001, 6.9047832E-002, 1.2784964E-001, 1.1207825E-001, 1.3166102E-004, 2.5449909E-005, 7.6650228E-004, 4.6650474E+002
 5.8005593E+001, 6.6350588E-002, 1.2995106E-001, 1.1385244E-001, 1.4508473E-004, 3.6337667E-005, 7.8157157E-004, 4.7386354E+002
 5.9000364E+001, 6.5479037E-002, 1.3062486E-001, 1.1442790E-001, 1.5281940E-004, 4.1721566E-005, 7.8713894E-004, 4.7424040E+002
 6.0007811E+001, 6.4445652E-002, 1.3143205E-001, 1.1510720E-001, 1.5683239E-004, 4.3420913E-005, 7.9268213E-004, 4.7080356E+002
 6.1004493E+001, 6.3858812E-002, 1.3187859E-001, 1.1549731E-001, 1.6652214E-004, 5.0913758E-005, 7.9735027E-004, 4.7240835E+002
 6.2006956E+001, 6.2608291E-002, 1.3285429E-001, 1.1631908E-001, 1.7171425E-004, 5.6281032E-005, 8.0412394E-004, 4.7567850E+002
 6.3005057E+001, 6.2016186E-002, 1.3331600E-001, 1.1670820E-001, 1.7430503E-004, 5.9319043E-005, 8.0735793E-004, 4.6954881E+002
 6.4004470E+001, 6.1103424E-002, 1.3401668E-001, 1.1731305E-001, 1.8570671E-004, 6.6269384E-005, 8.1386746E-004, 4.7307641E+002
 6.5001635E+001, 6.1043581E-002, 1.3406530E-001, 1.1735114E-001, 1.8448005E-004, 6.7572645E-005, 8.1388653E-004, 4.7585360E+002
 6.6002586E+001, 5.8538646E-002, 1.3601768E-001, 1.1899940E-001, 1.9688587E-004, 7.3805804E-005, 8.2787296E-004, 4.7123789E+002
 6.7003466E+001, 5.8332748E-002, 1.3617169E-001, 1.1913663E-001, 2.0163730E-004, 8.0425723E-005, 8.2978516E-004, 4.7283189E+002
 6.8005457E+001, 5.7762855E-002, 1.3662382E-001, 1.1950802E-001, 1.9913789E-004, 8.0186738E-005, 8.3187226E-004, 4.7405928E+002
 6.9005879E+001, 5.6091791E-002, 1.3791963E-001, 1.2061006E-001, 2.1159164E-004, 8.7874188E-005, 8.4205992E-004, 4.7243654E+002
 7.0003888E+001, 5.5355927E-002, 1.3848389E-001, 1.2109673E-001, 2.2056500E-004, 9.8611152E-005, 8.4725740E-004, 4.7034750E+002
 7.1007483E+001, 5.5118286E-002, 1.3866494E-001, 1.2125509E-001, 2.2459313E-004, 9.9634072E-005, 8.4917137E-004, 4.7036963E+002
 7.2008575E+001, 5.4011645E-002, 1.3953165E-001, 1.2198118E-001, 2.2717788E-004, 1.0231589E-004, 8.5475367E-004, 4.7237981E+002
 7.3004217E+001, 5.3452517E-002, 1.3996677E-001, 1.2234914E-001, 2.3026306E-004, 1.0486511E-004, 8.5793950E-004, 4.7077343E+002
 7.4004524E+001, 5.1819209E-002, 1.4123732E-001, 1.2342450E-001, 2.3976519E-004, 1.1137837E-004, 8.6734778E-004, 4.7285978E+002
 7.5004482E+001, 5.1716110E-002, 1.4131497E-001, 1.2349284E-001, 2.4172188E-004, 1.1512130E-004, 8.6821775E-004, 4.7007051E+002
 7.6007045E+001, 4.9917548E-002, 1.4271909E-001, 1.2467573E-001, 2.4933438E-004, 1.1723075E-004, 8.7799576E-004, 4.7512255E+002
 7.7000736E+001, 4.9791874E-002, 1.4281302E-001, 1.2475944E-001, 2.5223725E-004, 1.2163309E-004, 8.7916309E-004, 4.7097936E+002
 7.8006588E+001, 4.8436965E-002, 1.4387617E-001, 1.2564828E-001, 2.5445150E-004, 1.2144263E-004, 8.8580556E-004, 4.7154886E+002
 7.9007089E+001, 4.8216358E-002, 1.4403447E-001, 1.2579796E-001, 2.6383745E-004, 1.3145649E-004, 8.8873637E-004, 4.7114655E+002
 8.0003085E+001, 4.7987323E-002, 1.4422168E-001, 1.2594590E-001, 2.5974388E-004, 1.2552029E-004, 8.8894475E-004, 4.7392103E+002
 8.1002598E+001, 4.6046483E-002, 1.4571810E-001, 1.2723035E-001, 2.8026870E-004, 1.3376190E-004, 9.0202672E-004, 4.7450651E+002
 8.2002106E+001, 4.6808042E-002, 1.4513691E-001, 1.2672250E-001, 2.6762850E-004, 1.3385019E-004, 8.9594488E-004, 4.7087515E+002
 8.3003819E+001, 4.5672293E-002, 1.4602732E-001, 1.2746774E-001, 2.6990901E-004, 1.3456350E-004, 9.0159946E-004, 4.7225417E+002
 8.4002211E+001, 4.4315345E-002, 1.4707798E-001, 1.2836337E-001, 2.8109317E-004, 1.4100426E-004, 9.1009267E-004, 4.7467986E+002
 8.5006393E+001, 4.3300950E-002, 1.4785030E-001, 1.2903822E-001, 2.9790797E-004, 1.5101562E-004, 9.1817846E-004, 4.7176695E+002
 8.6000912E+001, 4.4383780E-002, 1.4701455E-001, 1.2832173E-001, 2.8690939E-004, 1.4767034E-004, 9.1097174E-004, 4.6887643E+002
 8.7005862E+001, 4.3820246E-002, 1.4746393E-001, 1.2868871E-001, 2.8329395E-004, 1.4385975E-004, 9.1280360E-004, 4.7200685E+002
 8.8003431E+001, 4.2433390E-002, 1.4854993E-001, 1.2959789E-001, 2.8621801E-004, 1.5061272E-004, 9.1973088E-004, 4.7078289E+002
 8.9002467E+001, 4.2312510E-002, 1.4864373E-001, 1.2967837E-001, 2.8747492E-004, 1.4800960E-004, 9.2054453E-004, 4.7245283E+002
 9.0003407E+001, 4.1790745E-002, 1.4904242E-001, 1.3002494E-001, 2.9522118E-004, 1.5240854E-004, 9.2451833E-004, 4.7338381E+002
 9.1003840E+001, 4.1425539E-002, 1.4930936E-001, 1.3027135E-001, 3.0791553E-004, 1.6467980E-004, 9.2878870E-004, 4.7200740E+002
 9.2006140E+001, 4.0540453E-002, 1.5003036E-001, 1.3084161E-001, 2.9244101E-004, 1.5250389E-004, 9.2965366E-004, 4.7128873E+002
 9.3005489E+001, 4.0299009E-002, 1.5020371E-001, 1.3100745E-001, 3.0370123E-004, 1.5517072E-004, 9.3307358E-004, 4.7233528E+002
 9.4006661E+001, 3.9445822E-002, 1.5086921E-001, 1.3156766E-001, 3.0709261E-004, 1.6105414E-004, 9.3766155E-004, 4.6952699E+002
 9.5002844E+001, 3.8541755E-002, 1.5158457E-001, 1.3215870E-001, 3.0490751E-004, 1.5701854E-004, 9.4134314E-004, 4.7304164E+002
 9.6000147E+001, 3.7834617E-002, 1.5213010E-001, 1.3262728E-001, 3.1255086E-004, 1.5701403E-004, 9.4614672E-004, 4.7627566E+002
 9.7005593E+001, 3.8421989E-002, 1.5167191E-001, 1.3224023E-001, 3.0953031E-004, 1.5854558E-004, 9.4284095E-004, 4.7204304E+002
 9.8004414E+001, 3.7805553E-002, 1.5214981E-001, 1.3264674E-001, 3.1416242E-004, 1.6167085E-004, 9.4660660E-004, 4.7632820E+002
 9.9000379E+001, 3.6585192E-002, 1.5309360E-001, 1.3345518E-001, 3.2621227E-004, 1.5781189E-004, 9.5466547E-004, 4.7024732E+002
 1.0000527E+002, 3.6830305E-002, 1.5290367E-001, 1.3329168E-001, 3.2338036E-004, 1.6386948E-004, 9.5295642E-004, 4.7091130E+002
 1.0100681E+002, 3.6168468E-002, 1.5341864E-001, 1.3372940E-001, 3.2818096E-004, 1.5834098E-004, 9.5697320E-004, 4.7325167E+002
 1.0200695E+002, 3.5935423E-002, 1.5358843E-001, 1.3388661E-001, 3.3650335E-004, 1.6739793E-004, 9.5974263E-004, 4.6963742E+002
 1.0300704E+002, 3.5033592E-002, 1.5430128E-001, 1.3447619E-001, 3.3464819E-004, 1.6486449E-004, 9.6348042E-004, 4.7323381E+002
 1.0400477E+002, 3.5113548E-002, 1.5423869E-001, 1.3442276E-001, 3.3396095E-004, 1.6849520E-004, 9.6296991E-004, 4.7520919E+002
 1.0500639E+002, 3.4861081E-002, 1.5443510E-001, 1.3458903E-001, 3.3544288E-004, 1.6927510E-004, 9.6442714E-004, 4.7470376E+002
 1.0600004E+002, 3.4028879E-002, 1.5508340E-001, 1.3513836E-001, 3.4059866E-004, 1.6503382E-004, 9.6929357E-004, 4.7346240E+002
 1.0700378E+002, 3.3984549E-002, 1.5514420E-001, 1.3515443E-001, 3.2262041E-004, 1.6458164E-004, 9.6579166E-004, 4.7475834E+002
 1.0800905E+002, 3.3369207E-002, 1.5561469E-001, 1.3556306E-001, 3.3156740E-004, 1.6960936E-004, 9.7043947E-004, 4.7710467E+002
 1.0900922E+002, 3.3716666E-002, 1.5533583E-001, 1.3533785E-001, 3.3512114E-004, 1.7129605E-004, 9.6958365E-004, 4.7286764E+002
 1.1000738E+002, 3.3473094E-002, 1.5552034E-001, 1.3549894E-001, 3.3908787E-004, 1.7942120E-004, 9.7150456E-004, 4.7473479E+002
 1.1100000E+002, 3.2539217E-002, 1.5621876E-001, 1.3612894E-001, 3.6454580E-004, 1.7913351E-004, 9.8101470E-004, 4.7355637E+002
 1.1200717E+002, 3.1357286E-002, 1.5713495E-001, 1.3690962E-001, 3.7411490E-004, 1.8037584E-004, 9.8838152E-004, 4.7333055E+002
 1.1300415E+002, 3.2095833E-002, 1.5657007E-001, 1.3641676E-001, 3.6222595E-004, 1.8441874E-004, 9.8255539E-004, 4.7504895E+002
 1.1400627E+002, 3.2638369E-002, 1.5615837E-001, 1.3605474E-001, 3.5207642E-004, 1.8068110E-004, 9.7799081E-004, 4.7261758E+002
 1.1500493E+002, 3.2180144E-002, 1.5652013E-001, 1.3635426E-001, 3.5130126E-004, 1.8047401E-004, 9.7992337E-004, 4.6945224E+002
 1.1600717E+002, 3.1646815E-002, 1.5691797E-001, 1.3671250E-001, 3.6550533E-004, 1.8859499E-004, 9.8527680E-004, 4.7020444E+002
 1.1700344E+002, 3.0406515E-002, 1.5786852E-001, 1.3753907E-001, 3.8406568E-004, 1.8245127E-004, 9.9477074E-004, 4.7428404E+002
 1.1800140E+002, 3.0111134E-002, 1.5810134E-001, 1.3773151E-001, 3.8340615E-004, 1.8568129E-004, 9.9598001E-004, 4.7329283E+002
 1.1900259E+002, 3.0400700E-002, 1.5786152E-001, 1.3754513E-001, 3.9029297E-004, 1.9684546E-004, 9.9606536E-004, 4.7580489E+002
 1.2000079E+002, 2.9474283E-002, 1.5859205E-001, 1.3815062E-001, 3.8907691E-004, 1.9846364E-004, 1.0000427E-003, 4.7323245E+002
 1.2100330E+002, 2.9591702E-002, 1.5850738E-001, 1.3807076E-001, 3.8416742E-004, 1.9473653E-004, 9.9849886E-004, 4.7362056E+002
 1.2200649E+002, 3.0250051E-002, 1.5801299E-001, 1.3762777E-001, 3.6768887E-004, 1.9445251E-004, 9.9209766E-004, 4.7422526E+002
 1.2300316E+002, 2.9006188E-002, 1.5895787E-001, 1.3845888E-001, 3.9109441E-004, 1.9665994E-004, 1.0025975E-003, 4.7751244E+002
 1.2400033E+002, 2.8790335E-002, 1.5913632E-001, 1.3859663E-001, 3.8549784E-004, 1.9367773E-004, 1.0024329E-003, 4.7325654E+002
 1.2500681E+002, 2.8743248E-002, 1.5917005E-001, 1.3862850E-001, 3.8749028E-004, 1.9624668E-004, 1.0030557E-003, 4.7232261E+002
 1.2600630E+002, 2.9025217E-002, 1.5895654E-001, 1.3844054E-001, 3.8210982E-004, 1.9261856E-004, 1.0006634E-003, 4.7437080E+002
 1.2700244E+002, 2.8441616E-002, 1.5937401E-001, 1.3884136E-001, 4.0998092E-004, 2.0232325E-004, 1.0090611E-003, 4.7360121E+002
 1.2800687E+002, 2.8378840E-002, 1.5945219E-001, 1.3887011E-001, 3.9105115E-004, 1.9365399E-004, 1.0054560E-003, 4.7210337E+002
 1.2900289E+002, 2.8127282E-002, 1.5963359E-001, 1.3904131E-001, 4.0162525E-004, 2.0120719E-004, 1.0087755E-003, 4.7783486E+002
 1.3000299E+002, 2.7976069E-002, 1.5978609E-001, 1.3912554E-001, 3.7938891E-004, 1.9273540E-004, 1.0048926E-003, 4.7498638E+002
 1.3100883E+002, 2.7497202E-002, 1.6014917E-001, 1.3944590E-001, 3.8890071E-004, 1.9336721E-004, 1.0090384E-003, 4.7322950E+002
 1.3200634E+002, 2.7586311E-002, 1.6003317E-001, 1.3940778E-001, 4.1934713E-004, 2.0501190E-004, 1.0148933E-003, 4.7473753E+002
 1.3300553E+002, 2.7548709E-002, 1.6007786E-001, 1.3942471E-001, 4.0879966E-004, 2.0533314E-004, 1.0128912E-003, 4.7055287E+002
 1.3400590E+002, 2.6516953E-002, 1.6090820E-001, 1.4009537E-001, 3.9822004E-004, 1.8800420E-004, 1.0154399E-003, 4.7833978E+002
 1.3500171E+002, 2.6003348E-002, 1.6130610E-001, 1.4043415E-001, 4.0224454E-004, 1.9082894E-004, 1.0186111E-003, 4.7750494E+002
 1.3600921E+002, 2.6415680E-002, 1.6098275E-001, 1.4016264E-001, 4.0096722E-004, 1.9459942E-004, 1.0164614E-003, 4.7592999E+002
 1.3700193E+002, 2.6162376E-002, 1.6115452E-001, 1.4034008E-001, 4.1897240E-004, 2.0397756E-004, 1.0213183E-003, 4.7750961E+002
 1.3800214E+002, 2.6607435E-002, 1.6083255E-001, 1.4003667E-001, 4.0044926E-004, 1.9481982E-004, 1.0154790E-003, 4.7543224E+002
 1.3900658E+002, 2.7015382E-002, 1.6053945E-001, 1.3975608E-001, 3.8131949E-004, 1.9225447E-004, 1.0096771E-003, 4.7446496E+002
 1.4000563E+002, 2.6482189E-002, 1.6094598E-001, 1.4011101E-001, 3.9001460E-004, 1.9548612E-004, 1.0138998E-003, 4.7494646E+002
 1.4100781E+002, 2.5790489E-002, 1.6147472E-001, 1.4057231E-001, 4.0113790E-004, 1.9349949E-004, 1.0193521E-003, 4.7562010E+002
 1.4200646E+002, 2.6136123E-002, 1.6121365E-001, 1.4034048E-001, 3.9353009E-004, 1.9345945E-004, 1.0162064E-003, 4.7539627E+002
 1.4300597E+002, 2.6240767E-002, 1.6111592E-001, 1.4027884E-001, 4.0378598E-004, 1.9699400E-004, 1.0178383E-003, 4.7166931E+002
 1.4400610E+002, 2.5037360E-002, 1.6206866E-001, 1.4106560E-001, 4.0066467E-004, 1.9047158E-004, 1.0226963E-003, 4.7722173E+002
 1.4500732E+002, 2.4684444E-002, 1.6231723E-001, 1.4131004E-001, 4.2027126E-004, 1.9594226E-004, 1.0283421E-003, 4.7749293E+002
 1.4600947E+002, 2.4774574E-002, 1.6223547E-001, 1.4125628E-001, 4.2770261E-004, 1.9674639E-004, 1.0294611E-003, 4.7742741E+002
 1.4700217E+002, 2.4755032E-002, 1.6226594E-001, 1.4126140E-001, 4.1716468E-004, 1.9700880E-004, 1.0273785E-003, 4.7656293E+002
 1.4800437E+002, 2.4385415E-002, 1.6255065E-001, 1.4150613E-001, 4.2125591E-004, 1.9865003E-004, 1.0299074E-003, 4.7157703E+002
 1.4900379E+002, 2.4192015E-002, 1.6270969E-001, 1.4162987E-001, 4.1677340E-004, 1.9645163E-004, 1.0298690E-003, 4.7613230E+002
 1.5000330E+002, 2.4569300E-002, 1.6244599E-001, 1.4136588E-001, 3.9355840E-004, 1.9720759E-004, 1.0233618E-003, 4.7701658E+002
 1.5100482E+002, 2.3845571E-002, 1.6300414E-001, 1.4184690E-001, 4.0219425E-004, 1.9175251E-004, 1.0284514E-003, 4.7583514E+002
 1.5200670E+002, 2.5017407E-002, 1.6205345E-001, 1.4108991E-001, 4.1996645E-004, 2.0790818E-004, 1.0267465E-003, 4.6885376E+002
 1.5300400E+002, 2.4989829E-002, 1.6207842E-001, 1.4110645E-001, 4.1775585E-004, 2.0738107E-004, 1.0264174E-003, 4.7037054E+002
 1.5400446E+002, 2.4168003E-002, 1.6275591E-001, 1.4163317E-001, 3.9844664E-004, 1.9102981E-004, 1.0262078E-003, 4.7710511E+002
