s,,,,,,,
Time,O2 EXHAUST,CO2 EXHAUST,H2O EXHAUST,CO EXHAUST,FUEL EXHAUST,SOOT EXHAUST,TEMP EXHAUST
 0.0000000E+000, 2.3099739E-001, 5.9146498E-004, 5.9412092E-003, 0.0000000E+000, 0.0000000E+000, 0.0000000E+000, 2.0000000E+001
 1.0036261E+000, 2.3099739E-001, 5.9146498E-004, 5.9412092E-003, 4.5121435E-025, 8.4497741E-023, 2.2537019E-024, 2.0231165E+001
 2.0055768E+000, 2.2419471E-001, 6.1223445E-003, 9.0334358E-003, 1.2594428E-005, 4.4119910E-004, 3.9864323E-005, 9.4245444E+001
 3.0058322E+000, 2.1939360E-001, 1.0048465E-002, 1.1233061E-002, 2.4503063E-005, 6.1294714E-004, 6.8798074E-005, 1.4302578E+002
 4.0047368E+000, 2.1377057E-001, 1.4642251E-002, 1.3812635E-002, 4.2991902E-005, 8.0442961E-004, 1.0362881E-004, 1.9390613E+002
 5.0025541E+000, 2.0899679E-001, 1.8565825E-002, 1.6007916E-002, 5.2240299E-005, 8.9074063E-004, 1.3197474E-004, 2.3577161E+002
 6.0057738E+000, 2.0271929E-001, 2.3760379E-002, 1.8905978E-002, 5.7382483E-005, 8.7217019E-004, 1.6797966E-004, 2.8696430E+002
 7.0062608E+000, 1.9638617E-001, 2.9024927E-002, 2.1842994E-002, 6.1990772E-005, 7.3277053E-004, 2.0433993E-004, 3.3351240E+002
 8.0017361E+000, 1.8944264E-001, 3.4806198E-002, 2.5067386E-002, 6.6167822E-005, 5.3771882E-004, 2.4407940E-004, 3.7584626E+002
 9.0029472E+000, 1.8076456E-001, 4.2041445E-002, 2.9098552E-002, 6.8036540E-005, 2.6732279E-004, 2.9309300E-004, 4.1993795E+002
 1.0008096E+001, 1.7458531E-001, 4.7181857E-002, 3.1963772E-002, 7.0528310E-005, 1.2615323E-004, 3.2816539E-004, 4.4301211E+002
 1.1005882E+001, 1.6620701E-001, 5.4133959E-002, 3.5840867E-002, 7.5843983E-005, 1.2750933E-005, 3.7601618E-004, 4.6858453E+002
 1.2008883E+001, 1.5995722E-001, 5.9301512E-002, 3.8725997E-002, 8.2664135E-005, 3.2108939E-006, 4.1219948E-004, 4.7870958E+002
 1.3004912E+001, 1.5287442E-001, 6.5155791E-002, 4.1994987E-002, 9.0777144E-005, 2.5277132E-007, 4.5327414E-004, 4.8976405E+002
 1.4002184E+001, 1.4675473E-001, 7.0213375E-002, 4.4819246E-002, 9.7903463E-005, 1.6059209E-007, 4.8878423E-004, 4.9942347E+002
 1.5000514E+001, 1.4212476E-001, 7.4039830E-002, 4.6955976E-002, 1.0326387E-004, 1.2192094E-007, 5.1564367E-004, 5.0095077E+002
 1.6000621E+001, 1.3683906E-001, 7.8408191E-002, 4.9395323E-002, 1.0939207E-004, 1.0815345E-007, 5.4630884E-004, 5.0361462E+002
 1.7005015E+001, 1.3311952E-001, 8.1482156E-002, 5.1111906E-002, 1.1373758E-004, 1.1527246E-007, 5.6789467E-004, 5.0345546E+002
 1.8003343E+001, 1.2847412E-001, 8.5321372E-002, 5.3255742E-002, 1.1910040E-004, 1.0428727E-007, 5.9484037E-004, 5.0773058E+002
 1.9001353E+001, 1.2445291E-001, 8.8644705E-002, 5.5111523E-002, 1.2375461E-004, 1.0402418E-007, 6.1816791E-004, 5.0847414E+002
 2.0008077E+001, 1.2127486E-001, 9.1271139E-002, 5.6578214E-002, 1.2748468E-004, 1.2534350E-007, 6.3661480E-004, 5.0790370E+002
 2.1005644E+001, 1.1868053E-001, 9.3415312E-002, 5.7775465E-002, 1.3042827E-004, 9.1801888E-008, 6.5165273E-004, 5.0696808E+002
 2.2006412E+001, 1.1587598E-001, 9.5733110E-002, 5.9069770E-002, 1.3369417E-004, 8.9479697E-008, 6.6792636E-004, 5.0377993E+002
 2.3000568E+001, 1.1257547E-001, 9.8460727E-002, 6.0592980E-002, 1.3757875E-004, 1.1602564E-007, 6.8708624E-004, 5.0786723E+002
 2.4005566E+001, 1.1068412E-001, 1.0002389E-001, 6.1465819E-002, 1.3973233E-004, 9.0595790E-008, 6.9805095E-004, 5.0513822E+002
 2.5008632E+001, 1.0762115E-001, 1.0255528E-001, 6.2879383E-002, 1.4328816E-004, 9.5106267E-008, 7.1582186E-004, 5.0454446E+002
 2.6009058E+001, 1.0544287E-001, 1.0435550E-001, 6.3884660E-002, 1.4582166E-004, 1.0750585E-007, 7.2846085E-004, 5.0629549E+002
 2.7005531E+001, 1.0342531E-001, 1.0602287E-001, 6.4815775E-002, 1.4818711E-004, 1.1298533E-007, 7.4017117E-004, 5.0546624E+002
 2.8000929E+001, 1.0137939E-001, 1.0771376E-001, 6.5759955E-002, 1.5053306E-004, 8.6828871E-008, 7.5203532E-004, 5.0168726E+002
 2.9001076E+001, 9.9074148E-002, 1.0961893E-001, 6.6823823E-002, 1.5320571E-004, 8.8325744E-008, 7.6540926E-004, 5.0050301E+002
 3.0005882E+001, 9.6916433E-002, 1.1140211E-001, 6.7819625E-002, 1.5574507E-004, 1.0077599E-007, 7.7793503E-004, 5.0186139E+002
 3.1006309E+001, 9.4444808E-002, 1.1344423E-001, 6.8960440E-002, 1.5897953E-004, 3.2580151E-007, 7.9234960E-004, 5.0415366E+002
 3.2006736E+001, 9.2458623E-002, 1.1507981E-001, 6.9878818E-002, 1.6522875E-004, 2.5306991E-006, 8.0467901E-004, 5.0063092E+002
 3.3002662E+001, 9.0349085E-002, 1.1681155E-001, 7.0855891E-002, 1.7552161E-004, 6.6265653E-006, 8.1852155E-004, 5.0109295E+002
 3.4000517E+001, 8.8378390E-002, 1.1842943E-001, 7.1768487E-002, 1.8495852E-004, 1.1154665E-005, 8.3141550E-004, 5.0106060E+002
 3.5003054E+001, 8.6442361E-002, 1.2001496E-001, 7.2666361E-002, 1.9696521E-004, 1.6113297E-005, 8.4464303E-004, 5.0057612E+002
 3.6001655E+001, 8.4402584E-002, 1.2168248E-001, 7.3613251E-002, 2.1161432E-004, 2.2352147E-005, 8.5898804E-004, 4.9946922E+002
 3.7000513E+001, 8.2408924E-002, 1.2331518E-001, 7.4537849E-002, 2.2398517E-004, 2.7509028E-005, 8.7261063E-004, 5.0062097E+002
 3.8002925E+001, 8.0758437E-002, 1.2467290E-001, 7.5301373E-002, 2.3008773E-004, 3.0191374E-005, 8.8304161E-004, 4.9857463E+002
 3.9004548E+001, 7.8760068E-002, 1.2631135E-001, 7.6227621E-002, 2.4124467E-004, 3.4501490E-005, 8.9644255E-004, 4.9939120E+002
 4.0010072E+001, 7.6973512E-002, 1.2777372E-001, 7.7056484E-002, 2.5288685E-004, 3.8861411E-005, 9.0876446E-004, 4.9999629E+002
 4.1001941E+001, 7.5352957E-002, 1.2910869E-001, 7.7805383E-002, 2.5745554E-004, 4.1986449E-005, 9.1871376E-004, 4.9811113E+002
 4.2003396E+001, 7.3861243E-002, 1.3033905E-001, 7.8494327E-002, 2.6067072E-004, 4.4076332E-005, 9.2766999E-004, 4.9936560E+002
 4.3007199E+001, 7.2456225E-002, 1.3148638E-001, 7.9146802E-002, 2.7151489E-004, 4.9570381E-005, 9.3770400E-004, 4.9826461E+002
 4.4001494E+001, 7.1275155E-002, 1.3246402E-001, 7.9691001E-002, 2.7154515E-004, 5.1210669E-005, 9.4427930E-004, 4.9850206E+002
 4.5009443E+001, 6.9708049E-002, 1.3374688E-001, 8.0417993E-002, 2.8166152E-004, 5.5111893E-005, 9.5506793E-004, 4.9794120E+002
 4.6007761E+001, 6.8342686E-002, 1.3487720E-001, 8.1047454E-002, 2.8190157E-004, 5.4859718E-005, 9.6271404E-004, 4.9633052E+002
 4.7007642E+001, 6.6546250E-002, 1.3636393E-001, 8.1875851E-002, 2.8256947E-004, 5.4313059E-005, 9.7284667E-004, 5.0183570E+002
 4.8005438E+001, 6.5213315E-002, 1.3745054E-001, 8.2495868E-002, 2.9445231E-004, 5.7685547E-005, 9.8269536E-004, 4.9850266E+002
 4.9005384E+001, 6.3514555E-002, 1.3885176E-001, 8.3280607E-002, 2.9820178E-004, 5.8939058E-005, 9.9291418E-004, 5.0066127E+002
 5.0001876E+001, 6.2881815E-002, 1.3937555E-001, 8.3572066E-002, 2.9813547E-004, 6.0220017E-005, 9.9641936E-004, 4.9543250E+002
 5.1000958E+001, 6.1463405E-002, 1.4055279E-001, 8.4224683E-002, 2.9606643E-004, 6.1053769E-005, 1.0038857E-003, 4.9900204E+002
 5.2006960E+001, 6.0098233E-002, 1.4166836E-001, 8.4858484E-002, 3.0613148E-004, 6.5772098E-005, 1.0135392E-003, 4.9834126E+002
 5.3004334E+001, 5.8641046E-002, 1.4286873E-001, 8.5532083E-002, 3.1039743E-004, 6.7544793E-005, 1.0225192E-003, 4.9855579E+002
 5.4001598E+001, 5.7607842E-002, 1.4371817E-001, 8.6010125E-002, 3.1449100E-004, 6.9772446E-005, 1.0291044E-003, 5.0086254E+002
 5.5001779E+001, 5.6618104E-002, 1.4452051E-001, 8.6471894E-002, 3.2636018E-004, 7.3660680E-005, 1.0370401E-003, 4.9716140E+002
 5.6002541E+001, 5.5179721E-002, 1.4570161E-001, 8.7138461E-002, 3.3350663E-004, 7.3898889E-005, 1.0465082E-003, 4.9713678E+002
 5.7008707E+001, 5.4509504E-002, 1.4626085E-001, 8.7445818E-002, 3.3043862E-004, 7.3862288E-005, 1.0496080E-003, 4.9874486E+002
 5.8003065E+001, 5.3961841E-002, 1.4672280E-001, 8.7694946E-002, 3.2419497E-004, 7.4986796E-005, 1.0513732E-003, 4.9575198E+002
 5.9005039E+001, 5.2690428E-002, 1.4776868E-001, 8.8283429E-002, 3.2914265E-004, 7.5314892E-005, 1.0594613E-003, 4.9670082E+002
 6.0008420E+001, 5.1699403E-002, 1.4858982E-001, 8.8739709E-002, 3.2854026E-004, 7.6988835E-005, 1.0648495E-003, 4.9753301E+002
 6.1009430E+001, 5.1100257E-002, 1.4908216E-001, 8.9016804E-002, 3.3093391E-004, 7.9415041E-005, 1.0686707E-003, 4.9730732E+002
 6.2006267E+001, 4.9771303E-002, 1.5017785E-001, 8.9631261E-002, 3.3450516E-004, 7.8393361E-005, 1.0767984E-003, 5.0048488E+002
 6.3007027E+001, 4.8598944E-002, 1.5114325E-001, 9.0173379E-002, 3.3822468E-004, 7.9490969E-005, 1.0840825E-003, 4.9953544E+002
 6.4006875E+001, 4.7440405E-002, 1.5207075E-001, 9.0718033E-002, 3.6042454E-004, 8.4806985E-005, 1.0950742E-003, 4.9898763E+002
 6.5009879E+001, 4.6610042E-002, 1.5277775E-001, 9.1093685E-002, 3.4646423E-004, 8.4677688E-005, 1.0968314E-003, 4.9724235E+002
 6.6000191E+001, 4.5665634E-002, 1.5354090E-001, 9.1535737E-002, 3.5995529E-004, 8.5421143E-005, 1.1048516E-003, 4.9839492E+002
 6.7002002E+001, 4.5132838E-002, 1.5395590E-001, 9.1788980E-002, 3.7737967E-004, 9.5852516E-005, 1.1113758E-003, 4.9708692E+002
 6.8002522E+001, 4.4080619E-002, 1.5483152E-001, 9.2272999E-002, 3.7473665E-004, 9.2454382E-005, 1.1166925E-003, 4.9979616E+002
 6.9003838E+001, 4.2870289E-002, 1.5582388E-001, 9.2834516E-002, 3.8188452E-004, 9.2147910E-005, 1.1248928E-003, 4.9960127E+002
 7.0007646E+001, 4.2463627E-002, 1.5614908E-001, 9.3025270E-002, 3.8951380E-004, 9.7068252E-005, 1.1287136E-003, 4.9720707E+002
 7.1001625E+001, 4.2103684E-002, 1.5645678E-001, 9.3187568E-002, 3.8250820E-004, 9.7499269E-005, 1.1292790E-003, 4.9720264E+002
 7.2002663E+001, 4.0521833E-002, 1.5776092E-001, 9.3919649E-002, 3.8730873E-004, 9.2588111E-005, 1.1390708E-003, 4.9720817E+002
 7.3002154E+001, 4.0027321E-002, 1.5816961E-001, 9.4148535E-002, 3.8838877E-004, 8.8928219E-005, 1.1420484E-003, 4.9907532E+002
 7.4007169E+001, 3.9525235E-002, 1.5858885E-001, 9.4378677E-002, 3.8587710E-004, 8.8921844E-005, 1.1443268E-003, 4.9881973E+002
 7.5001230E+001, 3.8429545E-002, 1.5948296E-001, 9.4888390E-002, 3.9528120E-004, 8.9596428E-005, 1.1523506E-003, 5.0043401E+002
 7.6004831E+001, 3.8396721E-002, 1.5951285E-001, 9.4901885E-002, 3.9284497E-004, 9.3130155E-005, 1.1520291E-003, 4.9707013E+002
 7.7000582E+001, 3.8328543E-002, 1.5958123E-001, 9.4928972E-002, 3.8427180E-004, 9.3005862E-005, 1.1506505E-003, 4.9754748E+002
 7.8006343E+001, 3.7971397E-002, 1.5987773E-001, 9.5093609E-002, 3.8395251E-004, 9.1340657E-005, 1.1525742E-003, 4.9840673E+002
 7.9005952E+001, 3.6963686E-002, 1.6068845E-001, 9.5565604E-002, 4.0017336E-004, 9.7600730E-005, 1.1614993E-003, 4.9689764E+002
 8.0007911E+001, 3.6429277E-002, 1.6111974E-001, 9.5815775E-002, 4.0807362E-004, 9.8972174E-005, 1.1660910E-003, 4.9745923E+002
 8.1000907E+001, 3.5680502E-002, 1.6174396E-001, 9.6160216E-002, 4.0570145E-004, 9.4284667E-005, 1.1697766E-003, 4.9966012E+002
 8.2003883E+001, 3.5175970E-002, 1.6215576E-001, 9.6394543E-002, 4.0970780E-004, 9.6510728E-005, 1.1734024E-003, 5.0099678E+002
 8.3004324E+001, 3.4814647E-002, 1.6244170E-001, 9.6565394E-002, 4.1885205E-004, 9.9431644E-005, 1.1772843E-003, 4.9853169E+002
 8.4010558E+001, 3.3830360E-002, 1.6324614E-001, 9.7022994E-002, 4.2653197E-004, 9.9139877E-005, 1.1843360E-003, 4.9851831E+002
 8.5007297E+001, 3.2880657E-002, 1.6401650E-001, 9.7466462E-002, 4.3799618E-004, 9.9846379E-005, 1.1919700E-003, 5.0168230E+002
 8.6001056E+001, 3.2817662E-002, 1.6406878E-001, 9.7494945E-002, 4.3752811E-004, 1.0264625E-004, 1.1922209E-003, 5.0160062E+002
 8.7000638E+001, 3.2561566E-002, 1.6426846E-001, 9.7616631E-002, 4.4578201E-004, 1.0745389E-004, 1.1953323E-003, 4.9910398E+002
 8.8009929E+001, 3.1740264E-002, 1.6493326E-001, 9.8000807E-002, 4.5682352E-004, 1.0723177E-004, 1.2021664E-003, 4.9830641E+002
 8.9000385E+001, 3.1378720E-002, 1.6522636E-001, 9.8169590E-002, 4.6123063E-004, 1.0806703E-004, 1.2050807E-003, 4.9968273E+002
 9.0008824E+001, 3.0987804E-002, 1.6554936E-001, 9.8350088E-002, 4.6178219E-004, 1.0770533E-004, 1.2073692E-003, 5.0023793E+002
 9.1010178E+001, 3.0549126E-002, 1.6592202E-001, 9.8548957E-002, 4.5509691E-004, 1.0707368E-004, 1.2084398E-003, 4.9953366E+002
 9.2005135E+001, 3.0331594E-002, 1.6610027E-001, 9.8650522E-002, 4.5691468E-004, 1.0370030E-004, 1.2100272E-003, 5.0104154E+002
 9.3001872E+001, 3.0408089E-002, 1.6603133E-001, 9.8615973E-002, 4.5993072E-004, 1.1101850E-004, 1.2102107E-003, 4.9498373E+002
 9.4002985E+001, 3.0220981E-002, 1.6620650E-001, 9.8695406E-002, 4.4580360E-004, 1.0777932E-004, 1.2083587E-003, 4.9782461E+002
 9.5009030E+001, 2.9368819E-002, 1.6688281E-001, 9.9098945E-002, 4.6696832E-004, 1.0755698E-004, 1.2174406E-003, 5.0015222E+002
 9.6002854E+001, 2.8792870E-002, 1.6734288E-001, 9.9370308E-002, 4.7890788E-004, 1.0896179E-004, 1.2230918E-003, 5.0149740E+002
 9.7006591E+001, 2.8772033E-002, 1.6737079E-001, 9.9376281E-002, 4.7143055E-004, 1.0750005E-004, 1.2216762E-003, 4.9979533E+002
 9.8000399E+001, 2.8277789E-002, 1.6777407E-001, 9.9606450E-002, 4.7587933E-004, 1.0653838E-004, 1.2253396E-003, 4.9914415E+002
 9.9008739E+001, 2.7941392E-002, 1.6805569E-001, 9.9760380E-002, 4.7367043E-004, 1.0651572E-004, 1.2267583E-003, 5.0014964E+002
 1.0000958E+002, 2.7882687E-002, 1.6809935E-001, 9.9788769E-002, 4.7687630E-004, 1.0914640E-004, 1.2277390E-003, 4.9893908E+002
 1.0100496E+002, 2.7401509E-002, 1.6848897E-001, 1.0001381E-001, 4.8325823E-004, 1.0896793E-004, 1.2317251E-003, 4.9943014E+002
 1.0200551E+002, 2.7028303E-002, 1.6881271E-001, 1.0018055E-001, 4.7274372E-004, 1.0842228E-004, 1.2316460E-003, 5.0036184E+002
 1.0300737E+002, 2.6897866E-002, 1.6890086E-001, 1.0024752E-001, 4.8673358E-004, 1.1067176E-004, 1.2352378E-003, 5.0019189E+002
 1.0400946E+002, 2.6403603E-002, 1.6930106E-001, 1.0047867E-001, 4.9329036E-004, 1.1056559E-004, 1.2393326E-003, 5.0122250E+002
 1.0500116E+002, 2.6424017E-002, 1.6929620E-001, 1.0046520E-001, 4.8487446E-004, 1.0867498E-004, 1.2374955E-003, 4.9725523E+002
 1.0600808E+002, 2.6155655E-002, 1.6951681E-001, 1.0058935E-001, 4.8594015E-004, 1.0937080E-004, 1.2392063E-003, 4.9776240E+002
 1.0700334E+002, 2.5817373E-002, 1.6979484E-001, 1.0074609E-001, 4.8748228E-004, 1.0907810E-004, 1.2414050E-003, 5.0059214E+002
 1.0800048E+002, 2.5880579E-002, 1.6976600E-001, 1.0070943E-001, 4.7136799E-004, 1.0320659E-004, 1.2377563E-003, 4.9927006E+002
 1.0900177E+002, 2.5474134E-002, 1.7007705E-001, 1.0090542E-001, 4.8922804E-004, 1.0694140E-004, 1.2436755E-003, 4.9677270E+002
 1.1000385E+002, 2.5366776E-002, 1.7013212E-001, 1.0096575E-001, 5.1244780E-004, 1.1522812E-004, 1.2490240E-003, 4.9865851E+002
 1.1100552E+002, 2.4764651E-002, 1.7063765E-001, 1.0124158E-001, 5.0808864E-004, 1.1062113E-004, 1.2514860E-003, 4.9970001E+002
 1.1200483E+002, 2.4872980E-002, 1.7055351E-001, 1.0118953E-001, 5.0401547E-004, 1.1108129E-004, 1.2500474E-003, 4.9866066E+002
 1.1300291E+002, 2.4324366E-002, 1.7100180E-001, 1.0144479E-001, 5.0849344E-004, 1.0997232E-004, 1.2540195E-003, 4.9933637E+002
 1.1400351E+002, 2.3991849E-002, 1.7128267E-001, 1.0159633E-001, 5.0473557E-004, 1.0834469E-004, 1.2551010E-003, 4.9951179E+002
 1.1500702E+002, 2.3703581E-002, 1.7153049E-001, 1.0172650E-001, 4.9864679E-004, 1.0487228E-004, 1.2554607E-003, 5.0196513E+002
 1.1601038E+002, 2.3257284E-002, 1.7188115E-001, 1.0193913E-001, 5.1227844E-004, 1.0473356E-004, 1.2607394E-003, 5.0076733E+002
 1.1700151E+002, 2.3300342E-002, 1.7183035E-001, 1.0192447E-001, 5.2292139E-004, 1.0666801E-004, 1.2626800E-003, 5.0023243E+002
 1.1800718E+002, 2.3313779E-002, 1.7182261E-001, 1.0191650E-001, 5.2007354E-004, 1.0960720E-004, 1.2620174E-003, 4.9835748E+002
 1.1900528E+002, 2.3010715E-002, 1.7208066E-001, 1.0205358E-001, 5.1494794E-004, 1.0971103E-004, 1.2626524E-003, 5.0155618E+002
 1.2000531E+002, 2.2856792E-002, 1.7219242E-001, 1.0212978E-001, 5.2589277E-004, 1.1237627E-004, 1.2657498E-003, 4.9893872E+002
 1.2100925E+002, 2.3013688E-002, 1.7207892E-001, 1.0205151E-001, 5.1409961E-004, 1.1209394E-004, 1.2624588E-003, 4.9986086E+002
 1.2200074E+002, 2.2746295E-002, 1.7230335E-001, 1.0217393E-001, 5.1214419E-004, 1.1054933E-004, 1.2635475E-003, 5.0032333E+002
 1.2300771E+002, 2.2779200E-002, 1.7227454E-001, 1.0215883E-001, 5.1288367E-004, 1.1332723E-004, 1.2635125E-003, 4.9863768E+002
 1.2400065E+002, 2.2564822E-002, 1.7243794E-001, 1.0226297E-001, 5.2318194E-004, 1.1241979E-004, 1.2668183E-003, 4.9856479E+002
 1.2501118E+002, 2.2488433E-002, 1.7251979E-001, 1.0229230E-001, 5.1048376E-004, 1.0737626E-004, 1.2646457E-003, 5.0037250E+002
 1.2600166E+002, 2.2175670E-002, 1.7275263E-001, 1.0244509E-001, 5.2862228E-004, 1.1242087E-004, 1.2700991E-003, 4.9997743E+002
 1.2700100E+002, 2.1920829E-002, 1.7295193E-001, 1.0256632E-001, 5.3667640E-004, 1.1523547E-004, 1.2731651E-003, 5.0038968E+002
 1.2800760E+002, 2.1336130E-002, 1.7342588E-001, 1.0284031E-001, 5.4460692E-004, 1.1110653E-004, 1.2780499E-003, 4.9978491E+002
 1.2900488E+002, 2.1486882E-002, 1.7331612E-001, 1.0276490E-001, 5.3343980E-004, 1.1335370E-004, 1.2749182E-003, 4.9932404E+002
 1.3001037E+002, 2.1577947E-002, 1.7325723E-001, 1.0271771E-001, 5.2216404E-004, 1.0885282E-004, 1.2721049E-003, 4.9925461E+002
 1.3100456E+002, 2.1565538E-002, 1.7326477E-001, 1.0272380E-001, 5.2365916E-004, 1.1229024E-004, 1.2724761E-003, 4.9846092E+002
 1.3200658E+002, 2.1036857E-002, 1.7368812E-001, 1.0297319E-001, 5.3438008E-004, 1.0992480E-004, 1.2776192E-003, 5.0046855E+002
 1.3300884E+002, 2.0914660E-002, 1.7378980E-001, 1.0302990E-001, 5.3445271E-004, 1.0679334E-004, 1.2783180E-003, 5.0126050E+002
 1.3400186E+002, 2.0582615E-002, 1.7404476E-001, 1.0318914E-001, 5.4801278E-004, 1.1289819E-004, 1.2829384E-003, 5.0116153E+002
 1.3500969E+002, 2.1053342E-002, 1.7367374E-001, 1.0296501E-001, 5.3426230E-004, 1.1457927E-004, 1.2774974E-003, 4.9892370E+002
 1.3600608E+002, 2.0819943E-002, 1.7385697E-001, 1.0307634E-001, 5.4156244E-004, 1.1407231E-004, 1.2802937E-003, 4.9898814E+002
 1.3700092E+002, 2.0441443E-002, 1.7416964E-001, 1.0325160E-001, 5.4250003E-004, 1.1115660E-004, 1.2825956E-003, 5.0081554E+002
 1.3800962E+002, 2.0849141E-002, 1.7382683E-001, 1.0306464E-001, 5.4553614E-004, 1.1639835E-004, 1.2809432E-003, 4.9602968E+002
 1.3900033E+002, 2.0724285E-002, 1.7396215E-001, 1.0311183E-001, 5.2352762E-004, 1.0921016E-004, 1.2771336E-003, 5.0266477E+002
 1.4000434E+002, 2.0051511E-002, 1.7448512E-001, 1.0343439E-001, 5.4810365E-004, 1.0923372E-004, 1.2859167E-003, 5.0350798E+002
 1.4100196E+002, 2.0255810E-002, 1.7431461E-001, 1.0333977E-001, 5.4835316E-004, 1.1440600E-004, 1.2848246E-003, 4.9766392E+002
 1.4200751E+002, 2.0146419E-002, 1.7441575E-001, 1.0338682E-001, 5.4112349E-004, 1.1169289E-004, 1.2839541E-003, 4.9731880E+002
 1.4300739E+002, 2.0082497E-002, 1.7446753E-001, 1.0341662E-001, 5.4188562E-004, 1.1215091E-004, 1.2844654E-003, 4.9855637E+002
 1.4400044E+002, 1.9805659E-002, 1.7467353E-001, 1.0355211E-001, 5.5817013E-004, 1.1545470E-004, 1.2893410E-003, 4.9906610E+002
 1.4500035E+002, 1.9415842E-002, 1.7498239E-001, 1.0373633E-001, 5.6779237E-004, 1.1844926E-004, 1.2934793E-003, 4.9665923E+002
 1.4600506E+002, 1.9215564E-002, 1.7515241E-001, 1.0382796E-001, 5.6541995E-004, 1.1383064E-004, 1.2941130E-003, 5.0106919E+002
 1.4700358E+002, 1.9691096E-002, 1.7478501E-001, 1.0359944E-001, 5.4665183E-004, 1.1219926E-004, 1.2876204E-003, 5.0064282E+002
 1.4800302E+002, 1.8982591E-002, 1.7537485E-001, 1.0392569E-001, 5.4501993E-004, 1.0755020E-004, 1.2912337E-003, 5.0182431E+002
 1.4900803E+002, 1.9434068E-002, 1.7499984E-001, 1.0371791E-001, 5.4577174E-004, 1.0818531E-004, 1.2888752E-003, 4.9983570E+002
 1.5000593E+002, 1.9287723E-002, 1.7515046E-001, 1.0377534E-001, 5.2512505E-004, 1.0411559E-004, 1.2854605E-003, 5.0341996E+002
 1.5100605E+002, 1.8670842E-002, 1.7563107E-001, 1.0407076E-001, 5.4692179E-004, 1.0381695E-004, 1.2933630E-003, 4.9973009E+002
 1.5200379E+002, 1.8924018E-002, 1.7544245E-001, 1.0394660E-001, 5.3194186E-004, 1.0263047E-004, 1.2888839E-003, 5.0087279E+002
 1.5300459E+002, 1.8922790E-002, 1.7542253E-001, 1.0395322E-001, 5.4581635E-004, 1.1140004E-004, 1.2917248E-003, 4.9772418E+002
 1.5401108E+002, 1.8862681E-002, 1.7547100E-001, 1.0398168E-001, 5.4696010E-004, 1.0987859E-004, 1.2922958E-003, 4.9831581E+002
