s,,,,,,,
Time,"O2 EXHAUST","CO2 EXHAUST","H2O EXHAUST","CO EXHAUST","FUEL EXHAUST","SOOT EXHAUST","TEMP EXHAUST"
 0.0000000E+000, 2.3099739E-001, 5.9146498E-004, 5.9412092E-003, 0.0000000E+000, 0.0000000E+000, 0.0000000E+000, 2.0000000E+001
 1.0031367E+000, 2.3099739E-001, 5.9146498E-004, 5.9412092E-003, 3.3594233E-031, 3.4162395E-030, 1.0615109E-031, 2.0459014E+001
 2.0016109E+000, 2.2366266E-001, 7.2856957E-003, 8.7551106E-003, 3.3266001E-005, 2.8504824E-004, 4.7470582E-005, 9.3386832E+001
 3.0034115E+000, 2.1732448E-001, 1.3090106E-002, 1.1211362E-002, 7.8076598E-005, 3.4368735E-004, 9.2053789E-005, 1.4953076E+002
 4.0009798E+000, 2.1441677E-001, 1.5733703E-002, 1.2327207E-002, 9.6140082E-005, 4.7505768E-004, 1.1185657E-004, 1.7924202E+002
 5.0033769E+000, 2.0805769E-001, 2.1607944E-002, 1.4785927E-002, 1.1284258E-004, 4.6640758E-004, 1.5083385E-004, 2.3036040E+002
 6.0042191E+000, 2.0128589E-001, 2.7864080E-002, 1.7402403E-002, 1.2850878E-004, 4.6686452E-004, 1.9189015E-004, 2.8089386E+002
 7.0046722E+000, 1.9580654E-001, 3.2950382E-002, 1.9518009E-002, 1.2889785E-004, 4.2786914E-004, 2.2262181E-004, 3.2049889E+002
 8.0018290E+000, 1.8977505E-001, 3.8563427E-002, 2.1847648E-002, 1.2384965E-004, 3.5143231E-004, 2.5536155E-004, 3.5551809E+002
 9.0072956E+000, 1.8272677E-001, 4.5137520E-002, 2.4569884E-002, 1.1122230E-004, 2.3335200E-004, 2.9226711E-004, 3.9569353E+002
 1.0000253E+001, 1.7629479E-001, 5.1128800E-002, 2.7052853E-002, 1.0200777E-004, 1.4892308E-004, 3.2639266E-004, 4.1723364E+002
 1.1007173E+001, 1.6936638E-001, 5.7582085E-002, 2.9726936E-002, 9.1737297E-005, 6.1990850E-005, 3.6307571E-004, 4.4120905E+002
 1.2005962E+001, 1.6080319E-001, 6.5530733E-002, 3.3031576E-002, 9.0805939E-005, 1.1557338E-005, 4.1077177E-004, 4.7069404E+002
 1.3006288E+001, 1.5591648E-001, 7.0056084E-002, 3.4917502E-002, 9.5110450E-005, 3.5578578E-006, 4.3896292E-004, 4.7582174E+002
 1.4001045E+001, 1.5002765E-001, 7.5506270E-002, 3.7190109E-002, 1.0164702E-004, 6.5099939E-007, 4.7320540E-004, 4.8360183E+002
 1.5000885E+001, 1.4613802E-001, 7.9105440E-002, 3.8691209E-002, 1.0631137E-004, 9.3829623E-008, 4.9589286E-004, 4.8357501E+002
 1.6005719E+001, 1.4024995E-001, 8.4553177E-002, 4.0963635E-002, 1.1373727E-004, 5.7234393E-008, 5.3031127E-004, 4.9007613E+002
 1.7004459E+001, 1.3476393E-001, 8.9628928E-002, 4.3080882E-002, 1.2064542E-004, 6.6506324E-008, 5.6237720E-004, 4.9569213E+002
 1.8008031E+001, 1.3074307E-001, 9.3349161E-002, 4.4632657E-002, 1.2566095E-004, 5.4474087E-008, 5.8586945E-004, 4.9868255E+002
 1.9006864E+001, 1.2621126E-001, 9.7542134E-002, 4.6381621E-002, 1.3131506E-004, 6.1130712E-008, 6.1234718E-004, 5.0033991E+002
 2.0003537E+001, 1.2335371E-001, 1.0018605E-001, 4.7484431E-002, 1.3486390E-004, 3.2078201E-008, 6.2903945E-004, 4.9808355E+002
 2.1005881E+001, 1.1935172E-001, 1.0388879E-001, 4.9028931E-002, 1.3988107E-004, 4.2589732E-008, 6.5242662E-004, 5.0289966E+002
 2.2002421E+001, 1.1753979E-001, 1.0556512E-001, 4.9728243E-002, 1.4222789E-004, 7.1006930E-008, 6.6303082E-004, 4.9963528E+002
 2.3004881E+001, 1.1456965E-001, 1.0831329E-001, 5.0874482E-002, 1.4585848E-004, 3.4506895E-008, 6.8036880E-004, 4.9445021E+002
 2.4005647E+001, 1.1059736E-001, 1.1198842E-001, 5.2407558E-002, 1.5093639E-004, 7.9133383E-008, 7.0360260E-004, 5.0178555E+002
 2.5000173E+001, 1.0910429E-001, 1.1336993E-001, 5.2983757E-002, 1.5274170E-004, 4.4502255E-008, 7.1231421E-004, 4.9784325E+002
 2.6003496E+001, 1.0716092E-001, 1.1516800E-001, 5.3733768E-002, 1.5517094E-004, 4.5688660E-008, 7.2366962E-004, 4.9504088E+002
 2.7007057E+001, 1.0456370E-001, 1.1757097E-001, 5.4736130E-002, 1.5845062E-004, 5.0721131E-008, 7.3885233E-004, 4.9557456E+002
 2.8001480E+001, 1.0104247E-001, 1.2082882E-001, 5.6095116E-002, 1.6292977E-004, 6.6468997E-008, 7.5944335E-004, 4.9840695E+002
 2.9008746E+001, 1.0026911E-001, 1.2154414E-001, 5.6393636E-002, 1.6404627E-004, 1.3092199E-007, 7.6399304E-004, 4.9377462E+002
 3.0000829E+001, 9.7938206E-002, 1.2370059E-001, 5.7293251E-002, 1.6708193E-004, 2.0425376E-007, 7.7763794E-004, 4.9638633E+002
 3.1000758E+001, 9.4549172E-002, 1.2682734E-001, 5.8603778E-002, 1.7788599E-004, 2.3735839E-006, 7.9879513E-004, 4.9442785E+002
 3.2004935E+001, 9.3592832E-002, 1.2771133E-001, 5.8973028E-002, 1.7962580E-004, 3.0429482E-006, 8.0449480E-004, 4.9311062E+002
 3.3001531E+001, 9.0575975E-002, 1.3048792E-001, 6.0141538E-002, 1.9418047E-004, 7.0863178E-006, 8.2434623E-004, 4.9359236E+002
 3.4002257E+001, 8.8364512E-002, 1.3252352E-001, 6.0997808E-002, 2.0444675E-004, 1.1288270E-005, 8.3881318E-004, 5.0018162E+002
 3.5002364E+001, 8.7242265E-002, 1.3355682E-001, 6.1432431E-002, 2.0961480E-004, 1.2256649E-005, 8.4614758E-004, 4.9563855E+002
 3.6006434E+001, 8.4440098E-002, 1.3613121E-001, 6.2519034E-002, 2.2644779E-004, 1.7736376E-005, 8.6526905E-004, 4.9476206E+002
 3.7001842E+001, 8.3096592E-002, 1.3737311E-001, 6.3037686E-002, 2.2879078E-004, 1.9133568E-005, 8.7325468E-004, 4.9339471E+002
 3.8000675E+001, 8.0798552E-002, 1.3949500E-001, 6.3925941E-002, 2.3496619E-004, 1.9531961E-005, 8.8736454E-004, 4.9588845E+002
 3.9003064E+001, 8.0244439E-002, 1.4000214E-001, 6.4141419E-002, 2.3976938E-004, 2.0821551E-005, 8.9145020E-004, 4.9272716E+002
 4.0004997E+001, 7.7947783E-002, 1.4211908E-001, 6.5029911E-002, 2.4835247E-004, 2.3913765E-005, 9.0604649E-004, 4.9603500E+002
 4.1001571E+001, 7.7424642E-002, 1.4259349E-001, 6.5234486E-002, 2.5599010E-004, 2.7040215E-005, 9.1054264E-004, 4.8831412E+002
 4.2006163E+001, 7.4719463E-002, 1.4508945E-001, 6.6280371E-002, 2.6435207E-004, 2.9678060E-005, 9.2737531E-004, 4.9622935E+002
 4.3007254E+001, 7.1978190E-002, 1.4760180E-001, 6.7345285E-002, 2.8547067E-004, 3.5647570E-005, 9.4704183E-004, 4.9407067E+002
 4.4006523E+001, 7.0852063E-002, 1.4864840E-001, 6.7778497E-002, 2.8338883E-004, 3.4701107E-005, 9.5290194E-004, 4.9636871E+002
 4.5005273E+001, 6.9715506E-002, 1.4968914E-001, 6.8220427E-002, 2.9295652E-004, 3.6530618E-005, 9.6122446E-004, 4.9459352E+002
 4.6002933E+001, 6.8658223E-002, 1.5066658E-001, 6.8628525E-002, 2.9469164E-004, 3.7755966E-005, 9.6748618E-004, 4.9451566E+002
 4.7000516E+001, 6.7225218E-002, 1.5199672E-001, 6.9180059E-002, 2.9305649E-004, 3.8272247E-005, 9.7515057E-004, 4.9451277E+002
 4.8003843E+001, 6.5037368E-002, 1.5401435E-001, 7.0026553E-002, 3.0089083E-004, 3.8679599E-005, 9.8898791E-004, 4.9428653E+002
 4.9006234E+001, 6.2977905E-002, 1.5590867E-001, 7.0824654E-002, 3.1174832E-004, 4.1200529E-005, 1.0027303E-003, 4.9647471E+002
 5.0007058E+001, 6.2246586E-002, 1.5657218E-001, 7.1110482E-002, 3.2212871E-004, 4.5870030E-005, 1.0089540E-003, 4.9083217E+002
 5.1000397E+001, 6.1339016E-002, 1.5741477E-001, 7.1459616E-002, 3.2084522E-004, 4.6874839E-005, 1.0137560E-003, 4.9465707E+002
 5.2001826E+001, 5.9265604E-002, 1.5933474E-001, 7.2259473E-002, 3.2238562E-004, 4.5719630E-005, 1.0256554E-003, 4.9635157E+002
 5.3003802E+001, 5.7745634E-002, 1.6073598E-001, 7.2847888E-002, 3.2837199E-004, 4.4993861E-005, 1.0353823E-003, 4.9644230E+002
 5.4000484E+001, 5.7462395E-002, 1.6100068E-001, 7.2956161E-002, 3.2650579E-004, 4.5960662E-005, 1.0365772E-003, 4.9142053E+002
 5.5004020E+001, 5.5528815E-002, 1.6278523E-001, 7.3703885E-002, 3.3241307E-004, 4.5875930E-005, 1.0485968E-003, 4.9502636E+002
 5.6004484E+001, 5.4732204E-002, 1.6351388E-001, 7.4013170E-002, 3.3901186E-004, 5.1560188E-005, 1.0544022E-003, 4.9404212E+002
 5.7002582E+001, 5.3394974E-002, 1.6474826E-001, 7.4530555E-002, 3.4327269E-004, 4.9421220E-005, 1.0627537E-003, 4.9814895E+002
 5.8001836E+001, 5.3099177E-002, 1.6502395E-001, 7.4643788E-002, 3.4181664E-004, 5.0967444E-005, 1.0641028E-003, 4.9402099E+002
 5.9002472E+001, 5.0981411E-002, 1.6695700E-001, 7.5468931E-002, 3.6409961E-004, 5.6595605E-005, 1.0805282E-003, 4.9317284E+002
 6.0007351E+001, 4.9691197E-002, 1.6814165E-001, 7.5970245E-002, 3.7316397E-004, 5.4440519E-005, 1.0896100E-003, 4.9613341E+002
 6.1005663E+001, 4.9600606E-002, 1.6824110E-001, 7.5999854E-002, 3.6092105E-004, 5.5376252E-005, 1.0875843E-003, 4.9625556E+002
 6.2000843E+001, 4.8176923E-002, 1.6952179E-001, 7.6560360E-002, 3.9012279E-004, 6.1910350E-005, 1.1015623E-003, 4.9216942E+002
 6.3007818E+001, 4.7231177E-002, 1.7040626E-001, 7.6922824E-002, 3.8455431E-004, 5.8259620E-005, 1.1056979E-003, 4.9425263E+002
 6.4009349E+001, 4.7122599E-002, 1.7052622E-001, 7.6958696E-002, 3.6992527E-004, 5.5539257E-005, 1.1032842E-003, 4.9563212E+002
 6.5004538E+001, 4.5420746E-002, 1.7209573E-001, 7.7617261E-002, 3.7610410E-004, 5.5110134E-005, 1.1140663E-003, 4.9409618E+002
 6.6004305E+001, 4.3514541E-002, 1.7384750E-001, 7.8356992E-002, 3.8788309E-004, 5.4442557E-005, 1.1271474E-003, 4.9683419E+002
 6.7008359E+001, 4.3491057E-002, 1.7386371E-001, 7.8367636E-002, 3.9196618E-004, 5.5984245E-005, 1.1281205E-003, 4.9097895E+002
 6.8009390E+001, 4.2910663E-002, 1.7441466E-001, 7.8586710E-002, 3.8152048E-004, 5.7657759E-005, 1.1292007E-003, 4.9470643E+002
 6.9005555E+001, 4.1852116E-002, 1.7537939E-001, 7.9000147E-002, 3.9432110E-004, 5.7446629E-005, 1.1377584E-003, 4.9675800E+002
 7.0007131E+001, 3.9975983E-002, 1.7708355E-001, 7.9734574E-002, 4.2123167E-004, 5.8467172E-005, 1.1537968E-003, 4.9888164E+002
 7.1000302E+001, 3.9584467E-002, 1.7745445E-001, 7.9882388E-002, 4.1455602E-004, 6.0907046E-005, 1.1546005E-003, 4.9407769E+002
 7.2003368E+001, 4.0385596E-002, 1.7673402E-001, 7.9566475E-002, 3.9750886E-004, 5.9816533E-005, 1.1466044E-003, 4.9925650E+002
 7.3007402E+001, 3.8445715E-002, 1.7850446E-001, 8.0323235E-002, 4.1895828E-004, 5.9884395E-005, 1.1618713E-003, 4.9173529E+002
 7.4001647E+001, 3.8750596E-002, 1.7819800E-001, 8.0212324E-002, 4.3623717E-004, 6.8007697E-005, 1.1637294E-003, 4.9376711E+002
 7.5003234E+001, 3.7346063E-002, 1.7951175E-001, 8.0750260E-002, 4.2750143E-004, 6.4293389E-005, 1.1697726E-003, 4.9317437E+002
 7.6008198E+001, 3.5475335E-002, 1.8122030E-001, 8.1479543E-002, 4.4714035E-004, 6.4928612E-005, 1.1842784E-003, 4.9197828E+002
 7.7005876E+001, 3.5157358E-002, 1.8152225E-001, 8.1600289E-002, 4.4209680E-004, 6.1283856E-005, 1.1850165E-003, 4.9578134E+002
 7.8001771E+001, 3.5144610E-002, 1.8151974E-001, 8.1609333E-002, 4.5264061E-004, 6.5085138E-005, 1.1872621E-003, 4.9226655E+002
 7.9008545E+001, 3.4006116E-002, 1.8256321E-001, 8.2051593E-002, 4.6137470E-004, 6.7561557E-005, 1.1954223E-003, 4.9565574E+002
 8.0001404E+001, 3.3156789E-002, 1.8334463E-001, 8.2381031E-002, 4.6606701E-004, 6.6409873E-005, 1.2011369E-003, 4.9734249E+002
 8.1007492E+001, 3.2814298E-002, 1.8363460E-001, 8.2521296E-002, 4.8662920E-004, 7.1579332E-005, 1.2072928E-003, 4.9253724E+002
 8.2002972E+001, 3.2103593E-002, 1.8431092E-001, 8.2790230E-002, 4.7377512E-004, 6.6253132E-005, 1.2086121E-003, 4.9503681E+002
 8.3000068E+001, 3.2455331E-002, 1.8399104E-001, 8.2652734E-002, 4.6909734E-004, 6.5663310E-005, 1.2056816E-003, 4.9206100E+002
 8.4006353E+001, 3.2159583E-002, 1.8427029E-001, 8.2764928E-002, 4.6500340E-004, 6.6114563E-005, 1.2064866E-003, 4.9106497E+002
 8.5006009E+001, 2.9651621E-002, 1.8658130E-001, 8.3736973E-002, 4.7651107E-004, 6.0052535E-005, 1.2228792E-003, 4.9633273E+002
 8.6001767E+001, 2.9858843E-002, 1.8638426E-001, 8.3658010E-002, 4.7964118E-004, 6.4608034E-005, 1.2223630E-003, 4.9244032E+002
 8.7006612E+001, 3.0827483E-002, 1.8551749E-001, 8.3274893E-002, 4.5595335E-004, 6.1586705E-005, 1.2120614E-003, 4.9282819E+002
 8.8002487E+001, 2.9081859E-002, 1.8711516E-001, 8.3953952E-002, 4.7130780E-004, 6.4155529E-005, 1.2249805E-003, 4.9229003E+002
 8.9007601E+001, 2.8667657E-002, 1.8749071E-001, 8.4116242E-002, 4.7770572E-004, 6.4873652E-005, 1.2286151E-003, 4.9564335E+002
 9.0006271E+001, 2.8088274E-002, 1.8801934E-001, 8.4341902E-002, 4.8381165E-004, 6.7345347E-005, 1.2331097E-003, 4.9805031E+002
 9.1009038E+001, 2.8548700E-002, 1.8757704E-001, 8.4168767E-002, 4.9508951E-004, 7.2523720E-005, 1.2328625E-003, 4.9423691E+002
 9.2006335E+001, 2.6370288E-002, 1.8956384E-001, 8.5019684E-002, 5.2088492E-004, 6.8632286E-005, 1.2503649E-003, 4.9624685E+002
 9.3002780E+001, 2.6704843E-002, 1.8925914E-001, 8.4888248E-002, 5.1597279E-004, 7.2905478E-005, 1.2474758E-003, 4.9813627E+002
 9.4003374E+001, 2.6477211E-002, 1.8946247E-001, 8.4978372E-002, 5.2179162E-004, 7.3795085E-005, 1.2499485E-003, 4.9523181E+002
 9.5001138E+001, 2.7349744E-002, 1.8866777E-001, 8.4637583E-002, 5.1101069E-004, 7.2981683E-005, 1.2428485E-003, 4.8956081E+002
 9.6000159E+001, 2.5468967E-002, 1.9038439E-001, 8.5371256E-002, 5.3172389E-004, 7.2994208E-005, 1.2576332E-003, 4.9652586E+002
 9.7007821E+001, 2.4695085E-002, 1.9108348E-001, 8.5675478E-002, 5.4582864E-004, 7.3418046E-005, 1.2648698E-003, 4.9870008E+002
 9.8000121E+001, 2.4883257E-002, 1.9093743E-001, 8.5594448E-002, 5.2462624E-004, 6.7902761E-005, 1.2594439E-003, 5.0075511E+002
 9.9002392E+001, 2.4403596E-002, 1.9134678E-001, 8.5789869E-002, 5.5095277E-004, 7.4802296E-005, 1.2675550E-003, 4.9171738E+002
 1.0000967E+002, 2.4863664E-002, 1.9094944E-001, 8.5603401E-002, 5.2877483E-004, 7.1753581E-005, 1.2604058E-003, 4.9507650E+002
 1.0100653E+002, 2.4105669E-002, 1.9164161E-001, 8.5898931E-002, 5.3681658E-004, 7.2024334E-005, 1.2663007E-003, 4.9509046E+002
 1.0200609E+002, 2.3034041E-002, 1.9261086E-001, 8.6320202E-002, 5.5582459E-004, 7.0245999E-005, 1.2762164E-003, 4.9639403E+002
 1.0300793E+002, 2.2643586E-002, 1.9292024E-001, 8.6487178E-002, 5.9582845E-004, 7.6018290E-005, 1.2866577E-003, 4.9755642E+002
 1.0400095E+002, 2.2945212E-002, 1.9268868E-001, 8.6355295E-002, 5.5869798E-004, 7.4104488E-005, 1.2773014E-003, 4.9614975E+002
 1.0500869E+002, 2.2022005E-002, 1.9351476E-001, 8.6720287E-002, 5.8112846E-004, 7.7959288E-005, 1.2870883E-003, 4.9630254E+002
 1.0600139E+002, 2.2375165E-002, 1.9320179E-001, 8.6579727E-002, 5.7024946E-004, 7.6043763E-005, 1.2828700E-003, 4.9214191E+002
 1.0700660E+002, 2.2473147E-002, 1.9309655E-001, 8.6546339E-002, 5.8108653E-004, 7.8604263E-005, 1.2845593E-003, 4.9222924E+002
 1.0800165E+002, 2.1782479E-002, 1.9375908E-001, 8.6805960E-002, 5.6449480E-004, 7.3259416E-005, 1.2849942E-003, 4.9816994E+002
 1.0900464E+002, 2.0370137E-002, 1.9503393E-001, 8.7361173E-002, 5.9068823E-004, 7.6018083E-005, 1.2982920E-003, 4.9877356E+002
 1.1000276E+002, 2.0553945E-002, 1.9485162E-001, 8.7293321E-002, 5.9902262E-004, 8.1939875E-005, 1.2989804E-003, 4.9495856E+002
 1.1100664E+002, 2.0339264E-002, 1.9504672E-001, 8.7377900E-002, 6.0260278E-004, 7.8623711E-005, 1.3009236E-003, 4.9455840E+002
 1.1200201E+002, 2.0934680E-002, 1.9456728E-001, 8.7125294E-002, 5.4704272E-004, 7.2967394E-005, 1.2861223E-003, 4.9598815E+002
 1.1300178E+002, 2.0053209E-002, 1.9534517E-001, 8.7478152E-002, 5.7769028E-004, 7.2092868E-005, 1.2973806E-003, 5.0212703E+002
 1.1400682E+002, 1.9242930E-002, 1.9607263E-001, 8.7798245E-002, 5.9604027E-004, 7.2149031E-005, 1.3056983E-003, 4.9659613E+002
 1.1500438E+002, 1.9316544E-002, 1.9597672E-001, 8.7777824E-002, 6.1638329E-004, 7.9695523E-005, 1.3094820E-003, 4.9884124E+002
 1.1600784E+002, 1.8592971E-002, 1.9667202E-001, 8.8049843E-002, 5.9849630E-004, 7.1535940E-005, 1.3098366E-003, 4.9902517E+002
 1.1700270E+002, 1.8649388E-002, 1.9660859E-001, 8.8030709E-002, 6.0608712E-004, 7.8111000E-005, 1.3110819E-003, 4.9530115E+002
 1.1800164E+002, 1.7835239E-002, 1.9729647E-001, 8.8366438E-002, 6.5791915E-004, 7.9419643E-005, 1.3263398E-003, 4.9585051E+002
 1.1900169E+002, 1.8859859E-002, 1.9637314E-001, 8.7962029E-002, 6.3660440E-004, 8.4063200E-005, 1.3162062E-003, 4.9605465E+002
 1.2000664E+002, 1.7804928E-002, 1.9733114E-001, 8.8375530E-002, 6.5238019E-004, 8.1852096E-005, 1.3253612E-003, 4.9936049E+002
 1.2100235E+002, 1.8677677E-002, 1.9657859E-001, 8.8021547E-002, 6.0952331E-004, 7.5197943E-005, 1.3116379E-003, 4.9606654E+002
 1.2200502E+002, 1.7875371E-002, 1.9728520E-001, 8.8342599E-002, 6.3793703E-004, 7.7947200E-005, 1.3219877E-003, 4.9555034E+002
 1.2300295E+002, 1.7375276E-002, 1.9775162E-001, 8.8533787E-002, 6.3507526E-004, 8.1408846E-005, 1.3241846E-003, 4.9669724E+002
 1.2400869E+002, 1.7173304E-002, 1.9795080E-001, 8.8608440E-002, 6.2652415E-004, 7.6610813E-005, 1.3235514E-003, 4.9719187E+002
 1.2500599E+002, 1.7266175E-002, 1.9787373E-001, 8.8569620E-002, 6.1946440E-004, 7.6814517E-005, 1.3215734E-003, 4.9213658E+002
 1.2600905E+002, 1.6473307E-002, 1.9854736E-001, 8.8894891E-002, 6.6658677E-004, 8.0759980E-005, 1.3357356E-003, 5.0147976E+002
 1.2700641E+002, 1.7407138E-002, 1.9771505E-001, 8.8524603E-002, 6.4132959E-004, 7.6866525E-005, 1.3253052E-003, 4.9537170E+002
 1.2800209E+002, 1.7512264E-002, 1.9755529E-001, 8.8503435E-002, 6.8858697E-004, 8.5130074E-005, 1.3344747E-003, 4.9476626E+002
 1.2900173E+002, 1.5975259E-002, 1.9905493E-001, 8.9072668E-002, 6.3183565E-004, 7.4077223E-005, 1.3313433E-003, 5.0168004E+002
 1.3000348E+002, 1.6613929E-002, 1.9841099E-001, 8.8842717E-002, 6.7130956E-004, 8.0662489E-005, 1.3359265E-003, 4.9416075E+002
 1.3100920E+002, 1.6471999E-002, 1.9850068E-001, 8.8910652E-002, 7.0328904E-004, 8.4749348E-005, 1.3433235E-003, 4.9538563E+002
 1.3200182E+002, 1.6765376E-002, 1.9829220E-001, 8.8777397E-002, 6.5469642E-004, 7.9341185E-005, 1.3316488E-003, 4.9394435E+002
 1.3300707E+002, 1.6131678E-002, 1.9885301E-001, 8.9030226E-002, 6.7517641E-004, 8.0629630E-005, 1.3394190E-003, 4.9131805E+002
 1.3400275E+002, 1.6208302E-002, 1.9881858E-001, 8.8989737E-002, 6.4783562E-004, 7.3372495E-005, 1.3333496E-003, 4.9519024E+002
 1.3500339E+002, 1.5101535E-002, 1.9984674E-001, 8.9416389E-002, 6.4688738E-004, 6.8007276E-005, 1.3393416E-003, 4.9885950E+002
 1.3601058E+002, 1.5749068E-002, 1.9923473E-001, 8.9169794E-002, 6.5515093E-004, 7.3869674E-005, 1.3374256E-003, 4.9813639E+002
 1.3700005E+002, 1.5368283E-002, 1.9950740E-001, 8.9342191E-002, 7.1673534E-004, 8.0122141E-005, 1.3522726E-003, 4.9504875E+002
 1.3800932E+002, 1.6289643E-002, 1.9872765E-001, 8.8963738E-002, 6.6015099E-004, 7.2283656E-005, 1.3354421E-003, 4.9553842E+002
 1.3900583E+002, 1.5289538E-002, 1.9961048E-001, 8.9363332E-002, 6.9405423E-004, 7.5322118E-005, 1.3480307E-003, 4.9385151E+002
 1.4000043E+002, 1.5193052E-002, 1.9967954E-001, 8.9406606E-002, 7.0925809E-004, 7.9415955E-005, 1.3517067E-003, 5.0049721E+002
 1.4100080E+002, 1.4832966E-002, 2.0005464E-001, 8.9532510E-002, 6.7786572E-004, 7.4147133E-005, 1.3472362E-003, 4.9877219E+002
 1.4200581E+002, 1.5125415E-002, 1.9975209E-001, 8.9429662E-002, 7.0183206E-004, 7.7819108E-005, 1.3505517E-003, 4.9544593E+002
 1.4300394E+002, 1.4993171E-002, 1.9984320E-001, 8.9490441E-002, 7.2572949E-004, 8.1696181E-005, 1.3562244E-003, 4.9865929E+002
 1.4400745E+002, 1.4487431E-002, 2.0030764E-001, 8.9687304E-002, 7.2960911E-004, 7.8554573E-005, 1.3598547E-003, 4.9234047E+002
 1.4500350E+002, 1.4608119E-002, 2.0025811E-001, 8.9620693E-002, 6.8159952E-004, 7.4815005E-005, 1.3492628E-003, 4.9986502E+002
 1.4600813E+002, 1.5443913E-002, 1.9951540E-001, 8.9288444E-002, 6.5716643E-004, 7.1926506E-005, 1.3395489E-003, 4.9798440E+002
 1.4700646E+002, 1.5154711E-002, 1.9968448E-001, 8.9430715E-002, 7.3229022E-004, 8.4470374E-005, 1.3566746E-003, 4.9128413E+002
 1.4800568E+002, 1.4723195E-002, 2.0009587E-001, 8.9593360E-002, 7.2350160E-004, 8.3592145E-005, 1.3572692E-003, 4.9376457E+002
 1.4900950E+002, 1.4934187E-002, 1.9995545E-001, 8.9494736E-002, 6.8150644E-004, 7.7450928E-005, 1.3474192E-003, 4.9457904E+002
 1.5000286E+002, 1.4160938E-002, 2.0059295E-001, 8.9818428E-002, 7.4264633E-004, 8.1289719E-005, 1.3643691E-003, 4.9874900E+002
 1.5100390E+002, 1.3916770E-002, 2.0082797E-001, 8.9909167E-002, 7.3537629E-004, 8.4088058E-005, 1.3642266E-003, 4.9635612E+002
 1.5200217E+002, 1.4552867E-002, 2.0026742E-001, 8.9654657E-002, 7.1302695E-004, 8.2384868E-005, 1.3560571E-003, 4.9638055E+002
 1.5300749E+002, 1.4283442E-002, 2.0052421E-001, 8.9756579E-002, 7.0794605E-004, 7.9741841E-005, 1.3565151E-003, 4.9759228E+002
 1.5400445E+002, 1.4053413E-002, 2.0070984E-001, 8.9854186E-002, 7.2924700E-004, 8.1011630E-005, 1.3622006E-003, 4.9473741E+002
