s,,,,,,,
Time,"O2 EXHAUST","CO2 EXHAUST","H2O EXHAUST","CO EXHAUST","FUEL EXHAUST","SOOT EXHAUST","TEMP EXHAUST"
 0.0000000E+000, 2.3099739E-001, 5.9146498E-004, 5.9412092E-003, 0.0000000E+000, 0.0000000E+000, 0.0000000E+000, 2.0000000E+001
 1.0021854E+000, 2.3099739E-001, 5.9146498E-004, 5.9412092E-003, 8.2994714E-029, 2.1942510E-028, 2.8975068E-029, 2.2041661E+001
 2.0032226E+000, 2.2000502E-001, 8.8175646E-003, 1.0695385E-002, 1.1764763E-004, 1.2943763E-004, 9.0312262E-005, 1.2739249E+002
 3.0023690E+000, 2.0901001E-001, 1.6983469E-002, 1.5478835E-002, 2.8419656E-004, 2.0930323E-004, 1.9063260E-004, 2.2314116E+002
 4.0039780E+000, 2.0241078E-001, 2.2025547E-002, 1.8314917E-002, 2.9509699E-004, 1.9227536E-004, 2.3286420E-004, 2.7509600E+002
 5.0058596E+000, 1.9212352E-001, 3.0029770E-002, 2.2695257E-002, 2.1715405E-004, 1.2927384E-004, 2.7948477E-004, 3.4792429E+002
 6.0023750E+000, 1.8251992E-001, 3.7479822E-002, 2.6791223E-002, 1.5936124E-004, 7.3232863E-005, 3.2604084E-004, 4.0312704E+002
 7.0051349E+000, 1.7182936E-001, 4.5765554E-002, 3.1352333E-002, 9.9551222E-005, 1.6315070E-005, 3.7877658E-004, 4.5542082E+002
 8.0003171E+000, 1.6120216E-001, 5.3918542E-002, 3.5906837E-002, 9.2724142E-005, 2.9213764E-007, 4.4182191E-004, 4.9249284E+002
 9.0005905E+000, 1.4757348E-001, 6.4332414E-002, 4.1757890E-002, 1.1026497E-004, 8.5025628E-008, 5.2798074E-004, 5.3218212E+002
 1.0004003E+001, 1.3947674E-001, 7.0516656E-002, 4.5234730E-002, 1.2241003E-004, 4.3214643E-007, 5.7951646E-004, 5.3670484E+002
 1.1001346E+001, 1.2581477E-001, 8.0956137E-002, 5.1100011E-002, 1.3986891E-004, 2.7495360E-007, 6.6586034E-004, 5.5999892E+002
 1.2006212E+001, 1.1380607E-001, 9.0131046E-002, 5.6255897E-002, 1.5606206E-004, 2.9108596E-007, 7.4192714E-004, 5.7426033E+002
 1.3005658E+001, 1.0648624E-001, 9.5722866E-002, 5.9398840E-002, 1.6639324E-004, 4.2251116E-007, 7.8838652E-004, 5.8172543E+002
 1.4005525E+001, 9.9316538E-002, 1.0120099E-001, 6.2477019E-002, 1.7584421E-004, 4.4573627E-007, 8.3375755E-004, 5.8009138E+002
 1.5006754E+001, 9.4134301E-002, 1.0515980E-001, 6.4702151E-002, 1.8318767E-004, 5.1474266E-007, 8.6665548E-004, 5.8429774E+002
 1.6004155E+001, 8.7127568E-002, 1.1050931E-001, 6.7711592E-002, 1.9517249E-004, 1.1182804E-006, 9.1155216E-004, 5.8262218E+002
 1.7002539E+001, 8.4856936E-002, 1.1223687E-001, 6.8688674E-002, 2.0311839E-004, 2.0297995E-006, 9.2692481E-004, 5.7350435E+002
 1.8003153E+001, 7.9414297E-002, 1.1638643E-001, 7.1028178E-002, 2.1640214E-004, 2.6062264E-006, 9.6260559E-004, 5.7147752E+002
 1.9002976E+001, 7.3977702E-002, 1.2053852E-001, 7.3362813E-002, 2.2478367E-004, 2.9737668E-006, 9.9725533E-004, 5.7835740E+002
 2.0001162E+001, 6.9961203E-002, 1.2359571E-001, 7.5090840E-002, 2.3800359E-004, 3.9412558E-006, 1.0242792E-003, 5.7678067E+002
 2.1003933E+001, 6.8388032E-002, 1.2479496E-001, 7.5767130E-002, 2.4196639E-004, 4.0216877E-006, 1.0346177E-003, 5.7487248E+002
 2.2006444E+001, 6.3490137E-002, 1.2853263E-001, 7.7871283E-002, 2.5149205E-004, 5.0610466E-006, 1.0662338E-003, 5.7289461E+002
 2.3000843E+001, 6.0874651E-002, 1.3051550E-001, 7.8999053E-002, 2.6551824E-004, 6.0483073E-006, 1.0849301E-003, 5.6599891E+002
 2.4006923E+001, 5.9010475E-002, 1.3195114E-001, 7.9795929E-002, 2.6033332E-004, 5.0022808E-006, 1.0951777E-003, 5.7475624E+002
 2.5008252E+001, 5.4275303E-002, 1.3555078E-001, 8.1834428E-002, 2.7891486E-004, 7.3750050E-006, 1.1276432E-003, 5.6930413E+002
 2.6006907E+001, 5.1133759E-002, 1.3792295E-001, 8.3192001E-002, 3.0223597E-004, 9.1715958E-006, 1.1514128E-003, 5.6790560E+002
 2.7000772E+001, 4.8107086E-002, 1.4025361E-001, 8.4485970E-002, 2.9404673E-004, 6.9435842E-006, 1.1680979E-003, 5.7635238E+002
 2.8004723E+001, 4.6780083E-002, 1.4126701E-001, 8.5055872E-002, 2.9616129E-004, 6.8855329E-006, 1.1765696E-003, 5.6908862E+002
 2.9005286E+001, 4.1236453E-002, 1.4545958E-001, 8.7449602E-002, 3.3297441E-004, 8.4853253E-006, 1.2176355E-003, 5.7481713E+002
 3.0008996E+001, 3.9719900E-002, 1.4666438E-001, 8.8086247E-002, 3.0357443E-004, 5.9259617E-006, 1.2208648E-003, 5.8076230E+002
 3.1002519E+001, 3.9101393E-002, 1.4714675E-001, 8.8348744E-002, 2.9773402E-004, 5.2170320E-006, 1.2234293E-003, 5.7352367E+002
 3.2003989E+001, 3.2897424E-002, 1.5185443E-001, 9.1022430E-002, 3.2803881E-004, 7.6386044E-006, 1.2671755E-003, 5.7562193E+002
 3.3005155E+001, 3.1199617E-002, 1.5315082E-001, 9.1751565E-002, 3.3081330E-004, 8.0137007E-006, 1.2780278E-003, 5.7761941E+002
 3.4006780E+001, 3.1965202E-002, 1.5256661E-001, 9.1422862E-002, 3.2945918E-004, 6.6023878E-006, 1.2731150E-003, 5.6449914E+002
 3.5004517E+001, 2.7374958E-002, 1.5608031E-001, 9.3391551E-002, 3.3109672E-004, 6.4045920E-006, 1.3012676E-003, 5.6966617E+002
 3.6001535E+001, 2.4182346E-002, 1.5845685E-001, 9.4781996E-002, 3.7816166E-004, 9.7192423E-006, 1.3301625E-003, 5.7117945E+002
 3.7002850E+001, 2.1391583E-002, 1.6061334E-001, 9.5972632E-002, 3.6541114E-004, 8.0098777E-006, 1.3444916E-003, 5.7831757E+002
 3.8008827E+001, 1.8740816E-002, 1.6260280E-001, 9.7121972E-002, 3.9338846E-004, 9.9441346E-006, 1.3662313E-003, 5.8076577E+002
 3.9005175E+001, 1.5375287E-002, 1.6516989E-001, 9.8568397E-002, 4.0090921E-004, 9.4750433E-006, 1.3881555E-003, 5.8957873E+002
 4.0000400E+001, 1.6904736E-002, 1.6396195E-001, 9.7924397E-002, 4.2593210E-004, 9.8774768E-006, 1.3839628E-003, 5.7116754E+002
 4.1008397E+001, 1.2171945E-002, 1.6760965E-001, 9.9946516E-002, 4.1073201E-004, 7.6166219E-006, 1.4095657E-003, 5.8289138E+002
 4.2006538E+001, 1.1106987E-002, 1.6826933E-001, 1.0045142E-001, 5.1663335E-004, 2.0319711E-005, 1.4374909E-003, 5.7962839E+002
 4.3009884E+001, 6.0342661E-003, 1.7170855E-001, 1.0277124E-001, 8.2466691E-004, 1.4768289E-005, 1.5307466E-003, 5.8773707E+002
 4.4006474E+001, 4.0578686E-003, 1.7238877E-001, 1.0388632E-001, 1.3975714E-003, 2.3907122E-005, 1.6589612E-003, 5.9274290E+002
 4.5004215E+001, 5.9530402E-003, 1.7209378E-001, 1.0270240E-001, 6.0276490E-004, 1.0658809E-005, 1.4862181E-003, 5.8450684E+002
 4.6000889E+001, 6.7623318E-003, 1.7105492E-001, 1.0248778E-001, 8.8899174E-004, 2.8998816E-005, 1.5393663E-003, 5.6460526E+002
 4.7004354E+001, 3.6173764E-003, 1.7270998E-001, 1.0407886E-001, 1.4075708E-003, 3.3354968E-005, 1.6636467E-003, 5.7429799E+002
 4.8002675E+001, 3.9754150E-003, 1.7187376E-001, 1.0410456E-001, 1.7927758E-003, 4.7539952E-005, 1.7396195E-003, 5.7171698E+002
 4.9000817E+001, 2.8475493E-003, 1.7055001E-001, 1.0526546E-001, 3.2771098E-003, 2.2742961E-004, 2.0473922E-003, 5.6085313E+002
 5.0005560E+001, 2.1590988E-003, 1.7092431E-001, 1.0560918E-001, 3.3818400E-003, 2.3272141E-004, 2.0728083E-003, 5.6444541E+002
 5.1002257E+001, 2.3742996E-003, 1.7127111E-001, 1.0535110E-001, 3.0291182E-003, 2.3627995E-004, 1.9999276E-003, 5.5562796E+002
 5.2009709E+001, 1.8346991E-003, 1.6970296E-001, 1.0620358E-001, 4.3792828E-003, 3.5223753E-004, 2.2770000E-003, 5.5748682E+002
 5.3005844E+001, 1.7952045E-003, 1.7003967E-001, 1.0614082E-001, 4.1827988E-003, 2.3339622E-004, 2.2375368E-003, 5.4818875E+002
 5.4006474E+001, 2.1982202E-003, 1.7007732E-001, 1.0583804E-001, 3.9306580E-003, 3.4516996E-004, 2.1837754E-003, 5.5838215E+002
 5.5004136E+001, 1.3149173E-003, 1.6853054E-001, 1.0688777E-001, 5.4261204E-003, 6.3507291E-004, 2.4921700E-003, 5.4701560E+002
 5.6008438E+001, 8.6850469E-004, 1.6785485E-001, 1.0742329E-001, 6.1384598E-003, 5.3975278E-004, 2.6395511E-003, 5.4411013E+002
 5.7006946E+001, 1.1570408E-003, 1.6775932E-001, 1.0723276E-001, 6.0322489E-003, 7.0182909E-004, 2.6160240E-003, 5.5121933E+002
 5.8009609E+001, 1.2118685E-003, 1.6867204E-001, 1.0693146E-001, 5.3978903E-003, 5.1356446E-004, 2.4872364E-003, 5.4060726E+002
 5.9003412E+001, 7.8535639E-004, 1.6680955E-001, 1.0776188E-001, 6.8604531E-003, 8.8010014E-004, 2.7860795E-003, 5.4209820E+002
 6.0007951E+001, 6.8123856E-004, 1.6655723E-001, 1.0795345E-001, 7.1189908E-003, 6.3556945E-004, 2.8395133E-003, 5.3355441E+002
 6.1003548E+001, 9.6708096E-004, 1.6591102E-001, 1.0793240E-001, 7.3856901E-003, 8.6050938E-004, 2.8915824E-003, 5.3692475E+002
 6.2007092E+001, 5.9435883E-004, 1.6514403E-001, 1.0841983E-001, 8.1011246E-003, 9.3621042E-004, 3.0389055E-003, 5.4051771E+002
 6.3008905E+001, 6.2138006E-004, 1.6334687E-001, 1.0891670E-001, 9.2751295E-003, 1.3385136E-003, 3.2763980E-003, 5.2998018E+002
 6.4002801E+001, 8.6182042E-004, 1.6526741E-001, 1.0819517E-001, 7.8721126E-003, 9.6069600E-004, 2.9907809E-003, 5.4261144E+002
 6.5008476E+001, 5.9386346E-004, 1.6240584E-001, 1.0919088E-001, 9.9011690E-003, 1.6364235E-003, 3.4031785E-003, 5.2591942E+002
 6.6006745E+001, 5.7216462E-004, 1.6275843E-001, 1.0912839E-001, 9.6974937E-003, 1.4102159E-003, 3.3622985E-003, 5.2844464E+002
 6.7000561E+001, 5.7372573E-004, 1.6241069E-001, 1.0924102E-001, 9.9371383E-003, 1.4017558E-003, 3.4109277E-003, 5.2748487E+002
 6.8007708E+001, 4.7128295E-004, 1.6166947E-001, 1.0951356E-001, 1.0474332E-002, 1.6242674E-003, 3.5202399E-003, 5.2683683E+002
 6.9004061E+001, 4.2871138E-004, 1.6104291E-001, 1.0974726E-001, 1.0930125E-002, 1.6085697E-003, 3.6130057E-003, 5.3005722E+002
 7.0008037E+001, 4.6367266E-004, 1.6069978E-001, 1.0980179E-001, 1.1123355E-002, 1.8097238E-003, 3.6517209E-003, 5.1984417E+002
 7.1004684E+001, 4.2646852E-004, 1.6053302E-001, 1.0988377E-001, 1.1260034E-002, 1.7914629E-003, 3.6797058E-003, 5.2634885E+002
 7.2001532E+001, 4.3432761E-004, 1.6023513E-001, 1.0997296E-001, 1.1459713E-002, 1.8020313E-003, 3.7201606E-003, 5.2793800E+002
 7.3009525E+001, 4.3358070E-004, 1.5950032E-001, 1.1019596E-001, 1.1954890E-002, 1.8933760E-003, 3.8205145E-003, 5.2236538E+002
 7.4001531E+001, 3.9976913E-004, 1.5957899E-001, 1.1019548E-001, 1.1920113E-002, 1.8806543E-003, 3.8136805E-003, 5.2769129E+002
 7.5002386E+001, 5.5346105E-004, 1.6122719E-001, 1.0957568E-001, 1.0716566E-002, 1.7793568E-003, 3.5686770E-003, 5.3400259E+002
 7.6005056E+001, 4.9574722E-004, 1.5930187E-001, 1.1018743E-001, 1.2035703E-002, 2.0818675E-003, 3.8362716E-003, 5.2538817E+002
 7.7005383E+001, 4.7978902E-004, 1.5789121E-001, 1.1060011E-001, 1.2974977E-002, 2.4128361E-003, 4.0264949E-003, 5.1609970E+002
 7.8004146E+001, 4.6467516E-004, 1.5804171E-001, 1.1057131E-001, 1.2886537E-002, 2.3537853E-003, 4.0087237E-003, 5.1914474E+002
 7.9007205E+001, 5.1892085E-004, 1.5959470E-001, 1.1011547E-001, 1.1850691E-002, 1.8459821E-003, 3.7989205E-003, 5.2283974E+002
 8.0002069E+001, 4.2878621E-004, 1.5849423E-001, 1.1048211E-001, 1.2618508E-002, 2.1523545E-003, 3.9548368E-003, 5.2418080E+002
 8.1003822E+001, 4.3153954E-004, 1.5625992E-001, 1.1108133E-001, 1.4064699E-002, 2.8950586E-003, 4.2472297E-003, 5.2028666E+002
 8.2001056E+001, 4.6301686E-004, 1.5668976E-001, 1.1096923E-001, 1.3788289E-002, 2.5992687E-003, 4.1913662E-003, 5.1921039E+002
 8.3008887E+001, 4.6696353E-004, 1.5727806E-001, 1.1079847E-001, 1.3397637E-002, 2.4642350E-003, 4.1122634E-003, 5.2456972E+002
 8.4003618E+001, 4.8224861E-004, 1.5631772E-001, 1.1103602E-001, 1.4003914E-002, 2.8479415E-003, 4.2346542E-003, 5.2117078E+002
 8.5004650E+001, 4.7943614E-004, 1.5637831E-001, 1.1104602E-001, 1.3984510E-002, 2.6775327E-003, 4.2309726E-003, 5.2186773E+002
 8.6000983E+001, 4.4409797E-004, 1.5643400E-001, 1.1104485E-001, 1.3959475E-002, 2.7211388E-003, 4.2260459E-003, 5.2567439E+002
 8.7002422E+001, 5.1142059E-004, 1.5534212E-001, 1.1127153E-001, 1.4615188E-002, 3.2168125E-003, 4.3579958E-003, 5.2109766E+002
 8.8003645E+001, 4.6055179E-004, 1.5447894E-001, 1.1161903E-001, 1.5262211E-002, 3.0053290E-003, 4.4898888E-003, 5.2431548E+002
 8.9006746E+001, 5.3307280E-004, 1.5552647E-001, 1.1123701E-001, 1.4506705E-002, 2.9724525E-003, 4.3361942E-003, 5.2270735E+002
 9.0007738E+001, 5.2713353E-004, 1.5457921E-001, 1.1150549E-001, 1.5130834E-002, 3.2279973E-003, 4.4625155E-003, 5.2041011E+002
 9.1009268E+001, 5.2259274E-004, 1.5497376E-001, 1.1137651E-001, 1.4858082E-002, 3.2564567E-003, 4.4071587E-003, 5.2422426E+002
 9.2006241E+001, 4.9750858E-004, 1.5322046E-001, 1.1190700E-001, 1.6038822E-002, 3.5814366E-003, 4.6464418E-003, 5.1891395E+002
 9.3005693E+001, 5.1181481E-004, 1.5355823E-001, 1.1174414E-001, 1.5765498E-002, 3.8531262E-003, 4.5905141E-003, 5.1829782E+002
 9.4007846E+001, 5.0737804E-004, 1.5348305E-001, 1.1183470E-001, 1.5867257E-002, 3.4632412E-003, 4.6117349E-003, 5.1865248E+002
 9.5010242E+001, 4.9414548E-004, 1.5401233E-001, 1.1168710E-001, 1.5520646E-002, 3.3745415E-003, 4.5416079E-003, 5.2442762E+002
 9.6007430E+001, 5.2540394E-004, 1.5355000E-001, 1.1174863E-001, 1.5772296E-002, 3.7852218E-003, 4.5919061E-003, 5.1892078E+002
 9.7008332E+001, 4.9334411E-004, 1.5398690E-001, 1.1163750E-001, 1.5494631E-002, 3.7340419E-003, 4.5358306E-003, 5.2952185E+002
 9.8006129E+001, 5.7960870E-004, 1.5291360E-001, 1.1189554E-001, 1.6165347E-002, 3.9206321E-003, 4.6711428E-003, 5.1991643E+002
 9.9009534E+001, 6.3294764E-004, 1.5314918E-001, 1.1179433E-001, 1.5983242E-002, 3.8532649E-003, 4.6339626E-003, 5.2435350E+002
 1.0000508E+002, 6.8931600E-004, 1.5326236E-001, 1.1174625E-001, 1.5895608E-002, 3.6894416E-003, 4.6160683E-003, 5.1921149E+002
 1.0100790E+002, 7.6974120E-004, 1.5211863E-001, 1.1198785E-001, 1.6585410E-002, 4.1418184E-003, 4.7549165E-003, 5.1707799E+002
 1.0200163E+002, 7.7466573E-004, 1.5200557E-001, 1.1203327E-001, 1.6669872E-002, 4.0664120E-003, 4.7721306E-003, 5.1642990E+002
 1.0300360E+002, 7.4804960E-004, 1.5183665E-001, 1.1208436E-001, 1.6784062E-002, 4.1986391E-003, 4.7952773E-003, 5.1587582E+002
 1.0400342E+002, 7.3300263E-004, 1.5170676E-001, 1.1211400E-001, 1.6864495E-002, 4.3371847E-003, 4.8114954E-003, 5.1776152E+002
 1.0500510E+002, 7.2664744E-004, 1.5124471E-001, 1.1226606E-001, 1.7184882E-002, 4.3462710E-003, 4.8765314E-003, 5.1926746E+002
 1.0600207E+002, 6.7000937E-004, 1.5116933E-001, 1.1232020E-001, 1.7260256E-002, 4.3986038E-003, 4.8920957E-003, 5.1984094E+002
 1.0700556E+002, 6.0135483E-004, 1.5070356E-001, 1.1250438E-001, 1.7607629E-002, 4.4766564E-003, 4.9628887E-003, 5.1882500E+002
 1.0800615E+002, 5.8757362E-004, 1.5063521E-001, 1.1249910E-001, 1.7634343E-002, 4.7025829E-003, 4.9680764E-003, 5.1703060E+002
 1.0900146E+002, 6.2597114E-004, 1.5042025E-001, 1.1251772E-001, 1.7743389E-002, 4.8557160E-003, 4.9897560E-003, 5.1720511E+002
 1.1000200E+002, 5.3712634E-004, 1.5048603E-001, 1.1258093E-001, 1.7763319E-002, 4.7054720E-003, 4.9945488E-003, 5.1651345E+002
 1.1100489E+002, 5.3978702E-004, 1.5108312E-001, 1.1242942E-001, 1.7383276E-002, 4.4397031E-003, 4.9177897E-003, 5.1910396E+002
 1.1200457E+002, 5.3974085E-004, 1.5050945E-001, 1.1255177E-001, 1.7730885E-002, 4.8275622E-003, 4.9877810E-003, 5.1613040E+002
 1.1300978E+002, 5.5255537E-004, 1.4987895E-001, 1.1273859E-001, 1.8152114E-002, 4.8778576E-003, 5.0731051E-003, 5.1698550E+002
 1.1400322E+002, 5.6294337E-004, 1.5120547E-001, 1.1237026E-001, 1.7283820E-002, 4.4642532E-003, 4.8974340E-003, 5.2170178E+002
 1.1500563E+002, 5.8581243E-004, 1.5009511E-001, 1.1270428E-001, 1.8029409E-002, 4.5205747E-003, 5.0485055E-003, 5.2160609E+002
 1.1600545E+002, 6.0694398E-004, 1.5066573E-001, 1.1249619E-001, 1.7618208E-002, 4.5791257E-003, 4.9648579E-003, 5.2254716E+002
 1.1700076E+002, 6.9146210E-004, 1.5007502E-001, 1.1262921E-001, 1.7979890E-002, 4.5829759E-003, 5.0377299E-003, 5.1757587E+002
 1.1800836E+002, 6.3038234E-004, 1.4962102E-001, 1.1276876E-001, 1.8288278E-002, 4.8809877E-003, 5.1002584E-003, 5.1861846E+002
 1.1900617E+002, 6.6633360E-004, 1.4901447E-001, 1.1289230E-001, 1.8650769E-002, 5.1770580E-003, 5.1731797E-003, 5.1796087E+002
 1.2000154E+002, 6.0214335E-004, 1.4957392E-001, 1.1276914E-001, 1.8310054E-002, 5.0900236E-003, 5.1045554E-003, 5.1848047E+002
 1.2100453E+002, 6.1738513E-004, 1.5008367E-001, 1.1264902E-001, 1.7992312E-002, 4.7522538E-003, 5.0404623E-003, 5.1935641E+002
 1.2200896E+002, 7.5677341E-004, 1.4902258E-001, 1.1284439E-001, 1.8609422E-002, 5.0793973E-003, 5.1643785E-003, 5.1600769E+002
 1.2300047E+002, 6.9300228E-004, 1.4885309E-001, 1.1293244E-001, 1.8752375E-002, 5.1398043E-003, 5.1936872E-003, 5.1858335E+002
 1.2400501E+002, 7.5283983E-004, 1.4936338E-001, 1.1282830E-001, 1.8445619E-002, 4.5167261E-003, 5.1319524E-003, 5.1883963E+002
 1.2500508E+002, 7.4876847E-004, 1.4843863E-001, 1.1300718E-001, 1.8992210E-002, 5.2717555E-003, 5.2418298E-003, 5.1689439E+002
 1.2600594E+002, 7.9556451E-004, 1.4848780E-001, 1.1301612E-001, 1.8976192E-002, 4.9238860E-003, 5.2387831E-003, 5.1565971E+002
 1.2700207E+002, 7.6057921E-004, 1.4826538E-001, 1.1303991E-001, 1.9093788E-002, 5.3656739E-003, 5.2622381E-003, 5.1633637E+002
 1.2800098E+002, 5.7386860E-004, 1.4968178E-001, 1.1275749E-001, 1.8253759E-002, 5.0649634E-003, 5.0933391E-003, 5.1973425E+002
 1.2900348E+002, 6.8521980E-004, 1.4804094E-001, 1.1314401E-001, 1.9273508E-002, 5.4848081E-003, 5.2989955E-003, 5.1451543E+002
 1.3000031E+002, 6.8995299E-004, 1.4802989E-001, 1.1313006E-001, 1.9267837E-002, 5.5730182E-003, 5.2976926E-003, 5.1609620E+002
 1.3100737E+002, 7.2424626E-004, 1.4785551E-001, 1.1318709E-001, 1.9387814E-002, 5.4258150E-003, 5.3220356E-003, 5.2062883E+002
 1.3200262E+002, 6.6761036E-004, 1.4826415E-001, 1.1301787E-001, 1.9079435E-002, 5.8911433E-003, 5.2591535E-003, 5.2011704E+002
 1.3300106E+002, 6.4697575E-004, 1.4800241E-001, 1.1319878E-001, 1.9332615E-002, 5.3833385E-003, 5.3113629E-003, 5.2024895E+002
 1.3400910E+002, 6.0393454E-004, 1.4772494E-001, 1.1330594E-001, 1.9537664E-002, 5.4545411E-003, 5.3531309E-003, 5.1704385E+002
 1.3500533E+002, 5.7465643E-004, 1.4814859E-001, 1.1319416E-001, 1.9265357E-002, 5.4221739E-003, 5.2980993E-003, 5.1790090E+002
 1.3601055E+002, 5.6819679E-004, 1.4734556E-001, 1.1342501E-001, 1.9796928E-002, 5.6247572E-003, 5.4057169E-003, 5.1493456E+002
 1.3700889E+002, 5.6926295E-004, 1.4774203E-001, 1.1331694E-001, 1.9538971E-002, 5.4971981E-003, 5.3535465E-003, 5.1711969E+002
 1.3800900E+002, 5.3597937E-004, 1.4791204E-001, 1.1327811E-001, 1.9434623E-002, 5.5368061E-003, 5.3325193E-003, 5.1836236E+002
 1.3900998E+002, 4.9500900E-004, 1.4782326E-001, 1.1333535E-001, 1.9518017E-002, 5.5314082E-003, 5.3496969E-003, 5.1775232E+002
 1.4000755E+002, 4.9479724E-004, 1.4770854E-001, 1.1336568E-001, 1.9591946E-002, 5.5737275E-003, 5.3646398E-003, 5.1640820E+002
 1.4100767E+002, 4.9807782E-004, 1.4749086E-001, 1.1347067E-001, 1.9767894E-002, 5.3463881E-003, 5.4006402E-003, 5.1836560E+002
 1.4200415E+002, 5.0215641E-004, 1.4687648E-001, 1.1359584E-001, 2.0135673E-002, 5.7807524E-003, 5.4746341E-003, 5.1600836E+002
 1.4300196E+002, 5.0735394E-004, 1.4760453E-001, 1.1337289E-001, 1.9643465E-002, 5.6839884E-003, 5.3748632E-003, 5.1361160E+002
 1.4400730E+002, 4.9678744E-004, 1.4715624E-001, 1.1347602E-001, 1.9920957E-002, 5.9846343E-003, 5.4308129E-003, 5.1741129E+002
 1.4500796E+002, 4.7824416E-004, 1.4761365E-001, 1.1340113E-001, 1.9661202E-002, 5.6131069E-003, 5.3787380E-003, 5.1568745E+002
 1.4600526E+002, 4.6333314E-004, 1.4743128E-001, 1.1349235E-001, 1.9811387E-002, 5.4760878E-003, 5.4094944E-003, 5.1710096E+002
 1.4700299E+002, 4.5798548E-004, 1.4693762E-001, 1.1357415E-001, 2.0092917E-002, 5.9767086E-003, 5.4659517E-003, 5.1534455E+002
 1.4800376E+002, 4.6514096E-004, 1.4730624E-001, 1.1354186E-001, 1.9904320E-002, 5.4123333E-003, 5.4284299E-003, 5.1935825E+002
 1.4900542E+002, 4.2957252E-004, 1.4643213E-001, 1.1371227E-001, 2.0422555E-002, 6.2499957E-003, 5.5326288E-003, 5.1526211E+002
 1.5000285E+002, 4.5843563E-004, 1.4753306E-001, 1.1343160E-001, 1.9720396E-002, 5.6682836E-003, 5.3907920E-003, 5.1566134E+002
 1.5100637E+002, 4.6163503E-004, 1.4651208E-001, 1.1376987E-001, 2.0429753E-002, 5.6024219E-003, 5.5348016E-003, 5.1450040E+002
 1.5200526E+002, 4.1397338E-004, 1.4744301E-001, 1.1352458E-001, 1.9831339E-002, 5.4597697E-003, 5.4138649E-003, 5.2076335E+002
 1.5301108E+002, 4.4872133E-004, 1.4739250E-001, 1.1355223E-001, 1.9874020E-002, 5.2451972E-003, 5.4226153E-003, 5.2142107E+002
 1.5400718E+002, 4.2483197E-004, 1.4700078E-001, 1.1362454E-001, 2.0103348E-002, 5.6786735E-003, 5.4686866E-003, 5.1698423E+002
