s,,,,,,,
Time,"O2 EXHAUST","CO2 EXHAUST","H2O EXHAUST","CO EXHAUST","FUEL EXHAUST","SOOT EXHAUST","TEMP EXHAUST"
 0.0000000E+000, 2.3099739E-001, 5.9146498E-004, 5.9412091E-003, 0.0000000E+000, 0.0000000E+000, 0.0000000E+000, 2.0000000E+001
 1.0016266E+000, 2.3099739E-001, 5.9146498E-004, 5.9412091E-003, 5.3601875E-033, 5.7919222E-032, 8.3699735E-033, 2.0504206E+001
 2.0001332E+000, 2.2494810E-001, 6.1875578E-003, 7.5273329E-003, 1.6501515E-005, 2.9054964E-004, 3.7154963E-004, 7.9011153E+001
 3.0039184E+000, 2.2167652E-001, 9.2151341E-003, 8.4001502E-003, 5.1649979E-005, 3.0583570E-004, 5.7823247E-004, 1.0577539E+002
 4.0036451E+000, 2.1749874E-001, 1.3098311E-002, 9.5038351E-003, 6.7684812E-005, 3.9775460E-004, 8.3704169E-004, 1.4331544E+002
 5.0054510E+000, 2.1345381E-001, 1.6831692E-002, 1.0576831E-002, 1.0560906E-004, 4.9091236E-004, 1.0907379E-003, 1.7645809E+002
 6.0063507E+000, 2.1024356E-001, 1.9814712E-002, 1.1425083E-002, 1.1870334E-004, 5.6139180E-004, 1.2897208E-003, 2.0213505E+002
 7.0035294E+000, 2.0485275E-001, 2.4821503E-002, 1.2856229E-002, 1.5405120E-004, 6.2135714E-004, 1.6265905E-003, 2.4177005E+002
 8.0029933E+000, 2.0144118E-001, 2.8021422E-002, 1.3760567E-002, 1.5667225E-004, 6.1799261E-004, 1.8375662E-003, 2.6472259E+002
 9.0040952E+000, 1.9779687E-001, 3.1423955E-002, 1.4728804E-002, 1.7206917E-004, 6.2083364E-004, 2.0646295E-003, 2.8454877E+002
 1.0006013E+001, 1.9183848E-001, 3.7014919E-002, 1.6312640E-002, 1.8326059E-004, 5.7020155E-004, 2.4346795E-003, 3.1819501E+002
 1.1004465E+001, 1.8808630E-001, 4.0541224E-002, 1.7310202E-002, 1.8757804E-004, 5.2723690E-004, 2.6674821E-003, 3.3338269E+002
 1.2005599E+001, 1.8133238E-001, 4.6893342E-002, 1.9105937E-002, 1.9293991E-004, 4.4056114E-004, 3.0863184E-003, 3.5879351E+002
 1.3002336E+001, 1.7684875E-001, 5.1119251E-002, 2.0297825E-002, 1.9112637E-004, 3.6951766E-004, 3.3637952E-003, 3.7528456E+002
 1.4003633E+001, 1.7309172E-001, 5.4659707E-002, 2.1296279E-002, 1.8944491E-004, 3.1370704E-004, 3.5962295E-003, 3.8461819E+002
 1.5005956E+001, 1.6900230E-001, 5.8508873E-002, 2.2382717E-002, 1.8948374E-004, 2.6401194E-004, 3.8493355E-003, 3.9306512E+002
 1.6004283E+001, 1.6372947E-001, 6.3472111E-002, 2.3783250E-002, 1.8888800E-004, 2.0239117E-004, 4.1755587E-003, 4.0599730E+002
 1.7007019E+001, 1.5864185E-001, 6.8255514E-002, 2.5134244E-002, 1.9073375E-004, 1.5564440E-004, 4.4904859E-003, 4.1510548E+002
 1.8008390E+001, 1.5501444E-001, 7.1666526E-002, 2.6097257E-002, 1.9135989E-004, 1.2356535E-004, 4.7149090E-003, 4.2073876E+002
 1.9003154E+001, 1.5105161E-001, 7.5391027E-002, 2.7148973E-002, 1.9248992E-004, 9.5060077E-005, 4.9600547E-003, 4.2467947E+002
 2.0003271E+001, 1.4740327E-001, 7.8815742E-002, 2.8117267E-002, 1.9592586E-004, 7.5661488E-005, 5.1859874E-003, 4.2806201E+002
 2.1000588E+001, 1.4434423E-001, 8.1687868E-002, 2.8929089E-002, 1.9836170E-004, 5.9012649E-005, 5.3753686E-003, 4.3150642E+002
 2.2002307E+001, 1.4158806E-001, 8.4272831E-002, 2.9660531E-002, 2.0209592E-004, 4.8853311E-005, 5.5461489E-003, 4.3249342E+002
 2.3006003E+001, 1.3780204E-001, 8.7822295E-002, 3.0665091E-002, 2.0764978E-004, 3.9001983E-005, 5.7807431E-003, 4.3594705E+002
 2.4009299E+001, 1.3526743E-001, 9.0198253E-002, 3.1337549E-002, 2.1141912E-004, 3.3479642E-005, 5.9377881E-003, 4.3554745E+002
 2.5004647E+001, 1.3187940E-001, 9.3374133E-002, 3.2236430E-002, 2.1650352E-004, 2.6235214E-005, 6.1477160E-003, 4.3656102E+002
 2.6007182E+001, 1.2982072E-001, 9.5302960E-002, 3.2782629E-002, 2.2012800E-004, 2.3359878E-005, 6.2753290E-003, 4.3587231E+002
 2.7002910E+001, 1.2592239E-001, 9.8954445E-002, 3.3816971E-002, 2.2762210E-004, 1.8991078E-005, 6.5170516E-003, 4.4015805E+002
 2.8001176E+001, 1.2432028E-001, 1.0045476E-001, 3.4242023E-002, 2.3083127E-004, 1.8149757E-005, 6.6163981E-003, 4.3730078E+002
 2.9009764E+001, 1.2271815E-001, 1.0195524E-001, 3.4667057E-002, 2.3391842E-004, 1.7273470E-005, 6.7157292E-003, 4.3687467E+002
 3.0007710E+001, 1.2026526E-001, 1.0425244E-001, 3.5317811E-002, 2.3871186E-004, 1.5847161E-005, 6.8678175E-003, 4.3694782E+002
 3.1002963E+001, 1.1759643E-001, 1.0675079E-001, 3.6025872E-002, 2.4455985E-004, 1.5978637E-005, 7.0333601E-003, 4.3797397E+002
 3.2000646E+001, 1.1452960E-001, 1.0962097E-001, 3.6839598E-002, 2.5182141E-004, 1.6747017E-005, 7.2236583E-003, 4.4015785E+002
 3.3004106E+001, 1.1340895E-001, 1.1066990E-001, 3.7136966E-002, 2.5444062E-004, 1.6576164E-005, 7.2931968E-003, 4.3973040E+002
 3.4010419E+001, 1.1116262E-001, 1.1277188E-001, 3.7732937E-002, 2.5983527E-004, 1.8139295E-005, 7.4325792E-003, 4.3825037E+002
 3.5008179E+001, 1.0812159E-001, 1.1561904E-001, 3.8539597E-002, 2.6602301E-004, 1.9024132E-005, 7.6211309E-003, 4.4039854E+002
 3.6008349E+001, 1.0539563E-001, 1.1817383E-001, 3.9262661E-002, 2.7008669E-004, 1.5507775E-005, 7.7899986E-003, 4.4480138E+002
 3.7006352E+001, 1.0454181E-001, 1.1896279E-001, 3.9489510E-002, 2.7823037E-004, 3.0311623E-005, 7.8436391E-003, 4.3921163E+002
 3.8010549E+001, 1.0126855E-001, 1.2202639E-001, 4.0357881E-002, 2.8562593E-004, 3.1897689E-005, 8.0466846E-003, 4.4452223E+002
 3.9000281E+001, 1.0044574E-001, 1.2276183E-001, 4.0577091E-002, 3.0827024E-004, 8.3372538E-005, 8.0999449E-003, 4.4156608E+002
 4.0011254E+001, 9.7959905E-002, 1.2508921E-001, 4.1235850E-002, 3.1218272E-004, 8.9918118E-005, 8.2538277E-003, 4.4415117E+002
 4.1005015E+001, 9.6339833E-002, 1.2647888E-001, 4.1669937E-002, 3.9340348E-004, 2.6864363E-004, 8.3627869E-003, 4.4180961E+002
 4.2001666E+001, 9.5470754E-002, 1.2722932E-001, 4.1899845E-002, 4.2895435E-004, 3.8353676E-004, 8.4198290E-003, 4.3866639E+002
 4.3001407E+001, 9.3735213E-002, 1.2876757E-001, 4.2363497E-002, 4.8616749E-004, 5.0254036E-004, 8.5333612E-003, 4.3796445E+002
 4.4006678E+001, 9.2571659E-002, 1.2978894E-001, 4.2672006E-002, 5.2582440E-004, 6.2118120E-004, 8.6091067E-003, 4.3656847E+002
 4.5008681E+001, 9.2023140E-002, 1.3019622E-001, 4.2819171E-002, 5.8856412E-004, 7.8872080E-004, 8.6494699E-003, 4.3209408E+002
 4.6010870E+001, 9.0900948E-002, 1.3116049E-001, 4.3120154E-002, 6.4443575E-004, 9.0684223E-004, 8.7249697E-003, 4.3187901E+002
 4.7002174E+001, 8.9608841E-002, 1.3219089E-001, 4.3467692E-002, 7.5459909E-004, 1.1711572E-003, 8.8165720E-003, 4.2890089E+002
 4.8001841E+001, 8.8745200E-002, 1.3281031E-001, 4.3705724E-002, 8.7673170E-004, 1.4136078E-003, 8.8837396E-003, 4.2639964E+002
 4.9000289E+001, 8.8323615E-002, 1.3317561E-001, 4.3825169E-002, 9.0743222E-004, 1.3933288E-003, 8.9144023E-003, 4.2361503E+002
 5.0009186E+001, 8.7756405E-002, 1.3371313E-001, 4.3964918E-002, 8.8587207E-004, 1.4821908E-003, 8.9450848E-003, 4.2157673E+002
 5.1002665E+001, 8.6731375E-002, 1.3435746E-001, 4.4237895E-002, 1.0639125E-003, 2.0152055E-003, 9.0259997E-003, 4.2084271E+002
 5.2000838E+001, 8.6524995E-002, 1.3457195E-001, 4.4293260E-002, 1.0537048E-003, 1.9728631E-003, 9.0378931E-003, 4.1774725E+002
 5.3003109E+001, 8.5936724E-002, 1.3498459E-001, 4.4446081E-002, 1.1253696E-003, 2.2408323E-003, 9.0805437E-003, 4.1557481E+002
 5.4010968E+001, 8.4975693E-002, 1.3558837E-001, 4.4705596E-002, 1.2988690E-003, 2.7077084E-003, 9.1578076E-003, 4.1338188E+002
 5.5004852E+001, 8.4681291E-002, 1.3586271E-001, 4.4786267E-002, 1.3047923E-003, 2.6859786E-003, 9.1771274E-003, 4.1006366E+002
 5.6005433E+001, 8.4372857E-002, 1.3608806E-001, 4.4871553E-002, 1.3466205E-003, 2.7628602E-003, 9.2009997E-003, 4.1141642E+002
 5.7003922E+001, 8.3491690E-002, 1.3667496E-001, 4.5106319E-002, 1.4816429E-003, 3.1633116E-003, 9.2688245E-003, 4.1025829E+002
 5.8010687E+001, 8.3206672E-002, 1.3686712E-001, 4.5175943E-002, 1.5127517E-003, 3.3476895E-003, 9.2881987E-003, 4.0761224E+002
 5.9007727E+001, 8.2871462E-002, 1.3701038E-001, 4.5260109E-002, 1.5990756E-003, 3.6856706E-003, 9.3163118E-003, 4.0554075E+002
 6.0010979E+001, 8.2323609E-002, 1.3738686E-001, 4.5409656E-002, 1.6830410E-003, 3.8812978E-003, 9.3592439E-003, 4.0498306E+002
 6.1002532E+001, 8.2193577E-002, 1.3737952E-001, 4.5433282E-002, 1.7351153E-003, 4.2048103E-003, 9.3700425E-003, 4.0234977E+002
 6.2000734E+001, 8.1807410E-002, 1.3770527E-001, 4.5533897E-002, 1.7524030E-003, 4.2834975E-003, 9.3952061E-003, 4.0072558E+002
 6.3006277E+001, 8.1445617E-002, 1.3789799E-001, 4.5626862E-002, 1.8283473E-003, 4.5629132E-003, 9.4243227E-003, 3.9929835E+002
 6.4003881E+001, 8.1220431E-002, 1.3804731E-001, 4.5673087E-002, 1.8386029E-003, 4.7947749E-003, 9.4363697E-003, 3.9865757E+002
 6.5002806E+001, 8.1189614E-002, 1.3796718E-001, 4.5675091E-002, 1.8877773E-003, 5.0398893E-003, 9.4417514E-003, 3.9750204E+002
 6.6002179E+001, 8.0799816E-002, 1.3822402E-001, 4.5772287E-002, 1.9371459E-003, 5.2838926E-003, 9.4693322E-003, 3.9495888E+002
 6.7003754E+001, 8.0280156E-002, 1.3864030E-001, 4.5905967E-002, 1.9695262E-003, 5.4437842E-003, 9.5037175E-003, 3.9483014E+002
 6.8007152E+001, 8.0062208E-002, 1.3871682E-001, 4.5951409E-002, 2.0182388E-003, 5.7786876E-003, 9.5193030E-003, 3.9547325E+002
 6.9000299E+001, 7.9717672E-002, 1.3891344E-001, 4.6036129E-002, 2.0765199E-003, 6.0577599E-003, 9.5448543E-003, 3.9457612E+002
 7.0010322E+001, 7.9584924E-002, 1.3899923E-001, 4.6048049E-002, 2.0563974E-003, 6.3412220E-003, 9.5461521E-003, 3.9143056E+002
 7.1000807E+001, 7.9310593E-002, 1.3915308E-001, 4.6113882E-002, 2.1013958E-003, 6.5832333E-003, 9.5660150E-003, 3.9125962E+002
 7.2008795E+001, 7.8925446E-002, 1.3945023E-001, 4.6212632E-002, 2.1310860E-003, 6.7243627E-003, 9.5919844E-003, 3.9045939E+002
 7.3006226E+001, 7.8802178E-002, 1.3945351E-001, 4.6234153E-002, 2.1732389E-003, 7.0215923E-003, 9.6013332E-003, 3.9096119E+002
 7.4010112E+001, 7.8513995E-002, 1.3962887E-001, 4.6306995E-002, 2.2195155E-003, 7.2178254E-003, 9.6228850E-003, 3.8878070E+002
 7.5001577E+001, 7.8524131E-002, 1.3955049E-001, 4.6287206E-002, 2.2269417E-003, 7.4958180E-003, 9.6193494E-003, 3.8946520E+002
 7.6009411E+001, 7.8179975E-002, 1.3981153E-001, 4.6363189E-002, 2.2340415E-003, 7.7439353E-003, 9.6380597E-003, 3.8761612E+002
 7.7003727E+001, 7.8168481E-002, 1.3977036E-001, 4.6352623E-002, 2.2383848E-003, 7.9602465E-003, 9.6363012E-003, 3.8585282E+002
 7.8000293E+001, 7.8330986E-002, 1.3960898E-001, 4.6284036E-002, 2.1976080E-003, 8.2136817E-003, 9.6168752E-003, 3.8521829E+002
 7.9004109E+001, 7.7857425E-002, 1.3994786E-001, 4.6397978E-002, 2.2353617E-003, 8.5024997E-003, 9.6473394E-003, 3.8501957E+002
 8.0000769E+001, 7.7677121E-002, 1.4006210E-001, 4.6420422E-002, 2.2204725E-003, 8.8331402E-003, 9.6516419E-003, 3.8508765E+002
 8.1010388E+001, 7.7741729E-002, 1.3996306E-001, 4.6402777E-002, 2.2407110E-003, 8.9042095E-003, 9.6495116E-003, 3.8405832E+002
 8.2004362E+001, 7.7481254E-002, 1.4014161E-001, 4.6451933E-002, 2.2416487E-003, 9.2025914E-003, 9.6614667E-003, 3.8316524E+002
 8.3005599E+001, 7.7435353E-002, 1.4016471E-001, 4.6453596E-002, 2.2339182E-003, 9.3348192E-003, 9.6613180E-003, 3.8275990E+002
 8.4001817E+001, 7.7351191E-002, 1.4020709E-001, 4.6447408E-002, 2.2032216E-003, 9.6633608E-003, 9.6574748E-003, 3.8200919E+002
 8.5009762E+001, 7.7285142E-002, 1.4019957E-001, 4.6441434E-002, 2.1996325E-003, 1.0001799E-002, 9.6562173E-003, 3.8181173E+002
 8.6004354E+001, 7.7121461E-002, 1.4024530E-001, 4.6464836E-002, 2.2235242E-003, 1.0373514E-002, 9.6644084E-003, 3.8118745E+002
 8.7006762E+001, 7.7182655E-002, 1.4019864E-001, 4.6427639E-002, 2.1800577E-003, 1.0550662E-002, 9.6519413E-003, 3.8023607E+002
 8.8009944E+001, 7.7144752E-002, 1.4021173E-001, 4.6416210E-002, 2.1540947E-003, 1.0789527E-002, 9.6471929E-003, 3.7966903E+002
 8.9002136E+001, 7.7008844E-002, 1.4031245E-001, 4.6442630E-002, 2.1517907E-003, 1.0924998E-002, 9.6533228E-003, 3.7861369E+002
 9.0008090E+001, 7.6932367E-002, 1.4034895E-001, 4.6448433E-002, 2.1454324E-003, 1.1120478E-002, 9.6543541E-003, 3.7807018E+002
 9.1011752E+001, 7.6974925E-002, 1.4027964E-001, 4.6423196E-002, 2.1366711E-003, 1.1301225E-002, 9.6479081E-003, 3.7678375E+002
 9.2006941E+001, 7.6870669E-002, 1.4028847E-001, 4.6422000E-002, 2.1343037E-003, 1.1723037E-002, 9.6479931E-003, 3.7735816E+002
 9.3003758E+001, 7.7093701E-002, 1.4007026E-001, 4.6354504E-002, 2.1241422E-003, 1.1816864E-002, 9.6314492E-003, 3.7643242E+002
 9.4003011E+001, 7.7102140E-002, 1.4003437E-001, 4.6332822E-002, 2.1048110E-003, 1.2046311E-002, 9.6249154E-003, 3.7359350E+002
 9.5011530E+001, 7.7001897E-002, 1.3999240E-001, 4.6331111E-002, 2.1293815E-003, 1.2543977E-002, 9.6274919E-003, 3.7428316E+002
 9.6003589E+001, 7.6967734E-002, 1.4003762E-001, 4.6316276E-002, 2.0794367E-003, 1.2744023E-002, 9.6196649E-003, 3.7350749E+002
 9.7004849E+001, 7.7122555E-002, 1.3991032E-001, 4.6269684E-002, 2.0595052E-003, 1.2765097E-002, 9.6069823E-003, 3.7291331E+002
 9.8004524E+001, 7.7149138E-002, 1.3977088E-001, 4.6237619E-002, 2.0779528E-003, 1.3195465E-002, 9.6018224E-003, 3.7402838E+002
 9.9011288E+001, 7.7297883E-002, 1.3957006E-001, 4.6182216E-002, 2.0831187E-003, 1.3450050E-002, 9.5897452E-003, 3.7154202E+002
 1.0000487E+002, 7.7104370E-002, 1.3970240E-001, 4.6221031E-002, 2.0880871E-003, 1.3650848E-002, 9.5995304E-003, 3.7159859E+002
 1.0100505E+002, 7.7152135E-002, 1.3964175E-001, 4.6187098E-002, 2.0587778E-003, 1.3876509E-002, 9.5892084E-003, 3.7092643E+002
 1.0201315E+002, 7.7256811E-002, 1.3953466E-001, 4.6151398E-002, 2.0493960E-003, 1.3966085E-002, 9.5801403E-003, 3.6928000E+002
 1.0301402E+002, 7.7397319E-002, 1.3934697E-001, 4.6090450E-002, 2.0377688E-003, 1.4283427E-002, 9.5652951E-003, 3.6880888E+002
 1.0400182E+002, 7.7385541E-002, 1.3933371E-001, 4.6082677E-002, 2.0317166E-003, 1.4426819E-002, 9.5631194E-003, 3.6835600E+002
 1.0501097E+002, 7.7375327E-002, 1.3929588E-001, 4.6068154E-002, 2.0270902E-003, 1.4669061E-002, 9.5596400E-003, 3.6807109E+002
 1.0601096E+002, 7.7445208E-002, 1.3920031E-001, 4.6033141E-002, 2.0141315E-003, 1.4874546E-002, 9.5505597E-003, 3.6725544E+002
 1.0700573E+002, 7.7557778E-002, 1.3897363E-001, 4.5979017E-002, 2.0374662E-003, 1.5309491E-002, 9.5407206E-003, 3.6586113E+002
 1.0800889E+002, 7.7487238E-002, 1.3902856E-001, 4.5999461E-002, 2.0468347E-003, 1.5312478E-002, 9.5463604E-003, 3.6656044E+002
 1.0900439E+002, 7.7459794E-002, 1.3905861E-001, 4.5995664E-002, 2.0246890E-003, 1.5408273E-002, 9.5435476E-003, 3.6631196E+002
 1.1000197E+002, 7.7672933E-002, 1.3880508E-001, 4.5918621E-002, 2.0173882E-003, 1.5692298E-002, 9.5253083E-003, 3.6591318E+002
 1.1100905E+002, 7.7674991E-002, 1.3872348E-001, 4.5896523E-002, 2.0228301E-003, 1.6030365E-002, 9.5211334E-003, 3.6489382E+002
 1.1200400E+002, 7.7697658E-002, 1.3866662E-001, 4.5876062E-002, 2.0166288E-003, 1.6226418E-002, 9.5160598E-003, 3.6450783E+002
 1.1300231E+002, 7.7697311E-002, 1.3863052E-001, 4.5866878E-002, 2.0201485E-003, 1.6375595E-002, 9.5144536E-003, 3.6463915E+002
 1.1400171E+002, 7.7826185E-002, 1.3843712E-001, 4.5820147E-002, 2.0376004E-003, 1.6617717E-002, 9.5055230E-003, 3.6378859E+002
 1.1501399E+002, 7.7767077E-002, 1.3841965E-001, 4.5821643E-002, 2.0525526E-003, 1.6875301E-002, 9.5076194E-003, 3.6443249E+002
 1.1600507E+002, 7.7863231E-002, 1.3825742E-001, 4.5785176E-002, 2.0726112E-003, 1.7101748E-002, 9.5013014E-003, 3.6374524E+002
 1.1700013E+002, 7.7963078E-002, 1.3818091E-001, 4.5754053E-002, 2.0547486E-003, 1.7115728E-002, 9.4924063E-003, 3.6317070E+002
 1.1801298E+002, 7.7879248E-002, 1.3821632E-001, 4.5759177E-002, 2.0481030E-003, 1.7349451E-002, 9.4933055E-003, 3.6212271E+002
 1.1900636E+002, 7.8031730E-002, 1.3795587E-001, 4.5704449E-002, 2.0872131E-003, 1.7685105E-002, 9.4846561E-003, 3.6148475E+002
 1.2000114E+002, 7.8051701E-002, 1.3790031E-001, 4.5702777E-002, 2.1139982E-003, 1.7714750E-002, 9.4867997E-003, 3.6219829E+002
 1.2100645E+002, 7.7987610E-002, 1.3795756E-001, 4.5708883E-002, 2.0961708E-003, 1.7821084E-002, 9.4867110E-003, 3.6093475E+002
 1.2200615E+002, 7.8034753E-002, 1.3786144E-001, 4.5689342E-002, 2.1121884E-003, 1.7976143E-002, 9.4838625E-003, 3.6067677E+002
 1.2300146E+002, 7.7949778E-002, 1.3785093E-001, 4.5707444E-002, 2.1541333E-003, 1.8172566E-002, 9.4922556E-003, 3.6160606E+002
 1.2400774E+002, 7.8059660E-002, 1.3769882E-001, 4.5658956E-002, 2.1465032E-003, 1.8437593E-002, 9.4806133E-003, 3.6028503E+002
 1.2500927E+002, 7.8362444E-002, 1.3734687E-001, 4.5571706E-002, 2.1712784E-003, 1.8619997E-002, 9.4628393E-003, 3.5821607E+002
 1.2600207E+002, 7.8253631E-002, 1.3741147E-001, 4.5580135E-002, 2.1555463E-003, 1.8874705E-002, 9.4636925E-003, 3.5941291E+002
 1.2701142E+002, 7.8422112E-002, 1.3725049E-001, 4.5545575E-002, 2.1751028E-003, 1.8785785E-002, 9.4573355E-003, 3.5870009E+002
 1.2801099E+002, 7.8410681E-002, 1.3721510E-001, 4.5518936E-002, 2.1475254E-003, 1.9141754E-002, 9.4490548E-003, 3.5832235E+002
 1.2900712E+002, 7.8639325E-002, 1.3688990E-001, 4.5444801E-002, 2.1842832E-003, 1.9458687E-002, 9.4356381E-003, 3.5807055E+002
 1.3000324E+002, 7.8333540E-002, 1.3713338E-001, 4.5525000E-002, 2.2068966E-003, 1.9540976E-002, 9.4565447E-003, 3.5772021E+002
 1.3100743E+002, 7.8376018E-002, 1.3710083E-001, 4.5518545E-002, 2.2114292E-003, 1.9483660E-002, 9.4553830E-003, 3.5852507E+002
 1.3201270E+002, 7.8455573E-002, 1.3698585E-001, 4.5482342E-002, 2.2066244E-003, 1.9694125E-002, 9.4467910E-003, 3.5851495E+002
 1.3301208E+002, 7.8655100E-002, 1.3671911E-001, 4.5425984E-002, 2.2441953E-003, 1.9863641E-002, 9.4373884E-003, 3.5669595E+002
 1.3400915E+002, 7.8400179E-002, 1.3687970E-001, 4.5478782E-002, 2.2613084E-003, 2.0136301E-002, 9.4516615E-003, 3.5719033E+002
 1.3500325E+002, 7.8605534E-002, 1.3666923E-001, 4.5405341E-002, 2.2370345E-003, 2.0344443E-002, 9.4325772E-003, 3.5802038E+002
 1.3600136E+002, 7.8685273E-002, 1.3650061E-001, 4.5375897E-002, 2.2738997E-003, 2.0583450E-002, 9.4294769E-003, 3.5672486E+002
 1.3700580E+002, 7.8614366E-002, 1.3655304E-001, 4.5407489E-002, 2.3045986E-003, 2.0488312E-002, 9.4395635E-003, 3.5684580E+002
 1.3800920E+002, 7.8995401E-002, 1.3616430E-001, 4.5290548E-002, 2.2931179E-003, 2.0691220E-002, 9.4115256E-003, 3.5475269E+002
 1.3901131E+002, 7.8773460E-002, 1.3633097E-001, 4.5337058E-002, 2.2941655E-003, 2.0877306E-002, 9.4227190E-003, 3.5596727E+002
 1.4000269E+002, 7.8710367E-002, 1.3628913E-001, 4.5344546E-002, 2.3334484E-003, 2.1137222E-002, 9.4284788E-003, 3.5625203E+002
 1.4100910E+002, 7.8742090E-002, 1.3621785E-001, 4.5338672E-002, 2.3608721E-003, 2.1185094E-002, 9.4297278E-003, 3.5525488E+002
 1.4200577E+002, 7.8861101E-002, 1.3605084E-001, 4.5293920E-002, 2.3677412E-003, 2.1403649E-002, 9.4202410E-003, 3.5652725E+002
 1.4301336E+002, 7.8914408E-002, 1.3604000E-001, 4.5284038E-002, 2.3536840E-003, 2.1296686E-002, 9.4164822E-003, 3.5636241E+002
 1.4401221E+002, 7.8980752E-002, 1.3591765E-001, 4.5250000E-002, 2.3574034E-003, 2.1553610E-002, 9.4092522E-003, 3.5499297E+002
 1.4500090E+002, 7.8672657E-002, 1.3601232E-001, 4.5316350E-002, 2.4374907E-003, 2.2030584E-002, 9.4328258E-003, 3.5624845E+002
 1.4601009E+002, 7.8888375E-002, 1.3593156E-001, 4.5285372E-002, 2.4170705E-003, 2.1577230E-002, 9.4230792E-003, 3.5521838E+002
 1.4700400E+002, 7.8848746E-002, 1.3582060E-001, 4.5274881E-002, 2.4613178E-003, 2.2027889E-002, 9.4253756E-003, 3.5636577E+002
 1.4801319E+002, 7.8866829E-002, 1.3572402E-001, 4.5262400E-002, 2.4915020E-003, 2.2236632E-002, 9.4255645E-003, 3.5612041E+002
 1.4900340E+002, 7.8976680E-002, 1.3561319E-001, 4.5221301E-002, 2.4743070E-003, 2.2361851E-002, 9.4145607E-003, 3.5493289E+002
 1.5000470E+002, 7.8810227E-002, 1.3568596E-001, 4.5269214E-002, 2.5272063E-003, 2.2469813E-002, 9.4307973E-003, 3.5500552E+002
 1.5101256E+002, 7.8789797E-002, 1.3572233E-001, 4.5278295E-002, 2.5242796E-003, 2.2406004E-002, 9.4325529E-003, 3.5671982E+002
 1.5200741E+002, 7.8771118E-002, 1.3569418E-001, 4.5269093E-002, 2.5242004E-003, 2.2616556E-002, 9.4306927E-003, 3.5527890E+002
 1.5300832E+002, 7.8746327E-002, 1.3565464E-001, 4.5271248E-002, 2.5509732E-003, 2.2765767E-002, 9.4338925E-003, 3.5541168E+002
 1.5400924E+002, 7.8815852E-002, 1.3546011E-001, 4.5245691E-002, 2.6095492E-003, 2.3054873E-002, 9.4337875E-003, 3.5557679E+002
