s,,,,,,,
Time,"O2 EXHAUST","CO2 EXHAUST","H2O EXHAUST","CO EXHAUST","FUEL EXHAUST","SOOT EXHAUST","TEMP EXHAUST"
 0.0000000E+000, 2.3099739E-001, 5.9146498E-004, 5.9412091E-003, 0.0000000E+000, 0.0000000E+000, 0.0000000E+000, 2.0000000E+001
 1.0032815E+000, 2.3099739E-001, 5.9146498E-004, 5.9412091E-003, 3.4578750E-031, 3.9216267E-030, 9.3489378E-032, 2.0594307E+001
 2.0009844E+000, 2.2195506E-001, 7.9003181E-003, 1.0527718E-002, 4.0046148E-005, 2.8312857E-004, 3.8936470E-005, 1.0779458E+002
 3.0012983E+000, 2.1658786E-001, 1.2248802E-002, 1.3265228E-002, 6.9619660E-005, 3.5493395E-004, 6.3345712E-005, 1.5681481E+002
 4.0007801E+000, 2.1074074E-001, 1.7012076E-002, 1.6243196E-002, 8.7364568E-005, 4.0262179E-004, 8.6913028E-005, 2.0974020E+002
 5.0024652E+000, 2.0527878E-001, 2.1447911E-002, 1.9026325E-002, 1.1091357E-004, 4.6803667E-004, 1.1038031E-004, 2.5339790E+002
 6.0013816E+000, 1.9664760E-001, 2.8550134E-002, 2.3418181E-002, 1.0285798E-004, 4.1618760E-004, 1.3805090E-004, 3.1768936E+002
 7.0057681E+000, 1.9021700E-001, 3.3867352E-002, 2.6693344E-002, 8.7505419E-005, 3.1060674E-004, 1.5674966E-004, 3.5787438E+002
 8.0012871E+000, 1.8110131E-001, 4.1408392E-002, 3.1333038E-002, 6.2077888E-005, 1.6872841E-004, 1.8247809E-004, 4.0317645E+002
 9.0070123E+000, 1.7108615E-001, 4.9679225E-002, 3.6428317E-002, 3.8966324E-005, 5.2715775E-005, 2.1173020E-004, 4.4570594E+002
 1.0006592E+001, 1.6527945E-001, 5.4462478E-002, 3.9382599E-002, 3.0994284E-005, 9.3767266E-006, 2.2981485E-004, 4.5903093E+002
 1.1003748E+001, 1.5800000E-001, 6.0434861E-002, 4.3086772E-002, 3.2077747E-005, 2.6501928E-007, 2.5478400E-004, 4.8002142E+002
 1.2005173E+001, 1.4638714E-001, 6.9955210E-002, 4.8996108E-002, 3.7133743E-005, 1.2350686E-007, 2.9530679E-004, 5.0406838E+002
 1.3003118E+001, 1.4272318E-001, 7.2958983E-002, 5.0860542E-002, 3.8711068E-005, 1.0780393E-007, 3.0808830E-004, 5.0075620E+002
 1.4009001E+001, 1.3431548E-001, 7.9851783E-002, 5.5138847E-002, 4.2304117E-005, 8.4240522E-008, 3.3741247E-004, 5.1590506E+002
 1.5008383E+001, 1.2631455E-001, 8.6410432E-002, 5.9210398E-002, 4.6181502E-005, 2.2730899E-007, 3.6541429E-004, 5.2671219E+002
 1.6001325E+001, 1.1958882E-001, 9.1924402E-002, 6.2632803E-002, 4.9005188E-005, 1.7368463E-007, 3.8886153E-004, 5.2861700E+002
 1.7003695E+001, 1.1460210E-001, 9.6012341E-002, 6.5170426E-002, 5.1327921E-005, 1.7968390E-007, 4.0629444E-004, 5.2543461E+002
 1.8009536E+001, 1.1095038E-001, 9.9006152E-002, 6.7028595E-002, 5.2843201E-005, 1.8515442E-007, 4.1902126E-004, 5.2232627E+002
 1.9001413E+001, 1.0530813E-001, 1.0363186E-001, 6.9899660E-002, 5.5201976E-005, 1.6156735E-007, 4.3868913E-004, 5.2467678E+002
 2.0000408E+001, 9.9108487E-002, 1.0871421E-001, 7.3054466E-002, 5.8012682E-005, 1.9137330E-007, 4.6034603E-004, 5.3126825E+002
 2.1008763E+001, 9.4475791E-002, 1.1251217E-001, 7.5411851E-002, 6.0011203E-005, 1.6027368E-007, 4.7650779E-004, 5.3094861E+002
 2.2009652E+001, 9.0459643E-002, 1.1579839E-001, 7.7457827E-002, 6.6117011E-005, 1.0894237E-006, 4.9143905E-004, 5.2930406E+002
 2.3003451E+001, 8.5713114E-002, 1.1967921E-001, 7.9876614E-002, 7.5180235E-005, 4.6589564E-006, 5.0947282E-004, 5.2950237E+002
 2.4004388E+001, 8.1682282E-002, 1.2295483E-001, 8.1938203E-002, 9.6904292E-005, 1.0309341E-005, 5.2773998E-004, 5.2825304E+002
 2.5009164E+001, 7.8568311E-002, 1.2549488E-001, 8.3527001E-002, 1.0683166E-004, 1.4890218E-005, 5.4040793E-004, 5.3111502E+002
 2.6006373E+001, 7.4197489E-002, 1.2905457E-001, 8.5760277E-002, 1.2542799E-004, 1.6406356E-005, 5.5917473E-004, 5.2683500E+002
 2.7001357E+001, 6.9412432E-002, 1.3296338E-001, 8.8199890E-002, 1.3693602E-004, 2.1074846E-005, 5.7785351E-004, 5.3532306E+002
 2.8003734E+001, 6.6620627E-002, 1.3523090E-001, 8.9628218E-002, 1.5282472E-004, 2.5192060E-005, 5.9068283E-004, 5.3104895E+002
 2.9006490E+001, 6.4782001E-002, 1.3673770E-001, 9.0564052E-002, 1.5401714E-004, 2.5088436E-005, 5.9718128E-004, 5.2589044E+002
 3.0004265E+001, 5.8491777E-002, 1.4187256E-001, 9.3772947E-002, 1.7198385E-004, 2.8786149E-005, 6.2233542E-004, 5.3233490E+002
 3.1007817E+001, 5.5991545E-002, 1.4390933E-001, 9.5049833E-002, 1.8196925E-004, 3.1637593E-005, 6.3293162E-004, 5.2847410E+002
 3.2001038E+001, 5.3402896E-002, 1.4602439E-001, 9.6369597E-002, 1.8797780E-004, 3.3444024E-005, 6.4299140E-004, 5.2840897E+002
 3.3001701E+001, 4.7737674E-002, 1.5065677E-001, 9.9257098E-002, 1.9898303E-004, 3.4034516E-005, 6.6455806E-004, 5.3572549E+002
 3.4006509E+001, 4.6104921E-002, 1.5196811E-001, 1.0009800E-001, 2.1863926E-004, 3.8338364E-005, 6.7424263E-004, 5.2935513E+002
 3.5003582E+001, 4.2181003E-002, 1.5519000E-001, 1.0209300E-001, 2.1693955E-004, 3.6834610E-005, 6.8721832E-004, 5.2950100E+002
 3.6001657E+001, 3.8226036E-002, 1.5839813E-001, 1.0411774E-001, 2.4218265E-004, 4.4323759E-005, 7.0596749E-004, 5.3447946E+002
 3.7008916E+001, 3.6837005E-002, 1.5954410E-001, 1.0482257E-001, 2.3821667E-004, 3.9780374E-005, 7.0985528E-004, 5.2798496E+002
 3.8009729E+001, 3.1446382E-002, 1.6393715E-001, 1.0757518E-001, 2.5871706E-004, 4.4705633E-005, 7.3248550E-004, 5.3825776E+002
 3.9002466E+001, 2.9525262E-002, 1.6549863E-001, 1.0855829E-001, 2.6931065E-004, 4.4062180E-005, 7.4124487E-004, 5.3439542E+002
 4.0000042E+001, 2.6232627E-002, 1.6811040E-001, 1.1026750E-001, 3.3264156E-004, 5.1096510E-005, 7.6576646E-004, 5.3257573E+002
 4.1008209E+001, 2.4141028E-002, 1.6977782E-001, 1.1134956E-001, 3.6665184E-004, 5.7305133E-005, 7.8003201E-004, 5.3153998E+002
 4.2005638E+001, 2.1558797E-002, 1.7189525E-001, 1.1266416E-001, 3.6796911E-004, 5.3258593E-005, 7.8908645E-004, 5.3021265E+002
 4.3002584E+001, 1.7696671E-002, 1.7507645E-001, 1.1462340E-001, 3.5886990E-004, 5.3369642E-005, 8.0029235E-004, 5.3732101E+002
 4.4011979E+001, 1.4319349E-002, 1.7767314E-001, 1.1640995E-001, 4.8313491E-004, 5.8660711E-005, 8.3793775E-004, 5.3567244E+002
 4.5008495E+001, 1.1361351E-002, 1.7993406E-001, 1.1797887E-001, 6.0076848E-004, 6.9177751E-005, 8.7275750E-004, 5.4055580E+002
 4.6008805E+001, 9.6891046E-003, 1.8090779E-001, 1.1898476E-001, 8.8364248E-004, 9.1027638E-005, 9.3800466E-004, 5.3558514E+002
 4.7011894E+001, 8.0977900E-003, 1.8082920E-001, 1.2033888E-001, 1.8700965E-003, 1.4339230E-004, 1.1511496E-003, 5.2941671E+002
 4.8002021E+001, 6.2390678E-003, 1.8196363E-001, 1.2143780E-001, 2.1483054E-003, 1.5887294E-004, 1.2160527E-003, 5.2967126E+002
 4.9000260E+001, 4.9832123E-003, 1.8263280E-001, 1.2220717E-001, 2.3978264E-003, 2.3020321E-004, 1.2728210E-003, 5.2663973E+002
 5.0008773E+001, 4.7140092E-003, 1.8126153E-001, 1.2294822E-001, 3.5171630E-003, 4.0300463E-004, 1.5093686E-003, 5.1789669E+002
 5.1006540E+001, 4.5570076E-003, 1.8101259E-001, 1.2313806E-001, 3.7599400E-003, 6.1105878E-004, 1.5608754E-003, 5.0793309E+002
 5.2012055E+001, 3.4583441E-003, 1.8089068E-001, 1.2411061E-001, 4.4967543E-003, 5.9453224E-004, 1.7198183E-003, 5.0881251E+002
 5.3010052E+001, 3.7916863E-003, 1.7941574E-001, 1.2437638E-001, 5.3273690E-003, 8.2796742E-004, 1.8934568E-003, 4.9957200E+002
 5.4001205E+001, 2.7871712E-003, 1.7928940E-001, 1.2524946E-001, 5.9966212E-003, 9.2356081E-004, 2.0377610E-003, 4.9769610E+002
 5.5010552E+001, 2.6178259E-003, 1.7833338E-001, 1.2574550E-001, 6.7626175E-003, 1.0702767E-003, 2.1995649E-003, 4.9630703E+002
 5.6009175E+001, 2.4883094E-003, 1.7869412E-001, 1.2568920E-001, 6.5661938E-003, 1.1709300E-003, 2.1585527E-003, 4.8749327E+002
 5.7007812E+001, 2.6733915E-003, 1.7748951E-001, 1.2594457E-001, 7.2721915E-003, 1.5354058E-003, 2.3063438E-003, 4.8427639E+002
 5.8003592E+001, 2.5010669E-003, 1.7687877E-001, 1.2633092E-001, 7.8100637E-003, 1.5503733E-003, 2.4202108E-003, 4.7901140E+002
 5.9004772E+001, 2.5911233E-003, 1.7504515E-001, 1.2681552E-001, 8.9533791E-003, 2.4290875E-003, 2.6600344E-003, 4.7580720E+002
 6.0003567E+001, 2.3823003E-003, 1.7525598E-001, 1.2698577E-001, 8.9796172E-003, 2.0290127E-003, 2.6665845E-003, 4.6965010E+002
 6.1005567E+001, 2.2813279E-003, 1.7442827E-001, 1.2735862E-001, 9.6033578E-003, 2.2481006E-003, 2.7981356E-003, 4.7866177E+002
 6.2006163E+001, 2.2556807E-003, 1.7399568E-001, 1.2748274E-001, 9.8805587E-003, 2.6030935E-003, 2.8563315E-003, 4.6571262E+002
 6.3002357E+001, 2.4273671E-003, 1.7307933E-001, 1.2765850E-001, 1.0404461E-002, 2.8433847E-003, 2.9659103E-003, 4.6097451E+002
 6.4008890E+001, 2.3873512E-003, 1.7205919E-001, 1.2799450E-001, 1.1087403E-002, 3.3778705E-003, 3.1094765E-003, 4.6013199E+002
 6.5006211E+001, 2.2339500E-003, 1.7209658E-001, 1.2812874E-001, 1.1165079E-002, 3.2740214E-003, 3.1264402E-003, 4.6237236E+002
 6.6006854E+001, 2.1871901E-003, 1.7056489E-001, 1.2860608E-001, 1.2171717E-002, 4.1565004E-003, 3.3379370E-003, 4.5688598E+002
 6.7008924E+001, 2.3565471E-003, 1.6965126E-001, 1.2876867E-001, 1.2685442E-002, 4.4671171E-003, 3.4453249E-003, 4.4948562E+002
 6.8002416E+001, 2.6310052E-003, 1.6873008E-001, 1.2889589E-001, 1.3176625E-002, 4.5290306E-003, 3.5478029E-003, 4.5041534E+002
 6.9008824E+001, 2.4832499E-003, 1.6804135E-001, 1.2917073E-001, 1.3672487E-002, 5.1560410E-003, 3.6522574E-003, 4.4744554E+002
 7.0009842E+001, 2.5719990E-003, 1.6716631E-001, 1.2932504E-001, 1.4164763E-002, 5.7686825E-003, 3.7551642E-003, 4.4105426E+002
 7.1003908E+001, 2.4267046E-003, 1.6642864E-001, 1.2965874E-001, 1.4722527E-002, 6.1889231E-003, 3.8728112E-003, 4.4286788E+002
 7.2006979E+001, 2.4356967E-003, 1.6638451E-001, 1.2980515E-001, 1.4842020E-002, 5.5066338E-003, 3.8984851E-003, 4.4297196E+002
 7.3001778E+001, 2.6031185E-003, 1.6525146E-001, 1.2988790E-001, 1.5398583E-002, 6.6659066E-003, 4.0142367E-003, 4.3896757E+002
 7.4001754E+001, 2.5392513E-003, 1.6433268E-001, 1.3029814E-001, 1.6087677E-002, 6.7250540E-003, 4.1595528E-003, 4.3623658E+002
 7.5002664E+001, 2.5441600E-003, 1.6328142E-001, 1.3054313E-001, 1.6721496E-002, 7.5892969E-003, 4.2923605E-003, 4.3701283E+002
 7.6000485E+001, 2.5185828E-003, 1.6296051E-001, 1.3067540E-001, 1.6954710E-002, 7.6788053E-003, 4.3414995E-003, 4.3780234E+002
 7.7005341E+001, 2.6332577E-003, 1.6177857E-001, 1.3095756E-001, 1.7670108E-002, 8.1589989E-003, 4.4914189E-003, 4.3589630E+002
 7.8005970E+001, 2.6184011E-003, 1.6131510E-001, 1.3114908E-001, 1.8006888E-002, 8.1932115E-003, 4.5623794E-003, 4.3605367E+002
 7.9003714E+001, 2.7727406E-003, 1.6048683E-001, 1.3122688E-001, 1.8425048E-002, 8.8198940E-003, 4.6494411E-003, 4.3294549E+002
 8.0006372E+001, 2.7465349E-003, 1.5979927E-001, 1.3148564E-001, 1.8907404E-002, 9.0151595E-003, 4.7509767E-003, 4.3271109E+002
 8.1001476E+001, 2.8151468E-003, 1.5908352E-001, 1.3165086E-001, 1.9336789E-002, 9.3376952E-003, 4.8409327E-003, 4.2843224E+002
 8.2009912E+001, 2.8192415E-003, 1.5841025E-001, 1.3174851E-001, 1.9702203E-002, 1.0183935E-002, 4.9172226E-003, 4.3030220E+002
 8.3001469E+001, 2.7977742E-003, 1.5857876E-001, 1.3173883E-001, 1.9621168E-002, 9.9839707E-003, 4.9003839E-003, 4.2669977E+002
 8.4002009E+001, 2.8365782E-003, 1.5777328E-001, 1.3192943E-001, 2.0108192E-002, 1.0484721E-002, 5.0024420E-003, 4.2631955E+002
 8.5008596E+001, 2.8612851E-003, 1.5689521E-001, 1.3232402E-001, 2.0767079E-002, 1.0168820E-002, 5.1413890E-003, 4.2903346E+002
 8.6001044E+001, 2.9039198E-003, 1.5672532E-001, 1.3231079E-001, 2.0832718E-002, 1.0397507E-002, 5.1548903E-003, 4.2662702E+002
 8.7002102E+001, 2.9399417E-003, 1.5522767E-001, 1.3269616E-001, 2.1760038E-002, 1.1324938E-002, 5.3493635E-003, 4.2453682E+002
 8.8004326E+001, 3.0150020E-003, 1.5483214E-001, 1.3269894E-001, 2.1936205E-002, 1.1790676E-002, 5.3858496E-003, 4.2025905E+002
 8.9001580E+001, 2.9710385E-003, 1.5473012E-001, 1.3280290E-001, 2.2053249E-002, 1.1659421E-002, 5.4107552E-003, 4.2174380E+002
 9.0007193E+001, 3.2260632E-003, 1.5325103E-001, 1.3310762E-001, 2.2913605E-002, 1.2034724E-002, 5.5908129E-003, 4.2139519E+002
 9.1007512E+001, 3.1595860E-003, 1.5280519E-001, 1.3324287E-001, 2.3204965E-002, 1.2531838E-002, 5.6520184E-003, 4.2394123E+002
 9.2004960E+001, 3.1699318E-003, 1.5234142E-001, 1.3330398E-001, 2.3452349E-002, 1.3114026E-002, 5.7036333E-003, 4.1848240E+002
 9.3007939E+001, 3.2678189E-003, 1.5164846E-001, 1.3346108E-001, 2.3865583E-002, 1.3308650E-002, 5.7901884E-003, 4.2179256E+002
 9.4005603E+001, 3.0989705E-003, 1.5153944E-001, 1.3359418E-001, 2.4007698E-002, 1.3569427E-002, 5.8204915E-003, 4.2019234E+002
 9.5011078E+001, 3.2440570E-003, 1.5048712E-001, 1.3371934E-001, 2.4557784E-002, 1.4447852E-002, 5.9351750E-003, 4.1400056E+002
 9.6009205E+001, 3.1324225E-003, 1.5020304E-001, 1.3392175E-001, 2.4824004E-002, 1.4473159E-002, 5.9916091E-003, 4.1655025E+002
 9.7006237E+001, 3.1828371E-003, 1.4986435E-001, 1.3415134E-001, 2.5130361E-002, 1.3792305E-002, 6.0565007E-003, 4.1828574E+002
 9.8003472E+001, 3.2566607E-003, 1.4886827E-001, 1.3428588E-001, 2.5663079E-002, 1.4809708E-002, 6.1676590E-003, 4.1722931E+002
 9.9003267E+001, 3.4898739E-003, 1.4867059E-001, 1.3424905E-001, 2.5721789E-002, 1.4412923E-002, 6.1795442E-003, 4.1521572E+002
 1.0000584E+002, 3.4613423E-003, 1.4766218E-001, 1.3453176E-001, 2.6362921E-002, 1.5142466E-002, 6.3141117E-003, 4.1225991E+002
 1.0100361E+002, 3.4451323E-003, 1.4726198E-001, 1.3462095E-001, 2.6601718E-002, 1.5567733E-002, 6.3641315E-003, 4.1683651E+002
 1.0200600E+002, 3.5035185E-003, 1.4698369E-001, 1.3465016E-001, 2.6744203E-002, 1.5735548E-002, 6.3938132E-003, 4.1449312E+002
 1.0300755E+002, 3.5850805E-003, 1.4603373E-001, 1.3489698E-001, 2.7333062E-002, 1.6065583E-002, 6.5173099E-003, 4.1592713E+002
 1.0401101E+002, 3.5061952E-003, 1.4539001E-001, 1.3518218E-001, 2.7814909E-002, 1.6261338E-002, 6.6189169E-003, 4.1376038E+002
 1.0500595E+002, 3.7889828E-003, 1.4469347E-001, 1.3513785E-001, 2.8089033E-002, 1.6696222E-002, 6.6753541E-003, 4.1293826E+002
 1.0600102E+002, 3.6358275E-003, 1.4440126E-001, 1.3541105E-001, 2.8407917E-002, 1.6557562E-002, 6.7431505E-003, 4.1177226E+002
 1.0701170E+002, 3.5360626E-003, 1.4342561E-001, 1.3585704E-001, 2.9147276E-002, 1.6702437E-002, 6.8991088E-003, 4.1205276E+002
 1.0801028E+002, 3.8549653E-003, 1.4246310E-001, 1.3599442E-001, 2.9663008E-002, 1.6610082E-002, 7.0067274E-003, 4.1007831E+002
 1.0900296E+002, 4.2925406E-003, 1.3979824E-001, 1.3669459E-001, 3.1316775E-002, 1.6621174E-002, 7.3535687E-003, 4.1445943E+002
 1.1000091E+002, 5.1558179E-003, 1.4022270E-001, 1.3577159E-001, 3.0483454E-002, 1.6769236E-002, 7.1749951E-003, 3.9833991E+002
 1.1100184E+002, 6.0642811E-003, 1.3787432E-001, 1.3612034E-001, 3.1748887E-002, 1.5928987E-002, 7.4391089E-003, 4.1069796E+002
 1.1200424E+002, 1.0146520E-002, 1.3581330E-001, 1.3320752E-001, 3.0605629E-002, 1.7530663E-002, 7.1831742E-003, 4.0621574E+002
 1.1300239E+002, 8.8076428E-003, 1.3715674E-001, 1.3377623E-001, 3.0420191E-002, 1.7600729E-002, 7.1486092E-003, 3.8777828E+002
 1.1400157E+002, 1.2201736E-002, 1.3471201E-001, 1.3165390E-001, 2.9998743E-002, 1.8901386E-002, 7.0472855E-003, 3.8739228E+002
 1.1500823E+002, 1.1784483E-002, 1.3448380E-001, 1.3223053E-001, 3.0500938E-002, 1.8222554E-002, 7.1550144E-003, 3.8419690E+002
 1.1600535E+002, 1.1612079E-002, 1.3415121E-001, 1.3261038E-001, 3.0910945E-002, 1.7711692E-002, 7.2423618E-003, 3.7633029E+002
 1.1700287E+002, 1.1389876E-002, 1.3650569E-001, 1.3217162E-001, 2.9570008E-002, 1.6111494E-002, 6.9619281E-003, 3.7733556E+002
 1.1800861E+002, 1.2115464E-002, 1.3429487E-001, 1.3252621E-001, 3.0781400E-002, 1.5732860E-002, 7.2149183E-003, 3.7769498E+002
 1.1901185E+002, 1.2380376E-002, 1.3155779E-001, 1.3340536E-001, 3.2592374E-002, 1.5717018E-002, 7.5954803E-003, 3.7687820E+002
 1.2001232E+002, 1.2808943E-002, 1.3116778E-001, 1.3326219E-001, 3.2660540E-002, 1.5419547E-002, 7.6086156E-003, 3.7544897E+002
 1.2100778E+002, 1.3077226E-002, 1.2809814E-001, 1.3409622E-001, 3.4588186E-002, 1.6283538E-002, 8.0130505E-003, 3.7132967E+002
 1.2200966E+002, 1.3408661E-002, 1.2724785E-001, 1.3432954E-001, 3.5119486E-002, 1.5432734E-002, 8.1245011E-003, 3.7602203E+002
 1.2300473E+002, 1.3831393E-002, 1.2550330E-001, 1.3472159E-001, 3.6154569E-002, 1.5200345E-002, 8.3412691E-003, 3.7363748E+002
 1.2400533E+002, 1.4554292E-002, 1.2370593E-001, 1.3480755E-001, 3.6998961E-002, 1.5347772E-002, 8.5165534E-003, 3.7212602E+002
 1.2500828E+002, 1.5213612E-002, 1.2249203E-001, 1.3463665E-001, 3.7409959E-002, 1.5876137E-002, 8.6004681E-003, 3.6922384E+002
 1.2600654E+002, 1.5921677E-002, 1.1937842E-001, 1.3513340E-001, 3.9119391E-002, 1.6672576E-002, 8.9574987E-003, 3.6820843E+002
 1.2701034E+002, 1.6294746E-002, 1.1848214E-001, 1.3525399E-001, 3.9593365E-002, 1.6304031E-002, 9.0563546E-003, 3.7214739E+002
 1.2800861E+002, 1.6273437E-002, 1.1789450E-001, 1.3562162E-001, 4.0105711E-002, 1.5732799E-002, 9.1647920E-003, 3.7597045E+002
 1.2901241E+002, 1.6811622E-002, 1.1561413E-001, 1.3594894E-001, 4.1332408E-002, 1.6416642E-002, 9.4208088E-003, 3.7308724E+002
 1.3000672E+002, 1.7256808E-002, 1.1522603E-001, 1.3574768E-001, 4.1359752E-002, 1.6336518E-002, 9.4251186E-003, 3.7233888E+002
 1.3100818E+002, 1.8134161E-002, 1.1369178E-001, 1.3539476E-001, 4.1784924E-002, 1.7505228E-002, 9.5107752E-003, 3.6892792E+002
 1.3200178E+002, 1.8426410E-002, 1.1321126E-001, 1.3532562E-001, 4.1946081E-002, 1.7590725E-002, 9.5436601E-003, 3.7124389E+002
 1.3300453E+002, 1.8574517E-002, 1.1268378E-001, 1.3547212E-001, 4.2277827E-002, 1.7295323E-002, 9.6132650E-003, 3.7154533E+002
 1.3400827E+002, 1.7258868E-002, 1.1206004E-001, 1.3703359E-001, 4.3643354E-002, 1.6247917E-002, 9.9061816E-003, 3.8418785E+002
 1.3501275E+002, 1.7576207E-002, 1.1167758E-001, 1.3695889E-001, 4.3756795E-002, 1.6058979E-002, 9.9291460E-003, 3.8222084E+002
 1.3600228E+002, 1.8186426E-002, 1.0896692E-001, 1.3751959E-001, 4.5332731E-002, 1.6136239E-002, 1.0258955E-002, 3.8219879E+002
 1.3700613E+002, 1.8509614E-002, 1.0885544E-001, 1.3725414E-001, 4.5195473E-002, 1.6333721E-002, 1.0228791E-002, 3.7957047E+002
 1.3800177E+002, 1.8753645E-002, 1.0863012E-001, 1.3715199E-001, 4.5221635E-002, 1.6274131E-002, 1.0233519E-002, 3.7941769E+002
 1.3900508E+002, 1.9083319E-002, 1.0697838E-001, 1.3740734E-001, 4.6123636E-002, 1.6930355E-002, 1.0421874E-002, 3.7767020E+002
 1.4000596E+002, 1.8923585E-002, 1.0600232E-001, 1.3797110E-001, 4.6944646E-002, 1.6737853E-002, 1.0595500E-002, 3.7853872E+002
 1.4100352E+002, 1.9911476E-002, 1.0498206E-001, 1.3736036E-001, 4.6963729E-002, 1.7701520E-002, 1.0595406E-002, 3.7780406E+002
 1.4200978E+002, 1.9543821E-002, 1.0466431E-001, 1.3796047E-001, 4.7520884E-002, 1.6876913E-002, 1.0714657E-002, 3.8334912E+002
 1.4300379E+002, 2.0452181E-002, 1.0320800E-001, 1.3766275E-001, 4.7948685E-002, 1.7482560E-002, 1.0801204E-002, 3.7752473E+002
 1.4400074E+002, 2.0403611E-002, 1.0269268E-001, 1.3786500E-001, 4.8316364E-002, 1.7708632E-002, 1.0878637E-002, 3.7530154E+002
 1.4500457E+002, 2.0308909E-002, 1.0224733E-001, 1.3817009E-001, 4.8724035E-002, 1.7472664E-002, 1.0965013E-002, 3.8026538E+002
 1.4600752E+002, 2.1056815E-002, 1.0137234E-001, 1.3776810E-001, 4.8825271E-002, 1.8105884E-002, 1.0983298E-002, 3.7696826E+002
 1.4700794E+002, 2.1505719E-002, 9.9942543E-002, 1.3791322E-001, 4.9551500E-002, 1.8368058E-002, 1.1134534E-002, 3.7630580E+002
 1.4800077E+002, 2.1303510E-002, 9.7881564E-002, 1.3893297E-001, 5.1166240E-002, 1.8249597E-002, 1.1475431E-002, 3.8059411E+002
 1.4900594E+002, 2.0642307E-002, 9.8777372E-002, 1.3927429E-001, 5.1012879E-002, 1.7514692E-002, 1.1445952E-002, 3.8772329E+002
 1.5001094E+002, 2.1050030E-002, 9.7122117E-002, 1.3958332E-001, 5.1951846E-002, 1.7581690E-002, 1.1642290E-002, 3.8721130E+002
 1.5100206E+002, 2.1053172E-002, 9.6035191E-002, 1.3993282E-001, 5.2672943E-002, 1.8001636E-002, 1.1793836E-002, 3.8275983E+002
 1.5200106E+002, 2.0796496E-002, 9.5322392E-002, 1.4044456E-001, 5.3343182E-002, 1.7947512E-002, 1.1935925E-002, 3.8587810E+002
 1.5300513E+002, 1.9846083E-002, 9.6073340E-002, 1.4115696E-001, 5.3512458E-002, 1.6858516E-002, 1.1975664E-002, 3.8993121E+002
 1.5401070E+002, 2.0405633E-002, 9.5264934E-002, 1.4093151E-001, 5.3707890E-002, 1.7264079E-002, 1.2014609E-002, 3.8990590E+002
