s,,,,,,,
Time,"O2 EXHAUST","CO2 EXHAUST","H2O EXHAUST","CO EXHAUST","FUEL EXHAUST","SOOT EXHAUST","TEMP EXHAUST"
 0.0000000E+000, 2.3099739E-001, 5.9146498E-004, 5.9412092E-003, 0.0000000E+000, 0.0000000E+000, 0.0000000E+000, 2.0000000E+001
 1.0018927E+000, 2.3099739E-001, 5.9146498E-004, 5.9412092E-003, 9.8476270E-024, 1.1452196E-023, 2.3962136E-023, 2.2443611E+001
 2.0006492E+000, 2.2087916E-001, 8.6838941E-003, 9.7817015E-003, 1.4944177E-004, 1.1412292E-004, 2.9968974E-004, 1.1828965E+002
 3.0012756E+000, 2.1249496E-001, 1.5314504E-002, 1.2987160E-002, 3.3291435E-004, 1.9018192E-004, 5.5832791E-004, 1.9291313E+002
 4.0054749E+000, 2.0568859E-001, 2.0844270E-002, 1.5558862E-002, 3.7977447E-004, 1.8547137E-004, 7.5126408E-004, 2.5043367E+002
 5.0046276E+000, 1.9744281E-001, 2.7595845E-002, 1.8662163E-002, 3.9877684E-004, 1.6574004E-004, 9.7863640E-004, 3.1067408E+002
 6.0029819E+000, 1.8904103E-001, 3.4527205E-002, 2.1812752E-002, 3.8137042E-004, 1.2630410E-004, 1.2041479E-003, 3.6473431E+002
 7.0040517E+000, 1.8142500E-001, 4.0816948E-002, 2.4668280E-002, 3.6195911E-004, 8.0938027E-005, 1.4080088E-003, 4.0586821E+002
 8.0013915E+000, 1.6907710E-001, 5.0994759E-002, 2.9301091E-002, 3.4324609E-004, 2.3074876E-005, 1.7406114E-003, 4.5577492E+002
 9.0036143E+000, 1.5831722E-001, 5.9804020E-002, 3.3350067E-002, 3.6794362E-004, 2.3715180E-006, 2.0372597E-003, 4.8322841E+002
 1.0006014E+001, 1.5088957E-001, 6.5860398E-002, 3.6150131E-002, 4.0205617E-004, 1.0732321E-007, 2.2448795E-003, 5.0016297E+002
 1.1006574E+001, 1.4037529E-001, 7.4426825E-002, 4.0115153E-002, 4.5498868E-004, 1.7742818E-007, 2.5395509E-003, 5.1519829E+002
 1.2004479E+001, 1.3112363E-001, 8.1963865E-002, 4.3604200E-002, 5.0206437E-004, 3.7855546E-007, 2.7989210E-003, 5.3126845E+002
 1.3007049E+001, 1.2326011E-001, 8.8369407E-002, 4.6569933E-002, 5.4257087E-004, 3.7093980E-007, 3.0194599E-003, 5.3737659E+002
 1.4006521E+001, 1.1813761E-001, 9.2545692E-002, 4.8500962E-002, 5.6630287E-004, 9.5078967E-008, 3.1626728E-003, 5.3957730E+002
 1.5004527E+001, 1.1333257E-001, 9.6460553E-002, 5.0312988E-002, 5.9050242E-004, 9.0050633E-008, 3.2973398E-003, 5.4231495E+002
 1.6001711E+001, 1.0980596E-001, 9.9334063E-002, 5.1642842E-002, 6.0808410E-004, 1.0203103E-007, 3.3961466E-003, 5.3910234E+002
 1.7000326E+001, 1.0411824E-001, 1.0396366E-001, 5.3788884E-002, 6.4002927E-004, 5.1435906E-007, 3.5561132E-003, 5.4275267E+002
 1.8003122E+001, 1.0097550E-001, 1.0652678E-001, 5.4973342E-002, 6.5389128E-004, 4.2001838E-007, 3.6438567E-003, 5.3599163E+002
 1.9005694E+001, 9.5712894E-002, 1.1080822E-001, 5.6959502E-002, 6.8500326E-004, 1.2353801E-006, 3.7921300E-003, 5.4183020E+002
 2.0003320E+001, 9.1913370E-002, 1.1388990E-001, 5.8395927E-002, 7.1451834E-004, 2.7533318E-006, 3.9003805E-003, 5.4478846E+002
 2.1003619E+001, 8.8861357E-002, 1.1636914E-001, 5.9548657E-002, 7.3526185E-004, 4.3103957E-006, 3.9868252E-003, 5.4414477E+002
 2.2001134E+001, 8.5586545E-002, 1.1901397E-001, 6.0789545E-002, 7.6902303E-004, 7.3146744E-006, 4.0815379E-003, 5.4312685E+002
 2.3000685E+001, 7.9288225E-002, 1.2411001E-001, 6.3173822E-002, 8.2712654E-004, 1.1177746E-005, 4.2625404E-003, 5.4732886E+002
 2.4005692E+001, 7.9717111E-002, 1.2377455E-001, 6.3008508E-002, 8.1458671E-004, 9.5387401E-006, 4.2487568E-003, 5.4072183E+002
 2.5007348E+001, 7.3760720E-002, 1.2862379E-001, 6.5255622E-002, 8.4727835E-004, 1.0247514E-005, 4.4161476E-003, 5.4554564E+002
 2.6006303E+001, 7.3142925E-002, 1.2912246E-001, 6.5489795E-002, 8.5386327E-004, 1.0806134E-005, 4.4340522E-003, 5.3705557E+002
 2.7006683E+001, 6.4955105E-002, 1.3579146E-001, 6.8578036E-002, 8.9658277E-004, 1.0779626E-005, 4.6637793E-003, 5.5023716E+002
 2.8002172E+001, 6.3173921E-002, 1.3720601E-001, 6.9259259E-002, 9.3292522E-004, 1.4142971E-005, 4.7183557E-003, 5.4477457E+002
 2.9002877E+001, 6.0187518E-002, 1.3962854E-001, 7.0388375E-002, 9.5604847E-004, 1.4026412E-005, 4.8034352E-003, 5.4969446E+002
 3.0005695E+001, 5.7371847E-002, 1.4191332E-001, 7.1452535E-002, 9.7708309E-004, 1.5307407E-005, 4.8835111E-003, 5.5088281E+002
 3.1004484E+001, 5.6502445E-002, 1.4264409E-001, 7.1774618E-002, 9.6476092E-004, 1.2903901E-005, 4.9050381E-003, 5.4596564E+002
 3.2008058E+001, 5.2857221E-002, 1.4561551E-001, 7.3148972E-002, 9.8208922E-004, 1.2104024E-005, 5.0070289E-003, 5.5068726E+002
 3.3001924E+001, 5.1921622E-002, 1.4637729E-001, 7.3501950E-002, 9.8719548E-004, 1.1959661E-005, 5.0333185E-003, 5.4388635E+002
 3.4003872E+001, 4.7867019E-002, 1.4966057E-001, 7.5036374E-002, 1.0228292E-003, 1.2732490E-005, 5.1495486E-003, 5.5061986E+002
 3.5006637E+001, 4.3484586E-002, 1.5320919E-001, 7.6694595E-002, 1.0611430E-003, 1.5662702E-005, 5.2751289E-003, 5.5201688E+002
 3.6000243E+001, 4.1450050E-002, 1.5485365E-001, 7.7465544E-002, 1.0815035E-003, 1.4875363E-005, 5.3338826E-003, 5.5630053E+002
 3.7005535E+001, 4.0260690E-002, 1.5583754E-001, 7.7910038E-002, 1.0762296E-003, 1.4654366E-005, 5.3652923E-003, 5.4334907E+002
 3.8002479E+001, 3.5202834E-002, 1.5993567E-001, 7.9823314E-002, 1.1186713E-003, 1.6657598E-005, 5.5099321E-003, 5.5546068E+002
 3.9002198E+001, 3.5300855E-002, 1.5988879E-001, 7.9777883E-002, 1.0936499E-003, 1.2935278E-005, 5.5030167E-003, 5.5223984E+002
 4.0005791E+001, 3.4031521E-002, 1.6088323E-001, 8.0266796E-002, 1.1296300E-003, 1.7191174E-005, 5.5436209E-003, 5.5300240E+002
 4.1002506E+001, 2.8224457E-002, 1.6558818E-001, 8.2463938E-002, 1.1789226E-003, 1.6749379E-005, 5.7097994E-003, 5.6013828E+002
 4.2008783E+001, 2.9607814E-002, 1.6447821E-001, 8.1937860E-002, 1.1592270E-003, 1.4894147E-005, 5.6688655E-003, 5.5429977E+002
 4.3001396E+001, 2.5572154E-002, 1.6773289E-001, 8.3468399E-002, 1.2044372E-003, 1.7990374E-005, 5.7862031E-003, 5.5926879E+002
 4.4003522E+001, 2.5231054E-002, 1.6803062E-001, 8.3592072E-002, 1.1915413E-003, 1.4853432E-005, 5.7932851E-003, 5.5795153E+002
 4.5003320E+001, 2.1018603E-002, 1.7142711E-001, 8.5190071E-002, 1.2395223E-003, 1.6718071E-005, 5.9159065E-003, 5.6107079E+002
 4.6007304E+001, 1.8876358E-002, 1.7312695E-001, 8.6010082E-002, 1.2846306E-003, 1.8645657E-005, 5.9817984E-003, 5.6248783E+002
 4.7002514E+001, 1.7741562E-002, 1.7389310E-001, 8.6480800E-002, 1.4102588E-003, 2.1918561E-005, 6.0340742E-003, 5.5769000E+002
 4.8005538E+001, 1.6488094E-002, 1.7504348E-001, 8.6918884E-002, 1.3190871E-003, 1.7492288E-005, 6.0525724E-003, 5.6114440E+002
 4.9007282E+001, 1.7526361E-002, 1.7422564E-001, 8.6519908E-002, 1.2927511E-003, 1.5898398E-005, 6.0198767E-003, 5.5448214E+002
 5.0008640E+001, 1.4075947E-002, 1.7693708E-001, 8.7847915E-002, 1.3855235E-003, 1.8735454E-005, 6.1294454E-003, 5.6103543E+002
 5.1000713E+001, 1.1185299E-002, 1.7902640E-001, 8.9009624E-002, 1.6011309E-003, 2.5296601E-005, 6.2447761E-003, 5.6939185E+002
 5.2009861E+001, 9.9098880E-003, 1.7995887E-001, 8.9520438E-002, 1.6893386E-003, 2.0292571E-005, 6.2945288E-003, 5.7110154E+002
 5.3007247E+001, 1.0061504E-002, 1.7990653E-001, 8.9443092E-002, 1.6337377E-003, 2.5375094E-005, 6.2808764E-003, 5.6292940E+002
 5.4004707E+001, 9.0634089E-003, 1.8011165E-001, 8.9982773E-002, 2.0981489E-003, 4.4162684E-005, 6.3872371E-003, 5.6934007E+002
 5.5008047E+001, 8.9183436E-003, 1.8056248E-001, 8.9948068E-002, 1.8474915E-003, 3.4457634E-005, 6.3484031E-003, 5.6290650E+002
 5.6008026E+001, 8.3585141E-003, 1.8106725E-001, 9.0146783E-002, 1.8142171E-003, 2.8373760E-005, 6.3579629E-003, 5.5953446E+002
 5.7006284E+001, 6.3873344E-003, 1.8157990E-001, 9.1181713E-002, 2.6481219E-003, 7.6184342E-005, 6.5537199E-003, 5.5513027E+002
 5.8005010E+001, 6.2575377E-003, 1.8215999E-001, 9.1104927E-002, 2.2920644E-003, 5.0144201E-005, 6.4965614E-003, 5.5807377E+002
 5.9003863E+001, 4.3486778E-003, 1.8196018E-001, 9.2301480E-002, 3.6329824E-003, 6.6964355E-005, 6.7774651E-003, 5.5492317E+002
 6.0006531E+001, 4.3705614E-003, 1.8153571E-001, 9.2390432E-002, 3.9280860E-003, 1.6249552E-004, 6.8267024E-003, 5.5188802E+002
 6.1004886E+001, 3.9625695E-003, 1.8072466E-001, 9.2852934E-002, 4.7955796E-003, 1.8688194E-004, 6.9858816E-003, 5.4962111E+002
 6.2007331E+001, 2.4065703E-003, 1.8117478E-001, 9.3657290E-002, 5.4191185E-003, 2.2589150E-004, 7.1344650E-003, 5.4897891E+002
 6.3008935E+001, 4.8745493E-003, 1.7951333E-001, 9.2617386E-002, 5.1273856E-003, 3.2161536E-004, 7.0169651E-003, 5.4952269E+002
 6.4002088E+001, 3.1422916E-003, 1.8090749E-001, 9.3296763E-002, 5.1706070E-003, 1.7336690E-004, 7.0723394E-003, 5.4770406E+002
 6.5004677E+001, 3.1389697E-003, 1.8021831E-001, 9.3470486E-002, 5.6799969E-003, 2.8691615E-004, 7.1587684E-003, 5.4450599E+002
 6.6000074E+001, 3.0571120E-003, 1.8129018E-001, 9.3237483E-002, 4.9270771E-003, 2.1397183E-004, 7.0327809E-003, 5.4716305E+002
 6.7003422E+001, 2.9716316E-003, 1.8032711E-001, 9.3542979E-002, 5.7036371E-003, 2.7398334E-004, 7.1674354E-003, 5.4677103E+002
 6.8001188E+001, 2.0903332E-003, 1.8130673E-001, 9.3812879E-002, 5.5182540E-003, 2.1194668E-004, 7.1600849E-003, 5.4806125E+002
 6.9009044E+001, 1.4917095E-003, 1.7905016E-001, 9.4725741E-002, 7.5446761E-003, 6.4138783E-004, 7.5199541E-003, 5.4160321E+002
 7.0000059E+001, 2.3978414E-003, 1.7951199E-001, 9.4076294E-002, 6.6480090E-003, 5.0378973E-004, 7.3429675E-003, 5.4071244E+002
 7.1004611E+001, 1.6576913E-003, 1.7932097E-001, 9.4593129E-002, 7.2761171E-003, 3.5899774E-004, 7.4713222E-003, 5.4520716E+002
 7.2005632E+001, 1.9581644E-003, 1.7970548E-001, 9.4323179E-002, 6.8115278E-003, 2.5408663E-004, 7.3844228E-003, 5.4674171E+002
 7.3004130E+001, 1.3285469E-003, 1.7800547E-001, 9.5107859E-002, 8.4395227E-003, 6.4769631E-004, 7.6772703E-003, 5.3698578E+002
 7.4002747E+001, 1.2201226E-003, 1.8008167E-001, 9.4646101E-002, 6.9694581E-003, 3.7067970E-004, 7.4307297E-003, 5.4592868E+002
 7.5004037E+001, 1.0477370E-003, 1.7766487E-001, 9.5372730E-002, 8.8771697E-003, 6.2329421E-004, 7.7598427E-003, 5.3631403E+002
 7.6006950E+001, 1.0540792E-003, 1.7786744E-001, 9.5310478E-002, 8.7161201E-003, 6.4505312E-004, 7.7320116E-003, 5.3776476E+002
 7.7001936E+001, 8.4938444E-004, 1.7637430E-001, 9.5785026E-002, 9.9227713E-003, 1.0310396E-003, 7.9413588E-003, 5.3485654E+002
 7.8000623E+001, 1.1386992E-003, 1.7895000E-001, 9.4959161E-002, 7.8355702E-003, 6.7989388E-004, 7.5790141E-003, 5.3919029E+002
 7.9004704E+001, 8.8013689E-004, 1.7599939E-001, 9.5902812E-002, 1.0222368E-002, 7.9679577E-004, 7.9931924E-003, 5.3730775E+002
 8.0002264E+001, 1.6574258E-003, 1.7733869E-001, 9.5069249E-002, 8.7174783E-003, 8.1000799E-004, 7.7148184E-003, 5.3928869E+002
 8.1005840E+001, 8.1661914E-004, 1.7737635E-001, 9.5573637E-002, 9.2242627E-003, 7.3688183E-004, 7.8247243E-003, 5.3773448E+002
 8.2000026E+001, 6.5530777E-004, 1.7526577E-001, 9.6159027E-002, 1.0841334E-002, 1.3421935E-003, 8.1016547E-003, 5.3322979E+002
 8.3005895E+001, 1.0634186E-003, 1.7594495E-001, 9.5752214E-002, 1.0093746E-002, 1.1811585E-003, 7.9638209E-003, 5.3933382E+002
 8.4002509E+001, 6.3309873E-004, 1.7780341E-001, 9.5576498E-002, 9.0236961E-003, 6.7170808E-004, 7.7958432E-003, 5.4479027E+002
 8.5003263E+001, 6.1142079E-004, 1.7547297E-001, 9.6150803E-002, 1.0733304E-002, 1.1898230E-003, 8.0853415E-003, 5.3553668E+002
 8.6005061E+001, 6.2280562E-004, 1.7455196E-001, 9.6344680E-002, 1.1375364E-002, 1.5407328E-003, 8.1925540E-003, 5.3435494E+002
 8.7002941E+001, 7.1271609E-004, 1.7477912E-001, 9.6267141E-002, 1.1185005E-002, 1.2752849E-003, 8.1592462E-003, 5.3216199E+002
 8.8008453E+001, 6.7682666E-004, 1.7408753E-001, 9.6445754E-002, 1.1701257E-002, 1.4946031E-003, 8.2470690E-003, 5.3318030E+002
 8.9000178E+001, 7.8856276E-004, 1.7487995E-001, 9.6201342E-002, 1.1068241E-002, 1.2254925E-003, 8.1375440E-003, 5.4135847E+002
 9.0006899E+001, 8.3199303E-004, 1.7630319E-001, 9.5836542E-002, 1.0009348E-002, 8.8112879E-004, 7.9575675E-003, 5.4792430E+002
 9.1006908E+001, 6.3423909E-004, 1.7354139E-001, 9.6620542E-002, 1.2143035E-002, 1.4935432E-003, 8.3237294E-003, 5.3865862E+002
 9.2001787E+001, 7.6317107E-004, 1.7352377E-001, 9.6532073E-002, 1.2059962E-002, 1.6040478E-003, 8.3053370E-003, 5.3589157E+002
 9.3005105E+001, 6.8845973E-004, 1.7323232E-001, 9.6670632E-002, 1.2342286E-002, 1.5058517E-003, 8.3562300E-003, 5.3131386E+002
 9.4001720E+001, 8.4060607E-004, 1.7552417E-001, 9.6021701E-002, 1.0573624E-002, 1.0357296E-003, 8.0527943E-003, 5.3863685E+002
 9.5009573E+001, 5.8314880E-004, 1.7116982E-001, 9.7206796E-002, 1.3885337E-002, 2.1286270E-003, 8.6188801E-003, 5.3089324E+002
 9.6007184E+001, 6.6326759E-004, 1.7473190E-001, 9.6331083E-002, 1.1273165E-002, 1.1272542E-003, 8.1765844E-003, 5.4048732E+002
 9.7001956E+001, 5.8681325E-004, 1.7039622E-001, 9.7431124E-002, 1.4486277E-002, 2.0226170E-003, 8.7221423E-003, 5.3026366E+002
 9.8001575E+001, 6.9628710E-004, 1.7222038E-001, 9.6929711E-002, 1.3093923E-002, 1.5922584E-003, 8.4839250E-003, 5.3428807E+002
 9.9009700E+001, 5.1663274E-004, 1.7134471E-001, 9.7258821E-002, 1.3853858E-002, 1.7144122E-003, 8.6179067E-003, 5.3058571E+002
 1.0000712E+002, 5.2789530E-004, 1.7168083E-001, 9.7166469E-002, 1.3597560E-002, 1.6717902E-003, 8.5740685E-003, 5.3197999E+002
 1.0100254E+002, 4.9101485E-004, 1.7152138E-001, 9.7228930E-002, 1.3738573E-002, 1.6937966E-003, 8.5990305E-003, 5.3417552E+002
 1.0200677E+002, 5.2186700E-004, 1.7095268E-001, 9.7344143E-002, 1.4129942E-002, 1.8428244E-003, 8.6641396E-003, 5.3448265E+002
 1.0300907E+002, 5.5019457E-004, 1.7135355E-001, 9.7223691E-002, 1.3813595E-002, 1.8015307E-003, 8.6095675E-003, 5.3847608E+002
 1.0400445E+002, 4.4801765E-004, 1.6969026E-001, 9.7728336E-002, 1.5130678E-002, 1.8755369E-003, 8.8369597E-003, 5.3647217E+002
 1.0500480E+002, 4.5259885E-004, 1.6973830E-001, 9.7686069E-002, 1.5064901E-002, 2.0581633E-003, 8.8244483E-003, 5.3013103E+002
 1.0600543E+002, 4.0947903E-004, 1.7012619E-001, 9.7646643E-002, 1.4837667E-002, 1.7772419E-003, 8.7885497E-003, 5.3364886E+002
 1.0700393E+002, 4.3417799E-004, 1.7006952E-001, 9.7622894E-002, 1.4840899E-002, 1.9460807E-003, 8.7873717E-003, 5.3624358E+002
 1.0800434E+002, 3.7655055E-004, 1.6998079E-001, 9.7666904E-002, 1.4929530E-002, 2.0481767E-003, 8.8034428E-003, 5.3541051E+002
 1.0900143E+002, 3.7834059E-004, 1.7012590E-001, 9.7645168E-002, 1.4837095E-002, 1.9170966E-003, 8.7884202E-003, 5.3522666E+002
 1.1000977E+002, 4.5757934E-004, 1.7076104E-001, 9.7437449E-002, 1.4318151E-002, 1.8259130E-003, 8.6981557E-003, 5.3803074E+002
 1.1100542E+002, 3.5672004E-004, 1.6903704E-001, 9.7944077E-002, 1.5666748E-002, 1.9953888E-003, 8.9302984E-003, 5.3337770E+002
 1.1200024E+002, 6.1335904E-004, 1.7090053E-001, 9.7305054E-002, 1.4113993E-002, 1.8322656E-003, 8.6589949E-003, 5.3535526E+002
 1.1300691E+002, 4.7794133E-004, 1.7015335E-001, 9.7568924E-002, 1.4745026E-002, 1.9795834E-003, 8.7695884E-003, 5.3513770E+002
 1.1400611E+002, 4.2064635E-004, 1.6898200E-001, 9.7898546E-002, 1.5646434E-002, 2.1491288E-003, 8.9241256E-003, 5.3548511E+002
 1.1500685E+002, 4.4716219E-004, 1.7028267E-001, 9.7561235E-002, 1.4675126E-002, 1.9162193E-003, 8.7588768E-003, 5.3273201E+002
 1.1600818E+002, 4.8453010E-004, 1.7021709E-001, 9.7514319E-002, 1.4659212E-002, 2.2095643E-003, 8.7533012E-003, 5.3325551E+002
 1.1700573E+002, 5.1760182E-004, 1.7066655E-001, 9.7379136E-002, 1.4304356E-002, 2.1587364E-003, 8.6920793E-003, 5.3555463E+002
 1.1800140E+002, 4.9890645E-004, 1.7172965E-001, 9.7153516E-002, 1.3561546E-002, 1.7894059E-003, 8.5679633E-003, 5.4556697E+002
 1.1900351E+002, 4.5043015E-004, 1.6893331E-001, 9.7818913E-002, 1.5589752E-002, 2.6682962E-003, 8.9103721E-003, 5.3400681E+002
 1.2000958E+002, 4.2718469E-004, 1.7159948E-001, 9.7279484E-002, 1.3752679E-002, 1.4613625E-003, 8.6046336E-003, 5.4093272E+002
 1.2100890E+002, 4.0915809E-004, 1.6924249E-001, 9.7844039E-002, 1.5465370E-002, 2.0819097E-003, 8.8939170E-003, 5.3275112E+002
 1.2200692E+002, 5.4657782E-004, 1.7074233E-001, 9.7349565E-002, 1.4237172E-002, 2.1000251E-003, 8.6801791E-003, 5.3890387E+002
 1.2300741E+002, 4.1154230E-004, 1.7079568E-001, 9.7442562E-002, 1.4307530E-002, 1.9160468E-003, 8.6970257E-003, 5.4079037E+002
 1.2400745E+002, 4.3726739E-004, 1.6928409E-001, 9.7801131E-002, 1.5401505E-002, 2.1835484E-003, 8.8816014E-003, 5.3801349E+002
 1.2500881E+002, 4.3908908E-004, 1.6998216E-001, 9.7644700E-002, 1.4905122E-002, 1.9398531E-003, 8.7982526E-003, 5.3924857E+002
 1.2601053E+002, 4.7287183E-004, 1.7042553E-001, 9.7505698E-002, 1.4549392E-002, 1.9239819E-003, 8.7366425E-003, 5.3827685E+002
 1.2700546E+002, 4.1499348E-004, 1.6818022E-001, 9.8118852E-002, 1.6257298E-002, 2.1627809E-003, 9.0285862E-003, 5.3369084E+002
 1.2800519E+002, 3.7012427E-004, 1.6972127E-001, 9.7723587E-002, 1.5112738E-002, 2.1728049E-003, 8.8341443E-003, 5.3627734E+002
 1.2900968E+002, 3.7328929E-004, 1.6935702E-001, 9.7862349E-002, 1.5428803E-002, 1.8877605E-003, 8.8898605E-003, 5.3880955E+002
 1.3000703E+002, 3.8007394E-004, 1.6909580E-001, 9.7872211E-002, 1.5565680E-002, 2.2846252E-003, 8.9105773E-003, 5.3481504E+002
 1.3100850E+002, 3.5431715E-004, 1.6888039E-001, 9.8009763E-002, 1.5808778E-002, 1.8468421E-003, 8.9555679E-003, 5.3419629E+002
 1.3200730E+002, 3.4202726E-004, 1.6835689E-001, 9.8101993E-002, 1.6156206E-002, 2.2483499E-003, 9.0127554E-003, 5.3573246E+002
 1.3300893E+002, 2.9512361E-004, 1.6887173E-001, 9.8044159E-002, 1.5848849E-002, 1.8707525E-003, 8.9638737E-003, 5.4152864E+002
 1.3400264E+002, 3.0490522E-004, 1.6734322E-001, 9.8350488E-002, 1.6899201E-002, 2.5976078E-003, 9.1385450E-003, 5.3412319E+002
 1.3500149E+002, 3.3282187E-004, 1.6939272E-001, 9.7869041E-002, 1.5419105E-002, 1.9418578E-003, 8.8889631E-003, 5.4245513E+002
 1.3600071E+002, 3.4243797E-004, 1.6874783E-001, 9.7977724E-002, 1.5841557E-002, 2.3679538E-003, 8.9582223E-003, 5.3565435E+002
 1.3700367E+002, 3.0602410E-004, 1.6771052E-001, 9.8246864E-002, 1.6616697E-002, 2.6161351E-003, 9.0901204E-003, 5.3491881E+002
 1.3800468E+002, 3.4209939E-004, 1.6895210E-001, 9.7929508E-002, 1.5693884E-002, 2.3171397E-003, 8.9333141E-003, 5.3471501E+002
 1.3900475E+002, 3.6053803E-004, 1.6939431E-001, 9.7852160E-002, 1.5400769E-002, 1.9406913E-003, 8.8850840E-003, 5.3400499E+002
 1.4000706E+002, 3.3625876E-004, 1.6957670E-001, 9.7793605E-002, 1.5253991E-002, 2.1019544E-003, 8.8596482E-003, 5.4007682E+002
 1.4100050E+002, 3.8474203E-004, 1.6933695E-001, 9.7796852E-002, 1.5372779E-002, 2.3311397E-003, 8.8771930E-003, 5.3797732E+002
 1.4200295E+002, 3.6622049E-004, 1.6875447E-001, 9.8027945E-002, 1.5887980E-002, 1.9094948E-003, 8.9683865E-003, 5.3941912E+002
 1.4300350E+002, 3.5339217E-004, 1.6934528E-001, 9.7863091E-002, 1.5435747E-002, 1.9872889E-003, 8.8909632E-003, 5.4232867E+002
 1.4400763E+002, 4.0677608E-004, 1.7018704E-001, 9.7656088E-002, 1.4817558E-002, 1.6082531E-003, 8.7862471E-003, 5.4510817E+002
 1.4500894E+002, 3.5036951E-004, 1.6815400E-001, 9.8148416E-002, 1.6301217E-002, 2.2757771E-003, 9.0371380E-003, 5.3837894E+002
 1.4600095E+002, 4.2593322E-004, 1.6881637E-001, 9.7927252E-002, 1.5755657E-002, 2.2414054E-003, 8.9420685E-003, 5.3341915E+002
 1.4700577E+002, 4.6007502E-004, 1.6985703E-001, 9.7698194E-002, 1.5019037E-002, 1.7191267E-003, 8.8185349E-003, 5.4087537E+002
 1.4800085E+002, 3.6884648E-004, 1.6763299E-001, 9.8274530E-002, 1.6680579E-002, 2.3106952E-003, 9.1012475E-003, 5.3673791E+002
 1.4900208E+002, 3.6652612E-004, 1.6895779E-001, 9.7948790E-002, 1.5709802E-002, 2.0717570E-003, 8.9369105E-003, 5.4084685E+002
 1.5000314E+002, 3.1193280E-004, 1.6787284E-001, 9.8324196E-002, 1.6614878E-002, 1.7503327E-003, 9.0950820E-003, 5.3970886E+002
 1.5100872E+002, 3.0533830E-004, 1.6763784E-001, 9.8323319E-002, 1.6728575E-002, 2.2274430E-003, 9.1116974E-003, 5.3633358E+002
 1.5200742E+002, 3.1198409E-004, 1.6797026E-001, 9.8262349E-002, 1.6505579E-002, 1.9939065E-003, 9.0748737E-003, 5.3565596E+002
 1.5300035E+002, 3.1799199E-004, 1.6828087E-001, 9.8155127E-002, 1.6246959E-002, 2.1240839E-003, 9.0296972E-003, 5.3552496E+002
 1.5400018E+002, 3.2816465E-004, 1.7056394E-001, 9.7639131E-002, 1.4619023E-002, 1.3398500E-003, 8.7561385E-003, 5.4307514E+002
