s,,,,,,,
Time,O2 EXHAUST,CO2 EXHAUST,H2O EXHAUST,CO EXHAUST,FUEL EXHAUST,SOOT EXHAUST,TEMP EXHAUST
 0.0000000E+000, 2.3099739E-001, 5.9146498E-004, 5.9412092E-003, 0.0000000E+000, 0.0000000E+000, 0.0000000E+000, 2.0000000E+001
 1.0008968E+000, 2.3099739E-001, 5.9146498E-004, 5.9412092E-003, 9.3097243E-025, 4.4824413E-022, 5.3175311E-024, 2.0687813E+001
 2.0040506E+000, 2.2115393E-001, 8.5355836E-003, 1.0900046E-002, 2.3110599E-005, 5.0848730E-004, 3.7870095E-005, 1.2515606E+002
 3.0029106E+000, 2.1301183E-001, 1.5164689E-002, 1.5042099E-002, 4.3973147E-005, 6.1066368E-004, 6.9808875E-005, 2.0037021E+002
 4.0012312E+000, 2.0392951E-001, 2.2590139E-002, 1.9671653E-002, 5.9923217E-005, 6.1652098E-004, 1.0399357E-004, 2.8034539E+002
 5.0040360E+000, 1.9336638E-001, 3.1291626E-002, 2.5063722E-002, 5.5003401E-005, 4.5291130E-004, 1.3899014E-004, 3.5823241E+002
 6.0065506E+000, 1.8190221E-001, 4.0781925E-002, 3.0923324E-002, 3.4361236E-005, 1.4354025E-004, 1.7388362E-004, 4.3126342E+002
 7.0005139E+000, 1.7107108E-001, 4.9701792E-002, 3.6447064E-002, 2.6898498E-005, 6.2722115E-006, 2.0923983E-004, 4.7664797E+002
 8.0062042E+000, 1.5830525E-001, 6.0165778E-002, 4.2946133E-002, 3.2016091E-005, 3.4395942E-007, 2.5369117E-004, 5.1734433E+002
 9.0054911E+000, 1.4830695E-001, 6.8359827E-002, 4.8035919E-002, 3.6423618E-005, 2.8090020E-007, 2.8858555E-004, 5.3476729E+002
 1.0005224E+001, 1.3992127E-001, 7.5232045E-002, 5.2304852E-002, 4.0266338E-005, 2.9842026E-007, 3.1788224E-004, 5.4187376E+002
 1.1000426E+001, 1.3112429E-001, 8.2441372E-002, 5.6783135E-002, 4.4257574E-005, 3.7278778E-007, 3.4860748E-004, 5.5196022E+002
 1.2008413E+001, 1.2156279E-001, 9.0277162E-002, 6.1650642E-002, 4.8650583E-005, 4.9065124E-007, 3.8201441E-004, 5.6223318E+002
 1.3007690E+001, 1.1345143E-001, 9.6924140E-002, 6.5780076E-002, 5.2658069E-005, 6.3056663E-007, 4.1041322E-004, 5.6844676E+002
 1.4007402E+001, 1.0704825E-001, 1.0217251E-001, 6.9039463E-002, 5.5012240E-005, 4.2766013E-007, 4.3266289E-004, 5.7076781E+002
 1.5000129E+001, 9.9893323E-002, 1.0803582E-001, 7.2681942E-002, 5.8476671E-005, 5.7338666E-007, 4.5769840E-004, 5.7483236E+002
 1.6005228E+001, 9.4625305E-002, 1.1235319E-001, 7.5363714E-002, 6.0808891E-005, 5.3239168E-007, 4.7608602E-004, 5.7220125E+002
 1.7008178E+001, 8.9376370E-002, 1.1665437E-001, 7.8035952E-002, 6.3489491E-005, 6.6139189E-007, 4.9448133E-004, 5.7384894E+002
 1.8008212E+001, 8.4865543E-002, 1.2034623E-001, 8.0334028E-002, 6.8852486E-005, 1.8230505E-006, 5.1092717E-004, 5.7143778E+002
 1.9009748E+001, 8.0542167E-002, 1.2387841E-001, 8.2538759E-002, 7.8186872E-005, 4.7954289E-006, 5.2756295E-004, 5.7345311E+002
 2.0000980E+001, 7.6611147E-002, 1.2709058E-001, 8.4543240E-002, 8.6326034E-005, 7.2331614E-006, 5.4261661E-004, 5.7203126E+002
 2.1007818E+001, 7.2802779E-002, 1.3019700E-001, 8.6487408E-002, 9.8142958E-005, 9.6419342E-006, 5.5802061E-004, 5.6833479E+002
 2.2004698E+001, 6.9152956E-002, 1.3319022E-001, 8.8344615E-002, 9.8326176E-005, 9.4651502E-006, 5.7046135E-004, 5.7211411E+002
 2.3002990E+001, 6.5986611E-002, 1.3577956E-001, 8.9958512E-002, 1.0355350E-004, 1.0709171E-005, 5.8231017E-004, 5.6721366E+002
 2.4005795E+001, 6.1924816E-002, 1.3910570E-001, 9.2027278E-002, 1.0722458E-004, 1.0853322E-005, 5.9687806E-004, 5.7179238E+002
 2.5004731E+001, 5.9338245E-002, 1.4122774E-001, 9.3343187E-002, 1.0683022E-004, 1.0450304E-005, 6.0558549E-004, 5.7092594E+002
 2.6004113E+001, 5.5269423E-002, 1.4454907E-001, 9.5419499E-002, 1.1782273E-004, 1.2135144E-005, 6.2170315E-004, 5.7023286E+002
 2.7000079E+001, 5.2970424E-002, 1.4643438E-001, 9.6589381E-002, 1.1800925E-004, 1.2028953E-005, 6.2955431E-004, 5.6717126E+002
 2.8002337E+001, 4.9095037E-002, 1.4959988E-001, 9.8566132E-002, 1.2699468E-004, 1.3688694E-005, 6.4459605E-004, 5.6860711E+002
 2.9003600E+001, 4.6394965E-002, 1.5181096E-001, 9.9941405E-002, 1.2946502E-004, 1.3404135E-005, 6.5428659E-004, 5.6547566E+002
 3.0008561E+001, 4.2383004E-002, 1.5509795E-001, 1.0198422E-001, 1.3198048E-004, 1.3070375E-005, 6.6844448E-004, 5.7346828E+002
 3.1006553E+001, 3.9557149E-002, 1.5739811E-001, 1.0342846E-001, 1.4398248E-004, 1.6386488E-005, 6.8054771E-004, 5.6895703E+002
 3.2001913E+001, 3.6773767E-002, 1.5968318E-001, 1.0484392E-001, 1.4248240E-004, 1.5653423E-005, 6.8969355E-004, 5.7397651E+002
 3.3005660E+001, 3.4538782E-002, 1.6151061E-001, 1.0598329E-001, 1.4641583E-004, 1.6141701E-005, 6.9810825E-004, 5.6850466E+002
 3.4006087E+001, 3.1023732E-002, 1.6438889E-001, 1.0777387E-001, 1.4984646E-004, 1.5146500E-005, 7.1076900E-004, 5.7375912E+002
 3.5008105E+001, 2.9255866E-002, 1.6582030E-001, 1.0868042E-001, 1.6272218E-004, 1.7431684E-005, 7.1946016E-004, 5.6924916E+002
 3.6006335E+001, 2.6727850E-002, 1.6789754E-001, 1.0996537E-001, 1.6012562E-004, 1.6349184E-005, 7.2750982E-004, 5.7118075E+002
 3.7007844E+001, 2.4028498E-002, 1.7010175E-001, 1.1134249E-001, 1.6684382E-004, 1.7674904E-005, 7.3808266E-004, 5.7538788E+002
 3.8003200E+001, 2.1398553E-002, 1.7224198E-001, 1.1268706E-001, 1.7852480E-004, 1.9400530E-005, 7.4945446E-004, 5.7418970E+002
 3.9010676E+001, 1.8618481E-002, 1.7452116E-001, 1.1410246E-001, 1.7951598E-004, 1.7013575E-005, 7.5910998E-004, 5.7978840E+002
 4.0000164E+001, 1.7080982E-002, 1.7578253E-001, 1.1488463E-001, 1.7926332E-004, 1.6927745E-005, 7.6428189E-004, 5.7645244E+002
 4.1005691E+001, 1.4714094E-002, 1.7768438E-001, 1.1610418E-001, 2.0682742E-004, 2.0275162E-005, 7.7807142E-004, 5.7539971E+002
 4.2005202E+001, 1.3032266E-002, 1.7905005E-001, 1.1696559E-001, 2.1665857E-004, 1.9639354E-005, 7.8583747E-004, 5.7930891E+002
 4.3009130E+001, 1.1038401E-002, 1.8064396E-001, 1.1799715E-001, 2.4631937E-004, 1.8007754E-005, 7.9880067E-004, 5.7912016E+002
 4.4008238E+001, 8.8906394E-003, 1.8242309E-001, 1.1908312E-001, 2.3398020E-004, 1.6581020E-005, 8.0352636E-004, 5.7962764E+002
 4.5012011E+001, 6.8846907E-003, 1.8392715E-001, 1.2016050E-001, 3.3416688E-004, 1.8269365E-005, 8.3123822E-004, 5.8021672E+002
 4.6006656E+001, 4.7465651E-003, 1.8536002E-001, 1.2137693E-001, 5.6158061E-004, 2.4003027E-005, 8.8593290E-004, 5.8009295E+002
 4.7003123E+001, 4.2147580E-003, 1.8526216E-001, 1.2186251E-001, 9.4089926E-004, 2.8430396E-005, 9.6685435E-004, 5.7459118E+002
 4.8007844E+001, 3.1759312E-003, 1.8601739E-001, 1.2243040E-001, 1.0098859E-003, 2.7445293E-005, 9.8477429E-004, 5.7409889E+002
 4.9004380E+001, 2.3714397E-003, 1.8579894E-001, 1.2319148E-001, 1.6324752E-003, 4.3929917E-005, 1.1173539E-003, 5.6945103E+002
 5.0007460E+001, 2.1031922E-003, 1.8532093E-001, 1.2360060E-001, 2.1226204E-003, 9.1607298E-005, 1.2204619E-003, 5.6536185E+002
 5.1003637E+001, 1.5362223E-003, 1.8504875E-001, 1.2418932E-001, 2.6485752E-003, 8.0535203E-005, 1.3321002E-003, 5.6383565E+002
 5.2004288E+001, 1.2120283E-003, 1.8459484E-001, 1.2464483E-001, 3.1603706E-003, 8.2660149E-005, 1.4399498E-003, 5.6014501E+002
 5.3009902E+001, 1.2074728E-003, 1.8351592E-001, 1.2507708E-001, 3.9253818E-003, 1.2130446E-004, 1.5995000E-003, 5.5536631E+002
 5.4000047E+001, 1.1618462E-003, 1.8348424E-001, 1.2511224E-001, 3.9637452E-003, 2.0114059E-004, 1.6075942E-003, 5.5189668E+002
 5.5009484E+001, 1.0885044E-003, 1.8273118E-001, 1.2545235E-001, 4.5247665E-003, 3.3071223E-004, 1.7247588E-003, 5.4659409E+002
 5.6003760E+001, 9.4305665E-004, 1.8130790E-001, 1.2613490E-001, 5.6120347E-003, 4.0586575E-004, 1.9519751E-003, 5.4330240E+002
 5.7005451E+001, 7.8736509E-004, 1.8108699E-001, 1.2635904E-001, 5.8627424E-003, 3.8591705E-004, 2.0048121E-003, 5.4344805E+002
 5.8010708E+001, 6.9749325E-004, 1.8053606E-001, 1.2665983E-001, 6.3088448E-003, 3.7318995E-004, 2.0981749E-003, 5.4285441E+002
 5.9006208E+001, 6.8095512E-004, 1.7968868E-001, 1.2696344E-001, 6.8856709E-003, 6.3702813E-004, 2.2183377E-003, 5.3921664E+002
 6.0009104E+001, 6.2956370E-004, 1.7962206E-001, 1.2705430E-001, 6.9770569E-003, 5.3349018E-004, 2.2376547E-003, 5.3631564E+002
 6.1004668E+001, 6.3855052E-004, 1.7841958E-001, 1.2747002E-001, 7.7848715E-003, 8.4721278E-004, 2.4058709E-003, 5.3356577E+002
 6.2007327E+001, 5.6792165E-004, 1.7762658E-001, 1.2783259E-001, 8.3785224E-003, 9.3392191E-004, 2.5298658E-003, 5.3108200E+002
 6.3007427E+001, 5.5367813E-004, 1.7709191E-001, 1.2807379E-001, 8.7760436E-003, 8.6858661E-004, 2.6128799E-003, 5.3141606E+002
 6.4007423E+001, 5.1708074E-004, 1.7618737E-001, 1.2841363E-001, 9.4027217E-003, 1.1510816E-003, 2.7434943E-003, 5.2624704E+002
 6.5003418E+001, 5.0413412E-004, 1.7602738E-001, 1.2847673E-001, 9.5156896E-003, 1.2132649E-003, 2.7670521E-003, 5.2706153E+002
 6.6012407E+001, 4.8948594E-004, 1.7521660E-001, 1.2877446E-001, 1.0072462E-002, 1.4246696E-003, 2.8830668E-003, 5.2346427E+002
 6.7008604E+001, 4.7228212E-004, 1.7463083E-001, 1.2900143E-001, 1.0482837E-002, 1.5459420E-003, 2.9686257E-003, 5.2253657E+002
 6.8009721E+001, 4.6941913E-004, 1.7438541E-001, 1.2908022E-001, 1.0643697E-002, 1.6599068E-003, 3.0020979E-003, 5.2099317E+002
 6.9008822E+001, 4.6023441E-004, 1.7376061E-001, 1.2934185E-001, 1.1094455E-002, 1.6532774E-003, 3.0961527E-003, 5.2180853E+002
 7.0006640E+001, 4.5606308E-004, 1.7290728E-001, 1.2961628E-001, 1.1654001E-002, 2.0229005E-003, 3.2125862E-003, 5.1946202E+002
 7.1005073E+001, 4.6747471E-004, 1.7273261E-001, 1.2967923E-001, 1.1772905E-002, 2.0132595E-003, 3.2373560E-003, 5.1813346E+002
 7.2002274E+001, 4.5453621E-004, 1.7272747E-001, 1.2967683E-001, 1.1773746E-002, 2.0899244E-003, 3.2375150E-003, 5.1783374E+002
 7.3010190E+001, 4.5417822E-004, 1.7110981E-001, 1.3021129E-001, 1.2843944E-002, 2.6879956E-003, 3.4602674E-003, 5.1378406E+002
 7.4006411E+001, 4.3449619E-004, 1.7131778E-001, 1.3019900E-001, 1.2744764E-002, 2.4121865E-003, 3.4398638E-003, 5.1713340E+002
 7.5009335E+001, 4.4397119E-004, 1.7083492E-001, 1.3037004E-001, 1.3071823E-002, 2.4930364E-003, 3.5079858E-003, 5.1616882E+002
 7.6002015E+001, 4.3989275E-004, 1.7032940E-001, 1.3051309E-001, 1.3390149E-002, 2.8162268E-003, 3.5741420E-003, 5.1560398E+002
 7.7005550E+001, 4.2983426E-004, 1.6971576E-001, 1.3071376E-001, 1.3794876E-002, 3.0950576E-003, 3.6583748E-003, 5.1487123E+002
 7.8006334E+001, 4.3038987E-004, 1.6910573E-001, 1.3092634E-001, 1.4205891E-002, 3.2626182E-003, 3.7439703E-003, 5.1141295E+002
 7.9002510E+001, 4.4465812E-004, 1.6883579E-001, 1.3101673E-001, 1.4385057E-002, 3.2963005E-003, 3.7812657E-003, 5.0736619E+002
 8.0007597E+001, 4.2603299E-004, 1.6855289E-001, 1.3115201E-001, 1.4600740E-002, 3.2700392E-003, 3.8263364E-003, 5.1521438E+002
 8.1010252E+001, 4.2519123E-004, 1.6795781E-001, 1.3132696E-001, 1.4979814E-002, 3.6011725E-003, 3.9051462E-003, 5.0765967E+002
 8.2009081E+001, 4.0280178E-004, 1.6803432E-001, 1.3135620E-001, 1.4966364E-002, 3.3946947E-003, 3.9025789E-003, 5.1451802E+002
 8.3008543E+001, 4.1421698E-004, 1.6735835E-001, 1.3154100E-001, 1.5387363E-002, 3.7884867E-003, 3.9900424E-003, 5.0978314E+002
 8.4003749E+001, 4.1197270E-004, 1.6698668E-001, 1.3163831E-001, 1.5616081E-002, 4.0622075E-003, 4.0375409E-003, 5.0547010E+002
 8.5003946E+001, 3.8379388E-004, 1.6661685E-001, 1.3181803E-001, 1.5900046E-002, 4.0295490E-003, 4.0968914E-003, 5.1001828E+002
 8.6003202E+001, 3.9428886E-004, 1.6658022E-001, 1.3180852E-001, 1.5909514E-002, 4.1069650E-003, 4.0987697E-003, 5.0755793E+002
 8.7006919E+001, 3.7975071E-004, 1.6609888E-001, 1.3198917E-001, 1.6242783E-002, 4.2375288E-003, 4.1682295E-003, 5.0751448E+002
 8.8004235E+001, 3.9250774E-004, 1.6556238E-001, 1.3214274E-001, 1.6581519E-002, 4.5001020E-003, 4.2386332E-003, 5.0604987E+002
 8.9010805E+001, 3.8741274E-004, 1.6507089E-001, 1.3231653E-001, 1.6914458E-002, 4.6457535E-003, 4.3079802E-003, 5.0625140E+002
 9.0003608E+001, 3.8169699E-004, 1.6524206E-001, 1.3226592E-001, 1.6805322E-002, 4.5769505E-003, 4.2852902E-003, 5.0727148E+002
 9.1006454E+001, 3.8111681E-004, 1.6458278E-001, 1.3248317E-001, 1.7241105E-002, 4.8253738E-003, 4.3759922E-003, 5.0685894E+002
 9.2009813E+001, 3.8848232E-004, 1.6414381E-001, 1.3264254E-001, 1.7541071E-002, 4.8847480E-003, 4.4384871E-003, 5.0459177E+002
 9.3007075E+001, 3.8573181E-004, 1.6427483E-001, 1.3261444E-001, 1.7464690E-002, 4.7721753E-003, 4.4226533E-003, 5.0513329E+002
 9.4009286E+001, 3.8839012E-004, 1.6368029E-001, 1.3280305E-001, 1.7852699E-002, 5.0193093E-003, 4.5033807E-003, 5.0472203E+002
 9.5003855E+001, 3.9549900E-004, 1.6305072E-001, 1.3298242E-001, 1.8249754E-002, 5.3646156E-003, 4.5859028E-003, 5.0564521E+002
 9.6005437E+001, 4.0288307E-004, 1.6280809E-001, 1.3307301E-001, 1.8417187E-002, 5.3710657E-003, 4.6207955E-003, 5.0330863E+002
 9.7001575E+001, 4.1554389E-004, 1.6264340E-001, 1.3312158E-001, 1.8521995E-002, 5.4078521E-003, 4.6425844E-003, 5.0309106E+002
 9.8000680E+001, 4.1758010E-004, 1.6217518E-001, 1.3326294E-001, 1.8822716E-002, 5.6385324E-003, 4.7051205E-003, 5.0482523E+002
 9.9007340E+001, 4.2548761E-004, 1.6210173E-001, 1.3328982E-001, 1.8872951E-002, 5.6193948E-003, 4.7155865E-003, 5.0541377E+002
 1.0000874E+002, 4.2492856E-004, 1.6161045E-001, 1.3342687E-001, 1.9180914E-002, 5.9290617E-003, 4.7795800E-003, 5.0442681E+002
 1.0100024E+002, 4.2612383E-004, 1.6169059E-001, 1.3340765E-001, 1.9132782E-002, 5.8582421E-003, 4.7695921E-003, 5.0361980E+002
 1.0200767E+002, 4.2587744E-004, 1.6162460E-001, 1.3346531E-001, 1.9200645E-002, 5.7045860E-003, 4.7838684E-003, 5.0511768E+002
 1.0300852E+002, 4.1673799E-004, 1.6153167E-001, 1.3347071E-001, 1.9245190E-002, 5.9035358E-003, 4.7930344E-003, 5.0436657E+002
 1.0400942E+002, 4.3659833E-004, 1.6079272E-001, 1.3371301E-001, 1.9732494E-002, 6.1019269E-003, 4.8944523E-003, 5.0319805E+002
 1.0500530E+002, 4.3650500E-004, 1.6070907E-001, 1.3372133E-001, 1.9774797E-002, 6.2295787E-003, 4.9031760E-003, 5.0377416E+002
 1.0600781E+002, 4.3363801E-004, 1.6080183E-001, 1.3370344E-001, 1.9722082E-002, 6.1437485E-003, 4.8922578E-003, 5.0400839E+002
 1.0701177E+002, 4.3577221E-004, 1.6032322E-001, 1.3385349E-001, 2.0033229E-002, 6.3516420E-003, 4.9569861E-003, 5.0355394E+002
 1.0800101E+002, 4.2877278E-004, 1.6029696E-001, 1.3386105E-001, 2.0049964E-002, 6.3962183E-003, 4.9604655E-003, 5.0400692E+002
 1.0900586E+002, 4.3148813E-004, 1.6014181E-001, 1.3394366E-001, 2.0173720E-002, 6.2855645E-003, 4.9863560E-003, 5.0517237E+002
 1.1000279E+002, 4.2801993E-004, 1.5972665E-001, 1.3404793E-001, 2.0426230E-002, 6.6174196E-003, 5.0387754E-003, 5.0316078E+002
 1.1100075E+002, 4.4107545E-004, 1.5950065E-001, 1.3411310E-001, 2.0569123E-002, 6.6934111E-003, 5.0684759E-003, 5.0305341E+002
 1.1201043E+002, 4.3084133E-004, 1.5945800E-001, 1.3412661E-001, 2.0597113E-002, 6.7549513E-003, 5.0743004E-003, 5.0353038E+002
 1.1300272E+002, 4.1920122E-004, 1.5930289E-001, 1.3419654E-001, 2.0712528E-002, 6.7677312E-003, 5.0984030E-003, 5.0386326E+002
 1.1400019E+002, 4.1400431E-004, 1.5925663E-001, 1.3424995E-001, 2.0768953E-002, 6.6162595E-003, 5.1103087E-003, 5.0394865E+002
 1.1501074E+002, 4.2556765E-004, 1.5825734E-001, 1.3449765E-001, 2.1374208E-002, 7.3479127E-003, 5.2359383E-003, 5.0009332E+002
 1.1600790E+002, 4.2110930E-004, 1.5843772E-001, 1.3449192E-001, 2.1291304E-002, 7.0311824E-003, 5.2189102E-003, 5.0135253E+002
 1.1700063E+002, 4.2066633E-004, 1.5871033E-001, 1.3442960E-001, 2.1129688E-002, 6.7940058E-003, 5.1853882E-003, 5.0635387E+002
 1.1801036E+002, 4.6093932E-004, 1.5813801E-001, 1.3454905E-001, 2.1460660E-002, 7.1837270E-003, 5.2539791E-003, 5.0012253E+002
 1.1900414E+002, 4.4519040E-004, 1.5789613E-001, 1.3463571E-001, 2.1625485E-002, 7.3053716E-003, 5.2883162E-003, 5.0244455E+002
 1.2000276E+002, 4.4849753E-004, 1.5761352E-001, 1.3475563E-001, 2.1830320E-002, 7.2631363E-003, 5.3310622E-003, 5.0115135E+002
 1.2100193E+002, 4.5013029E-004, 1.5730250E-001, 1.3483034E-001, 2.2017118E-002, 7.5110085E-003, 5.3698244E-003, 5.0118898E+002
 1.2200272E+002, 4.5514755E-004, 1.5728408E-001, 1.3484838E-001, 2.2037297E-002, 7.4370802E-003, 5.3740743E-003, 5.0162149E+002
 1.2300906E+002, 4.5421830E-004, 1.5723570E-001, 1.3491788E-001, 2.2105439E-002, 7.1916505E-003, 5.3884830E-003, 5.0236798E+002
 1.2400121E+002, 4.3893848E-004, 1.5743601E-001, 1.3484062E-001, 2.1965685E-002, 7.2372296E-003, 5.3593495E-003, 5.0317479E+002
 1.2500295E+002, 4.3960517E-004, 1.5692510E-001, 1.3496587E-001, 2.2274286E-002, 7.6402344E-003, 5.4233984E-003, 5.0186824E+002
 1.2600675E+002, 4.3803766E-004, 1.5688522E-001, 1.3501332E-001, 2.2323826E-002, 7.4904216E-003, 5.4338542E-003, 5.0070154E+002
 1.2700674E+002, 4.5042888E-004, 1.5637379E-001, 1.3516425E-001, 2.2649793E-002, 7.7171233E-003, 5.5016241E-003, 5.0041647E+002
 1.2801107E+002, 4.4036434E-004, 1.5614180E-001, 1.3525990E-001, 2.2816259E-002, 7.7500292E-003, 5.5363537E-003, 5.0078163E+002
 1.2900043E+002, 4.3347485E-004, 1.5656300E-001, 1.3516067E-001, 2.2564673E-002, 7.4242401E-003, 5.4841574E-003, 5.0276274E+002
 1.3000846E+002, 4.2375237E-004, 1.5634425E-001, 1.3524233E-001, 2.2715887E-002, 7.4988282E-003, 5.5156719E-003, 5.0191338E+002
 1.3100295E+002, 4.3230692E-004, 1.5582784E-001, 1.3536363E-001, 2.3024092E-002, 7.8996177E-003, 5.5796131E-003, 5.0042747E+002
 1.3201097E+002, 4.2574081E-004, 1.5584051E-001, 1.3535523E-001, 2.3012977E-002, 7.9434961E-003, 5.5772827E-003, 5.0046502E+002
 1.3300160E+002, 4.3431897E-004, 1.5571344E-001, 1.3540538E-001, 2.3102419E-002, 7.9136075E-003, 5.5959328E-003, 4.9996473E+002
 1.3400244E+002, 4.4278875E-004, 1.5527951E-001, 1.3554905E-001, 2.3389555E-002, 8.0366098E-003, 5.6556979E-003, 4.9892959E+002
 1.3500909E+002, 4.5349945E-004, 1.5522688E-001, 1.3556357E-001, 2.3422268E-002, 8.0253799E-003, 5.6624935E-003, 5.0157951E+002
 1.3600035E+002, 4.5834237E-004, 1.5495593E-001, 1.3567340E-001, 2.3615148E-002, 8.0035867E-003, 5.7027247E-003, 5.0118298E+002
 1.3701133E+002, 4.3171831E-004, 1.5574199E-001, 1.3551254E-001, 2.3162273E-002, 7.3319125E-003, 5.6088823E-003, 5.0280927E+002
 1.3800292E+002, 4.2212847E-004, 1.5538090E-001, 1.3560641E-001, 2.3384146E-002, 7.6322549E-003, 5.6549573E-003, 5.0439446E+002
 1.3900612E+002, 4.1884710E-004, 1.5494442E-001, 1.3573322E-001, 2.3661215E-002, 7.8938673E-003, 5.7125538E-003, 5.0084993E+002
 1.4000124E+002, 4.3806537E-004, 1.5463080E-001, 1.3576919E-001, 2.3822723E-002, 8.2666205E-003, 5.7458831E-003, 4.9681161E+002
 1.4100068E+002, 4.3751743E-004, 1.5458639E-001, 1.3578721E-001, 2.3854367E-002, 8.2685916E-003, 5.7524836E-003, 5.0044144E+002
 1.4200236E+002, 4.2289207E-004, 1.5507364E-001, 1.3563339E-001, 2.3537095E-002, 8.1144802E-003, 5.6864780E-003, 5.0258222E+002
 1.4301092E+002, 4.3027980E-004, 1.5469917E-001, 1.3572931E-001, 2.3765946E-002, 8.3603665E-003, 5.7339933E-003, 5.0255091E+002
 1.4400445E+002, 4.3085066E-004, 1.5479538E-001, 1.3572900E-001, 2.3723530E-002, 8.1653818E-003, 5.7252974E-003, 5.0222993E+002
 1.4500275E+002, 4.3122515E-004, 1.5484892E-001, 1.3571067E-001, 2.3687676E-002, 8.1472377E-003, 5.7178320E-003, 5.0224393E+002
 1.4600271E+002, 4.4937650E-004, 1.5416473E-001, 1.3588175E-001, 2.4102913E-002, 8.5978708E-003, 5.8040262E-003, 4.9892955E+002
 1.4701002E+002, 4.7731146E-004, 1.5385044E-001, 1.3603035E-001, 2.4340600E-002, 8.3730805E-003, 5.8536841E-003, 4.9996548E+002
 1.4801096E+002, 4.9487729E-004, 1.5385323E-001, 1.3601075E-001, 2.4325862E-002, 8.3916110E-003, 5.8505359E-003, 4.9957903E+002
 1.4900703E+002, 4.9563942E-004, 1.5436230E-001, 1.3588465E-001, 2.4017479E-002, 7.9905200E-003, 5.7865259E-003, 5.0262297E+002
 1.5000356E+002, 4.7702645E-004, 1.5431840E-001, 1.3592888E-001, 2.4066882E-002, 7.9364239E-003, 5.7969361E-003, 5.0441869E+002
 1.5101044E+002, 4.8758774E-004, 1.5439605E-001, 1.3587042E-001, 2.3993197E-002, 8.0272665E-003, 5.7814598E-003, 5.0411932E+002
 1.5200143E+002, 4.8592166E-004, 1.5400223E-001, 1.3601820E-001, 2.4265688E-002, 8.0912656E-003, 5.8382511E-003, 5.0260182E+002
 1.5300827E+002, 4.9850031E-004, 1.5385520E-001, 1.3607977E-001, 2.4371525E-002, 8.0278517E-003, 5.8603334E-003, 4.9937388E+002
 1.5400441E+002, 4.8598689E-004, 1.5381641E-001, 1.3607323E-001, 2.4384329E-002, 8.1912741E-003, 5.8629183E-003, 5.0141258E+002
