s,,,,,,,
Time,"O2 EXHAUST","CO2 EXHAUST","H2O EXHAUST","CO EXHAUST","FUEL EXHAUST","SOOT EXHAUST","TEMP EXHAUST"
 0.0000000E+000, 2.3099739E-001, 5.9146498E-004, 5.9412091E-003, 0.0000000E+000, 0.0000000E+000, 0.0000000E+000, 2.0000000E+001
 1.0006836E+000, 2.3099739E-001, 5.9146498E-004, 5.9412091E-003, 2.0683013E-030, 1.3370949E-029, 2.0400691E-030, 2.0370529E+001
 2.0017617E+000, 2.2489079E-001, 6.2638659E-003, 7.5505953E-003, 1.8525469E-005, 1.7642640E-004, 3.7700075E-004, 7.8999335E+001
 3.0021573E+000, 2.2228407E-001, 8.6742724E-003, 8.2456719E-003, 4.6926637E-005, 1.9526650E-004, 5.4164205E-004, 1.0004238E+002
 4.0036590E+000, 2.1693129E-001, 1.3643087E-002, 9.6621302E-003, 7.5283204E-005, 3.0216491E-004, 8.7450359E-004, 1.4890604E+002
 5.0075992E+000, 2.1422280E-001, 1.6146126E-002, 1.0382953E-002, 1.0311991E-004, 3.3727611E-004, 1.0451144E-003, 1.7001432E+002
 6.0045709E+000, 2.1164113E-001, 1.8525740E-002, 1.1068625E-002, 1.3058784E-004, 3.9450324E-004, 1.2075305E-003, 1.9166523E+002
 7.0030185E+000, 2.0791228E-001, 2.2011146E-002, 1.2056386E-002, 1.3891724E-004, 4.1798477E-004, 1.4385145E-003, 2.1895784E+002
 8.0045965E+000, 2.0466263E-001, 2.5037678E-002, 1.2916768E-002, 1.5143696E-004, 4.6144146E-004, 1.6402331E-003, 2.4287271E+002
 9.0044037E+000, 2.0063145E-001, 2.8808775E-002, 1.3988165E-002, 1.6507789E-004, 4.4843437E-004, 1.8911504E-003, 2.6649990E+002
 1.0006829E+001, 1.9556292E-001, 3.3556334E-002, 1.5334732E-002, 1.7793968E-004, 4.2668891E-004, 2.2061055E-003, 2.9445962E+002
 1.1006813E+001, 1.9226556E-001, 3.6643743E-002, 1.6211082E-002, 1.8753241E-004, 4.1137510E-004, 2.4111913E-003, 3.1030123E+002
 1.2004995E+001, 1.8832575E-001, 4.0339543E-002, 1.7258644E-002, 1.9604773E-004, 3.7694142E-004, 2.6560476E-003, 3.2691168E+002
 1.3007711E+001, 1.8472448E-001, 4.3717250E-002, 1.8215561E-002, 2.0299396E-004, 3.5224516E-004, 2.8796487E-003, 3.4222316E+002
 1.4002784E+001, 1.8101088E-001, 4.7213933E-002, 1.9201213E-002, 2.0064956E-004, 3.1373165E-004, 3.1090621E-003, 3.5330006E+002
 1.5002184E+001, 1.7715295E-001, 5.0843364E-002, 2.0225372E-002, 2.0031189E-004, 2.7725992E-004, 3.3476385E-003, 3.6519775E+002
 1.6004781E+001, 1.7384437E-001, 5.3959142E-002, 2.1103897E-002, 1.9863725E-004, 2.3870422E-004, 3.5521506E-003, 3.7497115E+002
 1.7001611E+001, 1.7017925E-001, 5.7406351E-002, 2.2076625E-002, 1.9833399E-004, 2.0778466E-004, 3.7787528E-003, 3.8114691E+002
 1.8005314E+001, 1.6731587E-001, 6.0104976E-002, 2.2836393E-002, 1.9475310E-004, 1.7582308E-004, 3.9554230E-003, 3.8713194E+002
 1.9000881E+001, 1.6514041E-001, 6.2152800E-002, 2.3413559E-002, 1.9326775E-004, 1.5647564E-004, 4.0897542E-003, 3.9144246E+002
 2.0007959E+001, 1.6234999E-001, 6.4779174E-002, 2.4153924E-002, 1.9162393E-004, 1.3174542E-004, 4.2620931E-003, 3.9590371E+002
 2.1003413E+001, 1.6148054E-001, 6.5599727E-002, 2.4384395E-002, 1.8950491E-004, 1.2222135E-004, 4.3155891E-003, 3.9505657E+002
 2.2000109E+001, 1.5855630E-001, 6.8346618E-002, 2.5160314E-002, 1.9086814E-004, 1.0523819E-004, 4.4965035E-003, 3.9779627E+002
 2.3003757E+001, 1.5718051E-001, 6.9642088E-002, 2.5525253E-002, 1.8958683E-004, 9.2909974E-005, 4.5814086E-003, 3.9961011E+002
 2.4001398E+001, 1.5551589E-001, 7.1207864E-002, 2.5966786E-002, 1.8891493E-004, 8.1077751E-005, 4.6842193E-003, 4.0085369E+002
 2.5005347E+001, 1.5405127E-001, 7.2583731E-002, 2.6355403E-002, 1.8954814E-004, 7.2491382E-005, 4.7748252E-003, 4.0268902E+002
 2.6008017E+001, 1.5281442E-001, 7.3744986E-002, 2.6683527E-002, 1.9033545E-004, 6.6903868E-005, 4.8513530E-003, 4.0382833E+002
 2.7001030E+001, 1.5246069E-001, 7.4079871E-002, 2.6777241E-002, 1.8880146E-004, 6.1697259E-005, 4.8730410E-003, 4.0295042E+002
 2.8002536E+001, 1.5180644E-001, 7.4695232E-002, 2.6950735E-002, 1.8848409E-004, 5.7538288E-005, 4.9134348E-003, 4.0157431E+002
 2.9000247E+001, 1.5109710E-001, 7.5361162E-002, 2.7138969E-002, 1.8906203E-004, 5.3915589E-005, 4.9573475E-003, 4.0075658E+002
 3.0006794E+001, 1.4941808E-001, 7.6935701E-002, 2.7584362E-002, 1.9109517E-004, 4.9812442E-005, 5.0613202E-003, 4.0659575E+002
 3.1008167E+001, 1.4860353E-001, 7.7699992E-002, 2.7800591E-002, 1.9212127E-004, 4.5672829E-005, 5.1117975E-003, 4.0492473E+002
 3.2006004E+001, 1.4771352E-001, 7.8535621E-002, 2.8036500E-002, 1.9231865E-004, 4.3504821E-005, 5.1667864E-003, 4.0346051E+002
 3.3005872E+001, 1.4611774E-001, 8.0030533E-002, 2.8459954E-002, 1.9536978E-004, 4.0990710E-005, 5.2657435E-003, 4.0159308E+002
 3.4008710E+001, 1.4639821E-001, 7.9768882E-002, 2.8385399E-002, 1.9400052E-004, 4.0770525E-005, 5.2482425E-003, 4.0260022E+002
 3.5000896E+001, 1.4605525E-001, 8.0090225E-002, 2.8476390E-002, 1.9459189E-004, 4.0260673E-005, 5.2695001E-003, 3.9976836E+002
 3.6002706E+001, 1.4492054E-001, 8.1153830E-002, 2.8777374E-002, 1.9620509E-004, 3.8539003E-005, 5.3397859E-003, 4.0146427E+002
 3.7008641E+001, 1.4317285E-001, 8.2790826E-002, 2.9241278E-002, 1.9992112E-004, 3.4887914E-005, 5.4482294E-003, 4.0529279E+002
 3.8006597E+001, 1.4266850E-001, 8.3263678E-002, 2.9374885E-002, 2.0026911E-004, 3.5541966E-005, 5.4793969E-003, 4.0425714E+002
 3.9004854E+001, 1.4115775E-001, 8.4679010E-002, 2.9775803E-002, 2.0316612E-004, 3.2754473E-005, 5.5730879E-003, 4.0325518E+002
 4.0000651E+001, 1.4079757E-001, 8.5015149E-002, 2.9871403E-002, 2.0460009E-004, 3.4180007E-005, 5.5955008E-003, 4.0426311E+002
 4.1006402E+001, 1.4072910E-001, 8.5080012E-002, 2.9889537E-002, 2.0426911E-004, 3.3155545E-005, 5.5996942E-003, 4.0349675E+002
 4.2003395E+001, 1.3965033E-001, 8.6090101E-002, 3.0175820E-002, 2.0664464E-004, 3.2110860E-005, 5.6666260E-003, 4.0425363E+002
 4.3000852E+001, 1.3819953E-001, 8.7449618E-002, 3.0560703E-002, 2.0900918E-004, 3.0012725E-005, 5.7565318E-003, 4.0469543E+002
 4.4004899E+001, 1.3903278E-001, 8.6666774E-002, 3.0339599E-002, 2.0867595E-004, 3.5166264E-005, 5.7049844E-003, 4.0251397E+002
 4.5006835E+001, 1.3889078E-001, 8.6801058E-002, 3.0377260E-002, 2.0821610E-004, 3.2962307E-005, 5.7137146E-003, 4.0383964E+002
 4.6003183E+001, 1.3659373E-001, 8.8952691E-002, 3.0986736E-002, 2.1261533E-004, 3.0332375E-005, 5.8561457E-003, 4.0473972E+002
 4.7002663E+001, 1.3583425E-001, 8.9662906E-002, 3.1188182E-002, 2.1460392E-004, 3.2169011E-005, 5.9032758E-003, 4.0518800E+002
 4.8008524E+001, 1.3560609E-001, 8.9877220E-002, 3.1248695E-002, 2.1466644E-004, 3.1079963E-005, 5.9173814E-003, 4.0434433E+002
 4.9002652E+001, 1.3488837E-001, 9.0549723E-002, 3.1439155E-002, 2.1596892E-004, 2.9646019E-005, 5.9618832E-003, 4.0535397E+002
 5.0004783E+001, 1.3536630E-001, 9.0100874E-002, 3.1312349E-002, 2.1570743E-004, 3.2158349E-005, 5.9323129E-003, 4.0263734E+002
 5.1005621E+001, 1.3422762E-001, 9.1167868E-002, 3.1614398E-002, 2.1753042E-004, 3.0898552E-005, 6.0028669E-003, 4.0339055E+002
 5.2005174E+001, 1.3397868E-001, 9.1401484E-002, 3.1680401E-002, 2.1768003E-004, 3.0312302E-005, 6.0182605E-003, 4.0342414E+002
 5.3005642E+001, 1.3288275E-001, 9.2427456E-002, 3.1971195E-002, 2.2011723E-004, 2.9963147E-005, 6.0862500E-003, 4.0694871E+002
 5.4000410E+001, 1.3311332E-001, 9.2212116E-002, 3.1909921E-002, 2.1915468E-004, 3.0062846E-005, 6.0718822E-003, 4.0513769E+002
 5.5001696E+001, 1.3311587E-001, 9.2210312E-002, 3.1909217E-002, 2.1877793E-004, 2.9288887E-005, 6.0716820E-003, 4.0203941E+002
 5.6004425E+001, 1.3102715E-001, 9.4166646E-002, 3.2463525E-002, 2.2305585E-004, 2.6182094E-005, 6.2012451E-003, 4.0553529E+002
 5.7000805E+001, 1.3103637E-001, 9.4155901E-002, 3.2461204E-002, 2.2442716E-004, 2.8635729E-005, 6.2008354E-003, 4.0558517E+002
 5.8007762E+001, 1.3153850E-001, 9.3685502E-002, 3.2327865E-002, 2.2330172E-004, 3.0353915E-005, 6.1696612E-003, 4.0440947E+002
 5.9006985E+001, 1.3110978E-001, 9.4086277E-002, 3.2441598E-002, 2.2453183E-004, 3.1406462E-005, 6.1962800E-003, 4.0536532E+002
 6.0001163E+001, 1.3092852E-001, 9.4258299E-002, 3.2489553E-002, 2.2339726E-004, 2.8632575E-005, 6.2073457E-003, 4.0643872E+002
 6.1002675E+001, 1.3053542E-001, 9.4625552E-002, 3.2593806E-002, 2.2459468E-004, 3.0311164E-005, 6.2317533E-003, 4.0396655E+002
 6.2004198E+001, 1.2899907E-001, 9.6065510E-002, 3.3001476E-002, 2.2711050E-004, 2.6773521E-005, 6.3269811E-003, 4.0775744E+002
 6.3000916E+001, 1.2912901E-001, 9.5943167E-002, 3.2966998E-002, 2.2720753E-004, 2.8031393E-005, 6.3189576E-003, 4.0431393E+002
 6.4001925E+001, 1.2814546E-001, 9.6864368E-002, 3.3227923E-002, 2.2906576E-004, 2.7398649E-005, 6.3799326E-003, 4.0593538E+002
 6.5008286E+001, 1.2852926E-001, 9.6505245E-002, 3.3126050E-002, 2.2805029E-004, 2.7552812E-005, 6.3560990E-003, 4.0635371E+002
 6.6000627E+001, 1.2803565E-001, 9.6966559E-002, 3.3257013E-002, 2.2956208E-004, 2.8875162E-005, 6.3867596E-003, 4.0465106E+002
 6.7002288E+001, 1.2809370E-001, 9.6913359E-002, 3.3241552E-002, 2.2869685E-004, 2.7448547E-005, 6.3830742E-003, 4.0396195E+002
 6.8007975E+001, 1.2785360E-001, 9.7137176E-002, 3.3305296E-002, 2.2982365E-004, 2.8676426E-005, 6.3980350E-003, 4.0528076E+002
 6.9007630E+001, 1.2713334E-001, 9.7811312E-002, 3.3496394E-002, 2.3147829E-004, 2.8840475E-005, 6.4427204E-003, 4.0568925E+002
 7.0002290E+001, 1.2714281E-001, 9.7802888E-002, 3.3493835E-002, 2.3113167E-004, 2.8523622E-005, 6.4420915E-003, 4.0309258E+002
 7.1000818E+001, 1.2669805E-001, 9.8219503E-002, 3.3611882E-002, 2.3204532E-004, 2.7647505E-005, 6.4696834E-003, 4.0660325E+002
 7.2007279E+001, 1.2641357E-001, 9.8485393E-002, 3.3687379E-002, 2.3293981E-004, 2.8176723E-005, 6.4873604E-003, 4.0567101E+002
 7.3007617E+001, 1.2594999E-001, 9.8919392E-002, 3.3810330E-002, 2.3386491E-004, 2.8498586E-005, 6.5160980E-003, 4.0541571E+002
 7.4003210E+001, 1.2537994E-001, 9.9453812E-002, 3.3961559E-002, 2.3466483E-004, 2.7266293E-005, 6.5514114E-003, 4.0541851E+002
 7.5001535E+001, 1.2730649E-001, 9.7649375E-002, 3.3450326E-002, 2.3078131E-004, 2.9794944E-005, 6.4319216E-003, 4.0599893E+002
 7.6000853E+001, 1.2554075E-001, 9.9302462E-002, 3.3918927E-002, 2.3481855E-004, 2.8370618E-005, 6.5414928E-003, 4.0561744E+002
 7.7003145E+001, 1.2505352E-001, 9.9759320E-002, 3.4048161E-002, 2.3541346E-004, 2.7430188E-005, 6.5716619E-003, 4.0526491E+002
 7.8004548E+001, 1.2560013E-001, 9.9246855E-002, 3.3903093E-002, 2.3455673E-004, 2.9142186E-005, 6.5377798E-003, 4.0481254E+002
 7.9000543E+001, 1.2432596E-001, 1.0044138E-001, 3.4241146E-002, 2.3639418E-004, 2.6160098E-005, 6.6167224E-003, 4.0640416E+002
 8.0002127E+001, 1.2399438E-001, 1.0075176E-001, 3.4329119E-002, 2.3713648E-004, 2.6179732E-005, 6.6372918E-003, 4.0559968E+002
 8.1005574E+001, 1.2364743E-001, 1.0107607E-001, 3.4421232E-002, 2.3827378E-004, 2.6417637E-005, 6.6588630E-003, 4.0703157E+002
 8.2002418E+001, 1.2411958E-001, 1.0063422E-001, 3.4295903E-002, 2.3705032E-004, 2.6770029E-005, 6.6295443E-003, 4.0770464E+002
 8.3006417E+001, 1.2395757E-001, 1.0078612E-001, 3.4338860E-002, 2.3722426E-004, 2.6591827E-005, 6.6395704E-003, 4.0499611E+002
 8.4002039E+001, 1.2439425E-001, 1.0037788E-001, 3.4222893E-002, 2.3576783E-004, 2.6666941E-005, 6.6124115E-003, 4.0487701E+002
 8.5007009E+001, 1.2468714E-001, 1.0010309E-001, 3.4145240E-002, 2.3555849E-004, 2.7210608E-005, 6.5942974E-003, 4.0733079E+002
 8.6003066E+001, 1.2462471E-001, 1.0016018E-001, 3.4161838E-002, 2.3649900E-004, 2.9245764E-005, 6.5982554E-003, 4.0390945E+002
 8.7003339E+001, 1.2268831E-001, 1.0197413E-001, 3.4675673E-002, 2.4022254E-004, 2.6310787E-005, 6.7183362E-003, 4.0694265E+002
 8.8006153E+001, 1.2310482E-001, 1.0158338E-001, 3.4565069E-002, 2.3959785E-004, 2.8682649E-005, 6.6925075E-003, 4.0715200E+002
 8.9005143E+001, 1.2259314E-001, 1.0206336E-001, 3.4700883E-002, 2.4028406E-004, 2.6437787E-005, 6.7242166E-003, 4.0785656E+002
 9.0004893E+001, 1.2308038E-001, 1.0160616E-001, 3.4571676E-002, 2.3992519E-004, 2.7695138E-005, 6.6940761E-003, 4.0620166E+002
 9.1003341E+001, 1.2324052E-001, 1.0145658E-001, 3.4529157E-002, 2.3933295E-004, 2.7450424E-005, 6.6841125E-003, 4.0565139E+002
 9.2004242E+001, 1.2249527E-001, 1.0215550E-001, 3.4726889E-002, 2.4028281E-004, 2.5196951E-005, 6.7302749E-003, 4.0820894E+002
 9.3003760E+001, 1.2313465E-001, 1.0155538E-001, 3.4557300E-002, 2.3983164E-004, 2.7456983E-005, 6.6907171E-003, 4.0735909E+002
 9.4002681E+001, 1.2287656E-001, 1.0179717E-001, 3.4625712E-002, 2.4018580E-004, 2.7732719E-005, 6.7066922E-003, 4.0557284E+002
 9.5004390E+001, 1.2271600E-001, 1.0194811E-001, 3.4668210E-002, 2.4000731E-004, 2.7582113E-005, 6.7165786E-003, 4.0590467E+002
 9.6008833E+001, 1.2302363E-001, 1.0165895E-001, 3.4586544E-002, 2.3990022E-004, 3.0051196E-005, 6.6975416E-003, 4.0554330E+002
 9.7006351E+001, 1.2171157E-001, 1.0288864E-001, 3.4934748E-002, 2.4216594E-004, 2.6681334E-005, 6.7788894E-003, 4.0655314E+002
 9.8008527E+001, 1.2157064E-001, 1.0302077E-001, 3.4972089E-002, 2.4227282E-004, 2.6762135E-005, 6.7876009E-003, 4.0645545E+002
 9.9002697E+001, 1.2149426E-001, 1.0309144E-001, 3.4992522E-002, 2.4319920E-004, 2.6631956E-005, 6.7924483E-003, 4.0855731E+002
 1.0000743E+002, 1.2213147E-001, 1.0249415E-001, 3.4823424E-002, 2.4216660E-004, 2.8340325E-005, 6.7529500E-003, 4.0613818E+002
 1.0100171E+002, 1.2171599E-001, 1.0288416E-001, 3.4933572E-002, 2.4233604E-004, 2.7270665E-005, 6.7786318E-003, 4.0757834E+002
 1.0200018E+002, 1.2247318E-001, 1.0217501E-001, 3.4732578E-002, 2.4066840E-004, 2.8815260E-005, 6.7316414E-003, 4.0465705E+002
 1.0300671E+002, 1.2177367E-001, 1.0282981E-001, 3.4918200E-002, 2.4228155E-004, 2.8546312E-005, 6.7750464E-003, 4.0479358E+002
 1.0400850E+002, 1.2178175E-001, 1.0282261E-001, 3.4916022E-002, 2.4200453E-004, 2.8229755E-005, 6.7745127E-003, 4.0223967E+002
 1.0500112E+002, 1.2117442E-001, 1.0339044E-001, 3.5077232E-002, 2.4386740E-004, 2.8706361E-005, 6.8122533E-003, 4.0668003E+002
 1.0600265E+002, 1.2016693E-001, 1.0433611E-001, 3.5344521E-002, 2.4466262E-004, 2.4447966E-005, 6.8746073E-003, 4.0714376E+002
 1.0700875E+002, 1.2066626E-001, 1.0386726E-001, 3.5212142E-002, 2.4452211E-004, 2.5975096E-005, 6.8437481E-003, 4.0579396E+002
 1.0800130E+002, 1.2122178E-001, 1.0334663E-001, 3.5064745E-002, 2.4361210E-004, 2.7100858E-005, 6.8093175E-003, 4.0862284E+002
 1.0900805E+002, 1.2095357E-001, 1.0359788E-001, 3.5135917E-002, 2.4412824E-004, 2.6668911E-005, 6.8259499E-003, 4.0689176E+002
 1.1000066E+002, 1.2134004E-001, 1.0323621E-001, 3.5033326E-002, 2.4311718E-004, 2.7010670E-005, 6.8019498E-003, 4.0684999E+002
 1.1100874E+002, 1.2046847E-001, 1.0405189E-001, 3.5264622E-002, 2.4525553E-004, 2.6827754E-005, 6.8560470E-003, 4.0606570E+002
 1.1200411E+002, 1.2064856E-001, 1.0388475E-001, 3.5216728E-002, 2.4386060E-004, 2.5421967E-005, 6.8447545E-003, 4.0683107E+002
 1.1300893E+002, 1.2067066E-001, 1.0386479E-001, 3.5210824E-002, 2.4333247E-004, 2.4518079E-005, 6.8433283E-003, 4.0836457E+002
 1.1400193E+002, 1.2051882E-001, 1.0400704E-001, 3.5251094E-002, 2.4358391E-004, 2.4512598E-005, 6.8527357E-003, 4.0543335E+002
 1.1500854E+002, 1.2025504E-001, 1.0425360E-001, 3.5321085E-002, 2.4437898E-004, 2.5065782E-005, 6.8691205E-003, 4.0835765E+002
 1.1600227E+002, 1.2024365E-001, 1.0426308E-001, 3.5324172E-002, 2.4517026E-004, 2.6471254E-005, 6.8699154E-003, 4.0768104E+002
 1.1700210E+002, 1.1907471E-001, 1.0535856E-001, 3.5634313E-002, 2.4708766E-004, 2.4360042E-005, 6.9423626E-003, 4.0851362E+002
 1.1800096E+002, 1.1952674E-001, 1.0493460E-001, 3.5514389E-002, 2.4654577E-004, 2.5677633E-005, 6.9143683E-003, 4.0664774E+002
 1.1900442E+002, 1.1940968E-001, 1.0504424E-001, 3.5545492E-002, 2.4685460E-004, 2.5176113E-005, 6.9216443E-003, 4.0805318E+002
 1.2000836E+002, 1.1986722E-001, 1.0461616E-001, 3.5424011E-002, 2.4555543E-004, 2.5582484E-005, 6.8932152E-003, 4.0981891E+002
 1.2100076E+002, 1.1994116E-001, 1.0454737E-001, 3.5404325E-002, 2.4503716E-004, 2.5487528E-005, 6.8885796E-003, 4.0669674E+002
 1.2200635E+002, 1.2013602E-001, 1.0436390E-001, 3.5352794E-002, 2.4549074E-004, 2.5766971E-005, 6.8766141E-003, 4.0735750E+002
 1.2300281E+002, 1.2093308E-001, 1.0361627E-001, 3.5141223E-002, 2.4437871E-004, 2.9243486E-005, 6.8272132E-003, 4.0697125E+002
 1.2400115E+002, 1.2111630E-001, 1.0344589E-001, 3.5092629E-002, 2.4337782E-004, 2.7138674E-005, 6.8157933E-003, 4.0442440E+002
 1.2500461E+002, 1.2021537E-001, 1.0428987E-001, 3.5331627E-002, 2.4497831E-004, 2.6418884E-005, 6.8716348E-003, 4.0646656E+002
 1.2600527E+002, 1.2008802E-001, 1.0440859E-001, 3.5365425E-002, 2.4554836E-004, 2.7167400E-005, 6.8795647E-003, 4.0608846E+002
 1.2700079E+002, 1.2078399E-001, 1.0375754E-001, 3.5180694E-002, 2.4361493E-004, 2.7099560E-005, 6.8363371E-003, 4.0628663E+002
 1.2800761E+002, 1.1962542E-001, 1.0484320E-001, 3.5488045E-002, 2.4550008E-004, 2.5523299E-005, 6.9081317E-003, 4.0680730E+002
 1.2900451E+002, 1.1972474E-001, 1.0475021E-001, 3.5461786E-002, 2.4545180E-004, 2.4676973E-005, 6.9020071E-003, 4.0643221E+002
 1.3000011E+002, 1.2021443E-001, 1.0429164E-001, 3.5331862E-002, 2.4446019E-004, 2.5016151E-005, 6.8716393E-003, 4.0767705E+002
 1.3100326E+002, 1.1994642E-001, 1.0454147E-001, 3.5402914E-002, 2.4553858E-004, 2.7327478E-005, 6.8882999E-003, 4.0541699E+002
 1.3200834E+002, 1.1901990E-001, 1.0540938E-001, 3.5648763E-002, 2.4731468E-004, 2.6060008E-005, 6.9457533E-003, 4.0877835E+002
 1.3300732E+002, 1.1998173E-001, 1.0450922E-001, 3.5393568E-002, 2.4505546E-004, 2.5750442E-005, 6.8860750E-003, 4.0651166E+002
 1.3400741E+002, 1.1923303E-001, 1.0520972E-001, 3.5592222E-002, 2.4693115E-004, 2.6253757E-005, 6.9325421E-003, 4.0592663E+002
 1.3500781E+002, 1.1940642E-001, 1.0504775E-001, 3.5546233E-002, 2.4638737E-004, 2.5550869E-005, 6.9217739E-003, 4.0754585E+002
 1.3600317E+002, 1.1878311E-001, 1.0563066E-001, 3.5711701E-002, 2.4825261E-004, 2.5645467E-005, 6.9605063E-003, 4.0850266E+002
 1.3700643E+002, 1.1954364E-001, 1.0491842E-001, 3.5509794E-002, 2.4651022E-004, 2.7339064E-005, 6.9132964E-003, 4.0777889E+002
 1.3800466E+002, 1.2010395E-001, 1.0439417E-001, 3.5361134E-002, 2.4512343E-004, 2.6891709E-005, 6.8785249E-003, 4.0615379E+002
 1.3900597E+002, 1.2030535E-001, 1.0420573E-001, 3.5307696E-002, 2.4462361E-004, 2.6782702E-005, 6.8660256E-003, 4.0678387E+002
 1.4000314E+002, 1.2041762E-001, 1.0410054E-001, 3.5277957E-002, 2.4451104E-004, 2.6495301E-005, 6.8590848E-003, 4.0689038E+002
 1.4100530E+002, 1.2030346E-001, 1.0420601E-001, 3.5308239E-002, 2.4552237E-004, 2.8946998E-005, 6.8662388E-003, 4.0610592E+002
 1.4200050E+002, 1.2026603E-001, 1.0424238E-001, 3.5318078E-002, 2.4470795E-004, 2.7544509E-005, 6.8684538E-003, 4.0741738E+002
 1.4300424E+002, 1.2029365E-001, 1.0421683E-001, 3.5310804E-002, 2.4457361E-004, 2.6511127E-005, 6.8667447E-003, 4.0843015E+002
 1.4400480E+002, 1.1957452E-001, 1.0488977E-001, 3.5501645E-002, 2.4637866E-004, 2.6484699E-005, 6.9113840E-003, 4.0772148E+002
 1.4500486E+002, 1.1980343E-001, 1.0467626E-001, 3.5440791E-002, 2.4522685E-004, 2.6258419E-005, 6.8970960E-003, 4.0404569E+002
 1.4600572E+002, 1.1893273E-001, 1.0549233E-001, 3.5671799E-002, 2.4660014E-004, 2.4574222E-005, 6.9510529E-003, 4.0674760E+002
 1.4700838E+002, 1.1846769E-001, 1.0592538E-001, 3.5795443E-002, 2.4935180E-004, 2.6067559E-005, 6.9801235E-003, 4.0861545E+002
 1.4800027E+002, 1.1919086E-001, 1.0524859E-001, 3.5603442E-002, 2.4741870E-004, 2.7018672E-005, 6.9352031E-003, 4.0718795E+002
 1.4900653E+002, 1.1921061E-001, 1.0523086E-001, 3.5598184E-002, 2.4692152E-004, 2.5869975E-005, 6.9339301E-003, 4.0651366E+002
 1.5000171E+002, 1.1973523E-001, 1.0474063E-001, 3.5458896E-002, 2.4510494E-004, 2.5284890E-005, 6.9013021E-003, 4.0694102E+002
 1.5100278E+002, 1.1942894E-001, 1.0502662E-001, 3.5540206E-002, 2.4626938E-004, 2.6101723E-005, 6.9203592E-003, 4.0611536E+002
 1.5200248E+002, 1.1927538E-001, 1.0517027E-001, 3.5581096E-002, 2.4692725E-004, 2.4903892E-005, 6.9299472E-003, 4.0827248E+002
 1.5300161E+002, 1.1948502E-001, 1.0497447E-001, 3.5525381E-002, 2.4605155E-004, 2.5025892E-005, 6.9168828E-003, 4.0679303E+002
 1.5400518E+002, 1.1968214E-001, 1.0478984E-001, 3.5473068E-002, 2.4564931E-004, 2.5337290E-005, 6.9046554E-003, 4.0591580E+002
