s,,,,,,,
Time,O2 EXHAUST,CO2 EXHAUST,H2O EXHAUST,CO EXHAUST,FUEL EXHAUST,SOOT EXHAUST,TEMP EXHAUST
 0.0000000E+000, 2.3099739E-001, 5.9146498E-004, 5.9412092E-003, 0.0000000E+000, 0.0000000E+000, 0.0000000E+000, 2.0000000E+001
 1.0056508E+000, 2.3099739E-001, 5.9146498E-004, 5.9412092E-003, 2.5849139E-023, 5.1619281E-021, 1.2919054E-022, 2.0223832E+001
 2.0053683E+000, 2.2419117E-001, 6.1258292E-003, 9.0355267E-003, 1.2696735E-005, 4.3759169E-004, 3.9909657E-005, 9.3734569E+001
 3.0061325E+000, 2.1959814E-001, 9.8823748E-003, 1.1139354E-002, 2.3477241E-005, 6.0324179E-004, 6.7462128E-005, 1.3963270E+002
 4.0011256E+000, 2.1385810E-001, 1.4585394E-002, 1.3777176E-002, 3.9760493E-005, 7.4638995E-004, 1.0255373E-004, 1.9364774E+002
 5.0014195E+000, 2.0980625E-001, 1.7904290E-002, 1.5637215E-002, 5.0168754E-005, 8.6014392E-004, 1.2708559E-004, 2.2775693E+002
 6.0037237E+000, 2.0424697E-001, 2.2487597E-002, 1.8195927E-002, 5.6343314E-005, 9.2021620E-004, 1.5920516E-004, 2.7483408E+002
 7.0022721E+000, 1.9869086E-001, 2.7085386E-002, 2.0764491E-002, 6.3495590E-005, 8.8407166E-004, 1.9163129E-004, 3.1899055E+002
 8.0026543E+000, 1.9311297E-001, 3.1740849E-002, 2.3359432E-002, 6.5436083E-005, 6.7907480E-004, 2.2332683E-004, 3.5402452E+002
 9.0049287E+000, 1.8704923E-001, 3.6798616E-002, 2.6177553E-002, 6.6809604E-005, 4.7818366E-004, 2.5760392E-004, 3.8886800E+002
 1.0006025E+001, 1.7928043E-001, 4.3278560E-002, 2.9787488E-002, 6.8110738E-005, 2.2420476E-004, 3.0142098E-004, 4.2820189E+002
 1.1000153E+001, 1.7318326E-001, 4.8352924E-002, 3.2615274E-002, 7.0052727E-005, 7.6997151E-005, 3.3593169E-004, 4.5228716E+002
 1.2001211E+001, 1.6865999E-001, 5.2102851E-002, 3.4707274E-002, 7.3536538E-005, 2.8878340E-005, 3.6187439E-004, 4.6176600E+002
 1.3007141E+001, 1.6400715E-001, 5.5953837E-002, 3.6856661E-002, 7.8017655E-005, 6.0705900E-006, 3.8871006E-004, 4.7115426E+002
 1.4007356E+001, 1.6043435E-001, 5.8907482E-002, 3.8505848E-002, 8.2016338E-005, 2.3663663E-006, 4.0941307E-004, 4.7748772E+002
 1.5005233E+001, 1.5725382E-001, 6.1536353E-002, 3.9973777E-002, 8.5647244E-005, 1.0870450E-006, 4.2785507E-004, 4.7974865E+002
 1.6007320E+001, 1.5527500E-001, 6.3171941E-002, 4.0887056E-002, 8.7896657E-005, 3.8942237E-007, 4.3932696E-004, 4.8093062E+002
 1.7005150E+001, 1.5251944E-001, 6.5449283E-002, 4.2158763E-002, 9.1099568E-005, 2.7873494E-007, 4.5531526E-004, 4.8716744E+002
 1.8007489E+001, 1.5140125E-001, 6.6373417E-002, 4.2674805E-002, 9.2391154E-005, 2.4424767E-007, 4.6180148E-004, 4.8261181E+002
 1.9005603E+001, 1.4937099E-001, 6.8051346E-002, 4.3611776E-002, 9.4741221E-005, 1.8801526E-007, 4.7357944E-004, 4.8603952E+002
 2.0001131E+001, 1.4852175E-001, 6.8753163E-002, 4.4003687E-002, 9.5731852E-005, 3.0023591E-007, 4.7850739E-004, 4.8242605E+002
 2.1001081E+001, 1.4752690E-001, 6.9575382E-002, 4.4462818E-002, 9.6880409E-005, 2.1464466E-007, 4.8427817E-004, 4.8052770E+002
 2.2001032E+001, 1.4647640E-001, 7.0443578E-002, 4.4947626E-002, 9.8095481E-005, 1.6957452E-007, 4.9037214E-004, 4.8180397E+002
 2.3000133E+001, 1.4550950E-001, 7.1242655E-002, 4.5393847E-002, 9.9221468E-005, 2.1181410E-007, 4.9598260E-004, 4.8138344E+002
 2.4007489E+001, 1.4405820E-001, 7.2442095E-002, 4.6063631E-002, 1.0090566E-004, 1.6026015E-007, 5.0440280E-004, 4.8502922E+002
 2.5006498E+001, 1.4367469E-001, 7.2759043E-002, 4.6240616E-002, 1.0134809E-004, 1.8241464E-007, 5.0662725E-004, 4.8198231E+002
 2.6005556E+001, 1.4337133E-001, 7.3009754E-002, 4.6380620E-002, 1.0170251E-004, 1.5667887E-007, 5.0838778E-004, 4.8515329E+002
 2.7002010E+001, 1.4284309E-001, 7.3446312E-002, 4.6624401E-002, 1.0231625E-004, 1.5663566E-007, 5.1145262E-004, 4.8379932E+002
 2.8001380E+001, 1.4194717E-001, 7.4186745E-002, 4.7037867E-002, 1.0335448E-004, 1.9237381E-007, 5.1665023E-004, 4.8099940E+002
 2.9001930E+001, 1.4136851E-001, 7.4664967E-002, 4.7304917E-002, 1.0402889E-004, 2.1682048E-007, 5.2000803E-004, 4.7901798E+002
 3.0002277E+001, 1.4111454E-001, 7.4874853E-002, 4.7422120E-002, 1.0432346E-004, 2.3493520E-007, 5.2148142E-004, 4.8051177E+002
 3.1005934E+001, 1.4016942E-001, 7.5655951E-002, 4.7858292E-002, 1.0541735E-004, 2.1408216E-007, 5.2696420E-004, 4.7879124E+002
 3.2005491E+001, 1.3978342E-001, 7.5974979E-002, 4.8036439E-002, 1.0586282E-004, 1.4144863E-007, 5.2920327E-004, 4.8482666E+002
 3.3002651E+001, 1.3899751E-001, 7.6624484E-002, 4.8399134E-002, 1.0677716E-004, 1.6270876E-007, 5.3376337E-004, 4.7759805E+002
 3.4004278E+001, 1.3879037E-001, 7.6795678E-002, 4.8494728E-002, 1.0701483E-004, 1.8548936E-007, 5.3496459E-004, 4.7805673E+002
 3.5001521E+001, 1.3793557E-001, 7.7502125E-002, 4.8889221E-002, 1.0800880E-004, 1.5305265E-007, 5.3992436E-004, 4.8398537E+002
 3.6002678E+001, 1.3738255E-001, 7.7959150E-002, 4.9144438E-002, 1.0865705E-004, 2.1277094E-007, 5.4313411E-004, 4.8182883E+002
 3.7001227E+001, 1.3716980E-001, 7.8134987E-002, 4.9242626E-002, 1.0890203E-004, 1.5874186E-007, 5.4436810E-004, 4.7925238E+002
 3.8008785E+001, 1.3690733E-001, 7.8351872E-002, 4.9363745E-002, 1.0921301E-004, 3.0749213E-007, 5.4589204E-004, 4.7910013E+002
 3.9000293E+001, 1.3601293E-001, 7.9091083E-002, 4.9776519E-002, 1.1024147E-004, 1.6558352E-007, 5.5107934E-004, 4.7961216E+002
 4.0001924E+001, 1.3592565E-001, 7.9163200E-002, 4.9816797E-002, 1.1034768E-004, 2.0924691E-007, 5.5158667E-004, 4.7698463E+002
 4.1005358E+001, 1.3593378E-001, 7.9156480E-002, 4.9813043E-002, 1.1033788E-004, 2.1346513E-007, 5.5153942E-004, 4.7790461E+002
 4.2004587E+001, 1.3520332E-001, 7.9760188E-002, 5.0150156E-002, 1.1118022E-004, 1.4626409E-007, 5.5577636E-004, 4.7867006E+002
 4.3003545E+001, 1.3476849E-001, 8.0119545E-002, 5.0350828E-002, 1.1168596E-004, 1.7296099E-007, 5.5829934E-004, 4.7914607E+002
 4.4002468E+001, 1.3449620E-001, 8.0344572E-002, 5.0476493E-002, 1.1200723E-004, 1.7077100E-007, 5.5988019E-004, 4.8443921E+002
 4.5004858E+001, 1.3442971E-001, 8.0399521E-002, 5.0507176E-002, 1.1208384E-004, 1.9988820E-007, 5.6026582E-004, 4.8201205E+002
 4.6007249E+001, 1.3411264E-001, 8.0661552E-002, 5.0653500E-002, 1.1245385E-004, 2.3985875E-007, 5.6210575E-004, 4.7956883E+002
 4.7000998E+001, 1.3400054E-001, 8.0754206E-002, 5.0705237E-002, 1.1258193E-004, 2.0137793E-007, 5.6275576E-004, 4.7617841E+002
 4.8003388E+001, 1.3373035E-001, 8.0977513E-002, 5.0829930E-002, 1.1289141E-004, 1.5830173E-007, 5.6432252E-004, 4.7988385E+002
 4.9002280E+001, 1.3349126E-001, 8.1175099E-002, 5.0940267E-002, 1.1317114E-004, 2.0642054E-007, 5.6571009E-004, 4.7989554E+002
 5.0000668E+001, 1.3302852E-001, 8.1557532E-002, 5.1153826E-002, 1.1371028E-004, 1.7355768E-007, 5.6839527E-004, 4.7944199E+002
 5.1003900E+001, 1.3291014E-001, 8.1655354E-002, 5.1208454E-002, 1.1385011E-004, 2.3347942E-007, 5.6908252E-004, 4.7819599E+002
 5.2003225E+001, 1.3263563E-001, 8.1882243E-002, 5.1335143E-002, 1.1416094E-004, 1.6346816E-007, 5.7067365E-004, 4.7884790E+002
 5.3008229E+001, 1.3277290E-001, 8.1768786E-002, 5.1271791E-002, 1.1400522E-004, 2.1395127E-007, 5.6987794E-004, 4.7967117E+002
 5.4003470E+001, 1.3240445E-001, 8.2073303E-002, 5.1441833E-002, 1.1442892E-004, 1.6457456E-007, 5.7201485E-004, 4.7708753E+002
 5.5004831E+001, 1.3203297E-001, 8.2380312E-002, 5.1613273E-002, 1.1486128E-004, 1.6965866E-007, 5.7417035E-004, 4.7822676E+002
 5.6000571E+001, 1.3196427E-001, 8.2437061E-002, 5.1644972E-002, 1.1494884E-004, 2.3904211E-007, 5.7457043E-004, 4.7713739E+002
 5.7003955E+001, 1.3146365E-001, 8.2850806E-002, 5.1876009E-002, 1.1552680E-004, 2.1266071E-007, 5.7747432E-004, 4.7788684E+002
 5.8006597E+001, 1.3151046E-001, 8.2812110E-002, 5.1854405E-002, 1.1547595E-004, 2.3569754E-007, 5.7720342E-004, 4.7698290E+002
 5.9004000E+001, 1.3172484E-001, 8.2634950E-002, 5.1755475E-002, 1.1522584E-004, 2.0128416E-007, 5.7595944E-004, 4.7797782E+002
 6.0006100E+001, 1.3159272E-001, 8.2744134E-002, 5.1816439E-002, 1.1537515E-004, 2.4846366E-007, 5.7672507E-004, 4.7546105E+002
 6.1002903E+001, 1.3140666E-001, 8.2897912E-002, 5.1902314E-002, 1.1559302E-004, 2.0052515E-007, 5.7780503E-004, 4.8088752E+002
 6.2007728E+001, 1.3132354E-001, 8.2966620E-002, 5.1940671E-002, 1.1568149E-004, 1.8770491E-007, 5.7828564E-004, 4.7566396E+002
 6.3002907E+001, 1.3112997E-001, 8.3126576E-002, 5.2030004E-002, 1.1591461E-004, 2.2647207E-007, 5.7941038E-004, 4.7613028E+002
 6.4006986E+001, 1.3123902E-001, 8.3036451E-002, 5.1979670E-002, 1.1578242E-004, 2.3396706E-007, 5.7877649E-004, 4.7651294E+002
 6.5002664E+001, 1.3111744E-001, 8.3136943E-002, 5.2035785E-002, 1.1592297E-004, 1.9146699E-007, 5.7948182E-004, 4.7856060E+002
 6.6000901E+001, 1.3105098E-001, 8.3191866E-002, 5.2066455E-002, 1.1600037E-004, 2.2209637E-007, 5.7986746E-004, 4.7662813E+002
 6.7004300E+001, 1.3091003E-001, 8.3308339E-002, 5.2131505E-002, 1.1617203E-004, 2.1487388E-007, 5.8068685E-004, 4.8027990E+002
 6.8005880E+001, 1.3097801E-001, 8.3252155E-002, 5.2100129E-002, 1.1609086E-004, 2.6522199E-007, 5.8029194E-004, 4.7835555E+002
 6.9004216E+001, 1.3057613E-001, 8.3584308E-002, 5.2285602E-002, 1.1655329E-004, 1.9307843E-007, 5.8262284E-004, 4.7819955E+002
 7.0005556E+001, 1.3107082E-001, 8.3175461E-002, 5.2057299E-002, 1.1598121E-004, 2.2801298E-007, 5.7975312E-004, 4.7637079E+002
 7.1004594E+001, 1.3029566E-001, 8.3816097E-002, 5.2415040E-002, 1.1688138E-004, 1.6994826E-007, 5.8425059E-004, 4.7875973E+002
 7.2001788E+001, 1.3030910E-001, 8.3804994E-002, 5.2408831E-002, 1.1685882E-004, 2.0223682E-007, 5.8417115E-004, 4.7733052E+002
 7.3006533E+001, 1.3037538E-001, 8.3750210E-002, 5.2378250E-002, 1.1679053E-004, 1.9862748E-007, 5.8378841E-004, 4.7508977E+002
 7.4002889E+001, 1.3019532E-001, 8.3899034E-002, 5.2461350E-002, 1.1699455E-004, 1.6424509E-007, 5.8483211E-004, 4.7859495E+002
 7.5008199E+001, 1.2990823E-001, 8.4136274E-002, 5.2593840E-002, 1.1733810E-004, 2.0930011E-007, 5.8649979E-004, 4.7533286E+002
 7.6001092E+001, 1.2956242E-001, 8.4422088E-002, 5.2753431E-002, 1.1772991E-004, 1.6712811E-007, 5.8850420E-004, 4.7924925E+002
 7.7000155E+001, 1.2963028E-001, 8.4366015E-002, 5.2722114E-002, 1.1764747E-004, 1.4080059E-007, 5.8810977E-004, 4.7789046E+002
 7.8007733E+001, 1.2961961E-001, 8.4374827E-002, 5.2727036E-002, 1.1766069E-004, 1.4746450E-007, 5.8817181E-004, 4.7691551E+002
 7.9006733E+001, 1.2983102E-001, 8.4200108E-002, 5.2629470E-002, 1.1741434E-004, 1.7541720E-007, 5.8694505E-004, 4.7306628E+002
 8.0006038E+001, 1.3036904E-001, 8.3755459E-002, 5.2381175E-002, 1.1679257E-004, 1.8949285E-007, 5.8382412E-004, 4.7598445E+002
 8.1001407E+001, 1.3017408E-001, 8.3916579E-002, 5.2471151E-002, 1.1702307E-004, 1.7713861E-007, 5.8495611E-004, 4.7584958E+002
 8.2007548E+001, 1.3014668E-001, 8.3939211E-002, 5.2483787E-002, 1.1705298E-004, 2.5974636E-007, 5.8511459E-004, 4.7449552E+002
 8.3001879E+001, 1.2967394E-001, 8.4329914E-002, 5.2701960E-002, 1.1760093E-004, 2.0132550E-007, 5.8785722E-004, 4.7565725E+002
 8.4005711E+001, 1.2980437E-001, 8.4222107E-002, 5.2641765E-002, 1.1745393E-004, 2.5387118E-007, 5.8710135E-004, 4.7392600E+002
 8.5008833E+001, 1.2930966E-001, 8.4630936E-002, 5.2870058E-002, 1.1802666E-004, 3.5659738E-007, 5.8997108E-004, 4.7649874E+002
 8.6002060E+001, 1.2975823E-001, 8.4260268E-002, 5.2663063E-002, 1.1749789E-004, 1.5564090E-007, 5.8736718E-004, 4.7706371E+002
 8.7000465E+001, 1.2986015E-001, 8.4176012E-002, 5.2616024E-002, 1.1738861E-004, 2.4631946E-007, 5.8677762E-004, 4.7678971E+002
 8.8001080E+001, 1.2962667E-001, 8.4368994E-002, 5.2723777E-002, 1.1765073E-004, 1.7658227E-007, 5.8813048E-004, 4.7756886E+002
 8.9004214E+001, 1.2989079E-001, 8.4150706E-002, 5.2601882E-002, 1.1734467E-004, 1.8735317E-007, 5.8659818E-004, 4.7591170E+002
 9.0008485E+001, 1.2972808E-001, 8.4285152E-002, 5.2676966E-002, 1.1753956E-004, 3.1069535E-007, 5.8754331E-004, 4.7848168E+002
 9.1002349E+001, 1.2925291E-001, 8.4677890E-002, 5.2896267E-002, 1.1808322E-004, 1.6978305E-007, 5.9029870E-004, 4.7767429E+002
 9.2007939E+001, 1.2977675E-001, 8.4244962E-002, 5.2654513E-002, 1.1747481E-004, 1.7992047E-007, 5.8725938E-004, 4.7583339E+002
 9.3004073E+001, 1.2933094E-001, 8.4613402E-002, 5.2860255E-002, 1.1799176E-004, 1.8286446E-007, 5.8984579E-004, 4.7521488E+002
 9.4000509E+001, 1.2983222E-001, 8.4199089E-002, 5.2628913E-002, 1.1742267E-004, 2.6230908E-007, 5.8693999E-004, 4.7481453E+002
 9.5007592E+001, 1.2959581E-001, 8.4394456E-002, 5.2738008E-002, 1.1769734E-004, 2.9583907E-007, 5.8831156E-004, 4.7583886E+002
 9.6004507E+001, 1.2954869E-001, 8.4433418E-002, 5.2759765E-002, 1.1775102E-004, 2.2559331E-007, 5.8858486E-004, 4.7626215E+002
 9.7007735E+001, 1.2919145E-001, 8.4728669E-002, 5.2924630E-002, 1.1816014E-004, 2.1058957E-007, 5.9065638E-004, 4.7691833E+002
 9.8004546E+001, 1.2928862E-001, 8.4648373E-002, 5.2879787E-002, 1.1804372E-004, 1.6813083E-007, 5.9009191E-004, 4.7678127E+002
 9.9008429E+001, 1.2929321E-001, 8.4644567E-002, 5.2877669E-002, 1.1804448E-004, 1.7874788E-007, 5.9006649E-004, 4.7794755E+002
 1.0000329E+002, 1.2970850E-001, 8.4301352E-002, 5.2686009E-002, 1.1755958E-004, 2.0730150E-007, 5.8765645E-004, 4.7950611E+002
 1.0100181E+002, 1.2886884E-001, 8.4995304E-002, 5.3073516E-002, 1.1852904E-004, 1.4998546E-007, 5.9252701E-004, 4.7655544E+002
 1.0200426E+002, 1.2912186E-001, 8.4786159E-002, 5.2956746E-002, 1.1825096E-004, 2.2975350E-007, 5.9106213E-004, 4.7728727E+002
 1.0300008E+002, 1.2916728E-001, 8.4748648E-002, 5.2935784E-002, 1.1818595E-004, 1.8318623E-007, 5.9079615E-004, 4.7663543E+002
 1.0400191E+002, 1.2877928E-001, 8.5069306E-002, 5.3114843E-002, 1.1863594E-004, 2.2360471E-007, 5.9304715E-004, 4.7697969E+002
 1.0500500E+002, 1.2905798E-001, 8.4838970E-002, 5.2986226E-002, 1.1831703E-004, 1.8827192E-007, 5.9143114E-004, 4.8014411E+002
 1.0600808E+002, 1.2902891E-001, 8.4862999E-002, 5.2999643E-002, 1.1835007E-004, 1.8785302E-007, 5.9159967E-004, 4.8128467E+002
 1.0700797E+002, 1.2904315E-001, 8.4851205E-002, 5.2993067E-002, 1.1834092E-004, 2.8196703E-007, 5.9151847E-004, 4.7603797E+002
 1.0800747E+002, 1.2902703E-001, 8.4864552E-002, 5.3000509E-002, 1.1835117E-004, 2.0393233E-007, 5.9161034E-004, 4.7643689E+002
 1.0900802E+002, 1.2915135E-001, 8.4761800E-002, 5.2943133E-002, 1.1820830E-004, 2.4320475E-007, 5.9088931E-004, 4.7497663E+002
 1.1000308E+002, 1.2922300E-001, 8.4702587E-002, 5.2910066E-002, 1.1812427E-004, 2.3381140E-007, 5.9047344E-004, 4.7772436E+002
 1.1100279E+002, 1.2936733E-001, 8.4583316E-002, 5.2843462E-002, 1.1795581E-004, 1.8566079E-007, 5.8963593E-004, 4.7694767E+002
 1.1200033E+002, 1.2928814E-001, 8.4648760E-002, 5.2880010E-002, 1.1804942E-004, 1.7951631E-007, 5.9009573E-004, 4.7849569E+002
 1.1300407E+002, 1.2934429E-001, 8.4602374E-002, 5.2854096E-002, 1.1797603E-004, 1.5739507E-007, 5.8976832E-004, 4.7545822E+002
 1.1400185E+002, 1.2938255E-001, 8.4570738E-002, 5.2836438E-002, 1.1793753E-004, 1.8321414E-007, 5.8954750E-004, 4.7883165E+002
 1.1500207E+002, 1.2924520E-001, 8.4684274E-002, 5.2899828E-002, 1.1808900E-004, 1.3941020E-007, 5.9034284E-004, 4.7860408E+002
 1.1600082E+002, 1.2916637E-001, 8.4749398E-002, 5.2936209E-002, 1.1819185E-004, 1.7354625E-007, 5.9080246E-004, 4.7828296E+002
 1.1700090E+002, 1.2918527E-001, 8.4733751E-002, 5.2927475E-002, 1.1817363E-004, 2.8024738E-007, 5.9069341E-004, 4.7694039E+002
 1.1800458E+002, 1.2897635E-001, 8.4906435E-002, 5.3023898E-002, 1.1841064E-004, 2.2777603E-007, 5.9190450E-004, 4.7832355E+002
 1.1900811E+002, 1.2918267E-001, 8.4735914E-002, 5.2928681E-002, 1.1817415E-004, 2.3569685E-007, 5.9070806E-004, 4.7500880E+002
 1.2000362E+002, 1.2921204E-001, 8.4711645E-002, 5.2915122E-002, 1.1813513E-004, 2.2923097E-007, 5.9053663E-004, 4.7598449E+002
 1.2100817E+002, 1.2953801E-001, 8.4442247E-002, 5.2764689E-002, 1.1775855E-004, 2.1795441E-007, 5.8864579E-004, 4.7494090E+002
 1.2200548E+002, 1.2957240E-001, 8.4413837E-002, 5.2748822E-002, 1.1771704E-004, 1.8001616E-007, 5.8844600E-004, 4.7557904E+002
 1.2300384E+002, 1.2916460E-001, 8.4750847E-002, 5.2937018E-002, 1.1819492E-004, 2.5670037E-007, 5.9081285E-004, 4.7361316E+002
 1.2400285E+002, 1.2894891E-001, 8.4929121E-002, 5.3036569E-002, 1.1844430E-004, 1.3832685E-007, 5.9206415E-004, 4.7875372E+002
 1.2500198E+002, 1.2888482E-001, 8.4982086E-002, 5.3066142E-002, 1.1851653E-004, 1.6559096E-007, 5.9243551E-004, 4.7897805E+002
 1.2600012E+002, 1.2872311E-001, 8.5115737E-002, 5.3140772E-002, 1.1870181E-004, 1.8124688E-007, 5.9337324E-004, 4.7622071E+002
 1.2700412E+002, 1.2941940E-001, 8.4540289E-002, 5.2819429E-002, 1.1788996E-004, 1.8454131E-007, 5.8933272E-004, 4.7820504E+002
 1.2800366E+002, 1.2923209E-001, 8.4695093E-002, 5.2905878E-002, 1.1811109E-004, 1.7309736E-007, 5.9042026E-004, 4.7774741E+002
 1.2900525E+002, 1.2903719E-001, 8.4856161E-002, 5.2995824E-002, 1.1833964E-004, 1.6910479E-007, 5.9155149E-004, 4.7891635E+002
 1.3000424E+002, 1.2870076E-001, 8.5134197E-002, 5.3151087E-002, 1.1873291E-004, 1.7135614E-007, 5.9350394E-004, 4.7794892E+002
 1.3100554E+002, 1.2869603E-001, 8.5138099E-002, 5.3153270E-002, 1.1874184E-004, 1.9467419E-007, 5.9353208E-004, 4.7685201E+002
 1.3200033E+002, 1.2859762E-001, 8.5219452E-002, 5.3198684E-002, 1.1884452E-004, 1.4047346E-007, 5.9410071E-004, 4.7615889E+002
 1.3300420E+002, 1.2892849E-001, 8.4946000E-002, 5.3045988E-002, 1.1846357E-004, 1.7695874E-007, 5.9218169E-004, 4.7736683E+002
 1.3400456E+002, 1.2890949E-001, 8.4961697E-002, 5.3054754E-002, 1.1848593E-004, 1.7626083E-007, 5.9229195E-004, 4.7968547E+002
 1.3500419E+002, 1.2876635E-001, 8.5080002E-002, 5.3120813E-002, 1.1864874E-004, 1.8188091E-007, 5.9312177E-004, 4.7658990E+002
 1.3600042E+002, 1.2895721E-001, 8.4922247E-002, 5.3032724E-002, 1.1843054E-004, 2.3842942E-007, 5.9201501E-004, 4.8092313E+002
 1.3700309E+002, 1.2901398E-001, 8.4875334E-002, 5.3006532E-002, 1.1836801E-004, 1.8790291E-007, 5.9168640E-004, 4.7772687E+002
 1.3800646E+002, 1.2883373E-001, 8.5024320E-002, 5.3089718E-002, 1.1856920E-004, 1.5880138E-007, 5.9273058E-004, 4.7796257E+002
 1.3900356E+002, 1.2828678E-001, 8.5476337E-002, 5.3342138E-002, 1.1921010E-004, 1.6136728E-007, 5.9590511E-004, 4.8179004E+002
 1.4000412E+002, 1.2857829E-001, 8.5235422E-002, 5.3207609E-002, 1.1887232E-004, 1.5393235E-007, 5.9421397E-004, 4.8150781E+002
 1.4100762E+002, 1.2836376E-001, 8.5412712E-002, 5.3306616E-002, 1.1912549E-004, 1.6910581E-007, 5.9545948E-004, 4.7911672E+002
 1.4200122E+002, 1.2881298E-001, 8.5041472E-002, 5.3099299E-002, 1.1859512E-004, 1.4164950E-007, 5.9285138E-004, 4.7962208E+002
 1.4300627E+002, 1.2843732E-001, 8.5351915E-002, 5.3272663E-002, 1.1903817E-004, 1.8421650E-007, 5.9503225E-004, 4.7795117E+002
 1.4400296E+002, 1.2865629E-001, 8.5170952E-002, 5.3171609E-002, 1.1878260E-004, 1.6981063E-007, 5.9376156E-004, 4.8122563E+002
 1.4500177E+002, 1.2900862E-001, 8.4879763E-002, 5.3009006E-002, 1.1837450E-004, 1.9456661E-007, 5.9171755E-004, 4.7584573E+002
 1.4600366E+002, 1.2881562E-001, 8.5039275E-002, 5.3098074E-002, 1.1859456E-004, 2.0060859E-007, 5.9283650E-004, 4.8010629E+002
 1.4700745E+002, 1.2884635E-001, 8.5013856E-002, 5.3083887E-002, 1.1856441E-004, 2.5448545E-007, 5.9265925E-004, 4.7762239E+002
 1.4800475E+002, 1.2921888E-001, 8.4706021E-002, 5.2911969E-002, 1.1811762E-004, 1.5978468E-007, 5.9049509E-004, 4.7678215E+002
 1.4900478E+002, 1.2940903E-001, 8.4548845E-002, 5.2824212E-002, 1.1790674E-004, 2.1993277E-007, 5.8939380E-004, 4.7557203E+002
 1.5000695E+002, 1.2946880E-001, 8.4499445E-002, 5.2796624E-002, 1.1783559E-004, 2.7402000E-007, 5.8904663E-004, 4.7515375E+002
 1.5100586E+002, 1.2934120E-001, 8.4604903E-002, 5.2855519E-002, 1.1798806E-004, 2.2345215E-007, 5.8978790E-004, 4.7611379E+002
 1.5200579E+002, 1.2907949E-001, 8.4821163E-002, 5.2976291E-002, 1.1829897E-004, 3.0333301E-007, 5.9130762E-004, 4.7708567E+002
 1.5300471E+002, 1.2932710E-001, 8.4616552E-002, 5.2862026E-002, 1.1800610E-004, 2.4258711E-007, 5.8987003E-004, 4.7534425E+002
 1.5400251E+002, 1.2941226E-001, 8.4546190E-002, 5.2822729E-002, 1.1790222E-004, 1.7468980E-007, 5.8937499E-004, 4.7815212E+002
