s,,,,,,,
Time,"O2 EXHAUST","CO2 EXHAUST","H2O EXHAUST","CO EXHAUST","FUEL EXHAUST","SOOT EXHAUST","TEMP EXHAUST"
 0.0000000E+000, 2.3099739E-001, 5.9146498E-004, 5.9412091E-003, 0.0000000E+000, 0.0000000E+000, 0.0000000E+000, 2.0000000E+001
 1.0029511E+000, 2.3099739E-001, 5.9146498E-004, 5.9412091E-003, 3.8953704E-031, 3.3813923E-030, 1.0803936E-031, 2.0362032E+001
 2.0028402E+000, 2.2365500E-001, 6.3203660E-003, 1.0727140E-002, 1.2591906E-005, 1.8606041E-004, 3.5945623E-005, 9.3237955E+001
 3.0035282E+000, 2.1974894E-001, 9.3734557E-003, 1.3289301E-002, 2.5186932E-005, 2.0945549E-004, 5.6375009E-005, 1.2956867E+002
 4.0030872E+000, 2.1536520E-001, 1.2798443E-002, 1.6158537E-002, 3.6756405E-005, 2.6387380E-004, 7.8739139E-005, 1.6978014E+002
 5.0029089E+000, 2.1076255E-001, 1.6399592E-002, 1.9173362E-002, 4.7819534E-005, 3.0129861E-004, 1.0201517E-004, 2.0944923E+002
 6.0024453E+000, 2.0708846E-001, 1.9287779E-002, 2.1579094E-002, 5.0203045E-005, 3.0728092E-004, 1.1927878E-004, 2.3923869E+002
 7.0030240E+000, 2.0231461E-001, 2.3055391E-002, 2.4707650E-002, 4.8096007E-005, 2.7399248E-004, 1.4067020E-004, 2.7539813E+002
 8.0015516E+000, 1.9702322E-001, 2.7241433E-002, 2.8179820E-002, 4.3626396E-005, 1.9904522E-004, 1.6397664E-004, 3.0943360E+002
 9.0055066E+000, 1.9159736E-001, 3.1534452E-002, 3.1739471E-002, 3.8389455E-005, 1.2405571E-004, 1.8773739E-004, 3.4002429E+002
 1.0000070E+001, 1.8518650E-001, 3.6603976E-002, 3.5943958E-002, 3.2752557E-005, 4.6698282E-005, 2.1591434E-004, 3.7041287E+002
 1.1006793E+001, 1.7841789E-001, 4.1941762E-002, 4.0380035E-002, 3.1721638E-005, 6.8130151E-006, 2.4664362E-004, 3.9668808E+002
 1.2002923E+001, 1.7478186E-001, 4.4803897E-002, 4.2762028E-002, 3.2975856E-005, 1.7185131E-007, 2.6351176E-004, 4.0831548E+002
 1.3003255E+001, 1.6770488E-001, 5.0369798E-002, 4.7397438E-002, 3.7147517E-005, 5.5064555E-008, 2.9668965E-004, 4.2802919E+002
 1.4005165E+001, 1.6449826E-001, 5.2891820E-002, 4.9497730E-002, 3.8982118E-005, 2.2186361E-008, 3.1171117E-004, 4.2967053E+002
 1.5004230E+001, 1.5948067E-001, 5.6838022E-002, 5.2784232E-002, 4.1947094E-005, 4.2799702E-008, 3.3523574E-004, 4.4041243E+002
 1.6002592E+001, 1.5370522E-001, 6.1380354E-002, 5.6567101E-002, 4.5304801E-005, 1.7433189E-008, 3.6230209E-004, 4.5226575E+002
 1.7001340E+001, 1.5017398E-001, 6.4157585E-002, 5.8880048E-002, 4.7388950E-005, 3.3933493E-008, 3.7885750E-004, 4.5322176E+002
 1.8000814E+001, 1.4545121E-001, 6.7871913E-002, 6.1973448E-002, 5.0184800E-005, 6.2264342E-008, 4.0100089E-004, 4.5924895E+002
 1.9006571E+001, 1.4221487E-001, 7.0417251E-002, 6.4093230E-002, 5.2075066E-005, 5.4861084E-008, 4.1616966E-004, 4.5728757E+002
 2.0005599E+001, 1.3825419E-001, 7.3532258E-002, 6.6687444E-002, 5.4391171E-005, 4.4046951E-008, 4.3473394E-004, 4.6620633E+002
 2.1005900E+001, 1.3479975E-001, 7.6249160E-002, 6.8950063E-002, 5.6385511E-005, 1.9980069E-008, 4.5092009E-004, 4.6541818E+002
 2.2008880E+001, 1.3132123E-001, 7.8984939E-002, 7.1228479E-002, 5.8434353E-005, 3.3284713E-008, 4.6722749E-004, 4.6832626E+002
 2.3001700E+001, 1.2875016E-001, 8.1007007E-002, 7.2912530E-002, 5.9963883E-005, 3.9117715E-008, 4.7928390E-004, 4.6612742E+002
 2.4008430E+001, 1.2627498E-001, 8.2953711E-002, 7.4533751E-002, 6.1402186E-005, 4.0682450E-008, 4.9088355E-004, 4.6668577E+002
 2.5005460E+001, 1.2457875E-001, 8.4287740E-002, 7.5644782E-002, 6.2413345E-005, 4.6157855E-008, 4.9883803E-004, 4.6497802E+002
 2.6005588E+001, 1.2192272E-001, 8.6376672E-002, 7.7384450E-002, 6.3956958E-005, 4.5996379E-008, 5.1128522E-004, 4.6659871E+002
 2.7001481E+001, 1.1922877E-001, 8.8495382E-002, 7.9148988E-002, 6.5559452E-005, 5.7955157E-008, 5.2391782E-004, 4.6722817E+002
 2.8004078E+001, 1.1638546E-001, 9.0731614E-002, 8.1011332E-002, 6.7213838E-005, 4.7007050E-008, 5.3724312E-004, 4.6752763E+002
 2.9007602E+001, 1.1573723E-001, 9.1241392E-002, 8.1435941E-002, 6.7624603E-005, 6.3399765E-008, 5.4028807E-004, 4.6486182E+002
 3.0000058E+001, 1.1318282E-001, 9.3250411E-002, 8.3109045E-002, 6.9102004E-005, 7.5575584E-008, 5.5225754E-004, 4.6793275E+002
 3.1000653E+001, 1.1170729E-001, 9.4410900E-002, 8.4075506E-002, 6.9960893E-005, 5.5954976E-008, 5.5917276E-004, 4.6830414E+002
 3.2009205E+001, 1.0922911E-001, 9.6360019E-002, 8.5698672E-002, 7.1366341E-005, 1.5943807E-008, 5.7077931E-004, 4.6410745E+002
 3.3003247E+001, 1.0789106E-001, 9.7412342E-002, 8.6575094E-002, 7.2167721E-005, 3.4984653E-008, 5.7705486E-004, 4.6289698E+002
 3.4008039E+001, 1.0472066E-001, 9.9905796E-002, 8.8651688E-002, 7.4030399E-005, 3.5448436E-008, 5.9191680E-004, 4.6522456E+002
 3.5001145E+001, 1.0232174E-001, 1.0179247E-001, 9.0222979E-002, 7.5456682E-005, 4.7939133E-008, 6.0316577E-004, 4.6848742E+002
 3.6001504E+001, 1.0171864E-001, 1.0226683E-001, 9.0617993E-002, 7.5788719E-005, 3.3438277E-008, 6.0598831E-004, 4.6244362E+002
 3.7003612E+001, 9.9183242E-002, 1.0426083E-001, 9.2278682E-002, 7.7304448E-005, 5.3151647E-008, 6.1787897E-004, 4.6799468E+002
 3.8003723E+001, 9.7388207E-002, 1.0567265E-001, 9.3454396E-002, 7.8319740E-005, 3.0363068E-008, 6.2628544E-004, 4.6890241E+002
 3.9005785E+001, 9.6183949E-002, 1.0661977E-001, 9.4243182E-002, 7.9031239E-005, 3.0520117E-008, 6.3193149E-004, 4.6425416E+002
 4.0001677E+001, 9.4790252E-002, 1.0771589E-001, 9.5156044E-002, 7.9846167E-005, 2.7917383E-008, 6.3846394E-004, 4.6567389E+002
 4.1000803E+001, 9.2579678E-002, 1.0945447E-001, 9.6603950E-002, 8.1137306E-005, 4.2174105E-008, 6.4882490E-004, 4.6890993E+002
 4.2001682E+001, 9.0080544E-002, 1.1141994E-001, 9.8240885E-002, 8.2635165E-005, 8.3012668E-008, 6.6054625E-004, 4.6493906E+002
 4.3002198E+001, 8.8989470E-002, 1.1227803E-001, 9.8955541E-002, 8.3287485E-005, 8.3190940E-008, 6.6566325E-004, 4.6590794E+002
 4.4005187E+001, 8.6493540E-002, 1.1424106E-001, 1.0059035E-001, 8.4733357E-005, 7.6689098E-008, 6.7735921E-004, 4.6713328E+002
 4.5004105E+001, 8.5664469E-002, 1.1489312E-001, 1.0113338E-001, 8.5215060E-005, 8.2684063E-008, 6.8124453E-004, 4.6263515E+002
 4.6006591E+001, 8.3392733E-002, 1.1667979E-001, 1.0262136E-001, 8.6555363E-005, 7.3987159E-008, 6.9189497E-004, 4.6767794E+002
 4.7000981E+001, 8.2418652E-002, 1.1744593E-001, 1.0325936E-001, 8.7095639E-005, 3.9268784E-008, 6.9645457E-004, 4.6661045E+002
 4.8003236E+001, 8.1140501E-002, 1.1845114E-001, 1.0409655E-001, 8.7865264E-005, 6.2447762E-008, 7.0245005E-004, 4.6740089E+002
 4.9003441E+001, 7.9341070E-002, 1.1986635E-001, 1.0527518E-001, 8.8929423E-005, 6.3039905E-008, 7.1088672E-004, 4.6558285E+002
 5.0003203E+001, 7.8132416E-002, 1.2081458E-001, 1.0606753E-001, 9.1033458E-005, 2.0438013E-006, 7.1684056E-004, 4.6702960E+002
 5.1007688E+001, 7.7032978E-002, 1.2167821E-001, 1.0678802E-001, 9.2337267E-005, 2.7279154E-006, 7.2213060E-004, 4.6232284E+002
 5.2005169E+001, 7.5945005E-002, 1.2252821E-001, 1.0750217E-001, 9.6277298E-005, 8.0213846E-006, 7.2791207E-004, 4.6516443E+002
 5.3001689E+001, 7.4267683E-002, 1.2383680E-001, 1.0860347E-001, 1.0332398E-004, 1.8735198E-005, 7.3702499E-004, 4.6583697E+002
 5.4003425E+001, 7.3541275E-002, 1.2439604E-001, 1.0908367E-001, 1.1135768E-004, 2.5445095E-005, 7.4200618E-004, 4.6496980E+002
 5.5001425E+001, 7.2248741E-002, 1.2540091E-001, 1.0993279E-001, 1.1858111E-004, 3.8966184E-005, 7.4939619E-004, 4.6608499E+002
 5.6005636E+001, 7.0326793E-002, 1.2684069E-001, 1.1121240E-001, 1.6217461E-004, 1.0084514E-004, 7.6717773E-004, 4.6719651E+002
 5.7008366E+001, 7.0293659E-002, 1.2690339E-001, 1.1122238E-001, 1.3993891E-004, 7.3827143E-005, 7.6273003E-004, 4.6438093E+002
 5.8001969E+001, 6.9635379E-002, 1.2740845E-001, 1.1165694E-001, 1.4767652E-004, 8.5854717E-005, 7.6733296E-004, 4.5874730E+002
 5.9007940E+001, 6.8074106E-002, 1.2852364E-001, 1.1271363E-001, 2.1603010E-004, 1.7701996E-004, 7.8858978E-004, 4.6627646E+002
 6.0005635E+001, 6.7128556E-002, 1.2925375E-001, 1.1333327E-001, 2.2274118E-004, 2.0314281E-004, 7.9427574E-004, 4.6240497E+002
 6.1000554E+001, 6.6590660E-002, 1.2962952E-001, 1.1370339E-001, 2.5314879E-004, 2.2727929E-004, 8.0303414E-004, 4.6329592E+002
 6.2007855E+001, 6.5555192E-002, 1.3041074E-001, 1.1439104E-001, 2.7328304E-004, 2.5648418E-004, 8.1192086E-004, 4.6009106E+002
 6.3001466E+001, 6.5218483E-002, 1.3060909E-001, 1.1462384E-001, 3.0922111E-004, 3.4170848E-004, 8.2084727E-004, 4.5998892E+002
 6.4005662E+001, 6.3814972E-002, 1.3158876E-001, 1.1556747E-001, 3.7754751E-004, 4.9504785E-004, 8.4131261E-004, 4.6098243E+002
 6.5005226E+001, 6.2735046E-002, 1.3232729E-001, 1.1629892E-001, 4.3965243E-004, 6.2234517E-004, 8.5903335E-004, 4.6156720E+002
 6.6002198E+001, 6.2715170E-002, 1.3241689E-001, 1.1630479E-001, 4.0322935E-004, 5.0148825E-004, 8.5167156E-004, 4.6068299E+002
 6.7003708E+001, 6.2054146E-002, 1.3274115E-001, 1.1674788E-001, 4.9545814E-004, 8.5643220E-004, 8.7350882E-004, 4.5929232E+002
 6.8009262E+001, 6.1245461E-002, 1.3325839E-001, 1.1732102E-001, 5.7087750E-004, 9.2216810E-004, 8.9282701E-004, 4.5522272E+002
 6.9000275E+001, 6.0399545E-002, 1.3378150E-001, 1.1791638E-001, 6.5557301E-004, 1.0439173E-003, 9.1418656E-004, 4.6125194E+002
 7.0006750E+001, 6.0130823E-002, 1.3396715E-001, 1.1810388E-001, 6.7301748E-004, 1.0497247E-003, 9.1903764E-004, 4.5733876E+002
 7.1007525E+001, 5.9642234E-002, 1.3426669E-001, 1.1844540E-001, 7.2188009E-004, 1.1347322E-003, 9.3134741E-004, 4.5737436E+002
 7.2000321E+001, 5.8985264E-002, 1.3468243E-001, 1.1889066E-001, 7.7465963E-004, 1.2788880E-003, 9.4517868E-004, 4.5625362E+002
 7.3007029E+001, 5.8892791E-002, 1.3479759E-001, 1.1894390E-001, 7.5215671E-004, 1.2225151E-003, 9.4097724E-004, 4.5571405E+002
 7.4004581E+001, 5.8165236E-002, 1.3518013E-001, 1.1944029E-001, 8.4678289E-004, 1.5263838E-003, 9.6367102E-004, 4.5440370E+002
 7.5004024E+001, 5.7904630E-002, 1.3523488E-001, 1.1963905E-001, 9.2789144E-004, 1.7174941E-003, 9.8153875E-004, 4.5229120E+002
 7.6002219E+001, 5.8104371E-002, 1.3509925E-001, 1.1950981E-001, 9.1908669E-004, 1.6676714E-003, 9.7884703E-004, 4.5129750E+002
 7.7004217E+001, 5.7495477E-002, 1.3540658E-001, 1.1993593E-001, 1.0094549E-003, 1.9050116E-003, 1.0001831E-003, 4.4789434E+002
 7.8002409E+001, 5.7303070E-002, 1.3539706E-001, 1.2008550E-001, 1.0929085E-003, 2.1357195E-003, 1.0181857E-003, 4.5150194E+002
 7.9003447E+001, 5.6845600E-002, 1.3572508E-001, 1.2037816E-001, 1.1036579E-003, 2.2280204E-003, 1.0224140E-003, 4.4725156E+002
 8.0008566E+001, 5.6348617E-002, 1.3594860E-001, 1.2071115E-001, 1.1819021E-003, 2.5364732E-003, 1.0406410E-003, 4.4752259E+002
 8.1007908E+001, 5.5832983E-002, 1.3610247E-001, 1.2111597E-001, 1.3281534E-003, 2.7760636E-003, 1.0731788E-003, 4.4985672E+002
 8.2002122E+001, 5.5844683E-002, 1.3616099E-001, 1.2109019E-001, 1.2888373E-003, 2.7118300E-003, 1.0650111E-003, 4.5109847E+002
 8.3005429E+001, 5.5711889E-002, 1.3628159E-001, 1.2116765E-001, 1.2768631E-003, 2.7173900E-003, 1.0631195E-003, 4.4883280E+002
 8.4004956E+001, 5.5728440E-002, 1.3614476E-001, 1.2118276E-001, 1.3450320E-003, 2.8635835E-003, 1.0770764E-003, 4.4699515E+002
 8.5000645E+001, 5.5470256E-002, 1.3607672E-001, 1.2137564E-001, 1.4774649E-003, 3.3163527E-003, 1.1053382E-003, 4.4184900E+002
 8.6004697E+001, 5.5253121E-002, 1.3632449E-001, 1.2150139E-001, 1.4350233E-003, 3.2268114E-003, 1.0975914E-003, 4.4703924E+002
 8.7001671E+001, 5.5010951E-002, 1.3647722E-001, 1.2168402E-001, 1.4642223E-003, 3.2066870E-003, 1.1047949E-003, 4.4758635E+002
 8.8007920E+001, 5.4359710E-002, 1.3681478E-001, 1.2208809E-001, 1.5303796E-003, 3.6501249E-003, 1.1210684E-003, 4.4500029E+002
 8.9007743E+001, 5.4301483E-002, 1.3670361E-001, 1.2214621E-001, 1.6101996E-003, 3.8873596E-003, 1.1376954E-003, 4.4217126E+002
 9.0009374E+001, 5.4332878E-002, 1.3651258E-001, 1.2214843E-001, 1.6955616E-003, 4.1322627E-003, 1.1550584E-003, 4.4391409E+002
 9.1006830E+001, 5.4241294E-002, 1.3651257E-001, 1.2223412E-001, 1.7407366E-003, 4.1747010E-003, 1.1648332E-003, 4.4019540E+002
 9.2003757E+001, 5.4207499E-002, 1.3646052E-001, 1.2228969E-001, 1.7927698E-003, 4.1994772E-003, 1.1757899E-003, 4.4286916E+002
 9.3002783E+001, 5.4278020E-002, 1.3643003E-001, 1.2223441E-001, 1.7769937E-003, 4.1854806E-003, 1.1721996E-003, 4.3860296E+002
 9.4008922E+001, 5.4065013E-002, 1.3655473E-001, 1.2237083E-001, 1.7944915E-003, 4.2845393E-003, 1.1767091E-003, 4.4263604E+002
 9.5000713E+001, 5.4027906E-002, 1.3641305E-001, 1.2242600E-001, 1.8860508E-003, 4.5061329E-003, 1.1956992E-003, 4.3678144E+002
 9.6002610E+001, 5.3693943E-002, 1.3652424E-001, 1.2263000E-001, 1.9457469E-003, 4.8716325E-003, 1.2092617E-003, 4.3448094E+002
 9.7001389E+001, 5.3242910E-002, 1.3668528E-001, 1.2297245E-001, 2.0559735E-003, 5.0745093E-003, 1.2340462E-003, 4.3830363E+002
 9.8004674E+001, 5.3402829E-002, 1.3658140E-001, 1.2283682E-001, 2.0303028E-003, 5.1542632E-003, 1.2278896E-003, 4.3838992E+002
 9.9003938E+001, 5.2998399E-002, 1.3693788E-001, 1.2311895E-001, 2.0223954E-003, 5.0073864E-003, 1.2282453E-003, 4.4088240E+002
 1.0000520E+002, 5.3133021E-002, 1.3664295E-001, 1.2304810E-001, 2.1149464E-003, 5.3201283E-003, 1.2465617E-003, 4.3770424E+002
 1.0100102E+002, 5.3257047E-002, 1.3641818E-001, 1.2293818E-001, 2.1564681E-003, 5.6926316E-003, 1.2542437E-003, 4.3382100E+002
 1.0200408E+002, 5.3019496E-002, 1.3631310E-001, 1.2314362E-001, 2.3115167E-003, 6.0827744E-003, 1.2871839E-003, 4.3740795E+002
 1.0300270E+002, 5.3020240E-002, 1.3654478E-001, 1.2315834E-001, 2.2164712E-003, 5.5520014E-003, 1.2679603E-003, 4.3807040E+002
 1.0400625E+002, 5.2847750E-002, 1.3642707E-001, 1.2328426E-001, 2.3354353E-003, 6.0124748E-003, 1.2930198E-003, 4.3480188E+002
 1.0500401E+002, 5.2806666E-002, 1.3651945E-001, 1.2328258E-001, 2.2941535E-003, 6.0057751E-003, 1.2846233E-003, 4.3609715E+002
 1.0600795E+002, 5.2781707E-002, 1.3654017E-001, 1.2333685E-001, 2.3131851E-003, 5.8513096E-003, 1.2888608E-003, 4.3245747E+002
 1.0700172E+002, 5.2354547E-002, 1.3667157E-001, 1.2357840E-001, 2.3843667E-003, 6.4184780E-003, 1.3050264E-003, 4.3682057E+002
 1.0800046E+002, 5.2386420E-002, 1.3669059E-001, 1.2357651E-001, 2.3745843E-003, 6.2531064E-003, 1.3030195E-003, 4.3637868E+002
 1.0900566E+002, 5.2371785E-002, 1.3644066E-001, 1.2364551E-001, 2.5209281E-003, 6.5432346E-003, 1.3332359E-003, 4.3658662E+002
 1.1000526E+002, 5.2219444E-002, 1.3646799E-001, 1.2370741E-001, 2.5424952E-003, 6.8823809E-003, 1.3380621E-003, 4.3222151E+002
 1.1100349E+002, 5.2339934E-002, 1.3635402E-001, 1.2362811E-001, 2.5507353E-003, 6.9227413E-003, 1.3391843E-003, 4.3546567E+002
 1.1200116E+002, 5.2418354E-002, 1.3619692E-001, 1.2355282E-001, 2.5806475E-003, 7.2118108E-003, 1.3447464E-003, 4.3124736E+002
 1.1300130E+002, 5.2464484E-002, 1.3625307E-001, 1.2353317E-001, 2.5451198E-003, 6.9824670E-003, 1.3373840E-003, 4.3249658E+002
 1.1400495E+002, 5.2180182E-002, 1.3617785E-001, 1.2376400E-001, 2.7005655E-003, 7.4076166E-003, 1.3705834E-003, 4.3462687E+002
 1.1500202E+002, 5.1946501E-002, 1.3629485E-001, 1.2394326E-001, 2.7437497E-003, 7.4374802E-003, 1.3806058E-003, 4.3315113E+002
 1.1600222E+002, 5.2768881E-002, 1.3579111E-001, 1.2340515E-001, 2.6801958E-003, 7.1460044E-003, 1.3639325E-003, 4.3447758E+002
 1.1700271E+002, 5.2092958E-002, 1.3597207E-001, 1.2383971E-001, 2.8316765E-003, 7.8879139E-003, 1.3977606E-003, 4.3267258E+002
 1.1800768E+002, 5.2075657E-002, 1.3600424E-001, 1.2388088E-001, 2.8388108E-003, 7.7305402E-003, 1.3994902E-003, 4.3020226E+002
 1.1900829E+002, 5.1881768E-002, 1.3608251E-001, 1.2400521E-001, 2.8704260E-003, 7.8913537E-003, 1.4067853E-003, 4.2942767E+002
 1.2000763E+002, 5.1892662E-002, 1.3597335E-001, 1.2397478E-001, 2.9029890E-003, 8.1883181E-003, 1.4131990E-003, 4.3248214E+002
 1.2100014E+002, 5.1925580E-002, 1.3614509E-001, 1.2392670E-001, 2.8018101E-003, 7.8951365E-003, 1.3923016E-003, 4.3248352E+002
 1.2200127E+002, 5.1956595E-002, 1.3596035E-001, 1.2391950E-001, 2.8795495E-003, 8.1667390E-003, 1.4080519E-003, 4.3140040E+002
 1.2300011E+002, 5.1661197E-002, 1.3613403E-001, 1.2411232E-001, 2.9053500E-003, 8.2880260E-003, 1.4146420E-003, 4.3408350E+002
 1.2400801E+002, 5.1814319E-002, 1.3585006E-001, 1.2391326E-001, 2.9269000E-003, 9.0153492E-003, 1.4176606E-003, 4.3098311E+002
 1.2500150E+002, 5.1514475E-002, 1.3618656E-001, 1.2422324E-001, 2.9408974E-003, 8.3556348E-003, 1.4226383E-003, 4.3099641E+002
 1.2600535E+002, 5.1824706E-002, 1.3578035E-001, 1.2401699E-001, 3.0109849E-003, 8.6959422E-003, 1.4354489E-003, 4.2874705E+002
 1.2700824E+002, 5.1755490E-002, 1.3586647E-001, 1.2405480E-001, 2.9931255E-003, 8.6621063E-003, 1.4320839E-003, 4.3229334E+002
 1.2800240E+002, 5.1213965E-002, 1.3610071E-001, 1.2446168E-001, 3.1051550E-003, 8.8401326E-003, 1.4576829E-003, 4.3052989E+002
 1.2900601E+002, 5.1108753E-002, 1.3620148E-001, 1.2453289E-001, 3.0984170E-003, 8.7944866E-003, 1.4568091E-003, 4.3224282E+002
 1.3000362E+002, 5.1238077E-002, 1.3619086E-001, 1.2441008E-001, 3.0384079E-003, 8.7632740E-003, 1.4437632E-003, 4.3322614E+002
 1.3100127E+002, 5.1365533E-002, 1.3607834E-001, 1.2431573E-001, 3.0381837E-003, 8.8317390E-003, 1.4430624E-003, 4.3139978E+002
 1.3200885E+002, 5.1402254E-002, 1.3583050E-001, 1.2430926E-001, 3.1441749E-003, 9.2039322E-003, 1.4645600E-003, 4.3245107E+002
 1.3300171E+002, 5.1379951E-002, 1.3594102E-001, 1.2434494E-001, 3.1138373E-003, 8.9313101E-003, 1.4586358E-003, 4.2884775E+002
 1.3400687E+002, 5.0958263E-002, 1.3602181E-001, 1.2463839E-001, 3.2340565E-003, 9.3693728E-003, 1.4851178E-003, 4.3143829E+002
 1.3500238E+002, 5.1194462E-002, 1.3606784E-001, 1.2439086E-001, 3.0835340E-003, 9.2732898E-003, 1.4528156E-003, 4.3319777E+002
 1.3600455E+002, 5.0984594E-002, 1.3592951E-001, 1.2458304E-001, 3.2461504E-003, 9.6671582E-003, 1.4872004E-003, 4.3006806E+002
 1.3700350E+002, 5.1263805E-002, 1.3581724E-001, 1.2433529E-001, 3.1651003E-003, 9.7105739E-003, 1.4690126E-003, 4.2988368E+002
 1.3800201E+002, 5.1270743E-002, 1.3577064E-001, 1.2432721E-001, 3.1814984E-003, 9.8079711E-003, 1.4722908E-003, 4.3090011E+002
 1.3900265E+002, 5.1041300E-002, 1.3592810E-001, 1.2450584E-001, 3.2063955E-003, 9.7406380E-003, 1.4785906E-003, 4.3243397E+002
 1.4000667E+002, 5.0984109E-002, 1.3601179E-001, 1.2455139E-001, 3.1934460E-003, 9.6298755E-003, 1.4762736E-003, 4.3161488E+002
 1.4100560E+002, 5.0821981E-002, 1.3610101E-001, 1.2464423E-001, 3.2036306E-003, 9.7609161E-003, 1.4789952E-003, 4.3069038E+002
 1.4200606E+002, 5.0810937E-002, 1.3609929E-001, 1.2463256E-001, 3.1985216E-003, 9.8578896E-003, 1.4778801E-003, 4.3139094E+002
 1.4300717E+002, 5.0717667E-002, 1.3592929E-001, 1.2472734E-001, 3.3236778E-003, 1.0214756E-002, 1.5039758E-003, 4.3081401E+002
 1.4400464E+002, 5.0652133E-002, 1.3614938E-001, 1.2478953E-001, 3.2589769E-003, 9.7965411E-003, 1.4912511E-003, 4.3218459E+002
 1.4500844E+002, 5.0644895E-002, 1.3613764E-001, 1.2471529E-001, 3.2260911E-003, 1.0148924E-002, 1.4840687E-003, 4.3188356E+002
 1.4600070E+002, 5.0418660E-002, 1.3637463E-001, 1.2487380E-001, 3.2053737E-003, 9.9880438E-003, 1.4809597E-003, 4.3194182E+002
 1.4700027E+002, 5.0423150E-002, 1.3633863E-001, 1.2486063E-001, 3.2144945E-003, 1.0094753E-002, 1.4827248E-003, 4.3281722E+002
 1.4800403E+002, 5.0489150E-002, 1.3609189E-001, 1.2479747E-001, 3.2904939E-003, 1.0568794E-002, 1.4977398E-003, 4.2980639E+002
 1.4900287E+002, 5.0494907E-002, 1.3614095E-001, 1.2484259E-001, 3.2918921E-003, 1.0264134E-002, 1.4983258E-003, 4.3132720E+002
 1.5000555E+002, 5.0143289E-002, 1.3642849E-001, 1.2504542E-001, 3.2731033E-003, 1.0352189E-002, 1.4959281E-003, 4.3250557E+002
 1.5100182E+002, 5.0258772E-002, 1.3634380E-001, 1.2500724E-001, 3.2895755E-003, 1.0189391E-002, 1.4990006E-003, 4.3459677E+002
 1.5200066E+002, 5.0385732E-002, 1.3602926E-001, 1.2487991E-001, 3.3618693E-003, 1.0800893E-002, 1.5128211E-003, 4.3163533E+002
 1.5300741E+002, 5.0506842E-002, 1.3600941E-001, 1.2481389E-001, 3.3352488E-003, 1.0595002E-002, 1.5069453E-003, 4.2894426E+002
 1.5400809E+002, 5.0237272E-002, 1.3613570E-001, 1.2495655E-001, 3.3559341E-003, 1.0904483E-002, 1.5121545E-003, 4.2991612E+002
