s,,,,,,,
Time,"O2 EXHAUST","CO2 EXHAUST","H2O EXHAUST","CO EXHAUST","FUEL EXHAUST","SOOT EXHAUST","TEMP EXHAUST"
 0.0000000E+000, 2.3099739E-001, 5.9146498E-004, 5.9412092E-003, 0.0000000E+000, 0.0000000E+000, 0.0000000E+000, 2.0000000E+001
 1.0047834E+000, 2.3099739E-001, 5.9146498E-004, 5.9412092E-003, 2.0073820E-028, 1.1728248E-027, 6.0757188E-029, 2.1234410E+001
 2.0041778E+000, 2.2067922E-001, 9.9847481E-003, 9.9265579E-003, 8.4499904E-005, 2.8708640E-004, 7.4718901E-005, 1.1955164E+002
 3.0021600E+000, 2.1236299E-001, 1.7611198E-002, 1.3148902E-002, 1.3811643E-004, 3.4568736E-004, 1.3216914E-004, 1.9086104E+002
 4.0020266E+000, 2.0363147E-001, 2.5633678E-002, 1.6526016E-002, 1.8145488E-004, 4.1380365E-004, 1.8980210E-004, 2.6338313E+002
 5.0038494E+000, 1.9654833E-001, 3.2196070E-002, 1.9262089E-002, 1.8884072E-004, 3.8122855E-004, 2.3092835E-004, 3.1585313E+002
 6.0048406E+000, 1.8561473E-001, 4.2402589E-002, 2.3473925E-002, 1.5437033E-004, 2.4727316E-004, 2.8503844E-004, 3.8319805E+002
 7.0054229E+000, 1.7583795E-001, 5.1545643E-002, 2.7237579E-002, 1.1365769E-004, 1.0998317E-004, 3.3140207E-004, 4.3429846E+002
 8.0047712E+000, 1.6517355E-001, 6.1475395E-002, 3.1346731E-002, 9.2408411E-005, 2.4117862E-005, 3.8667926E-004, 4.7425024E+002
 9.0046494E+000, 1.5521292E-001, 7.0708128E-002, 3.5189138E-002, 9.5614841E-005, 7.1761699E-007, 4.4300006E-004, 5.0123073E+002
 1.0002268E+001, 1.4736619E-001, 7.7968683E-002, 3.8217346E-002, 1.0509056E-004, 1.9648121E-007, 4.8878139E-004, 5.1885614E+002
 1.1002959E+001, 1.3643582E-001, 8.8079546E-002, 4.2436419E-002, 1.2044749E-004, 4.3209810E-007, 5.5299870E-004, 5.3439548E+002
 1.2007208E+001, 1.2574694E-001, 9.7970592E-002, 4.6561149E-002, 1.3274002E-004, 3.1965127E-007, 6.1523445E-004, 5.4677375E+002
 1.3000751E+001, 1.1892066E-001, 1.0428496E-001, 4.9196103E-002, 1.4242325E-004, 4.8071546E-007, 6.5535884E-004, 5.5206210E+002
 1.4009048E+001, 1.1143909E-001, 1.1120683E-001, 5.2083579E-002, 1.5200507E-004, 4.1830560E-007, 6.9912216E-004, 5.5941122E+002
 1.5001575E+001, 1.0921390E-001, 1.1326714E-001, 5.2941884E-002, 1.5365145E-004, 2.1761607E-007, 7.1188987E-004, 5.4848372E+002
 1.6002685E+001, 9.9019413E-002, 1.2269761E-001, 5.6876800E-002, 1.6772388E-004, 5.0219378E-007, 7.7173194E-004, 5.6091588E+002
 1.7009504E+001, 9.4947701E-002, 1.2646722E-001, 5.8447467E-002, 1.7102726E-004, 2.2660223E-007, 7.9515464E-004, 5.5900791E+002
 1.8002589E+001, 9.0568253E-002, 1.3051277E-001, 6.0139605E-002, 1.8135524E-004, 1.2510315E-006, 8.2174614E-004, 5.5764504E+002
 1.9000907E+001, 8.4217714E-002, 1.3636209E-001, 6.2598597E-002, 2.0922342E-004, 5.1595505E-006, 8.6296727E-004, 5.6437722E+002
 2.0004809E+001, 7.9160571E-002, 1.4103460E-001, 6.4552320E-002, 2.2046590E-004, 6.0538295E-006, 8.9353273E-004, 5.6316157E+002
 2.1006132E+001, 7.7827629E-002, 1.4225412E-001, 6.5070785E-002, 2.3233426E-004, 9.2739528E-006, 9.0342573E-004, 5.5762138E+002
 2.2008948E+001, 7.4876399E-002, 1.4498703E-001, 6.6208913E-002, 2.3412334E-004, 9.6424907E-006, 9.2027698E-004, 5.5786884E+002
 2.3000333E+001, 6.8802678E-002, 1.5058578E-001, 6.8559494E-002, 2.5758626E-004, 1.1967797E-005, 9.5904369E-004, 5.5960878E+002
 2.4006330E+001, 6.5612689E-002, 1.5354337E-001, 6.9788791E-002, 2.5701270E-004, 1.0674613E-005, 9.7674218E-004, 5.6197613E+002
 2.5001168E+001, 6.3097183E-002, 1.5586039E-001, 7.0762821E-002, 2.6802748E-004, 1.2105016E-005, 9.9306542E-004, 5.5686629E+002
 2.6003816E+001, 5.9401439E-002, 1.5928055E-001, 7.2189043E-002, 2.7223212E-004, 1.1105842E-005, 1.0145756E-003, 5.6042091E+002
 2.7002551E+001, 5.6497594E-002, 1.6195332E-001, 7.3313876E-002, 2.8625444E-004, 1.4054157E-005, 1.0336873E-003, 5.5750516E+002
 2.8003722E+001, 5.3542979E-002, 1.6468774E-001, 7.4454029E-002, 2.8949605E-004, 1.3356473E-005, 1.0508590E-003, 5.6215861E+002
 2.9004580E+001, 4.9959203E-002, 1.6799820E-001, 7.5838753E-002, 2.9800063E-004, 1.4234861E-005, 1.0726302E-003, 5.6183975E+002
 3.0004898E+001, 4.8286465E-002, 1.6954124E-001, 7.6485833E-002, 3.0368116E-004, 1.4355472E-005, 1.0831460E-003, 5.5655087E+002
 3.1006352E+001, 4.4904568E-002, 1.7265220E-001, 7.7796636E-002, 3.2161957E-004, 1.6659025E-005, 1.1057377E-003, 5.6063107E+002
 3.2009632E+001, 4.1262843E-002, 1.7601598E-001, 7.9204283E-002, 3.3089722E-004, 1.4788191E-005, 1.1279958E-003, 5.6035289E+002
 3.3010035E+001, 3.7975407E-002, 1.7906128E-001, 8.0471719E-002, 3.3207335E-004, 1.5210848E-005, 1.1465980E-003, 5.6349873E+002
 3.4007315E+001, 3.6686185E-002, 1.8025227E-001, 8.0969939E-002, 3.3517180E-004, 1.4844023E-005, 1.1544388E-003, 5.5744610E+002
 3.5004085E+001, 3.4925337E-002, 1.8186966E-001, 8.1653406E-002, 3.4656138E-004, 1.4990590E-005, 1.1666266E-003, 5.5634106E+002
 3.6006353E+001, 3.3458824E-002, 1.8321379E-001, 8.2223606E-002, 3.5832255E-004, 1.5020559E-005, 1.1772475E-003, 5.5528679E+002
 3.7008152E+001, 2.9840140E-002, 1.8654509E-001, 8.3625496E-002, 3.7569919E-004, 1.6602893E-005, 1.2010465E-003, 5.6082080E+002
 3.8002741E+001, 2.6289971E-002, 1.8980164E-001, 8.5004613E-002, 4.0174422E-004, 1.8815489E-005, 1.2262535E-003, 5.6141047E+002
 3.9004007E+001, 2.4182439E-002, 1.9176108E-001, 8.5815141E-002, 3.9729372E-004, 1.6886895E-005, 1.2371063E-003, 5.6198993E+002
 4.0002111E+001, 2.3305975E-002, 1.9253384E-001, 8.6165639E-002, 4.2772545E-004, 1.9572147E-005, 1.2482873E-003, 5.6000743E+002
 4.1005255E+001, 1.8270251E-002, 1.9717469E-001, 8.8115116E-002, 4.4826923E-004, 1.9973436E-005, 1.2806562E-003, 5.7236037E+002
 4.2000253E+001, 1.7738963E-002, 1.9763912E-001, 8.8329270E-002, 4.7020355E-004, 1.9423017E-005, 1.2881575E-003, 5.6769203E+002
 4.3006540E+001, 1.6851074E-002, 1.9847853E-001, 8.8666046E-002, 4.5740320E-004, 1.9035503E-005, 1.2904710E-003, 5.6257497E+002
 4.4005179E+001, 1.4892845E-002, 2.0024964E-001, 8.9435333E-002, 4.9162683E-004, 1.8953858E-005, 1.3084808E-003, 5.6170673E+002
 4.5008606E+001, 1.1049164E-002, 2.0369731E-001, 9.0954931E-002, 5.8128323E-004, 1.8401163E-005, 1.3484780E-003, 5.6986651E+002
 4.6000455E+001, 1.0492324E-002, 2.0408844E-001, 9.1210328E-002, 6.7804424E-004, 2.2938451E-005, 1.3715807E-003, 5.6527898E+002
 4.7008950E+001, 8.5943348E-003, 2.0574799E-001, 9.1974725E-002, 7.5555710E-004, 2.4073874E-005, 1.3981996E-003, 5.7041527E+002
 4.8003616E+001, 6.4587030E-003, 2.0732069E-001, 9.2931779E-002, 1.0716934E-003, 3.1408942E-005, 1.4754568E-003, 5.6881213E+002
 4.9006497E+001, 5.4357781E-003, 2.0644214E-001, 9.3917906E-002, 2.4816888E-003, 1.2397267E-004, 1.7724707E-003, 5.6502700E+002
 5.0001426E+001, 5.6744690E-003, 2.0697287E-001, 9.3576698E-002, 1.8956472E-003, 1.1925521E-004, 1.6500196E-003, 5.5178948E+002
 5.1003321E+001, 4.6194468E-003, 2.0782400E-001, 9.4033565E-002, 2.0027211E-003, 7.0321071E-005, 1.6781050E-003, 5.5306897E+002
 5.2008350E+001, 3.2758943E-003, 2.0743320E-001, 9.5081597E-002, 3.2656961E-003, 1.5269239E-004, 1.9465363E-003, 5.5324763E+002
 5.3003008E+001, 2.0494300E-003, 2.0741983E-001, 9.5910794E-002, 4.1371994E-003, 3.0807525E-004, 2.1333093E-003, 5.5531644E+002
 5.4010842E+001, 3.1412840E-003, 2.0683773E-001, 9.5363253E-002, 3.8180214E-003, 2.1084874E-004, 2.0613686E-003, 5.4472779E+002
 5.5002376E+001, 3.1089007E-003, 2.0632340E-001, 9.5529418E-002, 4.2153429E-003, 3.7491985E-004, 2.1434570E-003, 5.3964438E+002
 5.6002679E+001, 2.9360790E-003, 2.0694334E-001, 9.5471223E-002, 3.8847970E-003, 2.0624845E-004, 2.0763219E-003, 5.4323315E+002
 5.7001500E+001, 2.5850866E-003, 2.0601006E-001, 9.6008314E-002, 4.8502665E-003, 3.0615531E-004, 2.2776983E-003, 5.3814160E+002
 5.8007714E+001, 2.2074666E-003, 2.0630238E-001, 9.6161589E-002, 4.8837558E-003, 3.7488371E-004, 2.2866402E-003, 5.3527826E+002
 5.9004732E+001, 2.3701317E-003, 2.0469033E-001, 9.6550532E-002, 5.9897078E-003, 5.8044072E-004, 2.5140468E-003, 5.3391895E+002
 6.0000332E+001, 1.9703164E-003, 2.0503274E-001, 9.6673896E-002, 5.9713060E-003, 8.2142206E-004, 2.5121655E-003, 5.2562515E+002
 6.1005593E+001, 1.4252261E-003, 2.0466286E-001, 9.7184481E-002, 6.6638660E-003, 7.6386922E-004, 2.6584236E-003, 5.3004343E+002
 6.2005235E+001, 1.2551740E-003, 2.0476632E-001, 9.7299127E-002, 6.7374562E-003, 5.7688449E-004, 2.6748243E-003, 5.2708705E+002
 6.3007995E+001, 1.1658261E-003, 2.0319961E-001, 9.7798127E-002, 7.9402965E-003, 1.0809197E-003, 2.9232784E-003, 5.2250906E+002
 6.4000470E+001, 1.0160938E-003, 2.0301273E-001, 9.7972399E-002, 8.2027946E-003, 1.0310448E-003, 2.9784325E-003, 5.2542721E+002
 6.5008717E+001, 1.0142810E-003, 2.0253217E-001, 9.8147090E-002, 8.5928996E-003, 9.4889541E-004, 3.0591763E-003, 5.1956337E+002
 6.6009691E+001, 8.4008287E-004, 2.0138389E-001, 9.8600806E-002, 9.5658045E-003, 1.2426303E-003, 3.2608520E-003, 5.1859825E+002
 6.7010183E+001, 8.4671959E-004, 2.0105411E-001, 9.8708574E-002, 9.8211169E-003, 1.2262218E-003, 3.3136046E-003, 5.1784630E+002
 6.8004097E+001, 8.5323226E-004, 2.0082964E-001, 9.8786654E-002, 9.9996067E-003, 1.1783096E-003, 3.3505207E-003, 5.1545512E+002
 6.9000274E+001, 8.5282437E-004, 2.0012323E-001, 9.8974168E-002, 1.0503219E-002, 1.4646238E-003, 3.4542411E-003, 5.1773510E+002
 7.0004308E+001, 8.5280423E-004, 2.0019532E-001, 9.8980018E-002, 1.0476990E-002, 1.2854502E-003, 3.4490513E-003, 5.1155493E+002
 7.1010292E+001, 6.8872701E-004, 1.9850233E-001, 9.9543733E-002, 1.1803127E-002, 1.9644001E-003, 3.7231804E-003, 5.0945044E+002
 7.2002966E+001, 7.7388939E-004, 1.9845035E-001, 9.9521937E-002, 1.1802226E-002, 1.8442578E-003, 3.7226735E-003, 5.0886447E+002
 7.3007683E+001, 7.0264042E-004, 1.9750274E-001, 9.9821883E-002, 1.2528297E-002, 2.2320991E-003, 3.8726367E-003, 5.0583906E+002
 7.4009983E+001, 7.2625065E-004, 1.9716028E-001, 9.9844877E-002, 1.2703455E-002, 2.6799049E-003, 3.9081291E-003, 5.0199710E+002
 7.5005709E+001, 7.4267047E-004, 1.9842229E-001, 9.9553122E-002, 1.1846910E-002, 1.8430279E-003, 3.7320848E-003, 5.1004129E+002
 7.6010766E+001, 6.8300737E-004, 1.9590925E-001, 1.0030296E-001, 1.3723291E-002, 2.6067433E-003, 4.1192468E-003, 5.0426697E+002
 7.7001316E+001, 6.3679665E-004, 1.9640886E-001, 1.0019530E-001, 1.3393404E-002, 2.4480719E-003, 4.0515279E-003, 5.0402923E+002
 7.8001410E+001, 6.4598001E-004, 1.9565191E-001, 1.0042305E-001, 1.3959818E-002, 2.5535467E-003, 4.1684080E-003, 5.0150180E+002
 7.9002250E+001, 6.6742043E-004, 1.9507516E-001, 1.0053541E-001, 1.4329430E-002, 2.9413708E-003, 4.2441801E-003, 5.0049585E+002
 8.0004852E+001, 6.5355913E-004, 1.9481624E-001, 1.0062874E-001, 1.4539133E-002, 2.9555852E-003, 4.2875810E-003, 5.0519104E+002
 8.1004824E+001, 5.8421817E-004, 1.9444456E-001, 1.0082247E-001, 1.4901576E-002, 2.8229435E-003, 4.3630498E-003, 5.0428633E+002
 8.2008974E+001, 6.2765754E-004, 1.9403348E-001, 1.0088114E-001, 1.5142739E-002, 3.1107457E-003, 4.4122798E-003, 5.0016350E+002
 8.3010369E+001, 6.1839094E-004, 1.9382600E-001, 1.0093677E-001, 1.5291446E-002, 3.2296381E-003, 4.4429132E-003, 5.0040272E+002
 8.4006071E+001, 6.5940854E-004, 1.9389562E-001, 1.0093997E-001, 1.5262632E-002, 2.9002410E-003, 4.4371538E-003, 4.9807566E+002
 8.5005479E+001, 6.6562813E-004, 1.9358909E-001, 1.0098745E-001, 1.5446870E-002, 3.2015541E-003, 4.4748091E-003, 4.9692872E+002
 8.6000194E+001, 6.7551762E-004, 1.9244243E-001, 1.0128648E-001, 1.6258698E-002, 3.6544050E-003, 4.6419597E-003, 4.9755215E+002
 8.7005112E+001, 6.2307423E-004, 1.9218405E-001, 1.0142051E-001, 1.6510109E-002, 3.5837491E-003, 4.6943060E-003, 5.0068461E+002
 8.8003860E+001, 5.9014359E-004, 1.9169413E-001, 1.0154294E-001, 1.6852519E-002, 3.9642025E-003, 4.7647690E-003, 4.9616835E+002
 8.9003160E+001, 6.3380814E-004, 1.9143043E-001, 1.0157735E-001, 1.7003585E-002, 4.1023466E-003, 4.7955696E-003, 4.9519144E+002
 9.0005160E+001, 6.5075483E-004, 1.9146563E-001, 1.0159288E-001, 1.7003121E-002, 3.8680001E-003, 4.7956814E-003, 4.9684760E+002
 9.1004819E+001, 6.1373069E-004, 1.9057443E-001, 1.0182758E-001, 1.7637498E-002, 4.3926451E-003, 4.9263254E-003, 4.9834935E+002
 9.2004299E+001, 6.4087379E-004, 1.9012229E-001, 1.0191549E-001, 1.7926815E-002, 4.6546735E-003, 4.9856324E-003, 4.9576953E+002
 9.3000007E+001, 6.2582195E-004, 1.9036403E-001, 1.0191261E-001, 1.7816588E-002, 4.2515344E-003, 4.9634547E-003, 4.9831783E+002
 9.4002647E+001, 5.9583377E-004, 1.9029453E-001, 1.0194607E-001, 1.7881995E-002, 4.3143395E-003, 4.9770595E-003, 4.9583804E+002
 9.5003431E+001, 6.6513845E-004, 1.8971464E-001, 1.0199799E-001, 1.8190940E-002, 4.8722628E-003, 5.0398060E-003, 4.9100044E+002
 9.6009605E+001, 6.0191563E-004, 1.8976609E-001, 1.0205528E-001, 1.8227280E-002, 4.6886157E-003, 5.0479070E-003, 4.9443953E+002
 9.7006540E+001, 6.3494070E-004, 1.8947935E-001, 1.0210699E-001, 1.8406299E-002, 4.8132038E-003, 5.0845617E-003, 4.9564749E+002
 9.8006328E+001, 6.8721651E-004, 1.8902511E-001, 1.0221019E-001, 1.8711333E-002, 4.8826993E-003, 5.1472252E-003, 4.9361025E+002
 9.9009461E+001, 5.9579689E-004, 1.8878697E-001, 1.0230834E-001, 1.8918549E-002, 5.1498011E-003, 5.1902188E-003, 4.9602166E+002
 1.0000360E+002, 6.1310636E-004, 1.8822910E-001, 1.0244030E-001, 1.9299592E-002, 5.3993003E-003, 5.2685550E-003, 4.9391331E+002
 1.0100931E+002, 6.5997400E-004, 1.8835336E-001, 1.0242559E-001, 1.9228247E-002, 5.0440011E-003, 5.2540059E-003, 4.9484821E+002
 1.0200037E+002, 6.7715032E-004, 1.8786653E-001, 1.0253634E-001, 1.9556274E-002, 5.2795834E-003, 5.3214034E-003, 4.9228801E+002
 1.0300903E+002, 6.0755559E-004, 1.8736003E-001, 1.0272087E-001, 1.9969528E-002, 5.4727095E-003, 5.4069550E-003, 4.9535915E+002
 1.0400531E+002, 6.5467172E-004, 1.8698539E-001, 1.0277782E-001, 2.0192641E-002, 5.6826864E-003, 5.4525343E-003, 4.9413717E+002
 1.0500883E+002, 6.9019851E-004, 1.8688859E-001, 1.0279752E-001, 2.0254727E-002, 5.6096313E-003, 5.4652623E-003, 4.9188041E+002
 1.0600245E+002, 6.2884576E-004, 1.8680269E-001, 1.0280391E-001, 2.0300952E-002, 5.9987111E-003, 5.4746568E-003, 4.9144658E+002
 1.0701034E+002, 7.1132834E-004, 1.8685898E-001, 1.0277017E-001, 2.0239848E-002, 5.7451357E-003, 5.4618943E-003, 4.9392411E+002
 1.0800671E+002, 6.4448770E-004, 1.8644218E-001, 1.0291171E-001, 2.0569767E-002, 6.0059565E-003, 5.5301193E-003, 4.9515944E+002
 1.0900423E+002, 6.3333630E-004, 1.8581447E-001, 1.0307513E-001, 2.1014313E-002, 6.3246000E-003, 5.6216501E-003, 4.9244371E+002
 1.1000716E+002, 6.4508616E-004, 1.8574316E-001, 1.0309834E-001, 2.1069167E-002, 6.2786516E-003, 5.6329812E-003, 4.8974848E+002
 1.1100854E+002, 6.7615737E-004, 1.8538293E-001, 1.0313209E-001, 2.1262887E-002, 6.6662066E-003, 5.6723462E-003, 4.9064767E+002
 1.1200004E+002, 6.8157113E-004, 1.8511195E-001, 1.0319412E-001, 2.1445964E-002, 6.8122865E-003, 5.7099662E-003, 4.9217636E+002
 1.1300151E+002, 6.4519057E-004, 1.8510072E-001, 1.0322062E-001, 2.1478565E-002, 6.8271089E-003, 5.7168883E-003, 4.9247972E+002
 1.1400674E+002, 6.4044449E-004, 1.8528152E-001, 1.0322368E-001, 2.1401212E-002, 6.4671324E-003, 5.7013917E-003, 4.9300391E+002
 1.1500669E+002, 6.1022686E-004, 1.8484858E-001, 1.0335081E-001, 2.1722899E-002, 6.6941492E-003, 5.7677545E-003, 4.9496408E+002
 1.1600373E+002, 6.1199135E-004, 1.8486286E-001, 1.0333495E-001, 2.1700514E-002, 6.7536051E-003, 5.7630412E-003, 4.9395327E+002
 1.1700215E+002, 6.3965477E-004, 1.8425103E-001, 1.0343123E-001, 2.2069393E-002, 7.2823389E-003, 5.8384453E-003, 4.9319608E+002
 1.1800826E+002, 6.1086842E-004, 1.8464145E-001, 1.0335297E-001, 2.1817339E-002, 7.0925183E-003, 5.7867559E-003, 4.9278191E+002
 1.1900498E+002, 6.2136400E-004, 1.8507681E-001, 1.0324102E-001, 2.1510352E-002, 6.8516153E-003, 5.7235594E-003, 4.9277491E+002
 1.2001131E+002, 6.0607632E-004, 1.8542859E-001, 1.0311840E-001, 2.1230497E-002, 6.9493922E-003, 5.6656777E-003, 4.9376462E+002
 1.2100979E+002, 6.5220948E-004, 1.8427328E-001, 1.0333179E-001, 2.1959015E-002, 7.7833142E-003, 5.8149158E-003, 4.9378091E+002
 1.2200785E+002, 6.9891370E-004, 1.8535874E-001, 1.0312297E-001, 2.1263922E-002, 6.6744631E-003, 5.6724223E-003, 4.9406441E+002
 1.2300421E+002, 7.0179218E-004, 1.8539241E-001, 1.0311442E-001, 2.1240230E-002, 6.6465887E-003, 5.6675455E-003, 4.9424496E+002
 1.2400564E+002, 7.6809693E-004, 1.8392055E-001, 1.0334804E-001, 2.2129671E-002, 7.9074461E-003, 5.8493800E-003, 4.9405898E+002
 1.2500395E+002, 8.5606207E-004, 1.8438745E-001, 1.0329415E-001, 2.1865184E-002, 6.9314940E-003, 5.7954831E-003, 4.9416097E+002
 1.2601152E+002, 9.2400094E-004, 1.8486828E-001, 1.0312619E-001, 2.1480108E-002, 6.6969012E-003, 5.7158180E-003, 4.9508158E+002
 1.2700734E+002, 9.8759300E-004, 1.8487238E-001, 1.0298960E-001, 2.1339130E-002, 7.2447506E-003, 5.6856185E-003, 4.9351815E+002
 1.2801045E+002, 1.0231564E-003, 1.8458812E-001, 1.0300905E-001, 2.1484486E-002, 7.5476753E-003, 5.7150715E-003, 4.9602128E+002
 1.2900707E+002, 1.1469592E-003, 1.8406850E-001, 1.0308968E-001, 2.1794152E-002, 7.5852942E-003, 5.7783339E-003, 4.9491932E+002
 1.3000282E+002, 1.3142760E-003, 1.8449490E-001, 1.0298464E-001, 2.1494225E-002, 6.6669565E-003, 5.7165947E-003, 4.9379877E+002
 1.3100750E+002, 1.3141633E-003, 1.8408605E-001, 1.0307951E-001, 2.1771940E-002, 6.9142612E-003, 5.7736750E-003, 4.9555244E+002
 1.3201065E+002, 1.4737914E-003, 1.8393853E-001, 1.0294625E-001, 2.1699501E-002, 7.3446556E-003, 5.7572564E-003, 4.9334673E+002
 1.3300931E+002, 1.4708361E-003, 1.8290360E-001, 1.0318762E-001, 2.2403784E-002, 7.9744565E-003, 5.9020231E-003, 4.9223789E+002
 1.3400650E+002, 1.5615572E-003, 1.8233761E-001, 1.0325091E-001, 2.2717456E-002, 8.3469293E-003, 5.9658662E-003, 4.9512009E+002
 1.3500171E+002, 1.5979859E-003, 1.8229433E-001, 1.0330493E-001, 2.2790244E-002, 7.9568066E-003, 5.9812099E-003, 4.9626546E+002
 1.3601004E+002, 1.4939808E-003, 1.8276487E-001, 1.0312123E-001, 2.2398148E-002, 8.5543448E-003, 5.8999807E-003, 4.9817746E+002
 1.3700170E+002, 1.6563174E-003, 1.8233987E-001, 1.0323683E-001, 2.2699920E-002, 8.0319647E-003, 5.9621189E-003, 4.8949619E+002
 1.3800275E+002, 1.5791526E-003, 1.8283224E-001, 1.0314067E-001, 2.2385608E-002, 7.9476899E-003, 5.8976959E-003, 4.9440910E+002
 1.3900684E+002, 1.7148720E-003, 1.8087120E-001, 1.0359622E-001, 2.3714800E-002, 8.5627295E-003, 6.1708645E-003, 4.9143109E+002
 1.4000521E+002, 1.6691988E-003, 1.8203411E-001, 1.0325368E-001, 2.2852798E-002, 8.4881280E-003, 5.9930557E-003, 4.9168507E+002
 1.4100207E+002, 1.7511854E-003, 1.8235334E-001, 1.0323191E-001, 2.2686619E-002, 7.6390831E-003, 5.9593469E-003, 4.9395118E+002
 1.4201059E+002, 1.8912471E-003, 1.8086055E-001, 1.0348253E-001, 2.3600672E-002, 8.5320667E-003, 6.1463309E-003, 4.8987829E+002
 1.4301186E+002, 1.7435251E-003, 1.8168732E-001, 1.0330309E-001, 2.3055232E-002, 8.5742934E-003, 6.0343688E-003, 4.9634402E+002
 1.4400716E+002, 1.7122318E-003, 1.8191317E-001, 1.0346010E-001, 2.3113532E-002, 7.3094396E-003, 6.0482248E-003, 4.9881069E+002
 1.4500858E+002, 1.8683353E-003, 1.8096812E-001, 1.0348616E-001, 2.3556970E-002, 8.3907957E-003, 6.1376086E-003, 4.9225897E+002
 1.4600930E+002, 1.6359168E-003, 1.8099041E-001, 1.0355658E-001, 2.3623718E-002, 8.8919584E-003, 6.1520557E-003, 4.9910082E+002
 1.4700715E+002, 1.7895307E-003, 1.8165004E-001, 1.0340122E-001, 2.3169546E-002, 7.8670614E-003, 6.0586509E-003, 4.9454278E+002
 1.4800163E+002, 1.9143673E-003, 1.8068754E-001, 1.0344830E-001, 2.3642705E-002, 8.9872791E-003, 6.1543021E-003, 4.9579046E+002
 1.4900747E+002, 2.1070766E-003, 1.8015637E-001, 1.0356561E-001, 2.3992746E-002, 8.5402073E-003, 6.2261495E-003, 4.9208502E+002
 1.5000842E+002, 1.8985092E-003, 1.8061476E-001, 1.0358172E-001, 2.3809907E-002, 8.3967577E-003, 6.1897099E-003, 4.9717994E+002
 1.5101101E+002, 2.0566068E-003, 1.8055868E-001, 1.0355498E-001, 2.3804049E-002, 8.0104282E-003, 6.1881146E-003, 4.9326282E+002
 1.5200916E+002, 1.9299046E-003, 1.8063222E-001, 1.0346012E-001, 2.3678869E-002, 8.9620223E-003, 6.1617223E-003, 4.9919592E+002
 1.5300477E+002, 2.1711778E-003, 1.7973781E-001, 1.0358978E-001, 2.4201991E-002, 8.9641773E-003, 6.2684918E-003, 4.9163384E+002
 1.5400626E+002, 2.0691056E-003, 1.7993878E-001, 1.0350668E-001, 2.4031277E-002, 9.4876741E-003, 6.2331031E-003, 4.9790970E+002
