s,,,,,,,
Time,"O2 EXHAUST","CO2 EXHAUST","H2O EXHAUST","CO EXHAUST","FUEL EXHAUST","SOOT EXHAUST","TEMP EXHAUST"
 0.0000000E+000, 2.3099739E-001, 5.9146498E-004, 5.9412091E-003, 0.0000000E+000, 0.0000000E+000, 0.0000000E+000, 2.0000000E+001
 1.0033029E+000, 2.3099739E-001, 5.9146498E-004, 5.9412091E-003, 1.7458182E-026, 5.5154528E-026, 8.0138098E-027, 2.3465387E+001
 2.0035701E+000, 2.1476528E-001, 1.2748845E-002, 1.2967783E-002, 1.8400435E-004, 1.0148545E-004, 1.3594378E-004, 1.6775571E+002
 3.0021627E+000, 2.0443024E-001, 2.0591126E-002, 1.7416439E-002, 2.3610063E-004, 1.2167547E-004, 2.0922393E-004, 2.5968401E+002
 4.0032166E+000, 1.9266938E-001, 2.9631977E-002, 2.2448708E-002, 2.1978707E-004, 1.0126063E-004, 2.7717654E-004, 3.5134434E+002
 5.0036828E+000, 1.7677394E-001, 4.1982880E-002, 2.9216137E-002, 1.1242632E-004, 2.4279644E-005, 3.5159753E-004, 4.5731195E+002
 6.0000371E+000, 1.5846991E-001, 5.6037115E-002, 3.7052054E-002, 9.7484957E-005, 6.1318359E-007, 4.5948622E-004, 5.3099537E+002
 7.0067963E+000, 1.4425429E-001, 6.6905573E-002, 4.3149637E-002, 1.1598623E-004, 3.8833867E-007, 5.4942322E-004, 5.7780520E+002
 8.0046101E+000, 1.2931141E-001, 7.8327530E-002, 4.9559924E-002, 1.3714936E-004, 4.6284962E-007, 6.4431257E-004, 6.0635942E+002
 9.0012142E+000, 1.2188660E-001, 8.4006441E-002, 5.2743973E-002, 1.4522008E-004, 2.1983792E-007, 6.9096034E-004, 6.1252963E+002
 1.0002474E+001, 1.1202426E-001, 9.1546399E-002, 5.6974324E-002, 1.5819298E-004, 2.5293333E-007, 7.5338364E-004, 6.2787712E+002
 1.1003005E+001, 1.0595935E-001, 9.6183068E-002, 5.9575833E-002, 1.6622610E-004, 2.3758809E-007, 7.9178262E-004, 6.2644342E+002
 1.2007315E+001, 9.7608643E-002, 1.0256357E-001, 6.3158915E-002, 1.7977704E-004, 7.0261650E-007, 8.4516361E-004, 6.4767850E+002
 1.3003009E+001, 9.0616129E-002, 1.0790932E-001, 6.6158347E-002, 1.8910203E-004, 6.7359451E-007, 8.8944857E-004, 6.4285597E+002
 1.4002650E+001, 8.6057219E-002, 1.1139835E-001, 6.8112768E-002, 1.9262868E-004, 1.5607326E-007, 9.1779836E-004, 6.2844165E+002
 1.5000287E+001, 8.3224770E-002, 1.1355961E-001, 6.9329008E-002, 1.9923578E-004, 4.7430883E-007, 9.3631650E-004, 6.4451175E+002
 1.6000268E+001, 7.7952019E-002, 1.1758963E-001, 7.1591046E-002, 2.0693424E-004, 5.3272047E-007, 9.6984646E-004, 6.2438494E+002
 1.7001725E+001, 7.3297891E-002, 1.2114008E-001, 7.3589701E-002, 2.1830384E-004, 1.4410922E-006, 1.0003791E-003, 6.2889578E+002
 1.8007237E+001, 6.7807028E-002, 1.2534590E-001, 7.5942570E-002, 2.2012799E-004, 5.4381518E-007, 1.0340279E-003, 6.2864730E+002
 1.9002805E+001, 6.2792068E-002, 1.2917660E-001, 7.8094700E-002, 2.2900322E-004, 8.6611831E-007, 1.0662366E-003, 6.3537680E+002
 2.0002691E+001, 6.6366917E-002, 1.2645080E-001, 7.6559098E-002, 2.1934874E-004, 2.3470604E-007, 1.0425953E-003, 6.2584593E+002
 2.1001595E+001, 6.1478693E-002, 1.3018726E-001, 7.8656069E-002, 2.2625450E-004, 2.6447940E-007, 1.0736327E-003, 6.2668245E+002
 2.2000247E+001, 5.7208549E-002, 1.3345104E-001, 8.0487955E-002, 2.3243685E-004, 3.6023860E-007, 1.1007762E-003, 6.2860348E+002
 2.3003660E+001, 4.9885946E-002, 1.3904410E-001, 8.3630511E-002, 2.4564061E-004, 7.4721724E-007, 1.1478560E-003, 6.4640000E+002
 2.4000095E+001, 4.9099314E-002, 1.3962838E-001, 8.3973232E-002, 2.5844222E-004, 1.6498227E-006, 1.1552460E-003, 6.4383254E+002
 2.5004626E+001, 4.3261062E-002, 1.4410035E-001, 8.6474832E-002, 2.6025454E-004, 1.3622939E-006, 1.1909966E-003, 6.4733407E+002
 2.6001837E+001, 5.0287104E-002, 1.3873569E-001, 8.3458945E-002, 2.4627547E-004, 9.9776659E-007, 1.1455549E-003, 6.3042373E+002
 2.7005369E+001, 4.1545052E-002, 1.4540986E-001, 8.7211592E-002, 2.6413465E-004, 1.8387044E-006, 1.2021900E-003, 6.4611078E+002
 2.8003022E+001, 3.7097014E-002, 1.4881555E-001, 8.9118039E-002, 2.6655485E-004, 1.0969747E-006, 1.2296414E-003, 6.4664734E+002
 2.9003568E+001, 3.7705008E-002, 1.4824737E-001, 8.8889803E-002, 3.3721455E-004, 3.2207005E-006, 1.2404400E-003, 6.4316967E+002
 3.0001514E+001, 4.1760049E-002, 1.4525075E-001, 8.7117729E-002, 2.6022294E-004, 1.6222551E-006, 1.2000856E-003, 6.3430415E+002
 3.1002464E+001, 3.4439409E-002, 1.5084133E-001, 9.0259849E-002, 2.7417846E-004, 1.4500517E-006, 1.2473084E-003, 6.4135497E+002
 3.2001871E+001, 3.8107111E-002, 1.4804507E-001, 8.8684271E-002, 2.6405356E-004, 7.0042431E-007, 1.2230082E-003, 6.3778236E+002
 3.3004860E+001, 3.4581159E-002, 1.5074113E-001, 9.0196537E-002, 2.6839105E-004, 8.8482748E-007, 1.2452638E-003, 6.3864547E+002
 3.4004479E+001, 3.1395620E-002, 1.5313429E-001, 9.1575983E-002, 3.0159116E-004, 3.4247248E-006, 1.2713702E-003, 6.3745926E+002
 3.5001502E+001, 3.1938544E-002, 1.5276537E-001, 9.1328880E-002, 2.6920388E-004, 4.9204646E-007, 1.2614447E-003, 6.4394088E+002
 3.6003676E+001, 2.9403131E-002, 1.5469673E-001, 9.2418641E-002, 2.7740099E-004, 5.8300034E-007, 1.2784891E-003, 6.3861345E+002
 3.7004916E+001, 3.8561243E-002, 1.4770944E-001, 8.8485869E-002, 2.5548931E-004, 2.4303411E-007, 1.2185012E-003, 6.2229136E+002
 3.8001865E+001, 2.9911034E-002, 1.5431324E-001, 9.2199240E-002, 2.7338360E-004, 6.3073865E-007, 1.2745876E-003, 6.3763484E+002
 3.9004153E+001, 2.9467743E-002, 1.5461182E-001, 9.2402137E-002, 3.0188568E-004, 1.1502969E-006, 1.2831163E-003, 6.3966724E+002
 4.0000389E+001, 2.9959756E-002, 1.5416768E-001, 9.2212026E-002, 3.4788000E-004, 5.5576886E-006, 1.2895579E-003, 6.3263430E+002
 4.1003578E+001, 3.0928377E-002, 1.5351075E-001, 9.1770531E-002, 2.8904409E-004, 1.8428347E-006, 1.2716316E-003, 6.3101654E+002
 4.2006584E+001, 2.5615476E-002, 1.5757672E-001, 9.4048267E-002, 2.9326137E-004, 9.8474159E-007, 1.3046925E-003, 6.3900796E+002
 4.3005799E+001, 2.9965229E-002, 1.5427761E-001, 9.2174178E-002, 2.6930846E-004, 4.2816346E-007, 1.2734241E-003, 6.3359961E+002
 4.4000731E+001, 2.8467161E-002, 1.5542192E-001, 9.2817078E-002, 2.7197192E-004, 4.2530208E-007, 1.2830481E-003, 6.3012989E+002
 4.5003328E+001, 2.5078370E-002, 1.5799172E-001, 9.4277238E-002, 2.9091790E-004, 1.1349029E-006, 1.3074666E-003, 6.3791218E+002
 4.6003579E+001, 1.9665449E-002, 1.6199454E-001, 9.6641375E-002, 3.9143324E-004, 6.1307264E-006, 1.3608673E-003, 6.5897374E+002
 4.7002235E+001, 2.8503661E-002, 1.5539395E-001, 9.2801459E-002, 2.7198268E-004, 3.2805066E-007, 1.2828293E-003, 6.1887823E+002
 4.8001246E+001, 2.3093395E-002, 1.5945584E-001, 9.5145306E-002, 3.3032084E-004, 3.4665434E-006, 1.3275698E-003, 6.3621810E+002
 4.9000484E+001, 2.4441736E-002, 1.5848843E-001, 9.4547256E-002, 2.8491307E-004, 3.8898032E-007, 1.3100945E-003, 6.3442616E+002
 5.0004047E+001, 2.3894466E-002, 1.5891664E-001, 9.4778848E-002, 2.7879911E-004, 5.6960675E-007, 1.3121571E-003, 6.3571066E+002
 5.1004187E+001, 2.3069946E-002, 1.5942560E-001, 9.5170560E-002, 3.6367339E-004, 4.3148344E-006, 1.3345483E-003, 6.4081846E+002
 5.2000529E+001, 2.5694623E-002, 1.5754578E-001, 9.4005040E-002, 2.7274098E-004, 1.4579340E-007, 1.3000072E-003, 6.2259463E+002
 5.3006107E+001, 2.3654544E-002, 1.5909810E-001, 9.4882394E-002, 2.8048392E-004, 5.1798150E-007, 1.3139565E-003, 6.3021909E+002
 5.4003695E+001, 2.8111904E-002, 1.5569286E-001, 9.2969661E-002, 2.7288922E-004, 4.9100979E-007, 1.2853888E-003, 6.2417365E+002
 5.5001242E+001, 2.2659617E-002, 1.5985224E-001, 9.5311128E-002, 2.8623242E-004, 1.1550757E-006, 1.3211631E-003, 6.3700583E+002
 5.6002312E+001, 2.1557211E-002, 1.6070198E-001, 9.5781892E-002, 2.8295016E-004, 4.9388178E-007, 1.3271715E-003, 6.3551633E+002
 5.7000680E+001, 2.2913243E-002, 1.5966801E-001, 9.5199388E-002, 2.7928466E-004, 3.5273958E-007, 1.3182030E-003, 6.2929102E+002
 5.8001500E+001, 2.2387494E-002, 1.5998315E-001, 9.5452267E-002, 3.4000871E-004, 2.0031269E-006, 1.3338356E-003, 6.3409258E+002
 5.9005303E+001, 2.1906043E-002, 1.6038299E-001, 9.5648634E-002, 3.1857401E-004, 2.2307911E-006, 1.3323584E-003, 6.3541585E+002
 6.0006494E+001, 1.9408400E-002, 1.6234364E-001, 9.6703987E-002, 2.8659110E-004, 4.0782459E-007, 1.3409394E-003, 6.3611524E+002
 6.1001039E+001, 1.9492153E-002, 1.6220629E-001, 9.6691257E-002, 3.3724798E-004, 1.2887928E-006, 1.3508158E-003, 6.3839703E+002
 6.2000737E+001, 1.8858515E-002, 1.6273673E-001, 9.6948388E-002, 3.0614091E-004, 1.3822982E-006, 1.3482781E-003, 6.4245538E+002
 6.3006271E+001, 2.0769546E-002, 1.6123560E-001, 9.6141052E-002, 3.3116964E-004, 3.7823528E-006, 1.3418254E-003, 6.3227314E+002
 6.4006368E+001, 1.6230808E-002, 1.6474655E-001, 9.8075309E-002, 3.0904299E-004, 9.4602134E-007, 1.3647971E-003, 6.5205733E+002
 6.5004289E+001, 1.7810976E-002, 1.6353527E-001, 9.7398550E-002, 3.0920495E-004, 8.3926383E-007, 1.3552549E-003, 6.4182433E+002
 6.6005861E+001, 1.6554431E-002, 1.6401657E-001, 9.8089653E-002, 6.4315182E-004, 3.7717334E-006, 1.4313273E-003, 6.4665824E+002
 6.7004478E+001, 1.6014169E-002, 1.6492372E-001, 9.8164603E-002, 3.0134923E-004, 6.7265755E-007, 1.3645330E-003, 6.4354491E+002
 6.8001354E+001, 2.2998578E-002, 1.5960479E-001, 9.5162139E-002, 2.7776566E-004, 3.5343490E-007, 1.3173745E-003, 6.3469645E+002
 6.9002739E+001, 1.7564146E-002, 1.6305372E-001, 9.7713514E-002, 7.7139651E-004, 2.7301157E-005, 1.4514670E-003, 6.3761647E+002
 7.0003534E+001, 1.5880735E-002, 1.6494570E-001, 9.8246738E-002, 3.5662333E-004, 4.2396793E-006, 1.3766682E-003, 6.5640164E+002
 7.1002675E+001, 1.9051637E-002, 1.6242595E-001, 9.6917032E-002, 4.1875414E-004, 4.1705153E-006, 1.3701907E-003, 6.4983157E+002
 7.2003251E+001, 1.9743925E-002, 1.6209117E-001, 9.6558798E-002, 2.8335699E-004, 2.8899816E-007, 1.3382434E-003, 6.3974792E+002
 7.3004051E+001, 2.7240363E-002, 1.5633996E-001, 9.3349499E-002, 2.8727637E-004, 1.2066595E-006, 1.2936187E-003, 6.2394910E+002
 7.4005374E+001, 1.8631934E-002, 1.6292937E-001, 9.7039530E-002, 2.9307020E-004, 5.7787037E-007, 1.3469727E-003, 6.3295898E+002
 7.5002720E+001, 2.1101050E-002, 1.6096784E-001, 9.6003581E-002, 3.4079307E-004, 2.7366219E-006, 1.3417909E-003, 6.4590116E+002
 7.6005013E+001, 1.8636707E-002, 1.6286568E-001, 9.7056301E-002, 3.3450437E-004, 2.3925387E-006, 1.3554356E-003, 6.3399611E+002
 7.7003636E+001, 2.3883839E-002, 1.5888569E-001, 9.4795701E-002, 3.0581888E-004, 1.4599005E-006, 1.3177596E-003, 6.4214581E+002
 7.8002112E+001, 1.9219400E-002, 1.6246176E-001, 9.6793308E-002, 3.0503133E-004, 1.2949087E-006, 1.3458639E-003, 6.4052539E+002
 7.9006864E+001, 1.8215811E-002, 1.6322114E-001, 9.7226200E-002, 3.1174667E-004, 1.8924087E-006, 1.3533213E-003, 6.3651855E+002
 8.0000520E+001, 1.7556362E-002, 1.6365213E-001, 9.7532065E-002, 3.6316966E-004, 3.7016152E-006, 1.3678571E-003, 6.3733973E+002
 8.1000242E+001, 1.9482689E-002, 1.6223346E-001, 9.6688845E-002, 3.2333295E-004, 2.0788699E-006, 1.3480193E-003, 6.4657914E+002
 8.2004683E+001, 1.6774410E-002, 1.6430747E-001, 9.7849494E-002, 3.2453369E-004, 1.6666811E-006, 1.3646777E-003, 6.3750487E+002
 8.3006244E+001, 2.2051948E-002, 1.6030240E-001, 9.5576363E-002, 2.9702636E-004, 1.1802142E-006, 1.3270583E-003, 6.4614330E+002
 8.4005126E+001, 1.8635220E-002, 1.6293445E-001, 9.7035720E-002, 2.8780941E-004, 4.7507276E-007, 1.3458744E-003, 6.2838550E+002
 8.5000708E+001, 1.4291321E-002, 1.6614165E-001, 9.8934905E-002, 3.7225760E-004, 2.4235540E-006, 1.3895075E-003, 6.4625288E+002
 8.6004639E+001, 1.8382864E-002, 1.6312436E-001, 9.7144878E-002, 2.9019776E-004, 7.7002422E-007, 1.3478929E-003, 6.4334201E+002
 8.7002454E+001, 2.0283591E-002, 1.6165696E-001, 9.6334007E-002, 2.9750478E-004, 1.4550861E-006, 1.3378719E-003, 6.3968726E+002
 8.8006718E+001, 2.2144148E-002, 1.6025746E-001, 9.5528833E-002, 2.7929279E-004, 2.5282764E-007, 1.3228653E-003, 6.1885180E+002
 8.9005766E+001, 1.6097784E-002, 1.6477092E-001, 9.8156717E-002, 3.6267484E-004, 2.5876818E-006, 1.3765959E-003, 6.5090836E+002
 9.0001479E+001, 1.9566595E-002, 1.6220971E-001, 9.6640032E-002, 2.9521859E-004, 1.8543873E-006, 1.3417475E-003, 6.2801730E+002
 9.1001538E+001, 2.0797665E-002, 1.6123281E-001, 9.6123227E-002, 3.1829638E-004, 2.6014341E-006, 1.3390176E-003, 6.3066994E+002
 9.2005360E+001, 1.9752727E-002, 1.6208197E-001, 9.6555755E-002, 2.8501929E-004, 6.3080939E-007, 1.3385303E-003, 6.4303067E+002
 9.3003014E+001, 2.1004137E-002, 1.6112116E-001, 9.6020318E-002, 2.8623602E-004, 3.4137748E-007, 1.3311969E-003, 6.3460356E+002
 9.4000780E+001, 1.9140645E-002, 1.6237620E-001, 9.6873493E-002, 4.0629257E-004, 1.2856219E-006, 1.3671006E-003, 6.2825967E+002
 9.5006101E+001, 1.9065448E-002, 1.6260460E-001, 9.6851478E-002, 2.8789156E-004, 4.4625913E-007, 1.3432842E-003, 6.3505203E+002
 9.6000417E+001, 2.1655113E-002, 1.6062620E-001, 9.5740214E-002, 2.8348441E-004, 3.8315356E-007, 1.3266879E-003, 6.2561247E+002
 9.7005434E+001, 2.1083168E-002, 1.6106682E-001, 9.5984477E-002, 2.8190956E-004, 3.8423223E-007, 1.3298309E-003, 6.2199920E+002
 9.8000178E+001, 1.7233074E-002, 1.6397795E-001, 9.7646225E-002, 3.0941355E-004, 4.3035925E-007, 1.3588002E-003, 6.2913818E+002
 9.9000738E+001, 1.3805233E-002, 1.6657898E-001, 9.9122522E-002, 3.2731880E-004, 2.2208214E-006, 1.3832405E-003, 6.5009557E+002
 1.0000391E+002, 1.5894713E-002, 1.6502084E-001, 9.8213959E-002, 2.9745402E-004, 9.0692201E-007, 1.3644580E-003, 6.4191415E+002
 1.0100120E+002, 1.6940113E-002, 1.6414365E-001, 9.7789990E-002, 3.4989545E-004, 3.2000182E-006, 1.3688708E-003, 6.4034403E+002
 1.0200719E+002, 1.6086767E-002, 1.6459054E-001, 9.8221404E-002, 4.9360736E-004, 3.4749116E-006, 1.4035037E-003, 6.3947135E+002
 1.0300716E+002, 1.5383412E-002, 1.6522817E-001, 9.8491500E-002, 4.2535741E-004, 2.2349577E-006, 1.3937758E-003, 6.5633586E+002
 1.0400331E+002, 1.4204319E-002, 1.6629540E-001, 9.8944711E-002, 3.1202739E-004, 8.1824691E-007, 1.3776892E-003, 6.4182727E+002
 1.0500090E+002, 1.5663216E-002, 1.6520322E-001, 9.8311615E-002, 2.9407251E-004, 4.4274715E-007, 1.3651682E-003, 6.3910142E+002
 1.0600594E+002, 1.3149717E-002, 1.6709379E-001, 9.9399543E-002, 3.1885483E-004, 1.0532339E-006, 1.3854792E-003, 6.4718197E+002
 1.0700063E+002, 1.9089203E-002, 1.6256787E-001, 9.6847076E-002, 3.0065018E-004, 1.2067747E-006, 1.3457548E-003, 6.3539628E+002
 1.0800029E+002, 1.4624064E-002, 1.6591425E-001, 9.8783651E-002, 3.5314029E-004, 2.0254967E-006, 1.3835724E-003, 6.4917976E+002
 1.0900524E+002, 1.6378539E-002, 1.6450224E-001, 9.8053455E-002, 3.9977995E-004, 2.8312160E-006, 1.3825011E-003, 6.4258734E+002
 1.1000595E+002, 1.8236270E-002, 1.6322005E-001, 9.7212951E-002, 3.0174305E-004, 9.0698554E-007, 1.3511479E-003, 6.4663524E+002
 1.1100228E+002, 1.6063653E-002, 1.6490016E-001, 9.8138882E-002, 2.9141392E-004, 3.5896063E-007, 1.3621967E-003, 6.3942861E+002
 1.1200237E+002, 1.7421546E-002, 1.6386765E-001, 9.7554634E-002, 2.8572203E-004, 3.8066793E-007, 1.3528012E-003, 6.3180998E+002
 1.1300414E+002, 1.9014844E-002, 1.6264416E-001, 9.6872896E-002, 2.8734564E-004, 5.1303719E-007, 1.3434788E-003, 6.3601552E+002
 1.1400652E+002, 1.4685868E-002, 1.6500843E-001, 9.9028925E-002, 9.4771218E-004, 1.1473917E-005, 1.5050772E-003, 6.3977574E+002
 1.1500104E+002, 1.6717246E-002, 1.6436573E-001, 9.7869382E-002, 3.1450794E-004, 1.6498272E-006, 1.3629687E-003, 6.2953564E+002
 1.1600681E+002, 1.6525971E-002, 1.6452969E-001, 9.7945767E-002, 3.0244425E-004, 1.7663315E-006, 1.3616545E-003, 6.4435556E+002
 1.1700277E+002, 2.4010997E-002, 1.5883019E-001, 9.4728083E-002, 2.7686082E-004, 2.0003110E-007, 1.3110541E-003, 6.2183511E+002
 1.1800676E+002, 1.9670717E-002, 1.6210428E-001, 9.6603174E-002, 3.1268232E-004, 4.4161708E-006, 1.3446932E-003, 6.3674698E+002
 1.1900301E+002, 1.6527888E-002, 1.6440336E-001, 9.7983224E-002, 3.8797097E-004, 1.0859092E-005, 1.3791639E-003, 6.3562161E+002
 1.2000082E+002, 1.6949264E-002, 1.6420287E-001, 9.7765276E-002, 3.0415535E-004, 1.4233057E-006, 1.3594407E-003, 6.5088192E+002
 1.2100040E+002, 2.0179710E-002, 1.6170498E-001, 9.6388349E-002, 3.1927067E-004, 2.7746135E-006, 1.3429617E-003, 6.4261671E+002
 1.2200030E+002, 1.8571861E-002, 1.6298500E-001, 9.7062219E-002, 2.8642136E-004, 5.1075818E-007, 1.3459737E-003, 6.3134417E+002
 1.2300596E+002, 1.9885745E-002, 1.6196855E-001, 9.6502307E-002, 2.9288568E-004, 1.3857931E-006, 1.3393359E-003, 6.2618086E+002
 1.2400178E+002, 1.6770565E-002, 1.6429829E-001, 9.7855063E-002, 3.3299464E-004, 1.2784920E-006, 1.3664361E-003, 6.4684220E+002
 1.2500444E+002, 1.8759871E-002, 1.6281359E-001, 9.6990246E-002, 3.0527196E-004, 1.3515886E-006, 1.3486978E-003, 6.3933114E+002
 1.2600322E+002, 1.6546894E-002, 1.6452709E-001, 9.7932710E-002, 2.9325969E-004, 6.4134904E-007, 1.3596464E-003, 6.4647593E+002
 1.2700466E+002, 2.2112224E-002, 1.6025744E-001, 9.5550103E-002, 2.9613406E-004, 1.4961483E-006, 1.3265097E-003, 6.3422557E+002
 1.2800206E+002, 1.6422532E-002, 1.6360734E-001, 9.8305828E-002, 9.9517876E-004, 2.0947276E-005, 1.5042712E-003, 6.5172069E+002
 1.2900448E+002, 1.7909267E-002, 1.6348950E-001, 9.7347118E-002, 2.8874839E-004, 3.3416385E-007, 1.3504662E-003, 6.2555645E+002
 1.3000511E+002, 1.9159969E-002, 1.6253234E-001, 9.6810913E-002, 2.8775051E-004, 5.7897205E-007, 1.3426823E-003, 6.3906037E+002
 1.3100209E+002, 1.8523953E-002, 1.6300608E-001, 9.7087683E-002, 2.9724754E-004, 7.2511080E-007, 1.3484832E-003, 6.4093090E+002
 1.3200413E+002, 1.4622527E-002, 1.6597215E-001, 9.8766348E-002, 3.1384585E-004, 1.4197181E-006, 1.3755269E-003, 6.4488853E+002
 1.3300116E+002, 1.8865587E-002, 1.6274922E-001, 9.6939805E-002, 2.9382642E-004, 4.7885560E-007, 1.3457120E-003, 6.3408752E+002
 1.3400256E+002, 2.1266310E-002, 1.6091874E-001, 9.5908422E-002, 2.8721340E-004, 7.8468982E-007, 1.3298079E-003, 6.4428166E+002
 1.3500471E+002, 2.1758649E-002, 1.6055053E-001, 9.5694685E-002, 2.8092265E-004, 4.4027714E-007, 1.3255353E-003, 6.2322896E+002
 1.3600323E+002, 1.7795693E-002, 1.6356045E-001, 9.7400868E-002, 2.9990139E-004, 4.6158384E-007, 1.3534408E-003, 6.3788498E+002
 1.3700413E+002, 1.7425207E-002, 1.6373852E-001, 9.7593079E-002, 3.7323700E-004, 1.6285220E-006, 1.3707186E-003, 6.3572617E+002
 1.3800250E+002, 2.0761337E-002, 1.6131567E-001, 9.6121645E-002, 2.8039629E-004, 2.9220977E-007, 1.3314711E-003, 6.2462475E+002
 1.3900538E+002, 1.7800720E-002, 1.6355186E-001, 9.7400084E-002, 3.0308504E-004, 1.3354337E-006, 1.3540617E-003, 6.3847963E+002
 1.4000721E+002, 1.8606694E-002, 1.6293000E-001, 9.7056223E-002, 3.0599746E-004, 1.0325079E-006, 1.3497752E-003, 6.3902149E+002
 1.4100228E+002, 1.9880786E-002, 1.6198740E-001, 9.6499795E-002, 2.8256130E-004, 4.3461484E-007, 1.3372507E-003, 6.4016338E+002
 1.4200608E+002, 1.7188716E-002, 1.6403818E-001, 9.7656849E-002, 2.9118942E-004, 5.9259875E-007, 1.3553327E-003, 6.3564561E+002
 1.4300552E+002, 2.1302868E-002, 1.6089715E-001, 9.5890774E-002, 2.8279617E-004, 4.2020883E-007, 1.3286813E-003, 6.3689094E+002
 1.4400282E+002, 1.6118403E-002, 1.6473568E-001, 9.8154272E-002, 3.7631694E-004, 1.3578573E-006, 1.3792694E-003, 6.3507254E+002
 1.4500294E+002, 1.9554935E-002, 1.6219220E-001, 9.6653516E-002, 3.1362430E-004, 1.4087802E-006, 1.3455921E-003, 6.3969818E+002
 1.4600350E+002, 1.9558863E-002, 1.6223566E-001, 9.6637223E-002, 2.8151188E-004, 2.6556901E-007, 1.3389866E-003, 6.3682696E+002
 1.4700255E+002, 1.3881616E-002, 1.6593032E-001, 9.9277053E-002, 7.3637945E-004, 5.9624025E-006, 1.4666334E-003, 6.4408665E+002
 1.4800491E+002, 1.7623352E-002, 1.6371232E-001, 9.7468415E-002, 2.8619032E-004, 3.0670275E-007, 1.3516744E-003, 6.2669562E+002
 1.4900031E+002, 1.9458529E-002, 1.6229216E-001, 9.6686560E-002, 2.9556742E-004, 1.0956199E-006, 1.3424749E-003, 6.3845589E+002
 1.5000249E+002, 1.9119293E-002, 1.6255481E-001, 9.6830918E-002, 2.9364507E-004, 1.7353792E-006, 1.3441356E-003, 6.4762217E+002
 1.5100526E+002, 1.5607082E-002, 1.6494820E-001, 9.8429950E-002, 5.0045822E-004, 4.0737675E-006, 1.4078142E-003, 6.3909052E+002
 1.5200475E+002, 1.9071650E-002, 1.6260573E-001, 9.6846987E-002, 2.8383668E-004, 2.0297530E-007, 1.3424157E-003, 6.2077792E+002
 1.5300734E+002, 1.2982118E-002, 1.6676948E-001, 9.9614396E-002, 6.3223991E-004, 7.6305717E-006, 1.4507323E-003, 6.4593284E+002
 1.5400261E+002, 1.8277033E-002, 1.6320549E-001, 9.7190273E-002, 2.9023987E-004, 3.4352508E-007, 1.3485434E-003, 6.2856797E+002
