s,,,,,,,
Time,"O2 EXHAUST","CO2 EXHAUST","H2O EXHAUST","CO EXHAUST","FUEL EXHAUST","SOOT EXHAUST","TEMP EXHAUST"
 0.0000000E+000, 2.3118142E-001, 5.9193618E-004, 5.1492695E-003, 0.0000000E+000, 0.0000000E+000, 0.0000000E+000, 2.0000000E+001
 1.0034275E+000, 2.3118142E-001, 5.9193618E-004, 5.1492695E-003, 9.1619835E-030, 4.9135475E-029, 2.5824529E-030, 2.0477428E+001
 2.0005200E+000, 2.2498310E-001, 6.2527789E-003, 7.5452727E-003, 4.6722961E-005, 1.2584609E-004, 4.4197915E-005, 9.1482092E+001
 3.0006918E+000, 2.2065506E-001, 1.0172823E-002, 9.2238053E-003, 9.9780630E-005, 2.4534812E-004, 7.9283838E-005, 1.2500590E+002
 4.0009690E+000, 2.1340560E-001, 1.6787135E-002, 1.2038933E-002, 1.7055886E-004, 3.2772618E-004, 1.3442797E-004, 1.8321116E+002
 5.0021029E+000, 2.0790063E-001, 2.1793415E-002, 1.4172926E-002, 2.2788150E-004, 4.4541264E-004, 1.7697770E-004, 2.3433316E+002
 6.0023953E+000, 2.0373026E-001, 2.5604606E-002, 1.5789145E-002, 2.6247087E-004, 5.0005275E-004, 2.0741193E-004, 2.6911440E+002
 7.0023471E+000, 1.9603548E-001, 3.2811975E-002, 1.8749227E-002, 2.2443074E-004, 3.8591136E-004, 2.4258157E-004, 3.1569421E+002
 8.0067630E+000, 1.8975875E-001, 3.8667987E-002, 2.1166618E-002, 2.0674782E-004, 3.2171758E-004, 2.7401857E-004, 3.4979055E+002
 9.0041363E+000, 1.8311540E-001, 4.4885803E-002, 2.3721414E-002, 1.7519907E-004, 2.3749607E-004, 3.0463404E-004, 3.8526381E+002
 1.0000633E+001, 1.7839764E-001, 4.9303990E-002, 2.5535749E-002, 1.5166732E-004, 1.7216933E-004, 3.2614734E-004, 4.0002657E+002
 1.1002924E+001, 1.7107364E-001, 5.6161219E-002, 2.8351480E-002, 1.1497588E-004, 7.9588808E-005, 3.5950043E-004, 4.2880148E+002
 1.2008239E+001, 1.6749246E-001, 5.9506949E-002, 2.9729233E-002, 1.0128345E-004, 4.2885254E-005, 3.7668472E-004, 4.3566620E+002
 1.3004398E+001, 1.5903444E-001, 6.7363313E-002, 3.2989180E-002, 9.5678640E-005, 1.0488632E-005, 4.2278074E-004, 4.5342979E+002
 1.4010918E+001, 1.5166911E-001, 7.4187637E-002, 3.5830262E-002, 1.0086733E-004, 2.3760386E-006, 4.6499758E-004, 4.6817887E+002
 1.5000893E+001, 1.4749791E-001, 7.8050084E-002, 3.7439550E-002, 1.0518458E-004, 6.2561546E-007, 4.8919028E-004, 4.7065760E+002
 1.6005807E+001, 1.4351591E-001, 8.1736352E-002, 3.8975978E-002, 1.0988994E-004, 1.5471852E-007, 5.1240606E-004, 4.6937520E+002
 1.7007651E+001, 1.3946885E-001, 8.5482215E-002, 4.0537601E-002, 1.1505161E-004, 3.4380177E-007, 5.3607944E-004, 4.6645618E+002
 1.8006878E+001, 1.3367012E-001, 9.0849771E-002, 4.2775086E-002, 1.2222397E-004, 1.1744450E-007, 5.6995326E-004, 4.7428991E+002
 1.9006458E+001, 1.2750808E-001, 9.6553477E-002, 4.5152770E-002, 1.2992372E-004, 8.6247216E-008, 6.0596539E-004, 4.8880536E+002
 2.0012132E+001, 1.2295241E-001, 1.0077029E-001, 4.6910618E-002, 1.3561917E-004, 9.0898513E-008, 6.3259016E-004, 4.9170388E+002
 2.1007368E+001, 1.1798410E-001, 1.0536905E-001, 4.8827694E-002, 1.4183309E-004, 6.9520206E-008, 6.6162715E-004, 4.8968978E+002
 2.2000387E+001, 1.1028106E-001, 1.1249868E-001, 5.1800068E-002, 1.5174717E-004, 4.6938145E-007, 7.0670491E-004, 5.0788884E+002
 2.3004234E+001, 1.1099914E-001, 1.1183448E-001, 5.1522908E-002, 1.5055165E-004, 2.3607997E-008, 7.0244664E-004, 4.9231149E+002
 2.4012060E+001, 1.0599486E-001, 1.1646632E-001, 5.3453895E-002, 1.5694570E-004, 2.6421473E-007, 7.3172173E-004, 4.9421477E+002
 2.5003708E+001, 9.9956722E-002, 1.2204917E-001, 5.5784575E-002, 1.6810577E-004, 7.6163294E-006, 7.6775484E-004, 5.0526453E+002
 2.6006175E+001, 9.9130816E-002, 1.2281658E-001, 5.6102903E-002, 1.6744432E-004, 3.9336715E-006, 7.7223286E-004, 4.8976528E+002
 2.7010055E+001, 9.5300980E-002, 1.2606209E-001, 5.7607149E-002, 3.3474745E-004, 4.3889708E-004, 8.2797734E-004, 4.8991652E+002
 2.8011642E+001, 9.3138207E-002, 1.2786989E-001, 5.8456683E-002, 4.4057730E-004, 7.3388179E-004, 8.6176287E-004, 4.8357535E+002
 2.9005984E+001, 9.0332859E-002, 1.3037416E-001, 5.9547541E-002, 4.9446726E-004, 8.6679117E-004, 8.8850347E-004, 4.8982666E+002
 3.0008955E+001, 8.7753806E-002, 1.3230549E-001, 6.0557497E-002, 7.1884223E-004, 1.6837964E-003, 9.4868434E-004, 4.8323126E+002
 3.1001328E+001, 8.5744418E-002, 1.3398341E-001, 6.1385628E-002, 8.5794499E-004, 1.7252354E-003, 9.8888605E-004, 4.7792800E+002
 3.2008290E+001, 8.3898154E-002, 1.3557238E-001, 6.2129427E-002, 9.4678362E-004, 1.7731613E-003, 1.0176766E-003, 4.7413232E+002
 3.3004623E+001, 8.2106882E-002, 1.3659153E-001, 6.2793759E-002, 1.2099180E-003, 3.2072182E-003, 1.0807531E-003, 4.6845054E+002
 3.4004971E+001, 8.1100686E-002, 1.3733845E-001, 6.3158263E-002, 1.2700117E-003, 3.7183689E-003, 1.0982551E-003, 4.6608638E+002
 3.5006868E+001, 8.0649783E-002, 1.3762536E-001, 6.3389544E-002, 1.3885224E-003, 3.6298657E-003, 1.1256246E-003, 4.5774460E+002
 3.6000453E+001, 7.9181915E-002, 1.3864099E-001, 6.3967536E-002, 1.5572495E-003, 4.2418548E-003, 1.1682501E-003, 4.5613351E+002
 3.7010533E+001, 7.7956424E-002, 1.3911923E-001, 6.4447090E-002, 1.8619967E-003, 5.5064629E-003, 1.2370726E-003, 4.5353086E+002
 3.8004564E+001, 7.7724683E-002, 1.3923696E-001, 6.4482501E-002, 1.8503584E-003, 6.0270588E-003, 1.2352652E-003, 4.4230715E+002
 3.9004160E+001, 7.7479790E-002, 1.3909103E-001, 6.4569335E-002, 2.0110590E-003, 6.8148265E-003, 1.2691600E-003, 4.3814300E+002
 4.0007735E+001, 7.6469943E-002, 1.3977816E-001, 6.5001292E-002, 2.1677283E-003, 7.0504803E-003, 1.3071971E-003, 4.4083459E+002
 4.1003892E+001, 7.6022294E-002, 1.3997601E-001, 6.5139320E-002, 2.2303233E-003, 7.6919798E-003, 1.3219344E-003, 4.3862451E+002
 4.2007915E+001, 7.5343478E-002, 1.4019672E-001, 6.5336009E-002, 2.3480626E-003, 8.8991580E-003, 1.3487430E-003, 4.3294245E+002
 4.3009853E+001, 7.5106710E-002, 1.4046797E-001, 6.5441791E-002, 2.3396889E-003, 8.7079192E-003, 1.3485639E-003, 4.2916186E+002
 4.4003704E+001, 7.5160100E-002, 1.4017046E-001, 6.5326683E-002, 2.3543088E-003, 9.7755098E-003, 1.3499395E-003, 4.1922088E+002
 4.5009987E+001, 7.5186830E-002, 1.3996205E-001, 6.5427981E-002, 2.5522141E-003, 9.4629428E-003, 1.3915041E-003, 4.1957110E+002
 4.6001667E+001, 7.4769502E-002, 1.4006496E-001, 6.5469765E-002, 2.5578750E-003, 1.0751016E-002, 1.3933532E-003, 4.1177800E+002
 4.7006998E+001, 7.5645186E-002, 1.3913306E-001, 6.4969289E-002, 2.4440913E-003, 1.1980008E-002, 1.3631266E-003, 4.0790336E+002
 4.8007671E+001, 7.5141938E-002, 1.3947616E-001, 6.5238533E-002, 2.5774739E-003, 1.1768197E-002, 1.3940519E-003, 4.1017785E+002
 4.9003556E+001, 7.5555233E-002, 1.3887969E-001, 6.5066337E-002, 2.6604667E-003, 1.2271038E-002, 1.4084191E-003, 3.9462146E+002
 5.0009882E+001, 7.5363273E-002, 1.3871886E-001, 6.5060690E-002, 2.7314735E-003, 1.3428697E-002, 1.4228184E-003, 4.0079562E+002
 5.1005359E+001, 7.5154097E-002, 1.3887319E-001, 6.5135176E-002, 2.7430632E-003, 1.3544661E-002, 1.4262558E-003, 4.0451237E+002
 5.2004698E+001, 7.5645296E-002, 1.3827771E-001, 6.4906440E-002, 2.7656620E-003, 1.4062915E-002, 1.4275616E-003, 3.9390994E+002
 5.3007337E+001, 7.5991265E-002, 1.3701102E-001, 6.4705087E-002, 3.1227905E-003, 1.6357954E-002, 1.4972140E-003, 3.9896077E+002
 5.4006573E+001, 7.6318850E-002, 1.3712162E-001, 6.4603424E-002, 2.9609675E-003, 1.5384453E-002, 1.4628628E-003, 3.9241705E+002
 5.5007103E+001, 7.6625364E-002, 1.3671136E-001, 6.4353791E-002, 2.8824046E-003, 1.6434116E-002, 1.4433975E-003, 3.8479828E+002
 5.6009569E+001, 7.6277335E-002, 1.3647688E-001, 6.4640852E-002, 3.2916268E-003, 1.6613475E-002, 1.5305295E-003, 3.8278215E+002
 5.7001514E+001, 7.6796079E-002, 1.3600813E-001, 6.4355668E-002, 3.1982379E-003, 1.7107237E-002, 1.5075020E-003, 3.7173689E+002
 5.8008321E+001, 7.7818537E-002, 1.3452378E-001, 6.3777391E-002, 3.2506201E-003, 1.9293555E-002, 1.5099054E-003, 3.7668329E+002
 5.9009936E+001, 7.6943131E-002, 1.3471615E-001, 6.4236281E-002, 3.6555640E-003, 1.9787201E-002, 1.5986832E-003, 3.8880709E+002
 6.0008689E+001, 7.7208640E-002, 1.3458246E-001, 6.4161838E-002, 3.6334678E-003, 1.9394135E-002, 1.5930958E-003, 3.6660268E+002
 6.1012986E+001, 7.7154739E-002, 1.3444809E-001, 6.4184375E-002, 3.7185506E-003, 1.9750145E-002, 1.6106973E-003, 3.6653465E+002
 6.2000891E+001, 7.7892465E-002, 1.3324569E-001, 6.3890207E-002, 3.9424844E-003, 2.0841476E-002, 1.6519132E-003, 3.6196175E+002
 6.3008762E+001, 7.8154911E-002, 1.3260405E-001, 6.3727527E-002, 4.0589689E-003, 2.2007693E-002, 1.6732573E-003, 3.5769267E+002
 6.4008704E+001, 7.8644943E-002, 1.3205305E-001, 6.3512225E-002, 4.0753441E-003, 2.2360759E-002, 1.6734837E-003, 3.5540682E+002
 6.5011240E+001, 7.8438912E-002, 1.3236265E-001, 6.3586926E-002, 4.0169610E-003, 2.2153380E-002, 1.6627149E-003, 3.6051151E+002
 6.6002824E+001, 7.8856071E-002, 1.3122525E-001, 6.3438755E-002, 4.3689347E-003, 2.3570227E-002, 1.7320274E-003, 3.5323941E+002
 6.7011260E+001, 7.9441527E-002, 1.3034527E-001, 6.3151459E-002, 4.4576464E-003, 2.4615686E-002, 1.7459266E-003, 3.5759322E+002
 6.8012997E+001, 7.9363710E-002, 1.3033015E-001, 6.3202162E-002, 4.5184074E-003, 2.4663467E-002, 1.7589826E-003, 3.5727329E+002
 6.9007021E+001, 7.9407436E-002, 1.3044252E-001, 6.3201060E-002, 4.4655628E-003, 2.4263602E-002, 1.7482239E-003, 3.5205321E+002
 7.0001351E+001, 7.9702426E-002, 1.2947298E-001, 6.3068993E-002, 4.7609745E-003, 2.5759992E-002, 1.8063091E-003, 3.4443241E+002
 7.1003747E+001, 7.9761964E-002, 1.2928258E-001, 6.3001935E-002, 4.7765912E-003, 2.6296937E-002, 1.8085434E-003, 3.3949299E+002
 7.2002153E+001, 8.0242370E-002, 1.2877015E-001, 6.2787243E-002, 4.7763839E-003, 2.6609836E-002, 1.8054140E-003, 3.4601277E+002
 7.3002379E+001, 7.9594576E-002, 1.2963111E-001, 6.3060781E-002, 4.6834472E-003, 2.5946688E-002, 1.7904874E-003, 3.4117031E+002
 7.4007798E+001, 8.1187232E-002, 1.2731086E-001, 6.2348387E-002, 4.9627709E-003, 2.8224182E-002, 1.8369608E-003, 3.3596817E+002
 7.5001247E+001, 8.2024743E-002, 1.2609119E-001, 6.1955908E-002, 5.0910538E-003, 2.9529426E-002, 1.8573775E-003, 3.3039608E+002
 7.6003397E+001, 8.1466456E-002, 1.2615468E-001, 6.2236390E-002, 5.3634974E-003, 3.0035948E-002, 1.9167102E-003, 3.4604900E+002
 7.7005946E+001, 8.1283534E-002, 1.2697111E-001, 6.2175163E-002, 4.9356642E-003, 2.9549240E-002, 1.8290546E-003, 3.5431782E+002
 7.8007927E+001, 8.1025995E-002, 1.2651094E-001, 6.2451365E-002, 5.4336621E-003, 2.9864829E-002, 1.9340364E-003, 3.4939371E+002
 7.9004943E+001, 8.1195483E-002, 1.2639005E-001, 6.2296864E-002, 5.3253989E-003, 3.0334453E-002, 1.9098853E-003, 3.4215858E+002
 8.0007589E+001, 8.1698146E-002, 1.2553825E-001, 6.2034613E-002, 5.4289888E-003, 3.1518235E-002, 1.9271739E-003, 3.4004386E+002
 8.1003545E+001, 8.1617045E-002, 1.2563516E-001, 6.2065649E-002, 5.4189587E-003, 3.1476344E-002, 1.9255871E-003, 3.2950907E+002
 8.2008567E+001, 8.2013537E-002, 1.2519282E-001, 6.1796816E-002, 5.3331473E-003, 3.2329877E-002, 1.9043595E-003, 3.2610204E+002
 8.3009953E+001, 8.2931519E-002, 1.2362437E-001, 6.1435180E-002, 5.6489793E-003, 3.3804840E-002, 1.9632565E-003, 3.2940840E+002
 8.4001752E+001, 8.2194373E-002, 1.2423066E-001, 6.1857576E-002, 5.8263666E-003, 3.3118072E-002, 2.0052862E-003, 3.2729176E+002
 8.5004146E+001, 8.3403152E-002, 1.2199366E-001, 6.1407215E-002, 6.3464038E-003, 3.5244900E-002, 2.1043436E-003, 3.3041422E+002
 8.6003578E+001, 8.2871560E-002, 1.2294318E-001, 6.1603016E-002, 6.1308537E-003, 3.4391440E-002, 2.0634197E-003, 3.2645027E+002
 8.7007397E+001, 8.3583657E-002, 1.2151362E-001, 6.1267914E-002, 6.4157738E-003, 3.6290588E-002, 2.1164662E-003, 3.3459313E+002
 8.8003993E+001, 8.2850994E-002, 1.2256742E-001, 6.1553649E-002, 6.2501548E-003, 3.5524899E-002, 2.0869742E-003, 3.3246387E+002
 8.9006803E+001, 8.2909410E-002, 1.2227573E-001, 6.1565327E-002, 6.3926558E-003, 3.5789762E-002, 2.1160516E-003, 3.3027520E+002
 9.0000811E+001, 8.3745428E-002, 1.2136935E-001, 6.1117502E-002, 6.3224516E-003, 3.6814185E-002, 2.0954072E-003, 3.2645410E+002
 9.1000346E+001, 8.4448756E-002, 1.2014724E-001, 6.0883511E-002, 6.6180382E-003, 3.7723174E-002, 2.1520073E-003, 3.2619341E+002
 9.2006217E+001, 8.4513411E-002, 1.2015337E-001, 6.0836034E-002, 6.5649482E-003, 3.7728769E-002, 2.1405571E-003, 3.2876489E+002
 9.3008488E+001, 8.4405842E-002, 1.2057140E-001, 6.0774673E-002, 6.3152710E-003, 3.7720070E-002, 2.0890518E-003, 3.2892841E+002
 9.4013040E+001, 8.4906415E-002, 1.1948322E-001, 6.0622936E-002, 6.6395240E-003, 3.8711565E-002, 2.1526611E-003, 3.2176309E+002
 9.5000508E+001, 8.5504979E-002, 1.1870382E-001, 6.0308810E-002, 6.6548807E-003, 3.9665033E-002, 2.1512939E-003, 3.1868614E+002
 9.6010330E+001, 8.4977975E-002, 1.1926035E-001, 6.0552548E-002, 6.6661062E-003, 3.9282977E-002, 2.1570727E-003, 3.2033561E+002
 9.7009205E+001, 8.5096193E-002, 1.1872676E-001, 6.0584529E-002, 6.9374772E-003, 3.9655471E-002, 2.2125774E-003, 3.2410546E+002
 9.8005055E+001, 8.5239176E-002, 1.1821345E-001, 6.0559423E-002, 7.1403335E-003, 4.0230709E-002, 2.2533804E-003, 3.2574398E+002
 9.9010670E+001, 8.5088054E-002, 1.1845084E-001, 6.0604051E-002, 7.0823880E-003, 4.0119858E-002, 2.2422718E-003, 3.2383401E+002
 1.0001167E+002, 8.5291730E-002, 1.1809860E-001, 6.0519167E-002, 7.1495879E-003, 4.0483768E-002, 2.2546921E-003, 3.1613464E+002
 1.0100494E+002, 8.6411071E-002, 1.1653751E-001, 5.9978908E-002, 7.2736888E-003, 4.2186361E-002, 2.2721494E-003, 3.1561994E+002
 1.0200488E+002, 8.6605591E-002, 1.1621739E-001, 5.9915561E-002, 7.3487709E-003, 4.2393875E-002, 2.2864680E-003, 3.1211171E+002
 1.0300483E+002, 8.6178068E-002, 1.1641608E-001, 6.0171724E-002, 7.5322523E-003, 4.2231885E-002, 2.3273637E-003, 3.1876317E+002
 1.0400140E+002, 8.6430774E-002, 1.1589754E-001, 6.0124970E-002, 7.7127774E-003, 4.2489818E-002, 2.3633023E-003, 3.1175932E+002
 1.0501176E+002, 8.7095304E-002, 1.1534380E-001, 5.9728202E-002, 7.5396398E-003, 4.3220283E-002, 2.3225087E-003, 3.1134802E+002
 1.0600914E+002, 8.7443274E-002, 1.1467383E-001, 5.9585026E-002, 7.6871511E-003, 4.3966475E-002, 2.3503940E-003, 3.2064333E+002
 1.0701377E+002, 8.6485807E-002, 1.1559561E-001, 6.0104084E-002, 7.8264271E-003, 4.2987005E-002, 2.3860763E-003, 3.2112068E+002
 1.0800972E+002, 8.7475529E-002, 1.1421387E-001, 5.9694281E-002, 8.0067454E-003, 4.4082863E-002, 2.4167752E-003, 3.1126088E+002
 1.0900568E+002, 8.7477030E-002, 1.1428751E-001, 5.9620645E-002, 7.8975909E-003, 4.4377359E-002, 2.3936020E-003, 3.1651471E+002
 1.1000544E+002, 8.7608483E-002, 1.1374141E-001, 5.9622711E-002, 8.1435057E-003, 4.4901061E-002, 2.4435239E-003, 3.2499516E+002
 1.1100435E+002, 8.7844024E-002, 1.1345036E-001, 5.9461908E-002, 8.1041618E-003, 4.5471030E-002, 2.4332605E-003, 3.2183982E+002
 1.1200433E+002, 8.8044296E-002, 1.1319406E-001, 5.9360644E-002, 8.1112353E-003, 4.5757831E-002, 2.4332486E-003, 3.1161339E+002
 1.1300073E+002, 8.8432653E-002, 1.1260290E-001, 5.9189232E-002, 8.1931786E-003, 4.6349702E-002, 2.4474210E-003, 3.1418751E+002
 1.1400780E+002, 8.7965787E-002, 1.1297359E-001, 5.9424069E-002, 8.2778631E-003, 4.6139746E-002, 2.4679756E-003, 3.2045388E+002
 1.1500270E+002, 8.8694519E-002, 1.1195402E-001, 5.9141173E-002, 8.4310317E-003, 4.6836537E-002, 2.4949796E-003, 3.1262008E+002
 1.1600022E+002, 8.9295594E-002, 1.1108547E-001, 5.8841255E-002, 8.5012388E-003, 4.7870566E-002, 2.5049438E-003, 3.1406722E+002
 1.1700622E+002, 8.7523587E-002, 1.1313573E-001, 5.9635204E-002, 8.4317793E-003, 4.6385391E-002, 2.5022557E-003, 3.2148308E+002
 1.1801353E+002, 8.8347790E-002, 1.1196037E-001, 5.9290468E-002, 8.5895226E-003, 4.7368175E-002, 2.5293124E-003, 3.1343027E+002
 1.1900107E+002, 8.9337244E-002, 1.1065674E-001, 5.8803929E-002, 8.6555108E-003, 4.8775874E-002, 2.5357452E-003, 3.0368106E+002
 1.2000415E+002, 8.9989503E-002, 1.0971744E-001, 5.8496797E-002, 8.7491243E-003, 4.9780242E-002, 2.5503477E-003, 3.0935552E+002
 1.2101046E+002, 8.9421586E-002, 1.1030729E-001, 5.8833103E-002, 8.8415591E-003, 4.8940857E-002, 2.5738967E-003, 3.1499717E+002
 1.2200885E+002, 9.0050983E-002, 1.0900171E-001, 5.8652802E-002, 9.2317661E-003, 4.9999181E-002, 2.6504677E-003, 3.1796417E+002
 1.2300382E+002, 8.9491927E-002, 1.0976997E-001, 5.8869849E-002, 9.1205654E-003, 4.9492196E-002, 2.6310316E-003, 3.2069005E+002
 1.2400758E+002, 8.8822025E-002, 1.1046320E-001, 5.9152691E-002, 9.1134539E-003, 4.9198738E-002, 2.6336663E-003, 3.2760043E+002
 1.2500585E+002, 8.9024057E-002, 1.1010901E-001, 5.9073525E-002, 9.1874612E-003, 4.9538664E-002, 2.6475476E-003, 3.2155820E+002
 1.2600868E+002, 8.9097873E-002, 1.0990117E-001, 5.9112568E-002, 9.3199487E-003, 4.9406057E-002, 2.6749619E-003, 3.1950615E+002
 1.2700841E+002, 8.9584065E-002, 1.0933035E-001, 5.8819027E-002, 9.2647546E-003, 5.0289845E-002, 2.6595854E-003, 3.1047229E+002
 1.2800873E+002, 9.0184870E-002, 1.0864361E-001, 5.8552740E-002, 9.2875017E-003, 5.0759040E-002, 2.6603735E-003, 3.0599718E+002
 1.2901035E+002, 9.0407133E-002, 1.0814125E-001, 5.8453900E-002, 9.4077228E-003, 5.1428581E-002, 2.6833630E-003, 3.0223562E+002
 1.3000265E+002, 9.1145174E-002, 1.0711197E-001, 5.8071871E-002, 9.4629498E-003, 5.2707896E-002, 2.6891190E-003, 3.0650128E+002
 1.3101166E+002, 9.1387823E-002, 1.0661846E-001, 5.8049040E-002, 9.6570349E-003, 5.2812813E-002, 2.7281417E-003, 3.0355630E+002
 1.3200975E+002, 9.0751213E-002, 1.0746103E-001, 5.8316370E-002, 9.5657637E-003, 5.2177139E-002, 2.7134649E-003, 3.0932207E+002
 1.3300800E+002, 9.0062971E-002, 1.0775265E-001, 5.8724335E-002, 9.8693414E-003, 5.1999353E-002, 2.7809053E-003, 3.2405277E+002
 1.3400560E+002, 9.0099325E-002, 1.0753029E-001, 5.8759367E-002, 1.0005068E-002, 5.2076761E-002, 2.8089338E-003, 3.1991715E+002
 1.3500432E+002, 9.0587267E-002, 1.0665091E-001, 5.8582003E-002, 1.0208889E-002, 5.2861398E-002, 2.8477418E-003, 3.1050369E+002
 1.3601023E+002, 9.2220641E-002, 1.0483208E-001, 5.7730270E-002, 1.0117310E-002, 5.4817362E-002, 2.8169815E-003, 3.0178535E+002
 1.3700707E+002, 9.2199913E-002, 1.0506544E-001, 5.7670498E-002, 9.9507858E-003, 5.4802941E-002, 2.7823558E-003, 3.0231246E+002
 1.3800606E+002, 9.2048308E-002, 1.0515029E-001, 5.7783628E-002, 1.0032313E-002, 5.4581457E-002, 2.8005060E-003, 3.0746279E+002
 1.3901101E+002, 9.2169761E-002, 1.0472544E-001, 5.7840794E-002, 1.0280447E-002, 5.4571096E-002, 2.8516362E-003, 3.0619289E+002
 1.4001374E+002, 9.2401191E-002, 1.0405170E-001, 5.7797145E-002, 1.0534730E-002, 5.5207964E-002, 2.9026008E-003, 3.0906454E+002
 1.4100427E+002, 9.2092257E-002, 1.0441662E-001, 5.7953973E-002, 1.0538214E-002, 5.4822354E-002, 2.9055507E-003, 3.0563350E+002
 1.4200206E+002, 9.2090466E-002, 1.0455817E-001, 5.7863934E-002, 1.0381562E-002, 5.5095172E-002, 2.8725092E-003, 3.0607455E+002
 1.4300201E+002, 9.2497964E-002, 1.0401212E-001, 5.7637821E-002, 1.0386362E-002, 5.5849466E-002, 2.8702624E-003, 3.0660600E+002
 1.4400735E+002, 9.3165253E-002, 1.0310096E-001, 5.7378615E-002, 1.0516310E-002, 5.6443834E-002, 2.8928945E-003, 3.0572315E+002
 1.4500956E+002, 9.3291578E-002, 1.0265278E-001, 5.7447068E-002, 1.0786502E-002, 5.6390941E-002, 2.9486569E-003, 3.0074916E+002
 1.4600862E+002, 9.3593878E-002, 1.0209826E-001, 5.7299845E-002, 1.0878694E-002, 5.7123166E-002, 2.9652678E-003, 3.0350397E+002
 1.4700627E+002, 9.3009417E-002, 1.0234694E-001, 5.7721792E-002, 1.1213808E-002, 5.6511525E-002, 3.0392718E-003, 3.1339169E+002
 1.4800546E+002, 9.2871541E-002, 1.0227412E-001, 5.7873143E-002, 1.1405625E-002, 5.6314084E-002, 3.0803360E-003, 3.1360133E+002
 1.4900114E+002, 9.2638180E-002, 1.0258281E-001, 5.7955152E-002, 1.1355779E-002, 5.6178518E-002, 3.0714091E-003, 3.1454079E+002
 1.5000696E+002, 9.3328934E-002, 1.0154758E-001, 5.7646148E-002, 1.1489952E-002, 5.7223998E-002, 3.0942100E-003, 3.0819379E+002
 1.5101205E+002, 9.3057387E-002, 1.0192154E-001, 5.7755532E-002, 1.1439654E-002, 5.6952093E-002, 3.0855780E-003, 3.0932978E+002
 1.5200779E+002, 9.3628855E-002, 1.0102350E-001, 5.7609619E-002, 1.1682486E-002, 5.7233236E-002, 3.1327127E-003, 3.0349854E+002
 1.5300088E+002, 9.4429110E-002, 1.0010274E-001, 5.7210091E-002, 1.1669311E-002, 5.8142569E-002, 3.1243207E-003, 3.0335231E+002
 1.5400196E+002, 9.3984618E-002, 1.0096864E-001, 5.7296424E-002, 1.1376852E-002, 5.7755855E-002, 3.0662542E-003, 3.0275884E+002
