s,,,,,,,
Time,"O2 EXHAUST","CO2 EXHAUST","H2O EXHAUST","CO EXHAUST","FUEL EXHAUST","SOOT EXHAUST","TEMP EXHAUST"
 0.0000000E+000, 2.3099739E-001, 5.9146498E-004, 5.9412091E-003, 0.0000000E+000, 0.0000000E+000, 0.0000000E+000, 2.0000000E+001
 1.0010326E+000, 2.3099739E-001, 5.9146498E-004, 5.9412091E-003, 2.3643104E-026, 7.8536320E-026, 6.8942422E-027, 2.1889753E+001
 2.0003403E+000, 2.1960101E-001, 9.1232633E-003, 1.0866309E-002, 1.2464323E-004, 1.2931821E-004, 9.4428201E-005, 1.3068629E+002
 3.0045678E+000, 2.1178927E-001, 1.5002761E-002, 1.4240843E-002, 1.9488286E-004, 1.6496040E-004, 1.5611366E-004, 1.9813526E+002
 4.0058113E+000, 2.0282276E-001, 2.1845227E-002, 1.8091037E-002, 2.1549553E-004, 1.6445801E-004, 2.1467509E-004, 2.7119391E+002
 5.0032805E+000, 1.9231746E-001, 2.9928922E-002, 2.2586607E-002, 1.9771134E-004, 1.2709074E-004, 2.7474249E-004, 3.4151437E+002
 6.0017251E+000, 1.7666329E-001, 4.2044889E-002, 2.9267366E-002, 1.2563375E-004, 4.5475759E-005, 3.5494428E-004, 4.2941949E+002
 7.0003838E+000, 1.6931961E-001, 4.7731839E-002, 3.2400455E-002, 8.9664107E-005, 7.1474984E-006, 3.9212649E-004, 4.6719385E+002
 8.0040247E+000, 1.5812835E-001, 5.6299889E-002, 3.7198074E-002, 9.6819279E-005, 4.0022644E-007, 4.6141981E-004, 5.0082080E+002
 9.0035549E+000, 1.4637586E-001, 6.5284165E-002, 4.2239387E-002, 1.1276575E-004, 6.5041701E-007, 5.3590632E-004, 5.2375878E+002
 1.0001620E+001, 1.3657596E-001, 7.2777788E-002, 4.6442594E-002, 1.2474850E-004, 1.3893647E-007, 5.9774902E-004, 5.3875429E+002
 1.1000612E+001, 1.2304914E-001, 8.3117732E-002, 5.2245124E-002, 1.4351247E-004, 1.2088540E-006, 6.8356406E-004, 5.6071534E+002
 1.2002092E+001, 1.1229427E-001, 9.1340181E-002, 5.6858320E-002, 1.5760137E-004, 9.5789882E-007, 7.5162509E-004, 5.7044624E+002
 1.3004685E+001, 1.0490706E-001, 9.6977863E-002, 6.0029031E-002, 1.7338122E-004, 8.0525386E-006, 7.9961499E-004, 5.7613165E+002
 1.4002080E+001, 9.2717243E-002, 1.0615073E-001, 6.5285014E-002, 2.7630748E-004, 1.2792863E-004, 8.9441298E-004, 5.9970882E+002
 1.5007492E+001, 9.1095966E-002, 1.0731732E-001, 6.5997495E-002, 3.2433627E-004, 1.6608018E-004, 9.1402904E-004, 5.7155212E+002
 1.6003794E+001, 8.6396165E-002, 1.1047576E-001, 6.8096359E-002, 5.8983606E-004, 5.0943761E-004, 9.9644971E-004, 5.8384777E+002
 1.7001975E+001, 8.3754476E-002, 1.1202501E-001, 6.9315982E-002, 8.7146050E-004, 9.0114913E-004, 1.0696360E-003, 5.6225619E+002
 1.8006778E+001, 8.1700720E-002, 1.1353745E-001, 7.0228431E-002, 9.2423937E-004, 8.1971383E-004, 1.0930139E-003, 5.5463035E+002
 1.9000591E+001, 7.8335627E-002, 1.1551340E-001, 7.1775310E-002, 1.2767433E-003, 1.3555408E-003, 1.1849109E-003, 5.5253841E+002
 2.0001983E+001, 7.7948265E-002, 1.1573584E-001, 7.2001933E-002, 1.3566615E-003, 1.1262954E-003, 1.2039605E-003, 5.5157991E+002
 2.1002090E+001, 7.6330432E-002, 1.1706142E-001, 7.2667414E-002, 1.2970460E-003, 1.1277501E-003, 1.2015425E-003, 5.4576156E+002
 2.2005220E+001, 7.2960996E-002, 1.1847217E-001, 7.4366281E-002, 2.0205441E-003, 1.8546335E-003, 1.3692435E-003, 5.4013174E+002
 2.3005450E+001, 7.1898314E-002, 1.1936046E-001, 7.4799855E-002, 1.9707463E-003, 1.8429071E-003, 1.3654922E-003, 5.3842963E+002
 2.4003396E+001, 7.1361461E-002, 1.1945134E-001, 7.5094490E-002, 2.1646915E-003, 2.0743741E-003, 1.4081756E-003, 5.2943826E+002
 2.5002751E+001, 7.0383765E-002, 1.2005148E-001, 7.5549629E-002, 2.2597205E-003, 2.1433298E-003, 1.4334825E-003, 5.2805323E+002
 2.6007646E+001, 6.8466743E-002, 1.2023334E-001, 7.6620566E-002, 3.0309714E-003, 3.1344154E-003, 1.6018005E-003, 5.2464690E+002
 2.7001896E+001, 6.7631070E-002, 1.2089163E-001, 7.7016297E-002, 3.0517906E-003, 2.8652381E-003, 1.6115088E-003, 5.2582448E+002
 2.8001786E+001, 6.6488093E-002, 1.2099574E-001, 7.7617807E-002, 3.4853117E-003, 3.6939193E-003, 1.7061368E-003, 5.2016577E+002
 2.9006590E+001, 6.7172355E-002, 1.2042062E-001, 7.7334900E-002, 3.5159478E-003, 3.7307661E-003, 1.7082183E-003, 5.1940829E+002
 3.0007195E+001, 6.5852555E-002, 1.2097035E-001, 7.7958504E-002, 3.7686817E-003, 4.2802956E-003, 1.7672514E-003, 5.1298608E+002
 3.1004166E+001, 6.6286218E-002, 1.2046098E-001, 7.7787389E-002, 3.8596702E-003, 4.5386318E-003, 1.7829124E-003, 5.0005193E+002
 3.2001952E+001, 6.5798563E-002, 1.2033437E-001, 7.8108444E-002, 4.1709473E-003, 4.8303965E-003, 1.8492637E-003, 5.0756683E+002
 3.3006186E+001, 6.4581274E-002, 1.2056127E-001, 7.8753669E-002, 4.5838627E-003, 5.4556527E-003, 1.9404030E-003, 4.9759610E+002
 3.4001013E+001, 6.4795606E-002, 1.2009113E-001, 7.8696468E-002, 4.7482070E-003, 5.8444155E-003, 1.9722468E-003, 4.9350133E+002
 3.5000539E+001, 6.4465260E-002, 1.2002211E-001, 7.8918232E-002, 4.9547875E-003, 5.9825587E-003, 2.0163994E-003, 4.9602303E+002
 3.6008289E+001, 6.4025117E-002, 1.1988063E-001, 7.9125132E-002, 5.1847144E-003, 6.8129109E-003, 2.0650339E-003, 4.8961803E+002
 3.7006523E+001, 6.3559939E-002, 1.1985800E-001, 7.9427618E-002, 5.4345081E-003, 6.9210498E-003, 2.1189034E-003, 4.8676967E+002
 3.8002242E+001, 6.3658002E-002, 1.1979622E-001, 7.9326232E-002, 5.3831302E-003, 7.2625239E-003, 2.1072998E-003, 4.8333547E+002
 3.9003507E+001, 6.3415764E-002, 1.1950538E-001, 7.9548057E-002, 5.6881444E-003, 7.4707322E-003, 2.1709971E-003, 4.8867423E+002
 4.0005372E+001, 6.3517372E-002, 1.1898723E-001, 7.9581309E-002, 5.9452994E-003, 7.8633174E-003, 2.2225426E-003, 4.8268556E+002
 4.1002256E+001, 6.3268633E-002, 1.1895357E-001, 7.9644092E-002, 6.0130176E-003, 8.5766923E-003, 2.2369320E-003, 4.8070487E+002
 4.2000319E+001, 6.3047882E-002, 1.1882873E-001, 7.9772270E-002, 6.1712720E-003, 8.9481934E-003, 2.2701882E-003, 4.7764066E+002
 4.3006192E+001, 6.2595410E-002, 1.1914131E-001, 8.0004073E-002, 6.2157050E-003, 8.7802741E-003, 2.2822728E-003, 4.8367127E+002
 4.4007463E+001, 6.3041593E-002, 1.1846189E-001, 7.9829003E-002, 6.3801225E-003, 9.3463026E-003, 2.3124785E-003, 4.7699389E+002
 4.5003694E+001, 6.3031894E-002, 1.1831095E-001, 7.9860647E-002, 6.4725293E-003, 9.4883216E-003, 2.3312797E-003, 4.7626936E+002
 4.6003915E+001, 6.2785734E-002, 1.1843974E-001, 7.9951301E-002, 6.4882331E-003, 9.6979638E-003, 2.3356968E-003, 4.7791452E+002
 4.7004971E+001, 6.2988966E-002, 1.1798374E-001, 7.9866076E-002, 6.6250074E-003, 1.0278675E-002, 2.3616879E-003, 4.7409212E+002
 4.8001571E+001, 6.3458461E-002, 1.1758811E-001, 7.9662567E-002, 6.6393133E-003, 1.0364187E-002, 2.3616556E-003, 4.7161621E+002
 4.9006210E+001, 6.2746030E-002, 1.1771423E-001, 8.0013751E-002, 6.8637934E-003, 1.0907069E-002, 2.4112260E-003, 4.7219202E+002
 5.0006544E+001, 6.3046588E-002, 1.1726383E-001, 7.9967588E-002, 7.0260739E-003, 1.0829433E-002, 2.4427771E-003, 4.6660455E+002
 5.1002936E+001, 6.3464814E-002, 1.1696055E-001, 7.9718271E-002, 6.9647043E-003, 1.1230126E-002, 2.4271025E-003, 4.6923480E+002
 5.2005955E+001, 6.3429402E-002, 1.1693117E-001, 7.9709660E-002, 6.9720302E-003, 1.1488877E-002, 2.4284565E-003, 4.6295945E+002
 5.3007186E+001, 6.3792943E-002, 1.1617337E-001, 7.9585963E-002, 7.2125488E-003, 1.2235402E-002, 2.4745092E-003, 4.6246135E+002
 5.4001813E+001, 6.3814340E-002, 1.1613322E-001, 7.9526210E-002, 7.1846284E-003, 1.2595615E-002, 2.4681523E-003, 4.6263307E+002
 5.5000926E+001, 6.3702876E-002, 1.1608308E-001, 7.9614219E-002, 7.2765045E-003, 1.2613511E-002, 2.4876351E-003, 4.6366475E+002
 5.6005561E+001, 6.4525366E-002, 1.1527356E-001, 7.9194395E-002, 7.3057222E-003, 1.3385036E-002, 2.4875600E-003, 4.6027949E+002
 5.7007802E+001, 6.4457021E-002, 1.1516878E-001, 7.9251806E-002, 7.3980708E-003, 1.3520636E-002, 2.5067136E-003, 4.5652967E+002
 5.8001494E+001, 6.4982816E-002, 1.1494262E-001, 7.9020798E-002, 7.3139217E-003, 1.3207853E-002, 2.4867166E-003, 4.5532446E+002
 5.9008099E+001, 6.5093460E-002, 1.1427011E-001, 7.8992263E-002, 7.5933285E-003, 1.4249935E-002, 2.5418593E-003, 4.5284262E+002
 6.0000789E+001, 6.5339861E-002, 1.1369654E-001, 7.8932947E-002, 7.8021044E-003, 1.4722210E-002, 2.5824992E-003, 4.5162604E+002
 6.1009179E+001, 6.5674410E-002, 1.1368966E-001, 7.8774395E-002, 7.6779412E-003, 1.4324645E-002, 2.5555779E-003, 4.5216115E+002
 6.2009506E+001, 6.5946141E-002, 1.1346887E-001, 7.8577762E-002, 7.6223179E-003, 1.4846421E-002, 2.5417994E-003, 4.5077010E+002
 6.3001879E+001, 6.6239801E-002, 1.1294713E-001, 7.8472184E-002, 7.7715220E-003, 1.5306250E-002, 2.5699595E-003, 4.4948308E+002
 6.4004269E+001, 6.6400958E-002, 1.1249003E-001, 7.8476096E-002, 7.9776419E-003, 1.5512204E-002, 2.6109444E-003, 4.4621954E+002
 6.5001816E+001, 6.6377250E-002, 1.1268808E-001, 7.8439029E-002, 7.8604702E-003, 1.5450020E-002, 2.5871577E-003, 4.4718191E+002
 6.6005712E+001, 6.6830271E-002, 1.1207473E-001, 7.8218017E-002, 7.9598876E-003, 1.6141884E-002, 2.6038222E-003, 4.4631014E+002
 6.7007549E+001, 6.6936899E-002, 1.1198077E-001, 7.8203927E-002, 7.9895216E-003, 1.5970368E-002, 2.6094904E-003, 4.4273221E+002
 6.8009790E+001, 6.6862642E-002, 1.1137153E-001, 7.8325025E-002, 8.3580828E-003, 1.6730812E-002, 2.6844224E-003, 4.4458991E+002
 6.9008825E+001, 6.7009612E-002, 1.1142792E-001, 7.8226247E-002, 8.2545067E-003, 1.6619426E-002, 2.6624570E-003, 4.4244855E+002
 7.0005584E+001, 6.6883422E-002, 1.1151156E-001, 7.8247761E-002, 8.2355550E-003, 1.6846770E-002, 2.6590188E-003, 4.4228703E+002
 7.1009090E+001, 6.6925077E-002, 1.1106864E-001, 7.8316925E-002, 8.4873166E-003, 1.7118215E-002, 2.7099917E-003, 4.4008493E+002
 7.2007729E+001, 6.6899916E-002, 1.1131347E-001, 7.8256782E-002, 8.3314580E-003, 1.7112793E-002, 2.6782043E-003, 4.4154660E+002
 7.3002029E+001, 6.7091939E-002, 1.1047755E-001, 7.8278644E-002, 8.7215263E-003, 1.7825982E-002, 2.7559973E-003, 4.3951201E+002
 7.4010091E+001, 6.7160056E-002, 1.1047270E-001, 7.8237035E-002, 8.6906782E-003, 1.7809608E-002, 2.7492843E-003, 4.4096445E+002
 7.5004993E+001, 6.7157302E-002, 1.1056609E-001, 7.8160966E-002, 8.5905304E-003, 1.8108155E-002, 2.7283551E-003, 4.4371880E+002
 7.6002302E+001, 6.7180136E-002, 1.1066131E-001, 7.8106887E-002, 8.5058761E-003, 1.8160301E-002, 2.7107916E-003, 4.4099257E+002
 7.7005751E+001, 6.7246675E-002, 1.1045432E-001, 7.8071681E-002, 8.5710939E-003, 1.8509428E-002, 2.7232678E-003, 4.4054037E+002
 7.8003624E+001, 6.7139730E-002, 1.1031764E-001, 7.8161267E-002, 8.7031130E-003, 1.8669388E-002, 2.7507528E-003, 4.3907469E+002
 7.9008669E+001, 6.7051569E-002, 1.1036847E-001, 7.8163312E-002, 8.6833854E-003, 1.8923647E-002, 2.7468874E-003, 4.4362577E+002
 8.0002671E+001, 6.6974692E-002, 1.1013946E-001, 7.8214584E-002, 8.8272238E-003, 1.9377788E-002, 2.7762011E-003, 4.4023747E+002
 8.1001495E+001, 6.7266088E-002, 1.1011203E-001, 7.8030329E-002, 8.6934970E-003, 1.9359689E-002, 2.7470497E-003, 4.4044235E+002
 8.2005874E+001, 6.7141051E-002, 1.1009053E-001, 7.8056979E-002, 8.7258534E-003, 1.9757736E-002, 2.7538826E-003, 4.4076430E+002
 8.3006390E+001, 6.7004324E-002, 1.1015305E-001, 7.8149257E-002, 8.7706610E-003, 1.9632258E-002, 2.7640713E-003, 4.4075932E+002
 8.4008300E+001, 6.6990744E-002, 1.1031507E-001, 7.8098365E-002, 8.6589909E-003, 1.9684584E-002, 2.7411905E-003, 4.3710791E+002
 8.5009969E+001, 6.7270069E-002, 1.1003913E-001, 7.7908964E-002, 8.6336173E-003, 2.0238688E-002, 2.7335213E-003, 4.3912185E+002
 8.6003391E+001, 6.6876365E-002, 1.1015518E-001, 7.8146546E-002, 8.7699952E-003, 2.0177756E-002, 2.7639466E-003, 4.3715119E+002
 8.7006691E+001, 6.7177453E-002, 1.1012430E-001, 7.7927077E-002, 8.6107545E-003, 2.0344241E-002, 2.7292484E-003, 4.4027292E+002
 8.8007791E+001, 6.7365761E-002, 1.0974970E-001, 7.7817737E-002, 8.6926881E-003, 2.0975996E-002, 2.7440174E-003, 4.3949447E+002
 8.9007472E+001, 6.7307065E-002, 1.0997793E-001, 7.7810475E-002, 8.5853174E-003, 2.0815392E-002, 2.7225894E-003, 4.4436406E+002
 9.0002401E+001, 6.7448540E-002, 1.0946824E-001, 7.7789015E-002, 8.7961391E-003, 2.1364182E-002, 2.7641774E-003, 4.3738106E+002
 9.1010915E+001, 6.7321984E-002, 1.0984551E-001, 7.7822946E-002, 8.6542728E-003, 2.0937114E-002, 2.7364629E-003, 4.3890035E+002
 9.2006451E+001, 6.7416120E-002, 1.0956827E-001, 7.7790372E-002, 8.7526687E-003, 2.1293541E-002, 2.7555624E-003, 4.4045956E+002
 9.3006693E+001, 6.7292903E-002, 1.0968727E-001, 7.7796589E-002, 8.7060369E-003, 2.1533541E-002, 2.7464147E-003, 4.3733601E+002
 9.4002561E+001, 6.7385704E-002, 1.0955343E-001, 7.7748938E-002, 8.7282810E-003, 2.1706139E-002, 2.7501702E-003, 4.3601118E+002
 9.5008914E+001, 6.7563464E-002, 1.0943041E-001, 7.7672779E-002, 8.7223097E-003, 2.1680198E-002, 2.7479053E-003, 4.3764961E+002
 9.6009873E+001, 6.7555828E-002, 1.0936446E-001, 7.7662823E-002, 8.7445853E-003, 2.1903718E-002, 2.7522047E-003, 4.3543939E+002
 9.7004436E+001, 6.7643319E-002, 1.0930910E-001, 7.7608870E-002, 8.7267257E-003, 2.1982714E-002, 2.7479032E-003, 4.3984424E+002
 9.8001029E+001, 6.7507648E-002, 1.0937953E-001, 7.7586672E-002, 8.6805255E-003, 2.2546372E-002, 2.7384663E-003, 4.4190148E+002
 9.9005426E+001, 6.7837680E-002, 1.0922464E-001, 7.7453793E-002, 8.6427967E-003, 2.2300473E-002, 2.7290771E-003, 4.3425591E+002
 1.0000338E+002, 6.7600373E-002, 1.0912463E-001, 7.7601376E-002, 8.8049803E-003, 2.2571760E-002, 2.7633792E-003, 4.3997817E+002
 1.0100730E+002, 6.7481810E-002, 1.0963264E-001, 7.7592458E-002, 8.5712951E-003, 2.2119046E-002, 2.7168314E-003, 4.4066327E+002
 1.0200680E+002, 6.7809721E-002, 1.0937905E-001, 7.7361467E-002, 8.5031834E-003, 2.2684368E-002, 2.7000917E-003, 4.3808161E+002
 1.0300679E+002, 6.7474157E-002, 1.0959168E-001, 7.7473097E-002, 8.4987555E-003, 2.2971084E-002, 2.7008161E-003, 4.3918265E+002
 1.0400404E+002, 6.7417115E-002, 1.0947581E-001, 7.7519064E-002, 8.5871568E-003, 2.3152370E-002, 2.7190283E-003, 4.4048593E+002
 1.0500713E+002, 6.7460136E-002, 1.0948298E-001, 7.7525563E-002, 8.5880931E-003, 2.2918807E-002, 2.7192864E-003, 4.3913361E+002
 1.0600673E+002, 6.7554097E-002, 1.0950663E-001, 7.7404356E-002, 8.4831331E-003, 2.3231697E-002, 2.6967647E-003, 4.4036125E+002
 1.0700000E+002, 6.7526467E-002, 1.0960105E-001, 7.7393948E-002, 8.4331211E-003, 2.3225057E-002, 2.6866901E-003, 4.4093227E+002
 1.0800426E+002, 6.7677880E-002, 1.0923219E-001, 7.7393588E-002, 8.5963678E-003, 2.3324036E-002, 2.7190958E-003, 4.3689089E+002
 1.0900642E+002, 6.7504556E-002, 1.0932041E-001, 7.7476204E-002, 8.6228842E-003, 2.3360146E-002, 2.7255308E-003, 4.3905968E+002
 1.1000179E+002, 6.7684307E-002, 1.0918148E-001, 7.7284262E-002, 8.5356316E-003, 2.4074515E-002, 2.7055568E-003, 4.3978518E+002
 1.1100440E+002, 6.7585108E-002, 1.0949158E-001, 7.7320113E-002, 8.4250153E-003, 2.3654076E-002, 2.6840727E-003, 4.3858643E+002
 1.1200033E+002, 6.7936428E-002, 1.0951583E-001, 7.7013747E-002, 8.1736327E-003, 2.4040966E-002, 2.6298746E-003, 4.3899005E+002
 1.1300641E+002, 6.7493941E-002, 1.0928723E-001, 7.7382091E-002, 8.5661726E-003, 2.4052781E-002, 2.7130010E-003, 4.3874371E+002
 1.1400347E+002, 6.7690648E-002, 1.0928523E-001, 7.7286012E-002, 8.4900691E-003, 2.3832689E-002, 2.6965177E-003, 4.3973700E+002
 1.1500845E+002, 6.7681995E-002, 1.0930581E-001, 7.7247737E-002, 8.4517193E-003, 2.4065239E-002, 2.6883838E-003, 4.3575853E+002
 1.1600979E+002, 6.7860199E-002, 1.0928905E-001, 7.7164104E-002, 8.3921168E-003, 2.3874208E-002, 2.6753542E-003, 4.4041542E+002
 1.1700115E+002, 6.7767437E-002, 1.0922454E-001, 7.7200247E-002, 8.4505194E-003, 2.4163835E-002, 2.6874820E-003, 4.3769067E+002
 1.1800705E+002, 6.7627250E-002, 1.0946711E-001, 7.7240105E-002, 8.3741737E-003, 2.4022455E-002, 2.6728804E-003, 4.3724287E+002
 1.1900583E+002, 6.7886762E-002, 1.0926750E-001, 7.7117676E-002, 8.3658868E-003, 2.4093669E-002, 2.6695095E-003, 4.3944362E+002
 1.2000969E+002, 6.7886091E-002, 1.0951338E-001, 7.6976642E-002, 8.1473301E-003, 2.4485275E-002, 2.6241663E-003, 4.3786165E+002
 1.2100833E+002, 6.8029419E-002, 1.0947782E-001, 7.6901737E-002, 8.1035147E-003, 2.4422497E-002, 2.6144045E-003, 4.3707954E+002
 1.2200973E+002, 6.7776654E-002, 1.0955630E-001, 7.6998401E-002, 8.1466171E-003, 2.4721622E-002, 2.6243525E-003, 4.4288068E+002
 1.2300553E+002, 6.7840541E-002, 1.0963741E-001, 7.7000597E-002, 8.1105411E-003, 2.4282020E-002, 2.6171860E-003, 4.3676590E+002
 1.2400194E+002, 6.7802165E-002, 1.0947872E-001, 7.6989634E-002, 8.1744314E-003, 2.4822660E-002, 2.6297577E-003, 4.4009707E+002
 1.2500907E+002, 6.8045961E-002, 1.0921046E-001, 7.6909226E-002, 8.2294849E-003, 2.4834426E-002, 2.6395486E-003, 4.4028162E+002
 1.2600251E+002, 6.8035707E-002, 1.0937400E-001, 7.6872543E-002, 8.1279180E-003, 2.4781868E-002, 2.6188655E-003, 4.3722619E+002
 1.2700411E+002, 6.7575701E-002, 1.0963443E-001, 7.7033191E-002, 8.1416687E-003, 2.5188948E-002, 2.6239018E-003, 4.4082271E+002
 1.2800779E+002, 6.7654961E-002, 1.0986047E-001, 7.6996263E-002, 8.0100829E-003, 2.4641905E-002, 2.5972152E-003, 4.3819488E+002
 1.2900216E+002, 6.7752552E-002, 1.0958614E-001, 7.6989893E-002, 8.1271121E-003, 2.4815879E-002, 2.6203685E-003, 4.3994820E+002
 1.3000728E+002, 6.7591772E-002, 1.0952913E-001, 7.7102424E-002, 8.2417219E-003, 2.4900789E-002, 2.6447163E-003, 4.4219137E+002
 1.3100902E+002, 6.7683537E-002, 1.0969703E-001, 7.6966703E-002, 8.0606767E-003, 2.5028293E-002, 2.6068717E-003, 4.4038938E+002
 1.3200362E+002, 6.7862273E-002, 1.0966324E-001, 7.6897437E-002, 8.0197130E-003, 2.4779614E-002, 2.5977401E-003, 4.3607324E+002
 1.3300207E+002, 6.8060080E-002, 1.0944098E-001, 7.6720243E-002, 7.9809650E-003, 2.5491744E-002, 2.5876021E-003, 4.3573214E+002
 1.3400881E+002, 6.7639595E-002, 1.0946741E-001, 7.7031244E-002, 8.2143134E-003, 2.5264265E-002, 2.6382996E-003, 4.4119953E+002
 1.3500590E+002, 6.8132279E-002, 1.0957707E-001, 7.6640322E-002, 7.8572327E-003, 2.5417787E-002, 2.5619059E-003, 4.3842099E+002
 1.3600181E+002, 6.7869931E-002, 1.0967763E-001, 7.6807346E-002, 7.9442873E-003, 2.5277439E-002, 2.5815363E-003, 4.3823624E+002
 1.3700535E+002, 6.7915692E-002, 1.0951809E-001, 7.6803173E-002, 8.0121913E-003, 2.5427294E-002, 2.5949680E-003, 4.4184255E+002
 1.3800366E+002, 6.7512366E-002, 1.0959319E-001, 7.7053074E-002, 8.1766202E-003, 2.5410878E-002, 2.6311391E-003, 4.4002912E+002
 1.3900911E+002, 6.7913623E-002, 1.0945650E-001, 7.6843789E-002, 8.0710182E-003, 2.5305761E-002, 2.6072088E-003, 4.3359856E+002
 1.4000324E+002, 6.7971755E-002, 1.0943521E-001, 7.6779964E-002, 8.0308019E-003, 2.5501010E-002, 2.5983398E-003, 4.3830736E+002
 1.4100511E+002, 6.7870285E-002, 1.0965437E-001, 7.6767638E-002, 7.9244439E-003, 2.5567799E-002, 2.5770603E-003, 4.3812144E+002
 1.4200762E+002, 6.8191176E-002, 1.0936454E-001, 7.6634913E-002, 7.9478455E-003, 2.5625091E-002, 2.5798323E-003, 4.3580291E+002
 1.4300141E+002, 6.8325458E-002, 1.0919618E-001, 7.6581518E-002, 7.9805024E-003, 2.5728596E-002, 2.5855676E-003, 4.3715280E+002
 1.4400737E+002, 6.8098387E-002, 1.0963499E-001, 7.6588273E-002, 7.7919990E-003, 2.5767159E-002, 2.5482508E-003, 4.4077203E+002
 1.4500379E+002, 6.8017575E-002, 1.0952478E-001, 7.6636697E-002, 7.8801638E-003, 2.6021056E-002, 2.5664569E-003, 4.4107163E+002
 1.4600247E+002, 6.8182065E-002, 1.0954276E-001, 7.6554814E-002, 7.8064855E-003, 2.5807795E-002, 2.5506563E-003, 4.3821741E+002
 1.4700855E+002, 6.7902363E-002, 1.0967863E-001, 7.6700437E-002, 7.8615985E-003, 2.5802665E-002, 2.5636553E-003, 4.3751435E+002
 1.4800752E+002, 6.8105904E-002, 1.0958399E-001, 7.6552496E-002, 7.7875335E-003, 2.6058039E-002, 2.5468828E-003, 4.3941664E+002
 1.4900520E+002, 6.8001083E-002, 1.0984387E-001, 7.6621176E-002, 7.7247373E-003, 2.5556687E-002, 2.5353480E-003, 4.3774487E+002
 1.5000309E+002, 6.8165471E-002, 1.0971729E-001, 7.6466161E-002, 7.6603948E-003, 2.6081918E-002, 2.5204279E-003, 4.3656253E+002
 1.5100214E+002, 6.7923007E-002, 1.0955106E-001, 7.6666004E-002, 7.8924399E-003, 2.6181530E-002, 2.5693216E-003, 4.3694002E+002
 1.5200633E+002, 6.7850894E-002, 1.0976744E-001, 7.6677105E-002, 7.8046860E-003, 2.5986424E-002, 2.5520442E-003, 4.4062615E+002
 1.5300106E+002, 6.7933729E-002, 1.0980177E-001, 7.6591335E-002, 7.7221768E-003, 2.6105061E-002, 2.5344637E-003, 4.4126281E+002
 1.5400631E+002, 6.8017135E-002, 1.0966544E-001, 7.6600395E-002, 7.7890262E-003, 2.5970410E-002, 2.5478494E-003, 4.4012607E+002
