s,,,,,,,
Time,"O2 EXHAUST","CO2 EXHAUST","H2O EXHAUST","CO EXHAUST","FUEL EXHAUST","SOOT EXHAUST","TEMP EXHAUST"
 0.0000000E+000, 2.3099739E-001, 5.9146498E-004, 5.9412092E-003, 0.0000000E+000, 0.0000000E+000, 0.0000000E+000, 2.0000000E+001
 1.0006491E+000, 2.3099739E-001, 5.9146498E-004, 5.9412092E-003, 8.8835193E-032, 1.0850958E-030, 2.7508141E-032, 2.0520896E+001
 2.0033066E+000, 2.2331317E-001, 6.8519858E-003, 9.4708834E-003, 3.6310355E-005, 2.7131867E-004, 4.9850929E-005, 9.5557723E+001
 3.0060001E+000, 2.1911412E-001, 1.0266701E-002, 1.1417514E-002, 7.2473355E-005, 3.3460191E-004, 8.0548316E-005, 1.3380875E+002
 4.0056823E+000, 2.1254516E-001, 1.5640516E-002, 1.4448490E-002, 1.0407420E-004, 4.4816244E-004, 1.2343106E-004, 1.9262691E+002
 5.0006156E+000, 2.0804641E-001, 1.9339644E-002, 1.6526786E-002, 1.1926461E-004, 4.7430181E-004, 1.5154269E-004, 2.2943309E+002
 6.0019759E+000, 2.0053043E-001, 2.5549243E-002, 1.9997814E-002, 1.3067699E-004, 4.6507563E-004, 1.9571214E-004, 2.8764009E+002
 7.0051357E+000, 1.9458874E-001, 3.0484988E-002, 2.2742023E-002, 1.2797780E-004, 4.0290367E-004, 2.2829671E-004, 3.2649302E+002
 8.0031168E+000, 1.8874461E-001, 3.5346809E-002, 2.5440480E-002, 1.2164031E-004, 3.3129688E-004, 2.5960448E-004, 3.6297985E+002
 9.0059527E+000, 1.8129317E-001, 4.1561045E-002, 2.8880595E-002, 1.0641124E-004, 2.1211426E-004, 2.9809262E-004, 3.9857059E+002
 1.0006437E+001, 1.7311046E-001, 4.8377930E-002, 3.2656913E-002, 9.1820128E-005, 1.0334413E-004, 3.4076682E-004, 4.3207630E+002
 1.1005130E+001, 1.6655294E-001, 5.3829052E-002, 3.5682798E-002, 8.5069805E-005, 4.2190725E-005, 3.7594566E-004, 4.5127928E+002
 1.2006316E+001, 1.5835116E-001, 6.0624906E-002, 3.9467613E-002, 8.6588722E-005, 8.7909903E-006, 4.2193290E-004, 4.7047624E+002
 1.3006675E+001, 1.4962107E-001, 6.7844258E-002, 4.3496460E-002, 9.4704888E-005, 4.7676106E-007, 4.7218022E-004, 4.9030195E+002
 1.4000843E+001, 1.4741910E-001, 6.9664305E-002, 4.4512641E-002, 9.7135207E-005, 1.4419614E-007, 4.8493028E-004, 4.8718752E+002
 1.5007582E+001, 1.4052681E-001, 7.5360489E-002, 4.7693415E-002, 1.0509035E-004, 8.8878055E-008, 5.2490886E-004, 4.9467974E+002
 1.6005092E+001, 1.3381318E-001, 8.0908902E-002, 5.0791775E-002, 1.1291868E-004, 8.5354330E-008, 5.6386737E-004, 5.0275528E+002
 1.7004260E+001, 1.2779384E-001, 8.5883491E-002, 5.3569728E-002, 1.1996032E-004, 9.9895571E-008, 5.9880165E-004, 5.0544127E+002
 1.8003993E+001, 1.2553019E-001, 8.7754426E-002, 5.4614359E-002, 1.2248896E-004, 6.1845821E-008, 6.1191472E-004, 5.0185148E+002
 1.9002730E+001, 1.1928920E-001, 9.2912167E-002, 5.7494606E-002, 1.2980296E-004, 8.9912607E-008, 6.4813801E-004, 5.0678872E+002
 2.0009624E+001, 1.1525022E-001, 9.6250257E-002, 5.9358572E-002, 1.3443558E-004, 5.9471355E-008, 6.7156006E-004, 5.0906810E+002
 2.1006419E+001, 1.1170178E-001, 9.9182854E-002, 6.0996177E-002, 1.3855412E-004, 5.2603464E-008, 6.9214737E-004, 5.0836355E+002
 2.2001288E+001, 1.0799458E-001, 1.0224658E-001, 6.2707070E-002, 1.4290526E-004, 9.5850555E-008, 7.1366564E-004, 5.0850632E+002
 2.3008086E+001, 1.0528840E-001, 1.0448313E-001, 6.3955959E-002, 1.4602359E-004, 8.6398942E-008, 7.2936169E-004, 5.0765320E+002
 2.4005703E+001, 1.0264861E-001, 1.0666475E-001, 6.5174235E-002, 1.4910781E-004, 8.3321929E-008, 7.4468140E-004, 5.0291468E+002
 2.5002418E+001, 9.8360204E-002, 1.1020849E-001, 6.7153457E-002, 1.5435919E-004, 2.2781003E-007, 7.6961785E-004, 5.0618633E+002
 2.6000636E+001, 9.6238137E-002, 1.1196215E-001, 6.8132831E-002, 1.5690212E-004, 2.3752169E-007, 7.8194602E-004, 5.0523335E+002
 2.7004458E+001, 9.2598338E-002, 1.1496345E-001, 6.9814752E-002, 1.6577152E-004, 2.0477629E-006, 8.0401360E-004, 5.0713597E+002
 2.8006835E+001, 9.0640484E-002, 1.1657791E-001, 7.0719349E-002, 1.7043905E-004, 3.5504157E-006, 8.1586192E-004, 5.0695468E+002
 2.9009044E+001, 8.8049677E-002, 1.1870515E-001, 7.1919338E-002, 1.8289877E-004, 7.6916237E-006, 8.3282643E-004, 5.0199750E+002
 3.0004281E+001, 8.4064270E-002, 1.2197155E-001, 7.3767385E-002, 2.0629328E-004, 1.4321894E-005, 8.5978944E-004, 5.0769995E+002
 3.1002886E+001, 8.2613091E-002, 1.2315371E-001, 7.4442446E-002, 2.1963612E-004, 1.9439148E-005, 8.7059318E-004, 5.0459840E+002
 3.2001871E+001, 7.8701693E-002, 1.2637134E-001, 7.6252171E-002, 2.3429008E-004, 2.4055631E-005, 8.9535454E-004, 5.0714810E+002
 3.3000305E+001, 7.6920324E-002, 1.2784277E-001, 7.7074191E-002, 2.3664279E-004, 2.6072082E-005, 9.0574556E-004, 5.0471232E+002
 3.4007832E+001, 7.6352106E-002, 1.2831069E-001, 7.7336980E-002, 2.3846844E-004, 2.6387823E-005, 9.0928099E-004, 5.0151074E+002
 3.5007114E+001, 7.2893115E-002, 1.3115954E-001, 7.8936913E-002, 2.4957221E-004, 2.6291246E-005, 9.3080325E-004, 5.0124302E+002
 3.6005420E+001, 7.1128877E-002, 1.3261065E-001, 7.9753165E-002, 2.5625335E-004, 2.8927741E-005, 9.4198582E-004, 4.9469541E+002
 3.7002513E+001, 6.7992648E-002, 1.3519986E-001, 8.1201401E-002, 2.6175750E-004, 2.9639733E-005, 9.6056293E-004, 5.0003433E+002
 3.8003415E+001, 6.5834135E-002, 1.3694215E-001, 8.2211231E-002, 2.9306858E-004, 3.8040596E-005, 9.7898274E-004, 5.0071664E+002
 3.9004408E+001, 6.3818184E-002, 1.3862257E-001, 8.3136503E-002, 2.8519593E-004, 3.7199152E-005, 9.8858562E-004, 5.0237837E+002
 4.0000584E+001, 6.0911333E-002, 1.4101974E-001, 8.4479778E-002, 2.9220313E-004, 3.7925929E-005, 1.0061947E-003, 5.0245452E+002
 4.1009474E+001, 5.9810491E-002, 1.4191074E-001, 8.4993936E-002, 3.0644574E-004, 4.2026487E-005, 1.0152351E-003, 4.9866406E+002
 4.2001174E+001, 5.7567403E-002, 1.4374655E-001, 8.6035055E-002, 3.2152077E-004, 4.5555235E-005, 1.0308021E-003, 4.9919456E+002
 4.3005776E+001, 5.4087882E-002, 1.4659610E-001, 8.7649800E-002, 3.4390443E-004, 4.8799609E-005, 1.0547476E-003, 4.9725373E+002
 4.4003467E+001, 5.2086539E-002, 1.4824896E-001, 8.8573856E-002, 3.4706309E-004, 4.8703480E-005, 1.0665305E-003, 5.0412847E+002
 4.5009521E+001, 5.0174390E-002, 1.4983908E-001, 8.9453141E-002, 3.4252043E-004, 4.6378013E-005, 1.0762406E-003, 5.0405275E+002
 4.6000321E+001, 4.8453565E-002, 1.5124721E-001, 9.0251978E-002, 3.5428602E-004, 4.8885494E-005, 1.0882245E-003, 5.0200130E+002
 4.7009713E+001, 4.6038797E-002, 1.5321818E-001, 9.1375295E-002, 3.7478805E-004, 4.9621243E-005, 1.1058632E-003, 5.0151607E+002
 4.8006892E+001, 4.4846871E-002, 1.5420906E-001, 9.1922768E-002, 3.7162009E-004, 5.2208407E-005, 1.1118418E-003, 5.0350846E+002
 4.9002560E+001, 4.3181447E-002, 1.5556221E-001, 9.2699152E-002, 3.8975834E-004, 5.6066420E-005, 1.1248226E-003, 5.0051070E+002
 5.0007940E+001, 3.9857628E-002, 1.5827741E-001, 9.4244924E-002, 4.1665636E-004, 5.4874996E-005, 1.1488333E-003, 5.0888393E+002
 5.1001237E+001, 3.7976677E-002, 1.5981814E-001, 9.5117767E-002, 4.2857266E-004, 5.6262531E-005, 1.1617404E-003, 5.0923394E+002
 5.2007650E+001, 3.8386925E-002, 1.5946045E-001, 9.4934242E-002, 4.4076140E-004, 6.1807968E-005, 1.1619504E-003, 5.0063800E+002
 5.3002084E+001, 3.5027343E-002, 1.6221001E-001, 9.6494623E-002, 4.6413656E-004, 6.1379493E-005, 1.1854365E-003, 5.0695619E+002
 5.4003903E+001, 3.4189302E-002, 1.6295568E-001, 9.6863106E-002, 4.2773508E-004, 5.5178924E-005, 1.1826421E-003, 5.0338000E+002
 5.5002490E+001, 3.2065259E-002, 1.6468058E-001, 9.7853349E-002, 4.5130254E-004, 6.1527133E-005, 1.1992848E-003, 5.0249633E+002
 5.6008074E+001, 3.0937637E-002, 1.6558694E-001, 9.8383289E-002, 4.7116824E-004, 6.0430935E-005, 1.2096340E-003, 5.0379113E+002
 5.7001455E+001, 2.9301593E-002, 1.6693624E-001, 9.9139370E-002, 4.7510550E-004, 6.0322542E-005, 1.2195441E-003, 5.0482208E+002
 5.8007518E+001, 2.8114742E-002, 1.6790647E-001, 9.9690311E-002, 4.8363129E-004, 6.4048456E-005, 1.2278911E-003, 5.0504894E+002
 5.9002106E+001, 2.5808263E-002, 1.6980380E-001, 1.0075813E-001, 4.9279415E-004, 6.3241736E-005, 1.2426040E-003, 5.0860245E+002
 6.0004130E+001, 2.4983753E-002, 1.7045623E-001, 1.0114900E-001, 5.1444332E-004, 6.4570047E-005, 1.2516293E-003, 5.0820214E+002
 6.1008699E+001, 2.3468578E-002, 1.7164754E-001, 1.0186884E-001, 5.5879960E-004, 7.3797212E-005, 1.2691440E-003, 5.0498969E+002
 6.2007381E+001, 2.4033542E-002, 1.7123312E-001, 1.0159067E-001, 5.2165921E-004, 6.4204600E-005, 1.2583964E-003, 5.0445635E+002
 6.3009737E+001, 2.2674040E-002, 1.7230153E-001, 1.0223703E-001, 5.6204127E-004, 7.0828799E-005, 1.2742332E-003, 5.0079548E+002
 6.4000231E+001, 1.9208799E-002, 1.7508204E-001, 1.0386593E-001, 6.2550125E-004, 7.5045034E-005, 1.3065217E-003, 5.0882251E+002
 6.5004293E+001, 1.9167228E-002, 1.7513066E-001, 1.0388023E-001, 6.1552539E-004, 7.3235715E-005, 1.3047095E-003, 5.0554424E+002
 6.6008358E+001, 1.8446423E-002, 1.7572738E-001, 1.0421280E-001, 6.1585299E-004, 7.1682180E-005, 1.3087891E-003, 5.0728790E+002
 6.7009299E+001, 1.6423761E-002, 1.7733798E-001, 1.0516782E-001, 6.6159339E-004, 7.5751576E-005, 1.3294177E-003, 5.0613032E+002
 6.8001850E+001, 1.5930696E-002, 1.7768475E-001, 1.0541618E-001, 7.0484684E-004, 8.3378667E-005, 1.3410214E-003, 4.9942403E+002
 6.9006426E+001, 1.4902371E-002, 1.7845191E-001, 1.0591975E-001, 7.6466996E-004, 9.0177227E-005, 1.3590023E-003, 5.0336505E+002
 7.0006268E+001, 1.3533384E-002, 1.7941870E-001, 1.0661112E-001, 8.8437184E-004, 9.3434891E-005, 1.3911628E-003, 5.0751207E+002
 7.1000547E+001, 1.1951561E-002, 1.8059960E-001, 1.0738626E-001, 9.7642941E-004, 9.9375114E-005, 1.4188348E-003, 5.0685707E+002
 7.2005064E+001, 1.1656601E-002, 1.8090465E-001, 1.0749886E-001, 9.3178303E-004, 1.0548891E-004, 1.4113122E-003, 5.0541118E+002
 7.3006597E+001, 9.6319516E-003, 1.8236492E-001, 1.0851127E-001, 1.0876798E-003, 1.0463088E-004, 1.4545486E-003, 5.1041539E+002
 7.4002930E+001, 9.4091090E-003, 1.8264982E-001, 1.0857685E-001, 1.0150493E-003, 1.0698515E-004, 1.4408907E-003, 5.0729069E+002
 7.5005229E+001, 8.5539654E-003, 1.8282474E-001, 1.0916328E-001, 1.3970997E-003, 1.2153049E-004, 1.5239790E-003, 5.1058950E+002
 7.6010334E+001, 8.5593356E-003, 1.8283674E-001, 1.0915246E-001, 1.3834885E-003, 1.3429184E-004, 1.5211414E-003, 4.9830406E+002
 7.7001473E+001, 7.6790883E-003, 1.8308470E-001, 1.0973156E-001, 1.7280579E-003, 1.4771190E-004, 1.5966845E-003, 4.9907829E+002
 7.8002253E+001, 7.9399877E-003, 1.8275628E-001, 1.0965149E-001, 1.8083206E-003, 1.5270056E-004, 1.6116864E-003, 4.9884520E+002
 7.9002035E+001, 6.1709296E-003, 1.8383665E-001, 1.1060585E-001, 2.0840760E-003, 1.6142535E-004, 1.6780686E-003, 4.9780868E+002
 8.0002986E+001, 6.0831579E-003, 1.8346146E-001, 1.1080057E-001, 2.3995047E-003, 2.1338359E-004, 1.7431769E-003, 4.9817696E+002
 8.1008371E+001, 5.8178203E-003, 1.8373141E-001, 1.1090611E-001, 2.3645376E-003, 2.0456580E-004, 1.7374936E-003, 4.9830746E+002
 8.2009379E+001, 5.6120818E-003, 1.8380945E-001, 1.1103102E-001, 2.4282660E-003, 2.2463898E-004, 1.7516816E-003, 4.9510123E+002
 8.3000527E+001, 4.7008771E-003, 1.8412797E-001, 1.1161503E-001, 2.7458219E-003, 1.9933924E-004, 1.8219069E-003, 4.9696207E+002
 8.4005241E+001, 4.4367424E-003, 1.8394923E-001, 1.1187009E-001, 3.0230275E-003, 2.6510092E-004, 1.8801401E-003, 4.9517102E+002
 8.5005771E+001, 4.4477883E-003, 1.8357034E-001, 1.1199014E-001, 3.2817531E-003, 3.2007641E-004, 1.9330663E-003, 4.9570162E+002
 8.6005504E+001, 4.1532273E-003, 1.8380252E-001, 1.1212886E-001, 3.2892019E-003, 3.2737691E-004, 1.9362233E-003, 4.9229596E+002
 8.7007156E+001, 3.8090658E-003, 1.8342847E-001, 1.1251711E-001, 3.7553273E-003, 3.8943525E-004, 2.0336494E-003, 4.8856050E+002
 8.8007942E+001, 4.3329719E-003, 1.8343201E-001, 1.1212032E-001, 3.4437687E-003, 3.6426953E-004, 1.9668737E-003, 5.0195326E+002
 8.9008400E+001, 4.1814016E-003, 1.8278868E-001, 1.1244999E-001, 3.9814505E-003, 4.8089385E-004, 2.0778326E-003, 4.8643271E+002
 9.0004472E+001, 3.5955299E-003, 1.8287967E-001, 1.1286876E-001, 4.2688685E-003, 4.5548029E-004, 2.1400673E-003, 4.8756499E+002
 9.1001337E+001, 3.6050915E-003, 1.8278463E-001, 1.1290490E-001, 4.3382039E-003, 4.0791392E-004, 2.1542943E-003, 4.8811171E+002
 9.2002297E+001, 3.1169259E-003, 1.8270418E-001, 1.1329349E-001, 4.6770181E-003, 4.8246038E-004, 2.2263971E-003, 4.8829054E+002
 9.3007219E+001, 2.8149477E-003, 1.8242464E-001, 1.1363075E-001, 5.0618558E-003, 4.5807767E-004, 2.3070294E-003, 4.8877306E+002
 9.4001355E+001, 3.2851474E-003, 1.8230138E-001, 1.1329664E-001, 4.8549649E-003, 5.6823291E-004, 2.2618434E-003, 4.8264573E+002
 9.5005228E+001, 3.0891461E-003, 1.8225220E-001, 1.1344030E-001, 4.9891256E-003, 6.9967838E-004, 2.2902781E-003, 4.8113643E+002
 9.6005158E+001, 2.8751292E-003, 1.8132377E-001, 1.1392238E-001, 5.7697920E-003, 8.1359702E-004, 2.4514181E-003, 4.7978962E+002
 9.7005526E+001, 2.6856522E-003, 1.8220112E-001, 1.1378901E-001, 5.2831713E-003, 5.7968893E-004, 2.3529789E-003, 4.8633389E+002
 9.8008122E+001, 2.4653968E-003, 1.8127907E-001, 1.1427805E-001, 6.0663906E-003, 6.6878244E-004, 2.5147091E-003, 4.8100106E+002
 9.9005358E+001, 2.4163306E-003, 1.8047130E-001, 1.1456446E-001, 6.6423831E-003, 9.2285676E-004, 2.6327776E-003, 4.7689446E+002
 1.0000591E+002, 2.6894821E-003, 1.8048963E-001, 1.1436916E-001, 6.4813950E-003, 8.1334680E-004, 2.5983838E-003, 4.8080445E+002
 1.0100317E+002, 2.5576824E-003, 1.7953880E-001, 1.1478977E-001, 7.2239459E-003, 9.6493930E-004, 2.7512014E-003, 4.7405044E+002
 1.0201093E+002, 2.3142330E-003, 1.7974695E-001, 1.1490016E-001, 7.2196572E-003, 9.6174469E-004, 2.7516805E-003, 4.7914784E+002
 1.0300377E+002, 2.4610486E-003, 1.7974744E-001, 1.1479851E-001, 7.1397999E-003, 9.0342465E-004, 2.7345618E-003, 4.8142692E+002
 1.0400045E+002, 2.5151913E-003, 1.7783932E-001, 1.1536736E-001, 8.4157455E-003, 1.3823620E-003, 2.9953104E-003, 4.7511347E+002
 1.0501062E+002, 2.5333227E-003, 1.7853710E-001, 1.1514136E-001, 7.9348383E-003, 1.1470411E-003, 2.8968896E-003, 4.7487169E+002
 1.0600986E+002, 2.3133805E-003, 1.7830078E-001, 1.1539550E-001, 8.2360825E-003, 1.1482061E-003, 2.9598897E-003, 4.7316970E+002
 1.0700884E+002, 2.3320880E-003, 1.7824623E-001, 1.1538723E-001, 8.2536689E-003, 1.2245247E-003, 2.9632941E-003, 4.7021865E+002
 1.0800919E+002, 2.1841663E-003, 1.7741429E-001, 1.1577640E-001, 8.9199902E-003, 1.3776568E-003, 3.1005666E-003, 4.7177552E+002
 1.0900764E+002, 2.1208851E-003, 1.7723878E-001, 1.1588013E-001, 9.0775224E-003, 1.4256593E-003, 3.1331630E-003, 4.7026794E+002
 1.1000051E+002, 2.1295166E-003, 1.7673335E-001, 1.1604382E-001, 9.4254562E-003, 1.5050879E-003, 3.2043656E-003, 4.7213497E+002
 1.1100265E+002, 2.4577560E-003, 1.7690942E-001, 1.1569782E-001, 9.0794081E-003, 1.6747405E-003, 3.1313553E-003, 4.7047749E+002
 1.1200623E+002, 2.1324038E-003, 1.7682592E-001, 1.1602083E-001, 9.3669381E-003, 1.4335800E-003, 3.1924408E-003, 4.7427511E+002
 1.1300274E+002, 2.2400822E-003, 1.7626831E-001, 1.1609729E-001, 9.6701636E-003, 1.6810553E-003, 3.2537078E-003, 4.6713351E+002
 1.1400366E+002, 2.0851513E-003, 1.7554691E-001, 1.1647449E-001, 1.0278524E-002, 1.7076692E-003, 3.3792955E-003, 4.6724018E+002
 1.1500638E+002, 2.3183868E-003, 1.7703985E-001, 1.1581516E-001, 9.1129483E-003, 1.3537270E-003, 3.1394216E-003, 4.7136858E+002
 1.1600849E+002, 2.3380471E-003, 1.7519941E-001, 1.1637257E-001, 1.0350852E-002, 1.9040242E-003, 3.3924688E-003, 4.6334242E+002
 1.1701178E+002, 2.3441216E-003, 1.7594454E-001, 1.1612791E-001, 9.8350368E-003, 1.7265493E-003, 3.2868820E-003, 4.7230953E+002
 1.1800993E+002, 2.1179098E-003, 1.7471326E-001, 1.1667759E-001, 1.0801424E-002, 2.1276473E-003, 3.4858075E-003, 4.6334082E+002
 1.1900960E+002, 2.1045164E-003, 1.7496382E-001, 1.1663554E-001, 1.0658706E-002, 1.9122548E-003, 3.4568910E-003, 4.6599876E+002
 1.2000559E+002, 2.0206235E-003, 1.7512925E-001, 1.1667150E-001, 1.0614094E-002, 1.7348784E-003, 3.4484368E-003, 4.6613117E+002
 1.2100909E+002, 2.0700802E-003, 1.7446892E-001, 1.1679697E-001, 1.1001048E-002, 2.1631668E-003, 3.5269661E-003, 4.6854695E+002
 1.2200427E+002, 2.0599620E-003, 1.7420846E-001, 1.1690804E-001, 1.1200833E-002, 2.1187027E-003, 3.5680506E-003, 4.6423838E+002
 1.2300252E+002, 1.9565367E-003, 1.7358196E-001, 1.1720670E-001, 1.1706696E-002, 2.1700611E-003, 3.6723001E-003, 4.6472129E+002
 1.2400039E+002, 1.8896712E-003, 1.7375541E-001, 1.1719821E-001, 1.1624571E-002, 2.1488756E-003, 3.6558576E-003, 4.6327700E+002
 1.2500778E+002, 1.9364116E-003, 1.7299879E-001, 1.1740965E-001, 1.2119365E-002, 2.3104432E-003, 3.7568602E-003, 4.6046574E+002
 1.2600962E+002, 1.8635069E-003, 1.7334153E-001, 1.1734707E-001, 1.1921308E-002, 2.2718292E-003, 3.7166986E-003, 4.7312890E+002
 1.2700651E+002, 2.0131751E-003, 1.7256855E-001, 1.1746901E-001, 1.2353717E-002, 2.5258217E-003, 3.8042160E-003, 4.6541825E+002
 1.2800288E+002, 2.2039723E-003, 1.7176234E-001, 1.1760957E-001, 1.2814197E-002, 2.5723484E-003, 3.8975281E-003, 4.6281317E+002
 1.2900903E+002, 2.0118266E-003, 1.7262633E-001, 1.1750991E-001, 1.2359073E-002, 2.1917144E-003, 3.8057514E-003, 4.6668391E+002
 1.3000646E+002, 1.9582973E-003, 1.7231499E-001, 1.1761857E-001, 1.2580408E-002, 2.4439315E-003, 3.8511154E-003, 4.6604214E+002
 1.3100225E+002, 1.9243436E-003, 1.7118738E-001, 1.1803157E-001, 1.3393811E-002, 2.5819252E-003, 4.0179362E-003, 4.6017818E+002
 1.3200298E+002, 2.0244942E-003, 1.7113685E-001, 1.1796886E-001, 1.3366915E-002, 2.6076850E-003, 4.0118301E-003, 4.6009460E+002
 1.3300132E+002, 1.8490510E-003, 1.7168157E-001, 1.1793001E-001, 1.3099125E-002, 2.4634655E-003, 3.9580744E-003, 4.7137040E+002
 1.3400404E+002, 1.8168258E-003, 1.7167600E-001, 1.1794482E-001, 1.3113399E-002, 2.5283018E-003, 3.9610976E-003, 4.6382573E+002
 1.3500674E+002, 2.0305070E-003, 1.7071834E-001, 1.1807619E-001, 1.3633676E-002, 2.8327334E-003, 4.0662136E-003, 4.6077275E+002
 1.3600381E+002, 1.9259535E-003, 1.7027951E-001, 1.1827406E-001, 1.3980018E-002, 3.0650920E-003, 4.1375231E-003, 4.5950147E+002
 1.3700031E+002, 1.8001307E-003, 1.7101161E-001, 1.1813499E-001, 1.3552339E-002, 2.8870390E-003, 4.0507453E-003, 4.6406711E+002
 1.3800688E+002, 1.8402944E-003, 1.7054029E-001, 1.1829887E-001, 1.3884708E-002, 2.7652373E-003, 4.1188393E-003, 4.6171439E+002
 1.3900074E+002, 1.7982025E-003, 1.7012374E-001, 1.1845822E-001, 1.4190871E-002, 2.9026524E-003, 4.1816833E-003, 4.6354248E+002
 1.4000581E+002, 1.9262150E-003, 1.6979972E-001, 1.1844713E-001, 1.4323836E-002, 3.0768401E-003, 4.2080151E-003, 4.6037721E+002
 1.4100686E+002, 1.8111939E-003, 1.6953094E-001, 1.1859671E-001, 1.4558395E-002, 3.2768849E-003, 4.2565005E-003, 4.5887497E+002
 1.4200180E+002, 1.9423258E-003, 1.6993806E-001, 1.1840066E-001, 1.4227002E-002, 2.9869751E-003, 4.1881828E-003, 4.5891698E+002
 1.4300318E+002, 1.9620905E-003, 1.6949631E-001, 1.1852865E-001, 1.4519464E-002, 3.0878805E-003, 4.2479199E-003, 4.6047687E+002
 1.4400654E+002, 1.9931904E-003, 1.6894755E-001, 1.1865531E-001, 1.4858170E-002, 3.3629685E-003, 4.3168537E-003, 4.5972409E+002
 1.4500272E+002, 1.8102585E-003, 1.6856333E-001, 1.1893560E-001, 1.5244129E-002, 3.3622857E-003, 4.3970233E-003, 4.6578051E+002
 1.4600112E+002, 1.9792524E-003, 1.6890147E-001, 1.1868244E-001, 1.4899397E-002, 3.3649409E-003, 4.3253835E-003, 4.6140692E+002
 1.4700406E+002, 1.9209993E-003, 1.6865244E-001, 1.1883411E-001, 1.5125740E-002, 3.2765523E-003, 4.3722386E-003, 4.6028503E+002
 1.4800203E+002, 1.8979957E-003, 1.6857900E-001, 1.1888929E-001, 1.5200505E-002, 3.2175977E-003, 4.3877749E-003, 4.6033979E+002
 1.4900975E+002, 1.8082136E-003, 1.6829145E-001, 1.1906141E-001, 1.5459990E-002, 3.2262214E-003, 4.4414773E-003, 4.6086196E+002
 1.5000713E+002, 1.8241582E-003, 1.6773293E-001, 1.1916853E-001, 1.5788514E-002, 3.6912662E-003, 4.5081631E-003, 4.6024706E+002
 1.5100726E+002, 1.9431012E-003, 1.6877321E-001, 1.1882274E-001, 1.5063169E-002, 3.0044872E-003, 4.3596334E-003, 4.6355028E+002
 1.5200656E+002, 1.8779684E-003, 1.6742179E-001, 1.1922307E-001, 1.5966815E-002, 3.7905107E-003, 4.5443015E-003, 4.6058843E+002
 1.5300310E+002, 1.8939697E-003, 1.6756636E-001, 1.1920914E-001, 1.5891850E-002, 3.5103995E-003, 4.5291989E-003, 4.5980861E+002
 1.5400314E+002, 1.9471189E-003, 1.6734564E-001, 1.1923219E-001, 1.6006221E-002, 3.6038399E-003, 4.5522377E-003, 4.5957283E+002
