s,,,,,,,
Time,O2 EXHAUST,CO2 EXHAUST,H2O EXHAUST,CO EXHAUST,FUEL EXHAUST,SOOT EXHAUST,TEMP EXHAUST
 0.0000000E+000, 2.3099739E-001, 5.9146498E-004, 5.9412092E-003, 0.0000000E+000, 0.0000000E+000, 0.0000000E+000, 2.0000000E+001
 1.0043156E+000, 2.3099739E-001, 5.9146498E-004, 5.9412092E-003, 1.8561589E-020, 1.9733279E-020, 5.8624880E-020, 2.3910238E+001
 2.0014368E+000, 2.1701781E-001, 1.1826345E-002, 1.1237525E-002, 1.7028783E-004, 1.2306915E-004, 4.0809149E-004, 1.5735811E+002
 3.0001245E+000, 2.0322860E-001, 2.2984532E-002, 1.6454349E-002, 2.9373828E-004, 1.5137025E-004, 8.0360204E-004, 2.8157157E+002
 4.0036245E+000, 1.8793645E-001, 3.5512852E-002, 2.2209590E-002, 3.2549466E-004, 1.0083610E-004, 1.2247656E-003, 3.8937817E+002
 5.0044006E+000, 1.7458903E-001, 4.6522673E-002, 2.7218204E-002, 3.0209131E-004, 1.7357337E-005, 1.5838795E-003, 4.6396400E+002
 6.0002891E+000, 1.6397399E-001, 5.5199516E-002, 3.1215980E-002, 3.3649682E-004, 2.3780882E-007, 1.8782299E-003, 5.0895647E+002
 7.0010463E+000, 1.4876779E-001, 6.7588803E-002, 3.6950345E-002, 4.1295645E-004, 2.0685826E-007, 2.3043811E-003, 5.5405948E+002
 8.0015347E+000, 1.3988893E-001, 7.4823195E-002, 4.0298533E-002, 4.5735276E-004, 1.8867963E-007, 2.5531671E-003, 5.6554823E+002
 9.0009782E+000, 1.2983672E-001, 8.3013320E-002, 4.4089267E-002, 5.0784007E-004, 2.3318674E-007, 2.8348685E-003, 5.8637745E+002
 1.0002325E+001, 1.2381096E-001, 8.7922393E-002, 4.6361717E-002, 5.3844096E-004, 3.5306657E-007, 3.0037901E-003, 5.9388543E+002
 1.1003256E+001, 1.1916939E-001, 9.1704112E-002, 4.8112088E-002, 5.6178732E-004, 3.5707226E-007, 3.1338706E-003, 5.9447069E+002
 1.2006129E+001, 1.1592718E-001, 9.4346514E-002, 4.9334551E-002, 5.7750112E-004, 1.9540568E-007, 3.2246334E-003, 6.0048328E+002
 1.3004967E+001, 1.1192541E-001, 9.7606725E-002, 5.0843693E-002, 5.9778626E-004, 3.0799285E-007, 3.3368094E-003, 6.0269141E+002
 1.4004880E+001, 1.0809268E-001, 1.0072893E-001, 5.2289172E-002, 6.1743955E-004, 3.8121042E-007, 3.4442858E-003, 6.0517229E+002
 1.5003207E+001, 1.0600441E-001, 1.0243117E-001, 5.3076476E-002, 6.2734657E-004, 2.0319173E-007, 3.5027089E-003, 6.0667990E+002
 1.6006342E+001, 1.0560012E-001, 1.0276078E-001, 5.3228880E-002, 6.2921780E-004, 1.7973396E-007, 3.5140115E-003, 6.0158749E+002
 1.7006122E+001, 1.0151852E-001, 1.0608537E-001, 5.4768296E-002, 6.5039524E-004, 3.8241132E-007, 3.6285083E-003, 6.0681043E+002
 1.8005630E+001, 9.9480584E-002, 1.0774625E-001, 5.5536699E-002, 6.6030184E-004, 2.9559903E-007, 3.6855633E-003, 6.0596251E+002
 1.9003637E+001, 9.9469304E-002, 1.0775600E-001, 5.5540817E-002, 6.5994612E-004, 1.7129464E-007, 3.6858097E-003, 6.0047601E+002
 2.0000427E+001, 9.6711353E-002, 1.1000267E-001, 5.6580949E-002, 6.7409044E-004, 2.6468414E-007, 3.7631475E-003, 6.0814536E+002
 2.1004296E+001, 9.6748740E-002, 1.0997224E-001, 5.6566844E-002, 6.7387901E-004, 2.4715703E-007, 3.7620958E-003, 6.0211044E+002
 2.2000170E+001, 9.3752800E-002, 1.1241275E-001, 5.7696733E-002, 6.8925772E-004, 3.8483826E-007, 3.8461094E-003, 6.0345501E+002
 2.3000674E+001, 9.3368262E-002, 1.1272617E-001, 5.7841718E-002, 6.9110653E-004, 3.4768246E-007, 3.8568717E-003, 6.0784330E+002
 2.4004949E+001, 9.1734417E-002, 1.1405744E-001, 5.8457828E-002, 6.9925025E-004, 3.3106590E-007, 3.9026478E-003, 6.0834340E+002
 2.5005627E+001, 9.0968706E-002, 1.1468112E-001, 5.8746630E-002, 7.0323627E-004, 3.4726452E-007, 3.9241298E-003, 6.0855148E+002
 2.6005269E+001, 9.0497715E-002, 1.1506522E-001, 5.8924157E-002, 7.0534329E-004, 2.7014437E-007, 3.9372851E-003, 6.0562370E+002
 2.7001303E+001, 9.0451503E-002, 1.1510318E-001, 5.8941506E-002, 7.0534762E-004, 2.2435579E-007, 3.9385415E-003, 6.0459214E+002
 2.8004711E+001, 9.0014021E-002, 1.1545917E-001, 5.9106597E-002, 7.0788177E-004, 2.9574713E-007, 3.9508586E-003, 6.0051358E+002
 2.9003851E+001, 8.8641515E-002, 1.1657670E-001, 5.9624356E-002, 7.1531416E-004, 4.3969755E-007, 3.9894127E-003, 6.0671095E+002
 3.0003473E+001, 8.9189438E-002, 1.1613038E-001, 5.9417702E-002, 7.1247743E-004, 4.2536367E-007, 3.9740434E-003, 6.0831133E+002
 3.1002227E+001, 8.9235120E-002, 1.1609339E-001, 5.9400416E-002, 7.1207829E-004, 4.1174729E-007, 3.9727343E-003, 6.0947966E+002
 3.2000010E+001, 8.8164428E-002, 1.1696567E-001, 5.9804200E-002, 7.1751231E-004, 4.0008432E-007, 4.0027489E-003, 6.0551330E+002
 3.3001981E+001, 8.7481265E-002, 1.1752256E-001, 6.0061757E-002, 7.2074375E-004, 3.5237281E-007, 4.0218599E-003, 6.0380270E+002
 3.4005593E+001, 8.5319850E-002, 1.1928270E-001, 6.0877050E-002, 7.3224794E-004, 5.6574022E-007, 4.0825406E-003, 6.1042091E+002
 3.5003356E+001, 8.6130156E-002, 1.1862264E-001, 6.0571453E-002, 7.2807991E-004, 4.6945504E-007, 4.0598165E-003, 6.0379833E+002
 3.6003414E+001, 8.5460204E-002, 1.1916895E-001, 6.0823976E-002, 7.3109972E-004, 4.1810672E-007, 4.0785325E-003, 6.0894633E+002
 3.7001674E+001, 8.5591764E-002, 1.1906176E-001, 6.0774369E-002, 7.3044742E-004, 4.0035611E-007, 4.0748472E-003, 6.0830920E+002
 3.8004093E+001, 8.5586262E-002, 1.1906514E-001, 6.0776716E-002, 7.3128368E-004, 5.8964716E-007, 4.0751384E-003, 6.0864725E+002
 3.9005488E+001, 8.5261859E-002, 1.1933001E-001, 6.0898897E-002, 7.3248597E-004, 5.8371318E-007, 4.0841565E-003, 6.1183422E+002
 4.0005788E+001, 8.4749998E-002, 1.1974736E-001, 6.1091849E-002, 7.3483654E-004, 5.1739615E-007, 4.0984635E-003, 6.0931525E+002
 4.1006631E+001, 8.5595651E-002, 1.1905867E-001, 6.0772871E-002, 7.3035527E-004, 4.6201593E-007, 4.0747255E-003, 6.0429958E+002
 4.2004940E+001, 8.5670168E-002, 1.1899773E-001, 6.0744831E-002, 7.3015375E-004, 4.7888679E-007, 4.0726666E-003, 6.0611515E+002
 4.3005709E+001, 8.4585867E-002, 1.1988133E-001, 6.1153692E-002, 7.3548897E-004, 4.1271033E-007, 4.1030344E-003, 6.1295809E+002
 4.4004217E+001, 8.6417603E-002, 1.1838925E-001, 6.0462842E-002, 7.2602782E-004, 4.1735801E-007, 4.0516575E-003, 6.0538404E+002
 4.5002227E+001, 8.4680664E-002, 1.1980383E-001, 6.1118001E-002, 7.3520038E-004, 5.2290619E-007, 4.1004092E-003, 6.0664393E+002
 4.6006868E+001, 8.5620296E-002, 1.1903767E-001, 6.0763789E-002, 7.3089475E-004, 7.4818197E-007, 4.0741464E-003, 6.0651064E+002
 4.7003633E+001, 8.4446829E-002, 1.1999496E-001, 6.1206031E-002, 7.3592721E-004, 4.0941863E-007, 4.1068864E-003, 6.0700263E+002
 4.8004891E+001, 8.3979922E-002, 1.2037448E-001, 6.1382327E-002, 7.3892962E-004, 5.5009399E-007, 4.1200824E-003, 6.0798507E+002
 4.9001569E+001, 8.4616264E-002, 1.1985659E-001, 6.1142213E-002, 7.3530884E-004, 4.8134607E-007, 4.1021774E-003, 6.0699589E+002
 5.0005648E+001, 8.4421635E-002, 1.2001500E-001, 6.1215650E-002, 7.3640791E-004, 5.0187733E-007, 4.1076524E-003, 6.0594099E+002
 5.1002907E+001, 8.6523247E-002, 1.1830331E-001, 6.0422982E-002, 7.2541370E-004, 3.1959536E-007, 4.0486833E-003, 6.0988890E+002
 5.2000831E+001, 8.4196440E-002, 1.2019853E-001, 6.1300559E-002, 7.3750363E-004, 5.0655854E-007, 4.1139571E-003, 6.0707841E+002
 5.3002944E+001, 8.4419576E-002, 1.2001543E-001, 6.1216740E-002, 7.3733956E-004, 6.9708343E-007, 4.1078663E-003, 6.1163868E+002
 5.4006263E+001, 8.5257724E-002, 1.1933451E-001, 6.0900186E-002, 7.3168506E-004, 3.2126849E-007, 4.0841336E-003, 6.0429858E+002
 5.5003156E+001, 8.4441023E-002, 1.1999941E-001, 6.1208295E-002, 7.3616782E-004, 4.2857985E-007, 4.1070851E-003, 6.0416268E+002
 5.6006180E+001, 8.6138270E-002, 1.1861674E-001, 6.0568204E-002, 7.2750199E-004, 4.3143586E-007, 4.0594975E-003, 6.0747408E+002
 5.7002361E+001, 8.4406387E-002, 1.2002801E-001, 6.1221262E-002, 7.3606121E-004, 3.5456640E-007, 4.1080082E-003, 6.0611161E+002
 5.8000744E+001, 8.3240174E-002, 1.2097743E-001, 6.1661234E-002, 7.4247641E-004, 4.9073898E-007, 4.1407845E-003, 6.0791736E+002
 5.9001630E+001, 8.3212587E-002, 1.2100061E-001, 6.1671464E-002, 7.4209883E-004, 3.5486949E-007, 4.1414702E-003, 6.0689481E+002
 6.0004019E+001, 8.5176874E-002, 1.1939986E-001, 6.0930806E-002, 7.3247893E-004, 4.1262087E-007, 4.0864650E-003, 6.1093611E+002
 6.1004283E+001, 8.4364480E-002, 1.2006159E-001, 6.1237193E-002, 7.3667152E-004, 5.2725200E-007, 4.1092499E-003, 6.0547809E+002
 6.2001634E+001, 8.3166625E-002, 1.2103677E-001, 6.1689103E-002, 7.4326237E-004, 6.7070704E-007, 4.1429157E-003, 6.0461016E+002
 6.3000408E+001, 8.3675135E-002, 1.2062183E-001, 6.1497521E-002, 7.4119683E-004, 6.2752503E-007, 4.1287490E-003, 6.0763559E+002
 6.4001017E+001, 8.3922613E-002, 1.2042152E-001, 6.1403846E-002, 7.3895646E-004, 5.3209569E-007, 4.1216439E-003, 6.0615073E+002
 6.5001709E+001, 8.3793556E-002, 1.2052689E-001, 6.1452460E-002, 7.3944325E-004, 4.8920109E-007, 4.1252333E-003, 6.1012942E+002
 6.6006401E+001, 8.4105530E-002, 1.2027302E-001, 6.1334746E-002, 7.3765752E-004, 3.6422017E-007, 4.1164539E-003, 6.0602764E+002
 6.7000223E+001, 8.2517328E-002, 1.2156621E-001, 6.1933862E-002, 7.4622893E-004, 5.4094898E-007, 4.1610619E-003, 6.1040511E+002
 6.8002149E+001, 8.4233550E-002, 1.2016736E-001, 6.1286795E-002, 7.3799929E-004, 6.6612402E-007, 4.1130327E-003, 6.0743633E+002
 6.9003797E+001, 8.5124721E-002, 1.1944211E-001, 6.0950525E-002, 7.3290815E-004, 5.0156840E-007, 4.0879546E-003, 6.0569445E+002
 7.0006817E+001, 8.4925733E-002, 1.1960472E-001, 6.1025447E-002, 7.3355521E-004, 3.9648908E-007, 4.0934714E-003, 6.0348774E+002
 7.1002567E+001, 8.2641066E-002, 1.2146455E-001, 6.1887410E-002, 7.4622487E-004, 6.6643491E-007, 4.1576991E-003, 6.1421955E+002
 7.2003011E+001, 8.4133564E-002, 1.2025035E-001, 6.1324129E-002, 7.3738962E-004, 3.5960032E-007, 4.1156466E-003, 6.0530362E+002
 7.3006124E+001, 8.4832681E-002, 1.1968003E-001, 6.1060666E-002, 7.3439751E-004, 4.6244919E-007, 4.0961427E-003, 6.1097674E+002
 7.4006362E+001, 8.4425622E-002, 1.2001170E-001, 6.1214170E-002, 7.3643588E-004, 4.3793557E-007, 4.1075492E-003, 6.0615458E+002
 7.5002670E+001, 8.3581055E-002, 1.2069987E-001, 6.1532638E-002, 7.4063089E-004, 4.9318158E-007, 4.1312089E-003, 6.0517483E+002
 7.6003099E+001, 8.3338161E-002, 1.2089785E-001, 6.1624212E-002, 7.4178751E-004, 4.9507758E-007, 4.1380049E-003, 6.0642520E+002
 7.7001702E+001, 8.4320308E-002, 1.2009813E-001, 6.1253722E-002, 7.3649733E-004, 3.8099540E-007, 4.1104210E-003, 6.0680321E+002
 7.8002636E+001, 8.1752017E-002, 1.2218933E-001, 6.2222576E-002, 7.5039040E-004, 5.6436611E-007, 4.1825631E-003, 6.0838712E+002
 7.9004306E+001, 8.4371264E-002, 1.2005533E-001, 6.1234818E-002, 7.3717788E-004, 6.4096001E-007, 4.1091514E-003, 6.0777503E+002
 8.0005492E+001, 8.5009229E-002, 1.1953640E-001, 6.0994035E-002, 7.3335571E-004, 4.4201800E-007, 4.0911688E-003, 6.0501455E+002
 8.1000529E+001, 8.3104919E-002, 1.2108631E-001, 6.1712546E-002, 7.4410775E-004, 8.7571344E-007, 4.1447351E-003, 6.1334939E+002
 8.2003354E+001, 8.2897022E-002, 1.2125614E-001, 6.1790864E-002, 7.4485293E-004, 5.8297281E-007, 4.1505119E-003, 6.0661423E+002
 8.3006286E+001, 8.4152621E-002, 1.2023444E-001, 6.1317042E-002, 7.3757907E-004, 3.9217203E-007, 4.1151611E-003, 6.0623265E+002
 8.4006281E+001, 8.3174986E-002, 1.2103092E-001, 6.1685726E-002, 7.4252985E-004, 4.1199690E-007, 4.1425650E-003, 6.0811932E+002
 8.5002490E+001, 8.4125953E-002, 1.2025564E-001, 6.1327233E-002, 7.3810649E-004, 4.6525523E-007, 4.1159752E-003, 6.1021809E+002
 8.6003165E+001, 8.2419711E-002, 1.2164561E-001, 6.1970708E-002, 7.4681849E-004, 5.5609605E-007, 4.1638144E-003, 6.0973185E+002
 8.7003956E+001, 8.4707013E-002, 1.1978298E-001, 6.1107917E-002, 7.3461946E-004, 3.7761378E-007, 4.0995951E-003, 6.0827876E+002
 8.8000045E+001, 8.5112173E-002, 1.1945205E-001, 6.0955333E-002, 7.3318618E-004, 5.0586407E-007, 4.0883429E-003, 6.0160722E+002
 8.9005582E+001, 8.3880347E-002, 1.2045568E-001, 6.1419857E-002, 7.3937464E-004, 5.5588050E-007, 4.1228634E-003, 6.0873876E+002
 9.0000072E+001, 8.5287262E-002, 1.1930998E-001, 6.0889162E-002, 7.3188065E-004, 4.1813527E-007, 4.0833640E-003, 6.0677339E+002
 9.1003825E+001, 8.3570351E-002, 1.2070858E-001, 6.1536675E-002, 7.4068977E-004, 5.0950343E-007, 4.1315096E-003, 6.0640700E+002
 9.2005535E+001, 8.3240885E-002, 1.2097615E-001, 6.1661139E-002, 7.4298974E-004, 6.2605290E-007, 4.1408520E-003, 6.1210862E+002
 9.3004911E+001, 8.3846821E-002, 1.2048399E-001, 6.1432257E-002, 7.3881768E-004, 3.5595853E-007, 4.1236802E-003, 6.0942288E+002
 9.4000464E+001, 8.2372067E-002, 1.2168482E-001, 6.1988576E-002, 7.4676539E-004, 4.8940889E-007, 4.1651001E-003, 6.1530449E+002
 9.5005175E+001, 8.3643030E-002, 1.2064947E-001, 6.1509246E-002, 7.4025519E-004, 4.6682302E-007, 4.1294613E-003, 6.0853742E+002
 9.6004982E+001, 8.3694657E-002, 1.2060703E-001, 6.1489866E-002, 7.4026664E-004, 5.6144840E-007, 4.1280601E-003, 6.0799753E+002
 9.7005669E+001, 8.3955344E-002, 1.2039472E-001, 6.1391543E-002, 7.3889858E-004, 5.1570344E-007, 4.1207449E-003, 6.1170401E+002
 9.8003642E+001, 8.5740231E-002, 1.1894093E-001, 6.0718338E-002, 7.2959320E-004, 4.3730211E-007, 4.0706678E-003, 6.0437630E+002
 9.9002621E+001, 8.3937731E-002, 1.2040987E-001, 6.1397990E-002, 7.3840189E-004, 3.4804712E-007, 4.1211396E-003, 6.0753451E+002
 1.0000221E+002, 8.3608435E-002, 1.2067619E-001, 6.1522668E-002, 7.4151908E-004, 6.4065421E-007, 4.1306159E-003, 6.0749975E+002
 1.0100099E+002, 8.3727613E-002, 1.2057991E-001, 6.1477518E-002, 7.4031308E-004, 5.2330177E-007, 4.1271731E-003, 6.0621802E+002
 1.0200399E+002, 8.4115067E-002, 1.2026372E-001, 6.1331515E-002, 7.3871969E-004, 7.2678232E-007, 4.1163741E-003, 6.0995993E+002
 1.0300533E+002, 8.3112922E-002, 1.2108100E-001, 6.1709248E-002, 7.4319703E-004, 5.2044552E-007, 4.1443643E-003, 6.0561188E+002
 1.0400369E+002, 8.3787422E-002, 1.2053201E-001, 6.1454746E-002, 7.3938675E-004, 4.4137688E-007, 4.1253905E-003, 6.0975761E+002
 1.0500686E+002, 8.3787363E-002, 1.2053214E-001, 6.1454756E-002, 7.3933803E-004, 3.8471446E-007, 4.1253842E-003, 6.0719161E+002
 1.0600366E+002, 8.5489661E-002, 1.1914486E-001, 6.0812883E-002, 7.3101146E-004, 4.8266998E-007, 4.0777168E-003, 6.1155037E+002
 1.0700175E+002, 8.3020875E-002, 1.2115601E-001, 6.1743960E-002, 7.4365230E-004, 4.9034608E-007, 4.1469428E-003, 6.0946766E+002
 1.0800449E+002, 8.5070288E-002, 1.1948723E-001, 6.0970867E-002, 7.3262499E-004, 3.3237257E-007, 4.0893859E-003, 6.0657247E+002
 1.0900512E+002, 8.6068747E-002, 1.1867307E-001, 6.0594497E-002, 7.2808304E-004, 5.1496907E-007, 4.0614849E-003, 6.0946857E+002
 1.1000129E+002, 8.4176126E-002, 1.2021496E-001, 6.1308246E-002, 7.3768755E-004, 5.3698899E-007, 4.1145402E-003, 6.0748973E+002
 1.1100572E+002, 8.5539830E-002, 1.1910415E-001, 6.0793923E-002, 7.3063962E-004, 4.5811691E-007, 4.0762905E-003, 6.1277820E+002
 1.1200603E+002, 8.4847156E-002, 1.1966852E-001, 6.1055132E-002, 7.3411114E-004, 4.4710261E-007, 4.0957007E-003, 6.0798978E+002
 1.1300415E+002, 8.4258783E-002, 1.2014769E-001, 6.1277066E-002, 7.3722993E-004, 4.7844447E-007, 4.1122169E-003, 6.0734257E+002
 1.1400317E+002, 8.3793668E-002, 1.2052622E-001, 6.1452556E-002, 7.3986376E-004, 6.2922652E-007, 4.1253012E-003, 6.0772648E+002
 1.1500481E+002, 8.2885948E-002, 1.2126584E-001, 6.1794867E-002, 7.4440607E-004, 5.0170128E-007, 4.1507369E-003, 6.1213413E+002
 1.1600574E+002, 8.3260415E-002, 1.2096118E-001, 6.1653548E-002, 7.4220652E-004, 4.1397997E-007, 4.1401890E-003, 6.0832185E+002
 1.1700035E+002, 8.3803734E-002, 1.2051899E-001, 6.1448535E-002, 7.3911738E-004, 3.6353633E-007, 4.1249018E-003, 6.0847265E+002
 1.1800649E+002, 8.3406943E-002, 1.2084146E-001, 6.1598361E-002, 7.4169932E-004, 5.5126246E-007, 4.1361210E-003, 6.0749757E+002
 1.1900533E+002, 8.4212602E-002, 1.2018575E-001, 6.1294371E-002, 7.3713674E-004, 4.0629404E-007, 4.1134560E-003, 6.0677679E+002
 1.2000497E+002, 8.3717446E-002, 1.2058803E-001, 6.1481390E-002, 7.4048115E-004, 5.6473940E-007, 4.1274777E-003, 6.0671605E+002
 1.2100184E+002, 8.4910780E-002, 1.1961672E-001, 6.1031134E-002, 7.3377140E-004, 4.1830630E-007, 4.0939144E-003, 6.0713672E+002
 1.2200116E+002, 8.4635495E-002, 1.1984145E-001, 6.1134842E-002, 7.3483391E-004, 3.0283721E-007, 4.1015750E-003, 6.0906349E+002
 1.2300269E+002, 8.4906292E-002, 1.1962066E-001, 6.1032752E-002, 7.3358019E-004, 4.0097310E-007, 4.0940038E-003, 6.0339003E+002
 1.2400052E+002, 8.5464109E-002, 1.1916578E-001, 6.0822492E-002, 7.3106362E-004, 4.7922315E-007, 4.0784198E-003, 6.0815853E+002
 1.2500378E+002, 8.4855778E-002, 1.1966130E-001, 6.1051923E-002, 7.3420513E-004, 5.2046507E-007, 4.0954821E-003, 6.0368107E+002
 1.2600616E+002, 8.4817375E-002, 1.1969283E-001, 6.1066354E-002, 7.3423356E-004, 4.3381584E-007, 4.0965307E-003, 6.0600582E+002
 1.2700622E+002, 8.4257137E-002, 1.2014804E-001, 6.1277929E-002, 7.3795924E-004, 6.5986229E-007, 4.1123851E-003, 6.0516913E+002
 1.2800096E+002, 8.5011656E-002, 1.1953458E-001, 6.0993081E-002, 7.3322543E-004, 4.0562644E-007, 4.0910809E-003, 6.0660165E+002
 1.2900642E+002, 8.6214188E-002, 1.1855429E-001, 6.0539719E-002, 7.2755653E-004, 5.6080093E-007, 4.0574437E-003, 6.0397411E+002
 1.3000552E+002, 8.4767513E-002, 1.1973353E-001, 6.1085143E-002, 7.3443326E-004, 3.9134110E-007, 4.0979196E-003, 6.0558965E+002
 1.3100233E+002, 8.3642362E-002, 1.2064984E-001, 6.1509540E-002, 7.4038312E-004, 4.9924083E-007, 4.1295011E-003, 6.0773597E+002
 1.3200003E+002, 8.3520092E-002, 1.2074983E-001, 6.1555567E-002, 7.4073544E-004, 3.6492509E-007, 4.1328836E-003, 6.1245917E+002
 1.3300527E+002, 8.4567140E-002, 1.1989631E-001, 6.1160817E-002, 7.3578368E-004, 5.0935951E-007, 4.1035929E-003, 6.0788898E+002
 1.3400586E+002, 8.3211190E-002, 1.2100141E-001, 6.1672075E-002, 7.4235343E-004, 4.1464014E-007, 4.1415513E-003, 6.0944230E+002
 1.3500247E+002, 8.3866607E-002, 1.2046639E-001, 6.1425166E-002, 7.3981187E-004, 5.9894698E-007, 4.1233111E-003, 6.0625436E+002
 1.3600268E+002, 8.3912302E-002, 1.2042960E-001, 6.1407817E-002, 7.3925043E-004, 5.8026291E-007, 4.1219739E-003, 6.0608828E+002
 1.3700588E+002, 8.3256723E-002, 1.2096378E-001, 6.1655032E-002, 7.4251421E-004, 5.4821028E-007, 4.1403410E-003, 6.1152166E+002
 1.3800677E+002, 8.4983900E-002, 1.1955736E-001, 6.1003509E-002, 7.3324756E-004, 3.6826118E-007, 4.0918389E-003, 6.0328170E+002
 1.3900467E+002, 8.6434364E-002, 1.1837573E-001, 6.0456493E-002, 7.2584974E-004, 3.5763363E-007, 4.0511721E-003, 6.0529974E+002
 1.4000657E+002, 8.5840075E-002, 1.1885980E-001, 6.0680631E-002, 7.2892748E-004, 4.0263318E-007, 4.0678419E-003, 6.0345434E+002
 1.4100354E+002, 8.4764043E-002, 1.1973542E-001, 6.1086674E-002, 7.3512678E-004, 6.1378925E-007, 4.0981310E-003, 6.0908173E+002
 1.4200238E+002, 8.4574359E-002, 1.1989111E-001, 6.1157926E-002, 7.3524617E-004, 3.8530158E-007, 4.1033057E-003, 6.1069059E+002
 1.4300184E+002, 8.2852151E-002, 1.2129363E-001, 6.1807547E-002, 7.4438952E-004, 4.8613759E-007, 4.1516523E-003, 6.1264331E+002
 1.4400499E+002, 8.3296157E-002, 1.2093155E-001, 6.1640204E-002, 7.4240976E-004, 4.4575940E-007, 4.1392526E-003, 6.1041714E+002
 1.4500200E+002, 8.4729105E-002, 1.1976388E-001, 6.1099857E-002, 7.3531300E-004, 5.7242127E-007, 4.0991122E-003, 6.0766229E+002
 1.4600492E+002, 8.5818955E-002, 1.1887657E-001, 6.0688698E-002, 7.2935126E-004, 5.2718684E-007, 4.0684873E-003, 6.0695721E+002
 1.4700308E+002, 8.4650762E-002, 1.1982885E-001, 6.1129118E-002, 7.3487051E-004, 3.7870621E-007, 4.1011660E-003, 6.0513812E+002
 1.4800401E+002, 8.5291252E-002, 1.1930670E-001, 6.0887658E-002, 7.3187268E-004, 4.4805166E-007, 4.0832540E-003, 6.0489462E+002
 1.4900018E+002, 8.4154994E-002, 1.2023213E-001, 6.1316229E-002, 7.3783158E-004, 5.3339694E-007, 4.1151389E-003, 6.0957863E+002
 1.5000067E+002, 8.3979304E-002, 1.2037444E-001, 6.1382692E-002, 7.3933137E-004, 6.7322173E-007, 4.1201670E-003, 6.0791183E+002
 1.5100257E+002, 8.3269883E-002, 1.2095250E-001, 6.1650207E-002, 7.4285714E-004, 6.4687497E-007, 4.1400415E-003, 6.1152664E+002
 1.5200197E+002, 8.4047303E-002, 1.2031906E-001, 6.1357047E-002, 7.3897718E-004, 6.4462672E-007, 4.1182594E-003, 6.0892980E+002
 1.5300014E+002, 8.3975880E-002, 1.2037746E-001, 6.1383924E-002, 7.3917427E-004, 6.3334086E-007, 4.1202334E-003, 6.1022266E+002
 1.5400258E+002, 8.3693124E-002, 1.2060822E-001, 6.1490470E-002, 7.4032899E-004, 4.8997509E-007, 4.1281129E-003, 6.0926893E+002
