s,,,,,,,
Time,O2 EXHAUST,CO2 EXHAUST,H2O EXHAUST,CO EXHAUST,FUEL EXHAUST,SOOT EXHAUST,TEMP EXHAUST
 0.0000000E+000, 2.3099739E-001, 5.9146498E-004, 5.9412092E-003, 0.0000000E+000, 0.0000000E+000, 0.0000000E+000, 2.0000000E+001
 1.0018072E+000, 2.3099739E-001, 5.9146498E-004, 5.9412092E-003, 8.6914442E-030, 9.0065666E-029, 2.5113300E-030, 2.0689517E+001
 2.0013790E+000, 2.2192007E-001, 7.9362168E-003, 1.0548352E-002, 3.6132507E-005, 2.5961161E-004, 3.8178132E-005, 1.0895454E+002
 3.0001406E+000, 2.1650879E-001, 1.2317960E-002, 1.3299589E-002, 5.9445521E-005, 3.8390121E-004, 6.1331137E-005, 1.6078520E+002
 4.0004581E+000, 2.0923487E-001, 1.8246894E-002, 1.7010632E-002, 8.2342396E-005, 4.0853302E-004, 9.0804960E-005, 2.2260592E+002
 5.0032314E+000, 2.0438585E-001, 2.2190184E-002, 1.9483134E-002, 1.0066538E-004, 4.5030408E-004, 1.1107130E-004, 2.6232366E+002
 6.0041999E+000, 1.9506248E-001, 2.9871806E-002, 2.4231375E-002, 8.8298445E-005, 3.5792206E-004, 1.4024588E-004, 3.3022455E+002
 7.0007150E+000, 1.8587214E-001, 3.7460620E-002, 2.8910672E-002, 6.7935667E-005, 2.3889628E-004, 1.6732155E-004, 3.8745776E+002
 8.0043808E+000, 1.8011119E-001, 4.2232895E-002, 3.1844651E-002, 4.9007716E-005, 1.2971154E-004, 1.8303545E-004, 4.1449581E+002
 9.0028185E+000, 1.7517332E-001, 4.6315247E-002, 3.4358840E-002, 3.5925155E-005, 5.5456861E-005, 1.9714424E-004, 4.3103237E+002
 1.0007700E+001, 1.6541192E-001, 5.4340563E-002, 3.9328337E-002, 2.9289622E-005, 2.5715607E-006, 2.2897173E-004, 4.6883738E+002
 1.1000626E+001, 1.5561153E-001, 6.2373779E-002, 4.4317306E-002, 3.2966072E-005, 8.7007668E-008, 2.6304299E-004, 4.8901903E+002
 1.2001947E+001, 1.4987278E-001, 6.7077008E-002, 4.7238674E-002, 3.5445244E-005, 5.4371116E-008, 2.8306083E-004, 4.9810011E+002
 1.3000013E+001, 1.4307360E-001, 7.2648649E-002, 5.0700099E-002, 3.8835021E-005, 2.3410114E-007, 3.0687190E-004, 5.0557889E+002
 1.4004370E+001, 1.3350217E-001, 8.0493184E-002, 5.5572450E-002, 4.2823337E-005, 1.5086612E-007, 3.4022829E-004, 5.2513157E+002
 1.5001917E+001, 1.3075098E-001, 8.2748167E-002, 5.6972890E-002, 4.3857767E-005, 9.0171792E-008, 3.4979286E-004, 5.1974447E+002
 1.6001675E+001, 1.2535464E-001, 8.7170243E-002, 5.9720124E-002, 4.6537585E-005, 2.4440830E-007, 3.6868886E-004, 5.2584293E+002
 1.7001394E+001, 1.2041175E-001, 9.1221275E-002, 6.2236341E-002, 4.8642009E-005, 2.0119822E-007, 3.8592419E-004, 5.2639546E+002
 1.8002229E+001, 1.1589113E-001, 9.4926456E-002, 6.4537503E-002, 5.0401541E-005, 1.1171389E-007, 4.0165266E-004, 5.2874434E+002
 1.9006198E+001, 1.1327510E-001, 9.7070465E-002, 6.5869208E-002, 5.1513792E-005, 1.2376517E-007, 4.1077413E-004, 5.2974735E+002
 2.0005704E+001, 1.1163167E-001, 9.8417253E-002, 6.6705845E-002, 5.2287328E-005, 1.5377286E-007, 4.1651996E-004, 5.2718260E+002
 2.1003565E+001, 1.0655491E-001, 1.0257785E-001, 6.9290250E-002, 5.4541647E-005, 1.4529756E-007, 4.3424138E-004, 5.2988137E+002
 2.2003334E+001, 1.0621342E-001, 1.0285797E-001, 6.9464004E-002, 5.4524051E-005, 7.4030216E-008, 4.3539817E-004, 5.2274389E+002
 2.3005914E+001, 1.0254836E-001, 1.0586149E-001, 7.1329806E-002, 5.6240613E-005, 1.2695965E-007, 4.4821033E-004, 5.2236382E+002
 2.4000504E+001, 1.0135406E-001, 1.0683974E-001, 7.1937986E-002, 5.7136154E-005, 1.8519891E-007, 4.5245541E-004, 5.1967217E+002
 2.5002307E+001, 9.8121377E-002, 1.0948956E-001, 7.3583437E-002, 5.8215311E-005, 1.5229452E-007, 4.6366543E-004, 5.1739114E+002
 2.6000986E+001, 9.5890160E-002, 1.1131803E-001, 7.4719308E-002, 5.9270242E-005, 1.7006209E-007, 4.7146730E-004, 5.2661230E+002
 2.7004717E+001, 9.4437576E-002, 1.1250878E-001, 7.5458665E-002, 5.9710426E-005, 7.6196750E-008, 4.7649518E-004, 5.1791530E+002
 2.8009216E+001, 9.2135377E-002, 1.1439434E-001, 7.6631032E-002, 6.1520992E-005, 4.9829695E-007, 4.8469555E-004, 5.2516291E+002
 2.9004347E+001, 9.0655802E-002, 1.1560488E-001, 7.7384914E-002, 6.3523681E-005, 1.1807014E-006, 4.9014044E-004, 5.2078431E+002
 3.0003934E+001, 8.9122159E-002, 1.1686035E-001, 7.8166129E-002, 6.5152224E-005, 1.5876261E-006, 4.9569124E-004, 5.1659902E+002
 3.1004335E+001, 8.6437580E-002, 1.1905193E-001, 7.9535645E-002, 7.2038813E-005, 4.4056988E-006, 5.0624783E-004, 5.2000687E+002
 3.2002568E+001, 8.4829922E-002, 1.2035996E-001, 8.0357502E-002, 7.9254786E-005, 6.3660059E-006, 5.1321434E-004, 5.2241365E+002
 3.3001939E+001, 8.2834005E-002, 1.2199090E-001, 8.1374948E-002, 8.3181077E-005, 9.0814393E-006, 5.2081343E-004, 5.1608165E+002
 3.4001441E+001, 7.9310845E-002, 1.2486120E-001, 8.3174402E-002, 9.6231631E-005, 1.3897572E-005, 5.3550369E-004, 5.2289280E+002
 3.5008001E+001, 7.9701653E-002, 1.2454864E-001, 8.2972657E-002, 9.0784108E-005, 1.2289101E-005, 5.3304072E-004, 5.1847241E+002
 3.6005193E+001, 7.7412413E-002, 1.2641733E-001, 8.4140312E-002, 9.6597361E-005, 1.5890229E-005, 5.4202943E-004, 5.1976478E+002
 3.7000204E+001, 7.7079065E-002, 1.2669642E-001, 8.4308246E-002, 9.2970045E-005, 1.2791258E-005, 5.4240803E-004, 5.1903002E+002
 3.8002732E+001, 7.5184968E-002, 1.2823664E-001, 8.5276478E-002, 1.0181199E-004, 1.7124485E-005, 5.5068516E-004, 5.1614842E+002
 3.9002438E+001, 7.2410901E-002, 1.3050465E-001, 8.6690624E-002, 1.0675224E-004, 1.8302958E-005, 5.6114116E-004, 5.1717831E+002
 4.0000016E+001, 6.9175389E-002, 1.3315163E-001, 8.8339147E-002, 1.1119766E-004, 2.0540566E-005, 5.7306114E-004, 5.2523380E+002
 4.1006160E+001, 6.9152972E-002, 1.3316424E-001, 8.8352881E-002, 1.1529898E-004, 2.0564751E-005, 5.7399275E-004, 5.2083512E+002
 4.2008090E+001, 6.8306987E-002, 1.3385024E-001, 8.8786064E-002, 1.2058748E-004, 2.2753279E-005, 5.7796882E-004, 5.1190877E+002
 4.3003470E+001, 6.7880870E-002, 1.3420144E-001, 8.9002040E-002, 1.1926793E-004, 2.3475392E-005, 5.7914100E-004, 5.1433355E+002
 4.4003691E+001, 6.5510573E-002, 1.3613469E-001, 9.0212299E-002, 1.2684280E-004, 2.4164401E-005, 5.8877487E-004, 5.1648345E+002
 4.5001702E+001, 6.3729939E-002, 1.3759578E-001, 9.1118002E-002, 1.2633834E-004, 2.4341621E-005, 5.9472024E-004, 5.2140784E+002
 4.6008317E+001, 6.1499377E-002, 1.3942643E-001, 9.2252610E-002, 1.2557535E-004, 2.3530227E-005, 6.0214136E-004, 5.2287863E+002
 4.7003270E+001, 6.0924517E-002, 1.3989084E-001, 9.2547856E-002, 1.3052887E-004, 2.4057665E-005, 6.0512757E-004, 5.1741220E+002
 4.8000496E+001, 5.9618813E-002, 1.4095342E-001, 9.3214809E-002, 1.3592597E-004, 2.7902313E-005, 6.1068716E-004, 5.1482563E+002
 4.9004265E+001, 5.9454529E-002, 1.4108904E-001, 9.3298642E-002, 1.3570283E-004, 2.4903961E-005, 6.1120122E-004, 5.3072648E+002
 5.0003280E+001, 5.7348533E-002, 1.4278963E-001, 9.4379856E-002, 1.5391318E-004, 3.0522429E-005, 6.2215144E-004, 5.2084899E+002
 5.1004706E+001, 5.7208013E-002, 1.4291677E-001, 9.4446680E-002, 1.4554577E-004, 2.9868307E-005, 6.2088418E-004, 5.1839637E+002
 5.2004617E+001, 5.6383842E-002, 1.4359579E-001, 9.4864985E-002, 1.4349535E-004, 2.8901428E-005, 6.2325787E-004, 5.1640864E+002
 5.3007517E+001, 5.4803905E-002, 1.4489867E-001, 9.5666374E-002, 1.3870301E-004, 2.7134332E-005, 6.2762842E-004, 5.1634405E+002
 5.4008632E+001, 5.4347692E-002, 1.4527370E-001, 9.5898450E-002, 1.3828739E-004, 2.5635657E-005, 6.2909316E-004, 5.1811463E+002
 5.5004554E+001, 5.3940915E-002, 1.4559289E-001, 9.6110627E-002, 1.4812876E-004, 2.8787573E-005, 6.3252564E-004, 5.1714603E+002
 5.6001818E+001, 5.1988414E-002, 1.4718555E-001, 9.7107477E-002, 1.5423887E-004, 2.9449502E-005, 6.4043431E-004, 5.1761983E+002
 5.7001297E+001, 5.1722860E-002, 1.4741147E-001, 9.7239561E-002, 1.4862685E-004, 2.8185768E-005, 6.4016713E-004, 5.1675440E+002
 5.8003523E+001, 5.0060353E-002, 1.4876861E-001, 9.8087982E-002, 1.5312528E-004, 2.8526909E-005, 6.4675447E-004, 5.1443081E+002
 5.9006781E+001, 5.0005046E-002, 1.4881366E-001, 9.8115997E-002, 1.5317821E-004, 2.9788450E-005, 6.4695245E-004, 5.1648277E+002
 6.0003186E+001, 4.9185533E-002, 1.4948249E-001, 9.8533954E-002, 1.5528508E-004, 3.1571337E-005, 6.5017527E-004, 5.1763728E+002
 6.1002852E+001, 4.7586897E-002, 1.5079357E-001, 9.9347558E-002, 1.5544379E-004, 3.0719781E-005, 6.5564134E-004, 5.1886893E+002
 6.2004248E+001, 4.7648672E-002, 1.5073220E-001, 9.9320235E-002, 1.6291555E-004, 3.1821462E-005, 6.5698900E-004, 5.1700355E+002
 6.3007301E+001, 4.6041672E-002, 1.5203801E-001, 1.0014245E-001, 1.7133147E-004, 3.3698141E-005, 6.6420362E-004, 5.2017159E+002
 6.4007914E+001, 4.5485720E-002, 1.5251171E-001, 1.0041884E-001, 1.5918156E-004, 3.0306225E-005, 6.6356124E-004, 5.1790553E+002
 6.5003231E+001, 4.4347742E-002, 1.5342918E-001, 1.0100379E-001, 1.7013699E-004, 3.2666804E-005, 6.6971140E-004, 5.2393069E+002
 6.6002712E+001, 4.4436489E-002, 1.5334742E-001, 1.0096194E-001, 1.7630394E-004, 3.4270250E-005, 6.7069486E-004, 5.1928282E+002
 6.7001896E+001, 4.4205469E-002, 1.5355475E-001, 1.0107265E-001, 1.6385476E-004, 3.2409868E-005, 6.6888471E-004, 5.2265795E+002
 6.8001105E+001, 4.1428271E-002, 1.5581033E-001, 1.0249418E-001, 1.7928838E-004, 3.4940500E-005, 6.8153899E-004, 5.2247641E+002
 6.9000365E+001, 4.1675683E-002, 1.5559745E-001, 1.0237168E-001, 1.8594361E-004, 3.8126265E-005, 6.8208390E-004, 5.1812098E+002
 7.0010674E+001, 4.2495746E-002, 1.5494160E-001, 1.0194822E-001, 1.7441787E-004, 3.5325131E-005, 6.7689544E-004, 5.1537333E+002
 7.1007026E+001, 4.0846475E-002, 1.5630577E-001, 1.0278370E-001, 1.6687983E-004, 3.0567383E-005, 6.8093125E-004, 5.2138230E+002
 7.2001628E+001, 4.0347727E-002, 1.5670380E-001, 1.0304145E-001, 1.7440301E-004, 3.2915803E-005, 6.8419336E-004, 5.1920504E+002
 7.3008249E+001, 3.9792291E-002, 1.5713632E-001, 1.0333271E-001, 1.9034323E-004, 3.6217759E-005, 6.8940298E-004, 5.1761985E+002
 7.4004537E+001, 3.8928329E-002, 1.5784393E-001, 1.0377226E-001, 1.9074055E-004, 3.8414338E-005, 6.9241994E-004, 5.1804176E+002
 7.5002997E+001, 3.6928327E-002, 1.5947404E-001, 1.0479381E-001, 1.9786609E-004, 3.9481106E-005, 7.0070150E-004, 5.2166070E+002
 7.6000567E+001, 3.8147475E-002, 1.5848544E-001, 1.0416916E-001, 1.8998669E-004, 3.8324201E-005, 6.9491617E-004, 5.1474772E+002
 7.7003035E+001, 3.9113819E-002, 1.5771930E-001, 1.0366748E-001, 1.7165765E-004, 3.4828862E-005, 6.8781216E-004, 5.1663594E+002
 7.8007551E+001, 3.6008004E-002, 1.6024019E-001, 1.0525777E-001, 1.8998312E-004, 3.8121226E-005, 7.0218568E-004, 5.2240849E+002
 7.9005705E+001, 3.7461097E-002, 1.5906925E-001, 1.0451058E-001, 1.7555480E-004, 3.5223805E-005, 6.9424079E-004, 5.1621236E+002
 8.0003613E+001, 3.7500007E-002, 1.5903470E-001, 1.0449186E-001, 1.7744559E-004, 3.5155109E-005, 6.9450300E-004, 5.1704417E+002
 8.1005216E+001, 3.5822224E-002, 1.6038391E-001, 1.0535561E-001, 1.9601029E-004, 3.9054747E-005, 7.0407338E-004, 5.1962901E+002
 8.2004427E+001, 3.6845304E-002, 1.5955059E-001, 1.0483278E-001, 1.9194704E-004, 3.8746307E-005, 6.9974961E-004, 5.1678387E+002
 8.3002085E+001, 3.4917552E-002, 1.6111891E-001, 1.0581890E-001, 2.0108736E-004, 3.8252223E-005, 7.0820712E-004, 5.2396590E+002
 8.4005003E+001, 3.4954938E-002, 1.6108651E-001, 1.0580019E-001, 2.0205805E-004, 4.0221876E-005, 7.0828100E-004, 5.2008977E+002
 8.5006158E+001, 3.4097050E-002, 1.6179440E-001, 1.0623526E-001, 1.9921027E-004, 3.8754391E-005, 7.1060334E-004, 5.1975533E+002
 8.6007105E+001, 3.3412730E-002, 1.6232110E-001, 1.0659645E-001, 2.2313277E-004, 4.3590729E-005, 7.1791464E-004, 5.2016168E+002
 8.7008909E+001, 3.4725456E-002, 1.6126578E-001, 1.0592036E-001, 2.0828331E-004, 4.1233439E-005, 7.1035846E-004, 5.1816922E+002
 8.8007209E+001, 3.4162751E-002, 1.6172660E-001, 1.0620669E-001, 2.0859240E-004, 4.2553334E-005, 7.1233401E-004, 5.1921424E+002
 8.9008848E+001, 3.3552621E-002, 1.6224494E-001, 1.0651081E-001, 1.9646004E-004, 3.7905650E-005, 7.1188038E-004, 5.1975078E+002
 9.0003643E+001, 3.2927643E-002, 1.6273894E-001, 1.0683627E-001, 2.0964468E-004, 3.8200104E-005, 7.1675390E-004, 5.1848252E+002
 9.1001272E+001, 3.3228084E-002, 1.6250193E-001, 1.0667955E-001, 2.0292540E-004, 3.8446380E-005, 7.1433129E-004, 5.1592862E+002
 9.2006052E+001, 3.2359958E-002, 1.6319694E-001, 1.0712754E-001, 2.1461672E-004, 4.1389989E-005, 7.1971750E-004, 5.2127979E+002
 9.3004051E+001, 3.1732411E-002, 1.6370961E-001, 1.0744751E-001, 2.1594793E-004, 4.2158734E-005, 7.2212701E-004, 5.1963332E+002
 9.4001915E+001, 3.2680752E-002, 1.6294535E-001, 1.0695979E-001, 2.0650907E-004, 4.0774432E-005, 7.1693682E-004, 5.1923019E+002
 9.5006482E+001, 3.1354332E-002, 1.6401536E-001, 1.0764178E-001, 2.1912947E-004, 4.1454454E-005, 7.2407591E-004, 5.2186943E+002
 9.6007861E+001, 3.0271107E-002, 1.6489355E-001, 1.0819686E-001, 2.2626672E-004, 4.2512151E-005, 7.2924464E-004, 5.1908173E+002
 9.7004474E+001, 3.0483830E-002, 1.6472938E-001, 1.0808465E-001, 2.1906797E-004, 4.1575581E-005, 7.2702102E-004, 5.2240952E+002
 9.8004809E+001, 3.0335132E-002, 1.6487078E-001, 1.0815343E-001, 2.0589400E-004, 3.6685776E-005, 7.2478234E-004, 5.2100443E+002
 9.9001678E+001, 3.0569195E-002, 1.6466500E-001, 1.0803953E-001, 2.1546095E-004, 3.8589468E-005, 7.2598094E-004, 5.1740569E+002
 1.0000511E+002, 3.1220823E-002, 1.6416835E-001, 1.0769348E-001, 1.8910107E-004, 3.4720545E-005, 7.1827159E-004, 5.2111463E+002
 1.0100796E+002, 2.9097365E-002, 1.6584455E-001, 1.0879864E-001, 2.3446053E-004, 4.3248261E-005, 7.3494158E-004, 5.2075028E+002
 1.0200075E+002, 3.0376307E-002, 1.6481863E-001, 1.0813869E-001, 2.1814896E-004, 4.2743025E-005, 7.2719379E-004, 5.1394564E+002
 1.0300082E+002, 2.8877989E-002, 1.6604728E-001, 1.0890192E-001, 2.1882791E-004, 3.8856434E-005, 7.3242986E-004, 5.2000217E+002
 1.0400288E+002, 2.9834757E-002, 1.6527655E-001, 1.0840946E-001, 2.0888651E-004, 3.8824552E-005, 7.2710514E-004, 5.1576027E+002
 1.0500548E+002, 3.0051575E-002, 1.6508359E-001, 1.0830523E-001, 2.1963534E-004, 3.8987518E-005, 7.2861023E-004, 5.1755129E+002
 1.0600044E+002, 3.0830527E-002, 1.6445151E-001, 1.0790622E-001, 2.1485634E-004, 3.8616263E-005, 7.2496678E-004, 5.1803204E+002
 1.0700123E+002, 2.8898344E-002, 1.6599343E-001, 1.0890566E-001, 2.4463346E-004, 4.3488382E-005, 7.3773954E-004, 5.1328009E+002
 1.0800628E+002, 2.8684492E-002, 1.6619646E-001, 1.0900422E-001, 2.2559526E-004, 3.8907548E-005, 7.3449886E-004, 5.2081988E+002
 1.0900652E+002, 2.9507149E-002, 1.6554496E-001, 1.0857670E-001, 2.0938675E-004, 3.6657987E-005, 7.2832442E-004, 5.1761891E+002
 1.1000813E+002, 2.8761349E-002, 1.6614379E-001, 1.0896109E-001, 2.1833551E-004, 3.8065128E-005, 7.3272413E-004, 5.1439024E+002
 1.1100309E+002, 2.8634864E-002, 1.6624527E-001, 1.0902579E-001, 2.1955384E-004, 4.0913795E-005, 7.3340581E-004, 5.2371093E+002
 1.1200127E+002, 2.8249240E-002, 1.6654712E-001, 1.0922743E-001, 2.2954753E-004, 4.2893493E-005, 7.3679911E-004, 5.2070623E+002
 1.1300340E+002, 2.8186043E-002, 1.6660779E-001, 1.0925668E-001, 2.2371359E-004, 3.9572384E-005, 7.3579963E-004, 5.2349805E+002
 1.1400581E+002, 2.7107351E-002, 1.6747127E-001, 1.0981366E-001, 2.3850088E-004, 4.1856845E-005, 7.4254763E-004, 5.2124484E+002
 1.1500910E+002, 2.7831216E-002, 1.6689649E-001, 1.0943810E-001, 2.2531809E-004, 3.9876239E-005, 7.3733979E-004, 5.2078101E+002
 1.1600403E+002, 2.8407051E-002, 1.6640768E-001, 1.0915081E-001, 2.3641560E-004, 4.4764329E-005, 7.3769392E-004, 5.1714988E+002
 1.1700014E+002, 2.7274060E-002, 1.6733366E-001, 1.0972874E-001, 2.3882065E-004, 4.4116132E-005, 7.4204606E-004, 5.1785090E+002
 1.1800903E+002, 2.7560964E-002, 1.6710254E-001, 1.0958149E-001, 2.3613369E-004, 4.1981820E-005, 7.4051238E-004, 5.1389845E+002
 1.1900064E+002, 2.8338268E-002, 1.6648204E-001, 1.0917890E-001, 2.2388543E-004, 4.3003149E-005, 7.3531551E-004, 5.2037416E+002
 1.2000161E+002, 2.8383546E-002, 1.6644351E-001, 1.0915649E-001, 2.2492294E-004, 4.2691117E-005, 7.3537830E-004, 5.1459019E+002
 1.2100623E+002, 2.7496014E-002, 1.6715942E-001, 1.0961343E-001, 2.3380106E-004, 4.0193673E-005, 7.4024795E-004, 5.1806385E+002
 1.2200731E+002, 2.6293340E-002, 1.6813734E-001, 1.1022811E-001, 2.3936502E-004, 4.3610238E-005, 7.4549257E-004, 5.2599907E+002
 1.2300475E+002, 2.7174799E-002, 1.6741316E-001, 1.0978029E-001, 2.4036867E-004, 4.2722398E-005, 7.4270734E-004, 5.1946809E+002
 1.2400518E+002, 2.6229033E-002, 1.6818941E-001, 1.1026138E-001, 2.4002796E-004, 4.2244631E-005, 7.4585044E-004, 5.1924875E+002
 1.2500207E+002, 2.6651119E-002, 1.6785000E-001, 1.1004347E-001, 2.3493952E-004, 4.4259149E-005, 7.4335323E-004, 5.1768585E+002
 1.2600413E+002, 2.5929643E-002, 1.6840814E-001, 1.1042305E-001, 2.5809530E-004, 4.9719797E-005, 7.5063038E-004, 5.1999480E+002
 1.2700630E+002, 2.6555400E-002, 1.6792496E-001, 1.1009407E-001, 2.3777494E-004, 4.1976416E-005, 7.4427169E-004, 5.1821270E+002
 1.2800776E+002, 2.6266549E-002, 1.6813979E-001, 1.1024915E-001, 2.5292664E-004, 4.6059670E-005, 7.4841035E-004, 5.1715445E+002
 1.2900189E+002, 2.6697215E-002, 1.6783270E-001, 1.1001254E-001, 2.2089906E-004, 4.0215762E-005, 7.4027123E-004, 5.2097704E+002
 1.3000146E+002, 2.6916968E-002, 1.6760926E-001, 1.0991710E-001, 2.5089922E-004, 4.5688069E-005, 7.4577759E-004, 5.1925147E+002
 1.3100721E+002, 2.5583948E-002, 1.6872143E-001, 1.1058861E-001, 2.3806802E-004, 4.1258006E-005, 7.4763446E-004, 5.2345350E+002
 1.3200306E+002, 2.4900857E-002, 1.6928436E-001, 1.1093488E-001, 2.3601669E-004, 4.2299824E-005, 7.4952697E-004, 5.2382871E+002
 1.3300603E+002, 2.7110015E-002, 1.6746169E-001, 1.0981421E-001, 2.4303729E-004, 4.7233151E-005, 7.4348056E-004, 5.1638596E+002
 1.3400778E+002, 2.5329526E-002, 1.6890655E-001, 1.1072623E-001, 2.5390392E-004, 4.8020396E-005, 7.5179673E-004, 5.2121502E+002
 1.3500216E+002, 2.7004358E-002, 1.6754152E-001, 1.0987077E-001, 2.4791366E-004, 4.7065389E-005, 7.4485682E-004, 5.1719154E+002
 1.3600446E+002, 2.4940624E-002, 1.6922514E-001, 1.1092452E-001, 2.5434384E-004, 4.6740157E-005, 7.5321101E-004, 5.1929123E+002
 1.3700431E+002, 2.4898232E-002, 1.6928773E-001, 1.1093609E-001, 2.3539471E-004, 4.0488793E-005, 7.4940758E-004, 5.2486614E+002
 1.3800986E+002, 2.5380194E-002, 1.6887411E-001, 1.1069683E-001, 2.4746314E-004, 4.7722618E-005, 7.5028138E-004, 5.2403921E+002
 1.3900686E+002, 2.6382111E-002, 1.6806263E-001, 1.1018327E-001, 2.4041937E-004, 4.5837823E-005, 7.4540908E-004, 5.1729079E+002
 1.4000119E+002, 2.4712928E-002, 1.6942720E-001, 1.1103507E-001, 2.4405328E-004, 4.2299567E-005, 7.5184183E-004, 5.1842163E+002
 1.4100968E+002, 2.6282668E-002, 1.6813286E-001, 1.1023888E-001, 2.4877426E-004, 4.3634366E-005, 7.4749138E-004, 5.1729177E+002
 1.4200664E+002, 2.5235191E-002, 1.6901325E-001, 1.1076409E-001, 2.3419738E-004, 3.9431582E-005, 7.4801366E-004, 5.2775030E+002
 1.4300736E+002, 2.5819843E-002, 1.6852681E-001, 1.1046888E-001, 2.3877273E-004, 4.2090587E-005, 7.4697920E-004, 5.1770938E+002
 1.4400066E+002, 2.4290049E-002, 1.6976443E-001, 1.1125420E-001, 2.5093358E-004, 4.1914682E-005, 7.5471419E-004, 5.2297793E+002
 1.4500592E+002, 2.4712359E-002, 1.6942910E-001, 1.1103471E-001, 2.4298468E-004, 4.2654026E-005, 7.5162060E-004, 5.2045808E+002
 1.4600116E+002, 2.4224954E-002, 1.6980351E-001, 1.1129224E-001, 2.6052779E-004, 4.6224803E-005, 7.5693316E-004, 5.1620905E+002
 1.4700487E+002, 2.4925768E-002, 1.6924947E-001, 1.1092714E-001, 2.4568731E-004, 4.6872408E-005, 7.5145582E-004, 5.2217313E+002
 1.4800566E+002, 2.4681793E-002, 1.6945432E-001, 1.1105053E-001, 2.4310106E-004, 4.0997043E-005, 7.5175004E-004, 5.1754621E+002
 1.4900073E+002, 2.5264986E-002, 1.6898266E-001, 1.1075059E-001, 2.3801914E-004, 4.3562692E-005, 7.4870631E-004, 5.1999135E+002
 1.5000797E+002, 2.6383905E-002, 1.6805578E-001, 1.1018460E-001, 2.4429314E-004, 4.5496213E-005, 7.4621124E-004, 5.0956550E+002
 1.5100421E+002, 2.5404967E-002, 1.6888427E-001, 1.1067338E-001, 2.2677811E-004, 4.0339969E-005, 7.4588854E-004, 5.2105502E+002
 1.5200278E+002, 2.4580852E-002, 1.6954520E-001, 1.1109864E-001, 2.3735627E-004, 4.0912494E-005, 7.5089487E-004, 5.1878600E+002
 1.5300194E+002, 2.4619692E-002, 1.6950484E-001, 1.1108196E-001, 2.4316758E-004, 4.2674766E-005, 7.5197362E-004, 5.2587467E+002
 1.5400395E+002, 2.4198578E-002, 1.6985120E-001, 1.1129565E-001, 2.4234353E-004, 4.3611537E-005, 7.5323199E-004, 5.1847794E+002
