s,,,,,,,
Time,"O2 EXHAUST","CO2 EXHAUST","H2O EXHAUST","CO EXHAUST","FUEL EXHAUST","SOOT EXHAUST","TEMP EXHAUST"
 0.0000000E+000, 2.3099739E-001, 5.9146498E-004, 5.9412091E-003, 0.0000000E+000, 0.0000000E+000, 0.0000000E+000, 2.0000000E+001
 1.0055419E+000, 2.3099739E-001, 5.9146498E-004, 5.9412091E-003, 1.6066991E-031, 1.5243626E-030, 4.4442095E-032, 2.0357263E+001
 2.0001196E+000, 2.2387480E-001, 6.1485062E-003, 1.0582898E-002, 1.1875270E-005, 1.8513287E-004, 3.4793988E-005, 9.1215112E+001
 3.0011795E+000, 2.2084990E-001, 8.5060395E-003, 1.2569118E-002, 2.5702837E-005, 2.0879793E-004, 5.1456707E-005, 1.1937128E+002
 4.0008465E+000, 2.1580583E-001, 1.2455819E-002, 1.5867614E-002, 3.3570979E-005, 2.6522363E-004, 7.6063122E-005, 1.6649280E+002
 5.0006297E+000, 2.1179398E-001, 1.5600112E-002, 1.8497416E-002, 4.1835910E-005, 2.7908058E-004, 9.6084425E-005, 2.0142546E+002
 6.0001722E+000, 2.0643641E-001, 1.9806019E-002, 2.2005928E-002, 4.8056262E-005, 2.9736886E-004, 1.2181939E-004, 2.4372886E+002
 7.0042513E+000, 2.0135383E-001, 2.3819787E-002, 2.5338919E-002, 4.5789432E-005, 2.4835532E-004, 1.4460357E-004, 2.8047477E+002
 8.0068847E+000, 1.9603981E-001, 2.8022181E-002, 2.8825365E-002, 4.1692710E-005, 1.7857411E-004, 1.6808554E-004, 3.1690518E+002
 9.0047691E+000, 1.9108958E-001, 3.1937768E-002, 3.2072782E-002, 3.7304272E-005, 1.1312925E-004, 1.8984127E-004, 3.4220420E+002
 1.0000732E+001, 1.8516982E-001, 3.6617374E-002, 3.5954848E-002, 3.2620514E-005, 4.6278432E-005, 2.1596346E-004, 3.7097924E+002
 1.1005633E+001, 1.7860612E-001, 4.1794467E-002, 4.0256838E-002, 3.1328963E-005, 4.9396522E-006, 2.4570452E-004, 3.9714349E+002
 1.2007133E+001, 1.7339691E-001, 4.5893185E-002, 4.3669167E-002, 3.3768232E-005, 3.4391696E-008, 2.6999972E-004, 4.1297656E+002
 1.3008354E+001, 1.6737900E-001, 5.0626165E-002, 4.7610865E-002, 3.7296725E-005, 2.2296908E-008, 2.9820854E-004, 4.2632515E+002
 1.4000249E+001, 1.6292958E-001, 5.4125542E-002, 5.0525205E-002, 3.9907977E-005, 2.7080921E-008, 3.1906555E-004, 4.3651972E+002
 1.5000080E+001, 1.5679527E-001, 5.8950048E-002, 5.4543153E-002, 4.3518233E-005, 4.5233801E-008, 3.4782279E-004, 4.4674052E+002
 1.6002878E+001, 1.5075593E-001, 6.3699875E-002, 5.8498885E-002, 4.7061175E-005, 3.7774273E-008, 3.7613243E-004, 4.5824737E+002
 1.7000546E+001, 1.4777264E-001, 6.6046136E-002, 6.0452927E-002, 4.8830962E-005, 7.4232599E-008, 3.9012074E-004, 4.5981813E+002
 1.8007560E+001, 1.4297560E-001, 6.9818912E-002, 6.3594972E-002, 5.1653914E-005, 7.3649182E-008, 4.1260892E-004, 4.6395063E+002
 1.9003698E+001, 1.3896085E-001, 7.2976469E-002, 6.6224595E-002, 5.3987356E-005, 6.9162637E-008, 4.3142369E-004, 4.6373986E+002
 2.0004801E+001, 1.3513114E-001, 7.5988485E-002, 6.8733023E-002, 5.6219796E-005, 4.2908311E-008, 4.4937264E-004, 4.6576398E+002
 2.1004300E+001, 1.3092794E-001, 7.9294239E-002, 7.1486086E-002, 5.8673956E-005, 3.9622824E-008, 4.6907288E-004, 4.6935415E+002
 2.2006929E+001, 1.2807453E-001, 8.1538413E-002, 7.3355043E-002, 6.0333415E-005, 2.7461650E-008, 4.8244534E-004, 4.7030780E+002
 2.3001219E+001, 1.2500392E-001, 8.3953403E-002, 7.5366277E-002, 6.2130518E-005, 2.3746309E-008, 4.9683810E-004, 4.6807505E+002
 2.4003419E+001, 1.2148264E-001, 8.6722785E-002, 7.7672705E-002, 6.4218120E-005, 5.7898531E-008, 5.1334875E-004, 4.6986506E+002
 2.5002196E+001, 1.1826283E-001, 8.9255110E-002, 7.9781660E-002, 6.6103863E-005, 4.2351269E-008, 5.2844108E-004, 4.7173216E+002
 2.6007911E+001, 1.1596881E-001, 9.1059308E-002, 8.1284232E-002, 6.7453401E-005, 4.7087222E-008, 5.3919517E-004, 4.7167874E+002
 2.7006714E+001, 1.1376883E-001, 9.2789597E-002, 8.2725191E-002, 6.8716276E-005, 2.9912309E-008, 5.4950193E-004, 4.6786488E+002
 2.8002997E+001, 1.1077319E-001, 9.5145528E-002, 8.4687343E-002, 7.0523183E-005, 8.1901424E-008, 5.6355434E-004, 4.6800068E+002
 2.9000585E+001, 1.0743136E-001, 9.7773856E-002, 8.6876205E-002, 7.2456695E-005, 5.0586257E-008, 5.7921371E-004, 4.6977091E+002
 3.0002046E+001, 1.0603076E-001, 9.8875425E-002, 8.7793578E-002, 7.3261344E-005, 4.5123356E-008, 5.8577553E-004, 4.6940374E+002
 3.1000069E+001, 1.0334042E-001, 1.0099130E-001, 8.9555746E-002, 7.4855354E-005, 6.2577369E-008, 5.9838988E-004, 4.6866416E+002
 3.2005270E+001, 1.0065323E-001, 1.0310473E-001, 9.1315840E-002, 7.6431443E-005, 6.7864331E-008, 6.1098613E-004, 4.6929499E+002
 3.3006167E+001, 9.8865606E-002, 1.0451066E-001, 9.2486716E-002, 7.7476338E-005, 8.8345159E-008, 6.1936486E-004, 4.6887756E+002
 3.4006203E+001, 9.5906673E-002, 1.0683783E-001, 9.4424795E-002, 7.9199768E-005, 6.1816432E-008, 6.3323242E-004, 4.6999834E+002
 3.5001761E+001, 9.3782758E-002, 1.0850821E-001, 9.5815957E-002, 8.0468717E-005, 1.0311012E-007, 6.4319309E-004, 4.7128753E+002
 3.6009245E+001, 9.1004214E-002, 1.1069351E-001, 9.7635887E-002, 8.2088506E-005, 5.5550351E-008, 6.5621554E-004, 4.7177804E+002
 3.7001128E+001, 8.8890419E-002, 1.1235592E-001, 9.9020415E-002, 8.3352641E-005, 1.3744121E-007, 6.6612896E-004, 4.7046551E+002
 3.8000697E+001, 8.5974503E-002, 1.1464927E-001, 1.0093031E-001, 8.5034386E-005, 1.1237622E-007, 6.7979145E-004, 4.7206463E+002
 3.9008406E+001, 8.4489491E-002, 1.1581727E-001, 1.0190297E-001, 8.5871277E-005, 3.7464795E-008, 6.8674545E-004, 4.6807175E+002
 4.0008485E+001, 8.1838283E-002, 1.1790236E-001, 1.0363950E-001, 8.7447713E-005, 7.7510976E-008, 6.9917744E-004, 4.7130571E+002
 4.1001096E+001, 7.9709611E-002, 1.1957638E-001, 1.0503380E-001, 8.8770583E-005, 2.3382526E-007, 7.0917093E-004, 4.7242187E+002
 4.2004463E+001, 7.7563871E-002, 1.2122851E-001, 1.0644785E-001, 1.1015495E-004, 3.7411329E-005, 7.2337829E-004, 4.7561866E+002
 4.3004470E+001, 7.5008087E-002, 1.2322672E-001, 1.0812147E-001, 1.1669978E-004, 6.3015399E-005, 7.3638164E-004, 4.7404264E+002
 4.4008096E+001, 7.3300188E-002, 1.2453159E-001, 1.0924932E-001, 1.3942183E-004, 1.0368847E-004, 7.4886476E-004, 4.7398949E+002
 4.5002199E+001, 7.2272389E-002, 1.2530629E-001, 1.0992237E-001, 1.5484338E-004, 1.7236270E-004, 7.5669408E-004, 4.6796845E+002
 4.6001010E+001, 7.0213610E-002, 1.2676722E-001, 1.1129628E-001, 2.3920965E-004, 3.9031600E-004, 7.8342093E-004, 4.6920923E+002
 4.7006770E+001, 6.8196632E-002, 1.2833667E-001, 1.1262875E-001, 2.5370329E-004, 3.7880810E-004, 7.9565775E-004, 4.7201590E+002
 4.8000605E+001, 6.6587693E-002, 1.2943557E-001, 1.1371060E-001, 3.4278669E-004, 6.0308278E-004, 8.2130589E-004, 4.7082424E+002
 4.9008345E+001, 6.6249957E-002, 1.2972792E-001, 1.1392382E-001, 3.2703289E-004, 5.8113810E-004, 8.1959243E-004, 4.6479863E+002
 5.0007889E+001, 6.4587387E-002, 1.3086585E-001, 1.1504868E-001, 4.2159529E-004, 7.8012980E-004, 8.4665231E-004, 4.6715215E+002
 5.1002723E+001, 6.3965027E-002, 1.3127952E-001, 1.1546663E-001, 4.6083271E-004, 8.9202097E-004, 8.5754136E-004, 4.6299566E+002
 5.2000106E+001, 6.3054582E-002, 1.3184515E-001, 1.1608115E-001, 5.3733165E-004, 1.1231826E-003, 8.7737435E-004, 4.6085274E+002
 5.3008232E+001, 6.1947502E-002, 1.3239729E-001, 1.1683426E-001, 6.9344312E-004, 1.6550770E-003, 9.1435605E-004, 4.6085636E+002
 5.4002195E+001, 6.0881480E-002, 1.3311985E-001, 1.1753049E-001, 7.4434394E-004, 1.8974167E-003, 9.2956031E-004, 4.6273871E+002
 5.5000254E+001, 6.0669226E-002, 1.3324170E-001, 1.1770166E-001, 7.8095943E-004, 1.8595386E-003, 9.3818933E-004, 4.5360541E+002
 5.6008149E+001, 5.9939843E-002, 1.3371106E-001, 1.1819795E-001, 8.3711425E-004, 1.9959457E-003, 9.5306180E-004, 4.5320304E+002
 5.7005237E+001, 5.9218848E-002, 1.3402038E-001, 1.1867301E-001, 9.5312086E-004, 2.5058404E-003, 9.7995784E-004, 4.5626011E+002
 5.8008424E+001, 5.8884807E-002, 1.3410816E-001, 1.1893295E-001, 1.0519458E-003, 2.6944151E-003, 1.0018505E-003, 4.5025418E+002
 5.9007179E+001, 5.8324678E-002, 1.3422859E-001, 1.1929241E-001, 1.1902217E-003, 3.3715662E-003, 1.0324701E-003, 4.4787968E+002
 6.0001583E+001, 5.8174682E-002, 1.3421466E-001, 1.1944267E-001, 1.2754706E-003, 3.4294403E-003, 1.0508350E-003, 4.4448022E+002
 6.1001947E+001, 5.7570637E-002, 1.3466957E-001, 1.1981465E-001, 1.2725781E-003, 3.5652655E-003, 1.0528476E-003, 4.4574293E+002
 6.2004910E+001, 5.7192943E-002, 1.3460147E-001, 1.2007099E-001, 1.4391179E-003, 4.2677616E-003, 1.0884896E-003, 4.4317333E+002
 6.3001322E+001, 5.6760373E-002, 1.3466033E-001, 1.2042713E-001, 1.6014082E-003, 4.5443658E-003, 1.1239470E-003, 4.4176371E+002
 6.4004137E+001, 5.6500516E-002, 1.3481635E-001, 1.2056353E-001, 1.6055946E-003, 4.7778859E-003, 1.1257583E-003, 4.3894082E+002
 6.5005448E+001, 5.6204222E-002, 1.3486539E-001, 1.2079004E-001, 1.7039313E-003, 5.0197156E-003, 1.1473208E-003, 4.3982441E+002
 6.6005757E+001, 5.6010441E-002, 1.3465809E-001, 1.2091289E-001, 1.8612468E-003, 5.7635253E-003, 1.1801600E-003, 4.3535005E+002
 6.7003093E+001, 5.5688613E-002, 1.3488304E-001, 1.2115445E-001, 1.8897282E-003, 5.6969520E-003, 1.1876267E-003, 4.3165621E+002
 6.8003636E+001, 5.5557538E-002, 1.3483439E-001, 1.2128008E-001, 1.9774579E-003, 5.8440628E-003, 1.2063274E-003, 4.3067155E+002
 6.9001674E+001, 5.5329060E-002, 1.3466536E-001, 1.2138042E-001, 2.1066715E-003, 6.7473262E-003, 1.2333085E-003, 4.2845567E+002
 7.0007661E+001, 5.5033787E-002, 1.3477382E-001, 1.2156758E-001, 2.1584464E-003, 7.0226749E-003, 1.2451411E-003, 4.2672028E+002
 7.1006980E+001, 5.4511124E-002, 1.3501947E-001, 1.2194618E-001, 2.2506534E-003, 7.2115984E-003, 1.2665172E-003, 4.2610337E+002
 7.2004782E+001, 5.4475883E-002, 1.3490682E-001, 1.2192168E-001, 2.2883698E-003, 7.6865181E-003, 1.2740264E-003, 4.2485917E+002
 7.3005245E+001, 5.4497600E-002, 1.3476727E-001, 1.2191745E-001, 2.3477373E-003, 7.8940686E-003, 1.2860633E-003, 4.2376477E+002
 7.4000456E+001, 5.4147203E-002, 1.3477991E-001, 1.2206706E-001, 2.4233032E-003, 8.7466697E-003, 1.3024899E-003, 4.2233067E+002
 7.5005332E+001, 5.3890739E-002, 1.3481405E-001, 1.2228780E-001, 2.5247903E-003, 8.8736910E-003, 1.3246473E-003, 4.2181985E+002
 7.6000510E+001, 5.3782802E-002, 1.3442778E-001, 1.2239750E-001, 2.7535660E-003, 9.6699079E-003, 1.3719108E-003, 4.1755180E+002
 7.7003745E+001, 5.3829961E-002, 1.3464580E-001, 1.2233540E-001, 2.6245110E-003, 9.2793086E-003, 1.3452498E-003, 4.1870527E+002
 7.8000291E+001, 5.3553943E-002, 1.3467243E-001, 1.2246384E-001, 2.6821047E-003, 9.8746642E-003, 1.3578679E-003, 4.1775464E+002
 7.9007551E+001, 5.3396917E-002, 1.3447866E-001, 1.2258799E-001, 2.8336546E-003, 1.0430771E-002, 1.3895373E-003, 4.1828037E+002
 8.0007972E+001, 5.3034209E-002, 1.3464675E-001, 1.2285283E-001, 2.8997761E-003, 1.0558245E-002, 1.4048194E-003, 4.1716373E+002
 8.1009462E+001, 5.3129451E-002, 1.3451920E-001, 1.2274200E-001, 2.8981255E-003, 1.0859249E-002, 1.4037236E-003, 4.1545733E+002
 8.2001152E+001, 5.2845678E-002, 1.3458962E-001, 1.2288593E-001, 2.9443759E-003, 1.1336587E-002, 1.4141409E-003, 4.1318096E+002
 8.3008652E+001, 5.2689596E-002, 1.3461271E-001, 1.2300502E-001, 2.9972804E-003, 1.1470417E-002, 1.4257223E-003, 4.1462394E+002
 8.4006855E+001, 5.2635846E-002, 1.3453780E-001, 1.2303874E-001, 3.0484417E-003, 1.1713378E-002, 1.4363586E-003, 4.1244918E+002
 8.5005577E+001, 5.2518200E-002, 1.3447254E-001, 1.2306526E-001, 3.0924020E-003, 1.2235411E-002, 1.4454938E-003, 4.1129064E+002
 8.6006419E+001, 5.2115263E-002, 1.3446300E-001, 1.2329503E-001, 3.2196459E-003, 1.3032700E-002, 1.4729732E-003, 4.1264015E+002
 8.7004938E+001, 5.2117445E-002, 1.3443923E-001, 1.2330937E-001, 3.2375215E-003, 1.3013964E-002, 1.4767031E-003, 4.1176950E+002
 8.8001995E+001, 5.2197329E-002, 1.3426239E-001, 1.2324952E-001, 3.2840951E-003, 1.3274776E-002, 1.4857558E-003, 4.1157415E+002
 8.9002202E+001, 5.2036019E-002, 1.3443817E-001, 1.2336051E-001, 3.2652734E-003, 1.3154446E-002, 1.4827021E-003, 4.1396958E+002
 9.0000401E+001, 5.2015518E-002, 1.3413386E-001, 1.2327496E-001, 3.3562967E-003, 1.4199896E-002, 1.5006360E-003, 4.1128643E+002
 9.1003913E+001, 5.2053724E-002, 1.3411593E-001, 1.2330637E-001, 3.3799254E-003, 1.3948792E-002, 1.5056438E-003, 4.1070094E+002
 9.2002402E+001, 5.1850029E-002, 1.3389210E-001, 1.2340864E-001, 3.5341066E-003, 1.4850501E-002, 1.5377094E-003, 4.0805442E+002
 9.3000770E+001, 5.1615745E-002, 1.3409109E-001, 1.2351211E-001, 3.5020166E-003, 1.5021399E-002, 1.5319206E-003, 4.0843471E+002
 9.4000364E+001, 5.1500856E-002, 1.3419024E-001, 1.2353158E-001, 3.4695061E-003, 1.5227608E-002, 1.5254619E-003, 4.0969073E+002
 9.5004782E+001, 5.1375650E-002, 1.3417676E-001, 1.2360306E-001, 3.5137452E-003, 1.5496339E-002, 1.5349567E-003, 4.0922548E+002
 9.6008376E+001, 5.1349101E-002, 1.3403977E-001, 1.2360047E-001, 3.5734000E-003, 1.5895811E-002, 1.5470713E-003, 4.1064387E+002
 9.7000783E+001, 5.1103242E-002, 1.3417163E-001, 1.2368919E-001, 3.5636010E-003, 1.6310566E-002, 1.5457171E-003, 4.1008099E+002
 9.8004751E+001, 5.1270845E-002, 1.3378271E-001, 1.2354683E-001, 3.6606097E-003, 1.6961347E-002, 1.5644541E-003, 4.0930465E+002
 9.9001223E+001, 5.1424083E-002, 1.3357913E-001, 1.2345895E-001, 3.7037288E-003, 1.7079167E-002, 1.5726037E-003, 4.0629827E+002
 1.0001053E+002, 5.1321945E-002, 1.3365860E-001, 1.2347642E-001, 3.6787471E-003, 1.7279385E-002, 1.5676599E-003, 4.0412385E+002
 1.0100498E+002, 5.1492168E-002, 1.3344798E-001, 1.2333098E-001, 3.6951823E-003, 1.7570869E-002, 1.5699957E-003, 4.0393475E+002
 1.0201069E+002, 5.1152998E-002, 1.3350298E-001, 1.2367638E-001, 3.8525354E-003, 1.7504207E-002, 1.6043612E-003, 4.0469876E+002
 1.0300671E+002, 5.1288055E-002, 1.3340632E-001, 1.2349101E-001, 3.7983856E-003, 1.7874018E-002, 1.5920855E-003, 4.0312013E+002
 1.0400373E+002, 5.0900636E-002, 1.3354103E-001, 1.2375216E-001, 3.8776981E-003, 1.8188089E-002, 1.6100287E-003, 4.0506009E+002
 1.0500767E+002, 5.1147023E-002, 1.3314636E-001, 1.2360274E-001, 3.9726742E-003, 1.8546329E-002, 1.6282915E-003, 4.0542034E+002
 1.0600093E+002, 5.0934526E-002, 1.3304826E-001, 1.2375530E-001, 4.0971356E-003, 1.9028972E-002, 1.6546543E-003, 4.0423020E+002
 1.0700495E+002, 5.1288139E-002, 1.3267740E-001, 1.2349321E-001, 4.1223313E-003, 1.9338932E-002, 1.6579565E-003, 4.0417663E+002
 1.0800749E+002, 5.0829815E-002, 1.3304432E-001, 1.2373818E-001, 4.0913405E-003, 1.9547662E-002, 1.6533793E-003, 4.0544760E+002
 1.0900217E+002, 5.1008860E-002, 1.3284026E-001, 1.2362063E-001, 4.1191030E-003, 1.9676638E-002, 1.6582035E-003, 4.0122455E+002
 1.1000871E+002, 5.1256924E-002, 1.3257151E-001, 1.2343185E-001, 4.1380513E-003, 1.9931194E-002, 1.6607459E-003, 3.9924990E+002
 1.1100382E+002, 5.1119731E-002, 1.3265090E-001, 1.2349555E-001, 4.1373097E-003, 2.0093904E-002, 1.6610463E-003, 3.9889376E+002
 1.1200842E+002, 5.0816522E-002, 1.3266692E-001, 1.2371196E-001, 4.2451544E-003, 2.0472268E-002, 1.6844751E-003, 4.0381862E+002
 1.1300856E+002, 5.1216876E-002, 1.3223763E-001, 1.2346332E-001, 4.3025797E-003, 2.0649075E-002, 1.6944116E-003, 4.0264919E+002
 1.1400834E+002, 5.1544696E-002, 1.3181671E-001, 1.2316771E-001, 4.3330248E-003, 2.1303751E-002, 1.6985605E-003, 3.9924405E+002
 1.1500215E+002, 5.1215961E-002, 1.3199659E-001, 1.2339556E-001, 4.3745011E-003, 2.1412486E-002, 1.7085782E-003, 4.0231021E+002
 1.1600132E+002, 5.1203744E-002, 1.3210788E-001, 1.2343545E-001, 4.3458726E-003, 2.1078816E-002, 1.7030280E-003, 4.0296467E+002
 1.1700933E+002, 5.1085026E-002, 1.3194032E-001, 1.2344573E-001, 4.4267986E-003, 2.1877434E-002, 1.7195693E-003, 4.0116138E+002
 1.1800730E+002, 5.1267349E-002, 1.3184554E-001, 1.2325878E-001, 4.3704414E-003, 2.2050294E-002, 1.7068261E-003, 4.0035826E+002
 1.1900867E+002, 5.1156912E-002, 1.3180579E-001, 1.2340252E-001, 4.4632861E-003, 2.2019632E-002, 1.7266845E-003, 3.9895303E+002
 1.2000133E+002, 5.0990190E-002, 1.3183141E-001, 1.2346725E-001, 4.4872457E-003, 2.2411548E-002, 1.7320186E-003, 4.0260942E+002
 1.2100606E+002, 5.1378122E-002, 1.3140350E-001, 1.2315739E-001, 4.5127282E-003, 2.2883860E-002, 1.7350526E-003, 3.9910041E+002
 1.2200453E+002, 5.1443330E-002, 1.3125244E-001, 1.2312401E-001, 4.5616734E-003, 2.3048171E-002, 1.7447676E-003, 4.0179260E+002
 1.2300232E+002, 5.1445123E-002, 1.3112564E-001, 1.2306765E-001, 4.5888283E-003, 2.3523351E-002, 1.7499094E-003, 4.0004668E+002
 1.2400949E+002, 5.1392522E-002, 1.3125207E-001, 1.2315431E-001, 4.5780319E-003, 2.3141684E-002, 1.7483053E-003, 3.9817078E+002
 1.2500851E+002, 5.1728459E-002, 1.3083162E-001, 1.2283482E-001, 4.5958911E-003, 2.3856988E-002, 1.7497339E-003, 3.9768871E+002
 1.2600846E+002, 5.1728665E-002, 1.3070680E-001, 1.2286218E-001, 4.6652327E-003, 2.3998703E-002, 1.7640141E-003, 3.9842421E+002
 1.2700811E+002, 5.1634265E-002, 1.3067296E-001, 1.2294058E-001, 4.7216764E-003, 2.4150727E-002, 1.7760313E-003, 4.0051395E+002
 1.2800955E+002, 5.1785721E-002, 1.3059952E-001, 1.2270218E-001, 4.6297814E-003, 2.4617308E-002, 1.7557235E-003, 3.9631410E+002
 1.2900111E+002, 5.1619970E-002, 1.3065123E-001, 1.2292884E-001, 4.7254358E-003, 2.4302163E-002, 1.7767192E-003, 4.0043401E+002
 1.3000436E+002, 5.1681853E-002, 1.3055168E-001, 1.2280525E-001, 4.7052229E-003, 2.4738583E-002, 1.7717699E-003, 3.9677440E+002
 1.3100037E+002, 5.1730847E-002, 1.3047849E-001, 1.2279870E-001, 4.7336798E-003, 2.4706088E-002, 1.7775027E-003, 3.9677278E+002
 1.3200846E+002, 5.2185202E-002, 1.2992238E-001, 1.2243925E-001, 4.7896359E-003, 2.5356409E-002, 1.7863875E-003, 3.9574017E+002
 1.3300699E+002, 5.1969815E-002, 1.2982538E-001, 1.2257199E-001, 4.9034512E-003, 2.5928656E-002, 1.8104534E-003, 3.9640907E+002
 1.3400557E+002, 5.1991045E-002, 1.2998519E-001, 1.2246736E-001, 4.7786177E-003, 2.5935990E-002, 1.7843697E-003, 3.9527260E+002
 1.3500717E+002, 5.2248818E-002, 1.2993423E-001, 1.2229299E-001, 4.7084134E-003, 2.5651245E-002, 1.7688830E-003, 3.9530921E+002
 1.3600200E+002, 5.2104002E-002, 1.2986630E-001, 1.2246867E-001, 4.8305825E-003, 2.5694426E-002, 1.7949231E-003, 3.9806183E+002
 1.3700923E+002, 5.1876302E-002, 1.2974922E-001, 1.2258266E-001, 4.9437986E-003, 2.6434486E-002, 1.8187436E-003, 4.0005568E+002
 1.3800447E+002, 5.2444953E-002, 1.2953774E-001, 1.2208851E-001, 4.7764885E-003, 2.6446342E-002, 1.7813161E-003, 3.9393075E+002
 1.3900905E+002, 5.2220078E-002, 1.2949308E-001, 1.2227523E-001, 4.8949992E-003, 2.6736007E-002, 1.8067005E-003, 3.9995630E+002
 1.4001150E+002, 5.1998036E-002, 1.2973694E-001, 1.2248796E-001, 4.8990709E-003, 2.6325799E-002, 1.8089942E-003, 3.9949563E+002
 1.4100614E+002, 5.2289702E-002, 1.2941129E-001, 1.2214192E-001, 4.8618276E-003, 2.7142859E-002, 1.7990502E-003, 3.9655534E+002
 1.4200418E+002, 5.2228120E-002, 1.2945865E-001, 1.2228711E-001, 4.9162558E-003, 2.6724017E-002, 1.8111001E-003, 3.9759412E+002
 1.4301226E+002, 5.2858641E-002, 1.2881774E-001, 1.2176883E-001, 4.9259659E-003, 2.7440089E-002, 1.8094871E-003, 3.9038384E+002
 1.4400398E+002, 5.2799761E-002, 1.2884856E-001, 1.2167926E-001, 4.8669727E-003, 2.7985885E-002, 1.7969033E-003, 3.9108624E+002
 1.4501100E+002, 5.2419400E-002, 1.2922424E-001, 1.2202719E-001, 4.8840997E-003, 2.7434423E-002, 1.8027857E-003, 3.9718021E+002
 1.4600104E+002, 5.2591316E-002, 1.2882823E-001, 1.2190238E-001, 4.9932231E-003, 2.8010850E-002, 1.8241025E-003, 3.9600354E+002
 1.4700413E+002, 5.2575928E-002, 1.2891082E-001, 1.2190786E-001, 4.9596527E-003, 2.7886807E-002, 1.8173172E-003, 3.9750859E+002
 1.4800979E+002, 5.2961644E-002, 1.2864112E-001, 1.2157423E-001, 4.9028748E-003, 2.8143928E-002, 1.8034691E-003, 3.9301567E+002
 1.4900626E+002, 5.2930190E-002, 1.2854158E-001, 1.2166976E-001, 4.9964596E-003, 2.8094364E-002, 1.8231409E-003, 3.9214004E+002
 1.5001187E+002, 5.2702104E-002, 1.2876010E-001, 1.2185312E-001, 4.9967324E-003, 2.7878837E-002, 1.8244663E-003, 3.9414597E+002
 1.5100055E+002, 5.3200162E-002, 1.2809590E-001, 1.2125256E-001, 4.9760486E-003, 2.9531483E-002, 1.8161450E-003, 3.9402007E+002
 1.5200739E+002, 5.2726344E-002, 1.2852963E-001, 1.2167554E-001, 5.0071890E-003, 2.8955675E-002, 1.8253961E-003, 3.9426859E+002
 1.5300475E+002, 5.2890166E-002, 1.2839631E-001, 1.2149558E-001, 4.9717153E-003, 2.9256503E-002, 1.8169485E-003, 3.9407054E+002
 1.5400994E+002, 5.3178809E-002, 1.2815650E-001, 1.2129634E-001, 4.9719795E-003, 2.9323227E-002, 1.8156153E-003, 3.9450202E+002
