s,,,,,,,
Time,"O2 EXHAUST","CO2 EXHAUST","H2O EXHAUST","CO EXHAUST","FUEL EXHAUST","SOOT EXHAUST","TEMP EXHAUST"
 0.0000000E+000, 2.3099739E-001, 5.9146498E-004, 5.9412091E-003, 0.0000000E+000, 0.0000000E+000, 0.0000000E+000, 2.0000000E+001
 1.0053348E+000, 2.3099739E-001, 5.9146498E-004, 5.9412091E-003, 1.1162961E-029, 1.0621154E-028, 1.6778287E-029, 2.0405025E+001
 2.0023118E+000, 2.2546568E-001, 5.7308233E-003, 7.3988958E-003, 1.5909609E-005, 1.5990021E-004, 3.4138418E-004, 7.4397743E+001
 3.0011226E+000, 2.2214784E-001, 8.8011819E-003, 8.2822276E-003, 4.8304337E-005, 1.9249795E-004, 5.5028492E-004, 1.0117309E+002
 4.0051299E+000, 2.1733499E-001, 1.3270451E-002, 9.5570860E-003, 7.5170187E-005, 2.7386227E-004, 8.4997561E-004, 1.4438845E+002
 5.0065118E+000, 2.1529082E-001, 1.5161364E-002, 1.0098359E-002, 9.0267259E-005, 3.2292284E-004, 9.7758020E-004, 1.6204248E+002
 6.0002768E+000, 2.1166942E-001, 1.8523486E-002, 1.1059054E-002, 1.1346418E-004, 3.7203623E-004, 1.2036760E-003, 1.9108331E+002
 7.0021466E+000, 2.0775483E-001, 2.2175286E-002, 1.2097297E-002, 1.2848089E-004, 3.9720382E-004, 1.4470482E-003, 2.1943404E+002
 8.0033818E+000, 2.0382528E-001, 2.5830144E-002, 1.3139702E-002, 1.4991516E-004, 4.3940989E-004, 1.6920110E-003, 2.4911134E+002
 9.0040774E+000, 1.9982458E-001, 2.9568124E-002, 1.4203116E-002, 1.6620380E-004, 4.3332624E-004, 1.9413240E-003, 2.7084120E+002
 1.0005234E+001, 1.9473761E-001, 3.4328529E-002, 1.5555591E-002, 1.8335816E-004, 4.0970540E-004, 2.2580525E-003, 2.9902000E+002
 1.1003084E+001, 1.9310870E-001, 3.5852749E-002, 1.5988413E-002, 1.8845794E-004, 4.0475235E-004, 2.3593800E-003, 3.0514179E+002
 1.2002878E+001, 1.8763200E-001, 4.0994150E-002, 1.7443188E-002, 1.9558386E-004, 3.6354377E-004, 2.6989900E-003, 3.2825360E+002
 1.3001448E+001, 1.8457155E-001, 4.3865294E-002, 1.8256008E-002, 2.0040873E-004, 3.4503415E-004, 2.8888235E-003, 3.4202575E+002
 1.4001181E+001, 1.8115152E-001, 4.7079995E-002, 1.9164371E-002, 2.0244363E-004, 3.1326679E-004, 3.1006433E-003, 3.5363595E+002
 1.5006701E+001, 1.7706022E-001, 5.0926741E-002, 2.0250448E-002, 2.0325543E-004, 2.7877023E-004, 3.3537579E-003, 3.6316315E+002
 1.6007345E+001, 1.7323876E-001, 5.4524385E-002, 2.1264960E-002, 2.0158916E-004, 2.3799006E-004, 3.5899565E-003, 3.7817282E+002
 1.7003315E+001, 1.7083863E-001, 5.6786800E-002, 2.1901674E-002, 1.9813203E-004, 2.1182151E-004, 3.7379711E-003, 3.8020310E+002
 1.8006628E+001, 1.6820733E-001, 5.9266337E-002, 2.2599823E-002, 1.9497150E-004, 1.8342330E-004, 3.9003264E-003, 3.8550325E+002
 1.9007266E+001, 1.6447518E-001, 6.2777089E-002, 2.3590407E-002, 1.9450596E-004, 1.5047232E-004, 4.1310717E-003, 3.9132243E+002
 2.0008620E+001, 1.6328465E-001, 6.3898794E-002, 2.3905981E-002, 1.9262291E-004, 1.4076355E-004, 4.2044208E-003, 3.9250789E+002
 2.1004913E+001, 1.6086607E-001, 6.6176244E-002, 2.4547600E-002, 1.9045828E-004, 1.1835404E-004, 4.3537037E-003, 3.9562460E+002
 2.2001900E+001, 1.5954920E-001, 6.7416518E-002, 2.4896829E-002, 1.8892898E-004, 1.0683627E-004, 4.4349258E-003, 3.9770903E+002
 2.3003413E+001, 1.5717996E-001, 6.9646068E-002, 2.5525297E-002, 1.8749312E-004, 8.7907871E-005, 4.5812170E-003, 4.0038474E+002
 2.4004625E+001, 1.5508540E-001, 7.1613911E-002, 2.6081005E-002, 1.8818351E-004, 7.5777985E-005, 4.7107602E-003, 4.0191154E+002
 2.5006480E+001, 1.5334165E-001, 7.3251733E-002, 2.6543667E-002, 1.8904913E-004, 6.6197419E-005, 4.8186411E-003, 4.0333344E+002
 2.6000262E+001, 1.5213788E-001, 7.4382086E-002, 2.6862962E-002, 1.8963247E-004, 6.0984157E-005, 4.8930927E-003, 4.0520924E+002
 2.7007472E+001, 1.5166386E-001, 7.4828030E-002, 2.6988652E-002, 1.8932874E-004, 5.7872373E-005, 4.9223497E-003, 4.0174133E+002
 2.8000371E+001, 1.5096518E-001, 7.5483914E-002, 2.7174003E-002, 1.8982035E-004, 5.4866142E-005, 4.9655832E-003, 4.0386727E+002
 2.9008261E+001, 1.5079278E-001, 7.5645868E-002, 2.7219720E-002, 1.8984604E-004, 5.4109137E-005, 4.9762378E-003, 4.0034539E+002
 3.0003226E+001, 1.4967799E-001, 7.6693168E-002, 2.7515442E-002, 1.9016437E-004, 4.8126297E-005, 5.0451710E-003, 4.0377750E+002
 3.1000876E+001, 1.4898219E-001, 7.7345228E-002, 2.7700045E-002, 1.9130060E-004, 4.6949633E-005, 5.0882927E-003, 4.0279527E+002
 3.2004243E+001, 1.4824952E-001, 7.8032087E-002, 2.7894461E-002, 1.9241795E-004, 4.4955163E-005, 5.1336984E-003, 4.0037317E+002
 3.3008953E+001, 1.4754526E-001, 7.8694408E-002, 2.8081123E-002, 1.9195106E-004, 4.1480163E-005, 5.1771477E-003, 4.0236233E+002
 3.4004653E+001, 1.4729257E-001, 7.8931801E-002, 2.8148115E-002, 1.9195192E-004, 4.0468146E-005, 5.1927575E-003, 4.0271037E+002
 3.5006580E+001, 1.4569289E-001, 8.0429736E-002, 2.8572577E-002, 1.9531155E-004, 3.9298894E-005, 5.2919802E-003, 4.0182998E+002
 3.6001929E+001, 1.4383359E-001, 8.2171832E-002, 2.9065924E-002, 1.9862973E-004, 3.6157495E-005, 5.4072485E-003, 4.0120831E+002
 3.7002281E+001, 1.4419689E-001, 8.1831863E-002, 2.8969433E-002, 1.9757791E-004, 3.6877051E-005, 5.3846665E-003, 4.0348884E+002
 3.8003565E+001, 1.4207146E-001, 8.3823256E-002, 2.9533392E-002, 2.0139675E-004, 3.3388430E-005, 5.5164355E-003, 4.0447078E+002
 3.9003548E+001, 1.4169620E-001, 8.4175932E-002, 2.9632855E-002, 2.0128118E-004, 3.1929477E-005, 5.5396004E-003, 4.0494246E+002
 4.0000026E+001, 1.4064113E-001, 8.5163153E-002, 2.9912793E-002, 2.0387800E-004, 3.2570627E-005, 5.6050765E-003, 4.0208953E+002
 4.1007208E+001, 1.3970990E-001, 8.6035275E-002, 3.0159897E-002, 2.0578450E-004, 3.1593965E-005, 5.6628348E-003, 4.0070574E+002
 4.2001095E+001, 1.3934486E-001, 8.6376987E-002, 3.0256731E-002, 2.0656370E-004, 3.1745265E-005, 5.6854724E-003, 4.0447654E+002
 4.3002323E+001, 1.3879424E-001, 8.6891866E-002, 3.0402797E-002, 2.0805235E-004, 3.2939859E-005, 5.7196502E-003, 4.0170764E+002
 4.4004967E+001, 1.3701904E-001, 8.8553998E-002, 3.0873864E-002, 2.1192659E-004, 3.1588013E-005, 5.8297809E-003, 4.0512962E+002
 4.5003013E+001, 1.3666967E-001, 8.8881413E-002, 3.0966561E-002, 2.1250310E-004, 3.0934221E-005, 5.8514346E-003, 4.0490890E+002
 4.6000498E+001, 1.3742462E-001, 8.8173861E-002, 3.0766247E-002, 2.1126995E-004, 3.2511147E-005, 5.8046432E-003, 4.0591352E+002
 4.7003118E+001, 1.3729172E-001, 8.8299173E-002, 3.0801308E-002, 2.1070963E-004, 3.2804576E-005, 5.8127618E-003, 4.0534209E+002
 4.8000905E+001, 1.3619038E-001, 8.9330011E-002, 3.1093630E-002, 2.1343289E-004, 3.1925590E-005, 5.8811331E-003, 4.0257607E+002
 4.9007535E+001, 1.3531852E-001, 9.0148017E-002, 3.1324925E-002, 2.1429976E-004, 2.8941850E-005, 5.9351080E-003, 4.0579874E+002
 5.0006162E+001, 1.3494476E-001, 9.0496804E-002, 3.1424123E-002, 2.1579006E-004, 3.0530770E-005, 5.9583649E-003, 4.0297321E+002
 5.1006747E+001, 1.3311098E-001, 9.2214608E-002, 3.1910699E-002, 2.1927279E-004, 2.8079718E-005, 6.0720715E-003, 4.0768643E+002
 5.2006192E+001, 1.3374366E-001, 9.1622456E-002, 3.1742657E-002, 2.1749015E-004, 2.9595447E-005, 6.0327493E-003, 4.0367997E+002
 5.3005871E+001, 1.3332195E-001, 9.2017023E-002, 3.1854587E-002, 2.1861179E-004, 2.9518919E-005, 6.0589365E-003, 4.0468796E+002
 5.4002747E+001, 1.3282565E-001, 9.2481159E-002, 3.1986362E-002, 2.2013595E-004, 2.9369926E-005, 6.0897852E-003, 4.0368179E+002
 5.5001835E+001, 1.3313565E-001, 9.2191539E-002, 3.1903854E-002, 2.1866848E-004, 3.0801019E-005, 6.0704240E-003, 4.0272049E+002
 5.6007043E+001, 1.3271749E-001, 9.2583359E-002, 3.2014805E-002, 2.1939790E-004, 3.0113260E-005, 6.0963456E-003, 4.0162745E+002
 5.7002154E+001, 1.3161262E-001, 9.3617734E-002, 3.2308006E-002, 2.2189900E-004, 2.9352635E-005, 6.1649015E-003, 4.0598097E+002
 5.8002507E+001, 1.3081458E-001, 9.4364221E-002, 3.2519838E-002, 2.2415446E-004, 2.9405149E-005, 6.2144744E-003, 4.0727423E+002
 5.9008524E+001, 1.3074674E-001, 9.4427662E-002, 3.2537825E-002, 2.2431905E-004, 2.9617227E-005, 6.2186815E-003, 4.0590253E+002
 6.0005800E+001, 1.3116662E-001, 9.4032855E-002, 3.2426321E-002, 2.2417356E-004, 3.3600648E-005, 6.1926899E-003, 4.0452466E+002
 6.1005570E+001, 1.3000310E-001, 9.5124017E-002, 3.2735031E-002, 2.2567130E-004, 3.0126277E-005, 6.2647625E-003, 4.0451010E+002
 6.2001370E+001, 1.2925171E-001, 9.5827836E-002, 3.2934462E-002, 2.2722858E-004, 2.8638691E-005, 6.3113786E-003, 4.0555160E+002
 6.3005368E+001, 1.2925751E-001, 9.5823154E-002, 3.2932851E-002, 2.2667462E-004, 2.8060685E-005, 6.3109509E-003, 4.0562033E+002
 6.4000896E+001, 1.2906772E-001, 9.5999731E-002, 3.2983227E-002, 2.2773172E-004, 2.9726538E-005, 6.3227904E-003, 4.0490977E+002
 6.5002591E+001, 1.2837759E-001, 9.6645993E-002, 3.3166428E-002, 2.2931170E-004, 2.8417275E-005, 6.3656268E-003, 4.0597511E+002
 6.6006986E+001, 1.2865980E-001, 9.6379834E-002, 3.3091699E-002, 2.3003889E-004, 3.0446721E-005, 6.3482831E-003, 4.0582536E+002
 6.7001596E+001, 1.2739871E-001, 9.7560404E-002, 3.3426343E-002, 2.3290255E-004, 2.9844477E-005, 6.4265304E-003, 4.0651685E+002
 6.8001564E+001, 1.2745401E-001, 9.7509089E-002, 3.3411498E-002, 2.3222232E-004, 3.0681427E-005, 6.4230090E-003, 4.0502747E+002
 6.9006179E+001, 1.2725379E-001, 9.7698184E-002, 3.3464565E-002, 2.3164664E-004, 2.8312083E-005, 6.4353182E-003, 4.0536990E+002
 7.0003050E+001, 1.2766260E-001, 9.7315939E-002, 3.3356043E-002, 2.3039269E-004, 2.8087667E-005, 6.4099125E-003, 4.0650582E+002
 7.1007911E+001, 1.2737296E-001, 9.7586648E-002, 3.3432827E-002, 2.3115631E-004, 2.9407574E-005, 6.4278782E-003, 4.0658842E+002
 7.2002507E+001, 1.2703193E-001, 9.7906154E-002, 3.3523307E-002, 2.3176397E-004, 2.8940709E-005, 6.4490186E-003, 4.0416701E+002
 7.3007688E+001, 1.2693295E-001, 9.7998791E-002, 3.3549580E-002, 2.3201518E-004, 2.8861004E-005, 6.4551642E-003, 4.0230800E+002
 7.4005665E+001, 1.2681256E-001, 9.8113076E-002, 3.3581388E-002, 2.3116846E-004, 2.7386072E-005, 6.4624956E-003, 4.0582520E+002
 7.5007223E+001, 1.2632743E-001, 9.8567334E-002, 3.3710112E-002, 2.3219237E-004, 2.7047209E-005, 6.4925866E-003, 4.0479720E+002
 7.6000956E+001, 1.2578011E-001, 9.9077904E-002, 3.3855463E-002, 2.3463410E-004, 2.8815488E-005, 6.5266873E-003, 4.0575898E+002
 7.7003725E+001, 1.2580421E-001, 9.9055620E-002, 3.3849052E-002, 2.3439875E-004, 2.8498159E-005, 6.5251711E-003, 4.0686336E+002
 7.8002819E+001, 1.2568054E-001, 9.9171247E-002, 3.3881736E-002, 2.3452208E-004, 2.9954357E-005, 6.5328008E-003, 4.0552284E+002
 7.9007450E+001, 1.2472755E-001, 1.0006452E-001, 3.4134564E-002, 2.3595516E-004, 2.8067585E-005, 6.5918476E-003, 4.0261445E+002
 8.0001281E+001, 1.2408542E-001, 1.0066559E-001, 3.4305104E-002, 2.3770460E-004, 2.6507318E-005, 6.6317490E-003, 4.0731631E+002
 8.1003174E+001, 1.2347537E-001, 1.0123595E-001, 3.4466966E-002, 2.3945879E-004, 2.7715718E-005, 6.6696322E-003, 4.0800108E+002
 8.2006675E+001, 1.2311568E-001, 1.0157307E-001, 3.4562357E-002, 2.3995415E-004, 2.7357859E-005, 6.6919066E-003, 4.0807847E+002
 8.3008056E+001, 1.2344482E-001, 1.0126493E-001, 3.4474931E-002, 2.3906381E-004, 2.8356232E-005, 6.6714525E-003, 4.0489725E+002
 8.4000161E+001, 1.2341975E-001, 1.0128884E-001, 3.4481594E-002, 2.3889912E-004, 2.7470676E-005, 6.6729886E-003, 4.0396811E+002
 8.5008208E+001, 1.2334043E-001, 1.0136339E-001, 3.4502654E-002, 2.3893567E-004, 2.6809113E-005, 6.6778987E-003, 4.0701777E+002
 8.6004724E+001, 1.2290566E-001, 1.0177000E-001, 3.4618045E-002, 2.4017733E-004, 2.7098627E-005, 6.7049040E-003, 4.0972772E+002
 8.7001614E+001, 1.2245553E-001, 1.0219089E-001, 3.4737533E-002, 2.4154785E-004, 2.7356562E-005, 6.7328760E-003, 4.0468234E+002
 8.8001633E+001, 1.2274259E-001, 1.0192346E-001, 3.4661208E-002, 2.3991126E-004, 2.6675412E-005, 6.7149369E-003, 4.0762687E+002
 8.9000798E+001, 1.2175437E-001, 1.0284740E-001, 3.4923532E-002, 2.4296746E-004, 2.7400781E-005, 6.7763512E-003, 4.0796355E+002
 9.0000174E+001, 1.2200455E-001, 1.0261341E-001, 3.4857094E-002, 2.4218972E-004, 2.7604999E-005, 6.7607972E-003, 4.0796066E+002
 9.1005096E+001, 1.2152974E-001, 1.0305803E-001, 3.4983069E-002, 2.4315923E-004, 2.7333104E-005, 6.7902428E-003, 4.0663855E+002
 9.2003633E+001, 1.2230598E-001, 1.0233100E-001, 3.4777164E-002, 2.4173569E-004, 2.7611732E-005, 6.7421290E-003, 4.0509199E+002
 9.3000050E+001, 1.2227061E-001, 1.0236435E-001, 3.4786612E-002, 2.4179201E-004, 2.6591594E-005, 6.7443344E-003, 4.0729192E+002
 9.4002262E+001, 1.2155856E-001, 1.0303180E-001, 3.4975484E-002, 2.4279405E-004, 2.5465186E-005, 6.7884387E-003, 4.0721067E+002
 9.5002248E+001, 1.2142031E-001, 1.0316201E-001, 3.5012082E-002, 2.4251496E-004, 2.4873938E-005, 6.7969402E-003, 4.0599901E+002
 9.6004341E+001, 1.2100210E-001, 1.0355191E-001, 3.5123061E-002, 2.4435668E-004, 2.7428950E-005, 6.8229764E-003, 4.0700357E+002
 9.7001743E+001, 1.2146725E-001, 1.0311603E-001, 3.4999682E-002, 2.4363240E-004, 2.7899622E-005, 6.7941588E-003, 4.0767960E+002
 9.8004738E+001, 1.2135495E-001, 1.0322306E-001, 3.5029369E-002, 2.4263649E-004, 2.5619851E-005, 6.8009809E-003, 4.0683656E+002
 9.9006255E+001, 1.2109927E-001, 1.0346170E-001, 3.5097236E-002, 2.4364868E-004, 2.6541531E-005, 6.8168913E-003, 4.0693567E+002
 1.0000461E+002, 1.2136843E-001, 1.0320988E-001, 3.5025884E-002, 2.4308042E-004, 2.5723562E-005, 6.8002104E-003, 4.0757197E+002
 1.0100601E+002, 1.2128955E-001, 1.0328341E-001, 3.5046702E-002, 2.4323133E-004, 2.7295126E-005, 6.8050777E-003, 4.0707526E+002
 1.0200491E+002, 1.2136094E-001, 1.0321596E-001, 3.5027798E-002, 2.4348187E-004, 2.8043782E-005, 6.8006968E-003, 4.0603093E+002
 1.0300068E+002, 1.2191922E-001, 1.0269434E-001, 3.4879658E-002, 2.4166461E-004, 2.6502437E-005, 6.7660047E-003, 4.0905565E+002
 1.0400145E+002, 1.2154563E-001, 1.0304421E-001, 3.4978788E-002, 2.4242687E-004, 2.6148622E-005, 6.7891755E-003, 4.0599135E+002
 1.0500318E+002, 1.2083793E-001, 1.0370709E-001, 3.5166485E-002, 2.4365610E-004, 2.6098362E-005, 6.8330284E-003, 4.0740485E+002
 1.0600780E+002, 1.2166041E-001, 1.0293589E-001, 3.4948324E-002, 2.4263667E-004, 2.7736320E-005, 6.7820982E-003, 4.0512033E+002
 1.0700214E+002, 1.2033921E-001, 1.0417373E-001, 3.5298851E-002, 2.4496202E-004, 2.6016657E-005, 6.8639948E-003, 4.0894117E+002
 1.0800843E+002, 1.2040919E-001, 1.0410735E-001, 3.5280396E-002, 2.4548937E-004, 2.6451072E-005, 6.8597441E-003, 4.0928131E+002
 1.0900557E+002, 1.2071110E-001, 1.0382261E-001, 3.5200339E-002, 2.4607041E-004, 2.9692667E-005, 6.8411469E-003, 4.0863353E+002
 1.1000697E+002, 1.2103452E-001, 1.0352287E-001, 3.5114391E-002, 2.4344107E-004, 2.5835208E-005, 6.8208686E-003, 4.0677249E+002
 1.1100709E+002, 1.2135269E-001, 1.0322473E-001, 3.5029972E-002, 2.4289405E-004, 2.6370002E-005, 6.8011465E-003, 4.0805692E+002
 1.1200045E+002, 1.2084428E-001, 1.0369965E-001, 3.5164813E-002, 2.4448919E-004, 2.8556327E-005, 6.8327197E-003, 4.0676953E+002
 1.1300318E+002, 1.2131314E-001, 1.0326121E-001, 3.5040417E-002, 2.4319731E-004, 2.7749881E-005, 6.8036106E-003, 4.0735695E+002
 1.1400297E+002, 1.2107745E-001, 1.0348328E-001, 3.5102924E-002, 2.4287551E-004, 2.5501213E-005, 6.8181434E-003, 4.0704777E+002
 1.1500577E+002, 1.2029906E-001, 1.0421116E-001, 3.5309591E-002, 2.4529435E-004, 2.5457041E-005, 6.8665277E-003, 4.0775321E+002
 1.1600193E+002, 1.2099945E-001, 1.0355558E-001, 3.5123654E-002, 2.4350645E-004, 2.6400030E-005, 6.8230340E-003, 4.0560306E+002
 1.1700484E+002, 1.2054190E-001, 1.0398465E-001, 3.5245047E-002, 2.4410183E-004, 2.5148038E-005, 6.8513757E-003, 4.0635290E+002
 1.1800268E+002, 1.2001936E-001, 1.0447425E-001, 3.5383694E-002, 2.4502906E-004, 2.4302836E-005, 6.8837696E-003, 4.0774517E+002
 1.1900104E+002, 1.1891975E-001, 1.0550304E-001, 3.5675587E-002, 2.4803834E-004, 2.3837932E-005, 6.9520684E-003, 4.0899605E+002
 1.2000809E+002, 1.2089622E-001, 1.0365128E-001, 3.5151110E-002, 2.4437315E-004, 2.7392833E-005, 6.8295141E-003, 4.0735204E+002
 1.2100144E+002, 1.2042734E-001, 1.0409191E-001, 3.5275425E-002, 2.4431267E-004, 2.5228274E-005, 6.8584745E-003, 4.0861034E+002
 1.2200941E+002, 1.2051354E-001, 1.0401114E-001, 3.5252561E-002, 2.4417716E-004, 2.5329567E-005, 6.8531341E-003, 4.0550154E+002
 1.2300200E+002, 1.2024747E-001, 1.0425916E-001, 3.5323209E-002, 2.4544622E-004, 2.6619204E-005, 6.8697168E-003, 4.0723622E+002
 1.2400460E+002, 1.2048941E-001, 1.0403216E-001, 3.5259079E-002, 2.4530013E-004, 2.6931521E-005, 6.8547595E-003, 4.0835429E+002
 1.2500779E+002, 1.2080796E-001, 1.0373434E-001, 3.5174463E-002, 2.4420976E-004, 2.7229780E-005, 6.8349406E-003, 4.0672677E+002
 1.2600726E+002, 1.2068919E-001, 1.0384511E-001, 3.5205950E-002, 2.4465750E-004, 2.8158885E-005, 6.8423210E-003, 4.0543701E+002
 1.2700108E+002, 1.1988496E-001, 1.0459905E-001, 3.5419336E-002, 2.4585555E-004, 2.6171048E-005, 6.8921546E-003, 4.0743203E+002
 1.2800525E+002, 1.1911694E-001, 1.0531811E-001, 3.5623152E-002, 2.4757779E-004, 2.5520280E-005, 6.9398088E-003, 4.0821855E+002
 1.2900212E+002, 1.1915614E-001, 1.0527955E-001, 3.5612836E-002, 2.4867028E-004, 2.7959198E-005, 6.9375101E-003, 4.0822168E+002
 1.3000269E+002, 1.1967776E-001, 1.0479223E-001, 3.5474340E-002, 2.4679892E-004, 2.7236520E-005, 6.9050614E-003, 4.0769761E+002
 1.3100126E+002, 1.1995865E-001, 1.0452980E-001, 3.5399757E-002, 2.4578795E-004, 2.6893196E-005, 6.8875869E-003, 4.0583535E+002
 1.3200092E+002, 1.1893168E-001, 1.0549036E-001, 3.5672518E-002, 2.4901588E-004, 2.5550510E-005, 6.9514465E-003, 4.0830169E+002
 1.3300597E+002, 1.1969779E-001, 1.0477265E-001, 3.5469259E-002, 2.4762717E-004, 2.6458080E-005, 6.9039535E-003, 4.0931428E+002
 1.3400652E+002, 1.2039845E-001, 1.0411579E-001, 3.5283236E-002, 2.4638660E-004, 2.9317003E-005, 6.8604934E-003, 4.0561581E+002
 1.3500512E+002, 1.1969324E-001, 1.0477850E-001, 3.5470269E-002, 2.4641119E-004, 2.5577950E-005, 6.9040744E-003, 4.0889399E+002
 1.3600206E+002, 1.1993889E-001, 1.0454824E-001, 3.5405039E-002, 2.4593526E-004, 2.6613010E-005, 6.8888312E-003, 4.0848025E+002
 1.3700469E+002, 1.2006292E-001, 1.0443206E-001, 3.5372108E-002, 2.4565877E-004, 2.6988112E-005, 6.8811320E-003, 4.0765284E+002
 1.3800504E+002, 1.2039533E-001, 1.0412140E-001, 3.5283820E-002, 2.4447010E-004, 2.6979936E-005, 6.8604478E-003, 4.0709504E+002
 1.3900681E+002, 1.1960126E-001, 1.0486467E-001, 3.5494564E-002, 2.4637948E-004, 2.6494826E-005, 6.9097340E-003, 4.0542394E+002
 1.4000236E+002, 1.1896304E-001, 1.0546268E-001, 3.5663878E-002, 2.4745189E-004, 2.5646570E-005, 6.9492876E-003, 4.0731104E+002
 1.4100307E+002, 1.2018820E-001, 1.0431500E-001, 3.5338823E-002, 2.4517763E-004, 2.7044377E-005, 6.8733308E-003, 4.0740633E+002
 1.4200067E+002, 1.2094165E-001, 1.0360982E-001, 3.5138785E-002, 2.4319924E-004, 2.8091228E-005, 6.8265337E-003, 4.0457636E+002
 1.4300368E+002, 1.2033270E-001, 1.0417975E-001, 3.5300350E-002, 2.4461030E-004, 2.8292290E-005, 6.8643145E-003, 4.0714297E+002
 1.4400474E+002, 1.1962031E-001, 1.0484733E-001, 3.5489455E-002, 2.4597065E-004, 2.6149982E-005, 6.9085050E-003, 4.0760664E+002
 1.4500083E+002, 1.1956012E-001, 1.0490249E-001, 3.5505537E-002, 2.4695807E-004, 2.7156266E-005, 6.9123458E-003, 4.0893403E+002
 1.4600124E+002, 1.1984763E-001, 1.0463361E-001, 3.5429155E-002, 2.4599813E-004, 2.7619430E-005, 6.8944581E-003, 4.0700683E+002
 1.4700449E+002, 1.2007460E-001, 1.0442151E-001, 3.5368961E-002, 2.4533693E-004, 2.6772710E-005, 6.8803683E-003, 4.0598956E+002
 1.4800327E+002, 1.1969130E-001, 1.0478084E-001, 3.5470624E-002, 2.4584057E-004, 2.6205890E-005, 6.9041048E-003, 4.0549053E+002
 1.4900451E+002, 1.1920391E-001, 1.0523646E-001, 3.5599956E-002, 2.4729836E-004, 2.7061085E-005, 6.9343797E-003, 4.0470171E+002
 1.5000047E+002, 1.1961700E-001, 1.0485000E-001, 3.5490300E-002, 2.4615181E-004, 2.7176890E-005, 6.9087202E-003, 4.0716280E+002
 1.5100839E+002, 1.1932414E-001, 1.0512427E-001, 3.5568047E-002, 2.4681814E-004, 2.6543665E-005, 6.9268986E-003, 4.0550617E+002
 1.5200137E+002, 1.1962945E-001, 1.0483893E-001, 3.5487034E-002, 2.4587095E-004, 2.5847467E-005, 6.9079311E-003, 4.0876232E+002
 1.5300008E+002, 1.1981377E-001, 1.0466679E-001, 3.5438118E-002, 2.4521814E-004, 2.5269871E-005, 6.8964709E-003, 4.0635372E+002
 1.5400798E+002, 1.1993632E-001, 1.0455114E-001, 3.5405492E-002, 2.4525778E-004, 2.7909450E-005, 6.8888754E-003, 4.0614578E+002
