s,,,,,,,
Time,"O2 EXHAUST","CO2 EXHAUST","H2O EXHAUST","CO EXHAUST","FUEL EXHAUST","SOOT EXHAUST","TEMP EXHAUST"
 0.0000000E+000, 2.3099739E-001, 5.9146498E-004, 5.9412091E-003, 0.0000000E+000, 0.0000000E+000, 0.0000000E+000, 2.0000000E+001
 1.0023628E+000, 2.3099739E-001, 5.9146498E-004, 5.9412091E-003, 4.2122959E-023, 1.2280678E-022, 4.5339833E-023, 2.1976900E+001
 2.0017233E+000, 2.2113745E-001, 8.4864029E-003, 9.6696934E-003, 1.5639463E-004, 1.0169454E-004, 2.9455703E-004, 1.1484551E+002
 3.0032807E+000, 2.1245781E-001, 1.5477404E-002, 1.2948408E-002, 2.7029368E-004, 1.3825840E-004, 5.5006689E-004, 1.8962886E+002
 4.0013543E+000, 2.0568183E-001, 2.0925999E-002, 1.5509783E-002, 3.6549415E-004, 1.7157538E-004, 7.5059584E-004, 2.4605847E+002
 5.0061317E+000, 1.9889910E-001, 2.6488270E-002, 1.8050928E-002, 3.8425933E-004, 1.6140179E-004, 9.3833875E-004, 2.9623422E+002
 6.0028780E+000, 1.8782063E-001, 3.5619617E-002, 2.2192809E-002, 3.8328132E-004, 1.1866314E-004, 1.2396704E-003, 3.6563611E+002
 7.0034500E+000, 1.7874219E-001, 4.3135602E-002, 2.5580141E-002, 3.5922196E-004, 6.9126396E-005, 1.4826636E-003, 4.1288372E+002
 8.0018598E+000, 1.6772444E-001, 5.2234383E-002, 2.9695629E-002, 3.4587737E-004, 1.9644548E-005, 1.7802438E-003, 4.5102941E+002
 9.0061255E+000, 1.5514652E-001, 6.2545928E-002, 3.4408698E-002, 3.8300142E-004, 1.4225213E-006, 2.1287942E-003, 4.8690682E+002
 1.0007203E+001, 1.4759707E-001, 6.8715298E-002, 3.7241463E-002, 4.1900747E-004, 1.1270181E-007, 2.3403161E-003, 4.9939923E+002
 1.1007263E+001, 1.3612072E-001, 7.8089358E-002, 4.1548591E-002, 4.7678312E-004, 1.9116327E-007, 2.6623768E-003, 5.1511366E+002
 1.2005926E+001, 1.2720845E-001, 8.5368580E-002, 4.4893478E-002, 5.2194757E-004, 5.7543564E-007, 2.9125311E-003, 5.2636787E+002
 1.3006055E+001, 1.2207867E-001, 8.9558782E-002, 4.6818709E-002, 5.4771496E-004, 3.7127470E-007, 3.0564795E-003, 5.3075399E+002
 1.4006730E+001, 1.1628041E-001, 9.4295725E-002, 4.8994637E-002, 5.7630389E-004, 1.3188410E-007, 3.2190935E-003, 5.3110342E+002
 1.5004399E+001, 1.1224613E-001, 9.7588547E-002, 5.0509171E-002, 5.9827441E-004, 1.5747389E-006, 3.3325863E-003, 5.3928000E+002
 1.6000727E+001, 1.0716749E-001, 1.0173938E-001, 5.2414732E-002, 6.2211641E-004, 2.1860294E-007, 3.4748179E-003, 5.3515994E+002
 1.7003662E+001, 1.0234534E-001, 1.0567434E-001, 5.4225188E-002, 6.4897999E-004, 2.6788061E-006, 3.6105748E-003, 5.3418456E+002
 1.8007180E+001, 9.8428159E-002, 1.0887813E-001, 5.5694574E-002, 6.6587740E-004, 1.0716502E-007, 3.7200297E-003, 5.3638328E+002
 1.9005703E+001, 9.1874249E-002, 1.1420615E-001, 5.8159039E-002, 7.1618284E-004, 1.4329510E-005, 3.9068621E-003, 5.4566064E+002
 2.0000181E+001, 8.7784311E-002, 1.1736480E-001, 5.9727904E-002, 8.6098586E-004, 1.1836486E-004, 4.0425049E-003, 5.4298080E+002
 2.1001618E+001, 8.5453172E-002, 1.1913722E-001, 6.0626792E-002, 9.6204384E-004, 1.9720950E-004, 4.1229038E-003, 5.3995525E+002
 2.2003255E+001, 8.3766678E-002, 1.2062186E-001, 6.1240829E-002, 8.9851755E-004, 1.2889804E-004, 4.1581839E-003, 5.3836796E+002
 2.3004686E+001, 8.1129868E-002, 1.2254403E-001, 6.2276281E-002, 1.0725898E-003, 2.4221308E-004, 4.2593276E-003, 5.4166014E+002
 2.4004145E+001, 7.9058769E-002, 1.2386109E-001, 6.3119164E-002, 1.3343800E-003, 4.8520871E-004, 4.3594720E-003, 5.2948305E+002
 2.5003734E+001, 7.6646680E-002, 1.2539012E-001, 6.4109312E-002, 1.6503225E-003, 7.1810677E-004, 4.4783336E-003, 5.2972240E+002
 2.6001290E+001, 7.5015240E-002, 1.2605899E-001, 6.4828969E-002, 2.0948507E-003, 1.2101519E-003, 4.5966188E-003, 5.2535464E+002
 2.7003749E+001, 7.3922133E-002, 1.2622556E-001, 6.5375424E-002, 2.5968768E-003, 1.6180896E-003, 4.7107562E-003, 5.1923692E+002
 2.8007063E+001, 7.2098368E-002, 1.2753336E-001, 6.6092743E-002, 2.7291183E-003, 1.7290247E-003, 4.7825602E-003, 5.1736239E+002
 2.9006759E+001, 7.1816071E-002, 1.2738425E-001, 6.6259443E-002, 2.9794630E-003, 2.0152038E-003, 4.8318115E-003, 5.1344762E+002
 3.0000408E+001, 7.0427837E-002, 1.2833234E-001, 6.6798948E-002, 3.0968323E-003, 2.2336782E-003, 4.8885209E-003, 5.1290682E+002
 3.1001722E+001, 6.9404620E-002, 1.2873433E-001, 6.7254340E-002, 3.3883713E-003, 2.5469077E-003, 4.9648855E-003, 5.0863902E+002
 3.2006222E+001, 6.9507584E-002, 1.2880216E-001, 6.7201867E-002, 3.2989242E-003, 2.3593007E-003, 4.9477672E-003, 5.0883843E+002
 3.3005026E+001, 6.8474191E-002, 1.2881186E-001, 6.7718411E-002, 3.8462528E-003, 3.0216456E-003, 5.0665318E-003, 5.0558112E+002
 3.4001665E+001, 6.7808740E-002, 1.2920003E-001, 6.7985367E-002, 3.9436715E-003, 3.1921391E-003, 5.1004331E-003, 4.9974188E+002
 3.5006961E+001, 6.7416067E-002, 1.2894586E-001, 6.8223321E-002, 4.3211185E-003, 3.6352557E-003, 5.1737206E-003, 4.9962766E+002
 3.6007989E+001, 6.6514254E-002, 1.2895483E-001, 6.8642543E-002, 4.7663530E-003, 4.4323693E-003, 5.2703728E-003, 4.9549089E+002
 3.7004425E+001, 6.6245344E-002, 1.2866320E-001, 6.8821007E-002, 5.0985489E-003, 4.8474706E-003, 5.3326312E-003, 4.9115956E+002
 3.8008958E+001, 6.6060653E-002, 1.2858803E-001, 6.8898644E-002, 5.2192879E-003, 5.2120328E-003, 5.3562816E-003, 4.8964544E+002
 3.9001317E+001, 6.5625004E-002, 1.2903044E-001, 6.9092736E-002, 5.2100162E-003, 4.8368323E-003, 5.3688775E-003, 4.8566371E+002
 4.0001598E+001, 6.5234723E-002, 1.2875522E-001, 6.9292881E-002, 5.5592430E-003, 5.5730764E-003, 5.4353696E-003, 4.8619050E+002
 4.1002530E+001, 6.5151242E-002, 1.2872193E-001, 6.9334531E-002, 5.6201625E-003, 5.6908385E-003, 5.4474543E-003, 4.8264742E+002
 4.2008516E+001, 6.4724188E-002, 1.2879748E-001, 6.9565070E-002, 5.8285090E-003, 5.7117140E-003, 5.4950317E-003, 4.8248287E+002
 4.3007735E+001, 6.4080350E-002, 1.2827708E-001, 6.9938277E-002, 6.4811670E-003, 6.7502719E-003, 5.6190895E-003, 4.8032525E+002
 4.4008936E+001, 6.4153038E-002, 1.2803383E-001, 6.9973683E-002, 6.6352450E-003, 6.6568451E-003, 5.6443942E-003, 4.7843091E+002
 4.5003322E+001, 6.3306782E-002, 1.2859798E-001, 7.0309254E-002, 6.7204058E-003, 6.7691276E-003, 5.6814537E-003, 4.7693403E+002
 4.6003055E+001, 6.3633562E-002, 1.2795194E-001, 7.0227787E-002, 6.9474527E-003, 7.1907816E-003, 5.7092563E-003, 4.7269704E+002
 4.7007638E+001, 6.3196614E-002, 1.2809279E-001, 7.0410903E-002, 7.0755570E-003, 7.4613139E-003, 5.7416324E-003, 4.7388531E+002
 4.8007784E+001, 6.3196329E-002, 1.2772509E-001, 7.0410845E-002, 7.2566202E-003, 8.1504011E-003, 5.7686816E-003, 4.7206340E+002
 4.9000456E+001, 6.3282825E-002, 1.2770633E-001, 7.0322955E-002, 7.1741442E-003, 8.4399620E-003, 5.7502218E-003, 4.6695613E+002
 5.0004783E+001, 6.3271694E-002, 1.2726540E-001, 7.0413712E-002, 7.4840786E-003, 8.6774849E-003, 5.8027294E-003, 4.7045077E+002
 5.1000318E+001, 6.2705757E-002, 1.2746032E-001, 7.0682637E-002, 7.6762060E-003, 8.7830768E-003, 5.8507410E-003, 4.6985427E+002
 5.2009712E+001, 6.3006155E-002, 1.2670318E-001, 7.0615135E-002, 7.9728617E-003, 9.4243982E-003, 5.8899411E-003, 4.6577422E+002
 5.3006692E+001, 6.2854000E-002, 1.2686323E-001, 7.0603648E-002, 7.8861216E-003, 9.8359424E-003, 5.8764655E-003, 4.6550419E+002
 5.4002747E+001, 6.2546494E-002, 1.2714666E-001, 7.0764028E-002, 7.9176075E-003, 9.4619684E-003, 5.8926308E-003, 4.6828878E+002
 5.5001902E+001, 6.2729216E-002, 1.2647001E-001, 7.0741470E-002, 8.2233487E-003, 1.0127080E-002, 5.9364553E-003, 4.6658590E+002
 5.6009999E+001, 6.2592575E-002, 1.2650210E-001, 7.0779261E-002, 8.2494545E-003, 1.0369835E-002, 5.9431688E-003, 4.6565753E+002
 5.7007891E+001, 6.3000041E-002, 1.2613783E-001, 7.0614110E-002, 8.2504336E-003, 1.0513910E-002, 5.9313541E-003, 4.6405950E+002
 5.8008511E+001, 6.2798917E-002, 1.2606053E-001, 7.0686441E-002, 8.3672266E-003, 1.0987580E-002, 5.9540824E-003, 4.6236913E+002
 5.9001623E+001, 6.2512408E-002, 1.2591444E-001, 7.0887298E-002, 8.6509938E-003, 1.1047333E-002, 6.0106608E-003, 4.6349340E+002
 6.0008614E+001, 6.2859162E-002, 1.2556040E-001, 7.0758906E-002, 8.6859010E-003, 1.1167534E-002, 6.0065251E-003, 4.6028990E+002
 6.1002871E+001, 6.2518160E-002, 1.2538320E-001, 7.0970464E-002, 8.9972520E-003, 1.1436669E-002, 6.0680491E-003, 4.6005894E+002
 6.2009729E+001, 6.2477122E-002, 1.2511522E-001, 7.1059674E-002, 9.2211686E-003, 1.1485581E-002, 6.1076518E-003, 4.6013080E+002
 6.3009909E+001, 6.2762102E-002, 1.2464027E-001, 7.0914547E-002, 9.3001219E-003, 1.2204617E-002, 6.1090655E-003, 4.5857118E+002
 6.4008179E+001, 6.2983307E-002, 1.2466835E-001, 7.0838623E-002, 9.2034099E-003, 1.1764809E-002, 6.0890576E-003, 4.6031158E+002
 6.5002176E+001, 6.2829484E-002, 1.2467438E-001, 7.0864707E-002, 9.2308535E-003, 1.2209165E-002, 6.0952039E-003, 4.5729353E+002
 6.6009137E+001, 6.3040276E-002, 1.2439112E-001, 7.0766074E-002, 9.2646129E-003, 1.2553017E-002, 6.0931614E-003, 4.5814633E+002
 6.7008755E+001, 6.3339457E-002, 1.2401959E-001, 7.0685786E-002, 9.3583386E-003, 1.2567588E-002, 6.1011731E-003, 4.5762357E+002
 6.8001057E+001, 6.2701989E-002, 1.2361907E-001, 7.1070322E-002, 9.9633344E-003, 1.3276590E-002, 6.2188701E-003, 4.5597787E+002
 6.9006312E+001, 6.2848217E-002, 1.2372383E-001, 7.1037754E-002, 9.8749028E-003, 1.2701781E-002, 6.2031835E-003, 4.5705311E+002
 7.0005097E+001, 6.3035628E-002, 1.2337292E-001, 7.0946243E-002, 9.9498248E-003, 1.3219347E-002, 6.2078172E-003, 4.5449772E+002
 7.1007515E+001, 6.2905914E-002, 1.2323315E-001, 7.1023688E-002, 1.0100818E-002, 1.3478161E-002, 6.2358786E-003, 4.5539040E+002
 7.2004610E+001, 6.2991831E-002, 1.2308021E-001, 7.1015768E-002, 1.0165934E-002, 1.3463235E-002, 6.2449177E-003, 4.5690567E+002
 7.3001594E+001, 6.2702950E-002, 1.2307683E-001, 7.1148533E-002, 1.0310087E-002, 1.3740929E-002, 6.2760031E-003, 4.5522133E+002
 7.4008035E+001, 6.3070217E-002, 1.2295366E-001, 7.0976870E-002, 1.0186680E-002, 1.3646262E-002, 6.2452309E-003, 4.5519203E+002
 7.5009751E+001, 6.2931021E-002, 1.2286980E-001, 7.1017855E-002, 1.0273218E-002, 1.4094140E-002, 6.2611956E-003, 4.5536786E+002
 7.6007322E+001, 6.2742229E-002, 1.2290511E-001, 7.1088789E-002, 1.0332811E-002, 1.4315886E-002, 6.2752609E-003, 4.5588415E+002
 7.7002724E+001, 6.2812839E-002, 1.2259262E-001, 7.1136264E-002, 1.0533340E-002, 1.4276330E-002, 6.3083314E-003, 4.5457330E+002
 7.8008840E+001, 6.2774231E-002, 1.2221588E-001, 7.1230619E-002, 1.0816010E-002, 1.4482647E-002, 6.3570585E-003, 4.5372294E+002
 7.9003013E+001, 6.2571875E-002, 1.2239396E-001, 7.1301919E-002, 1.0805993E-002, 1.4491115E-002, 6.3607722E-003, 4.5517113E+002
 8.0004614E+001, 6.2921748E-002, 1.2273925E-001, 7.1059409E-002, 1.0380091E-002, 1.4086829E-002, 6.2800096E-003, 4.5565686E+002
 8.1000949E+001, 6.2382091E-002, 1.2229203E-001, 7.1389197E-002, 1.0949865E-002, 1.4859578E-002, 6.3885444E-003, 4.5573171E+002
 8.2005366E+001, 6.2387522E-002, 1.2226841E-001, 7.1382235E-002, 1.0954267E-002, 1.4929781E-002, 6.3887185E-003, 4.5649957E+002
 8.3007102E+001, 6.2357997E-002, 1.2210977E-001, 7.1403730E-002, 1.1055046E-002, 1.5198857E-002, 6.4052914E-003, 4.5458734E+002
 8.4004153E+001, 6.2341998E-002, 1.2217703E-001, 7.1426508E-002, 1.1045525E-002, 1.4980531E-002, 6.4054481E-003, 4.5530761E+002
 8.5006263E+001, 6.2317657E-002, 1.2224614E-001, 7.1420875E-002, 1.1006355E-002, 1.4991506E-002, 6.3992547E-003, 4.5540483E+002
 8.6009520E+001, 6.2270436E-002, 1.2181879E-001, 7.1529857E-002, 1.1329069E-002, 1.5226109E-002, 6.4549761E-003, 4.5520795E+002
 8.7000710E+001, 6.2254897E-002, 1.2208188E-001, 7.1487259E-002, 1.1156464E-002, 1.5095727E-002, 6.4263133E-003, 4.5712630E+002
 8.8002737E+001, 6.2037778E-002, 1.2204262E-001, 7.1588297E-002, 1.1284172E-002, 1.5364347E-002, 6.4526556E-003, 4.5636949E+002
 8.9001289E+001, 6.1636384E-002, 1.2172139E-001, 7.1871886E-002, 1.1741364E-002, 1.5650687E-002, 6.5409809E-003, 4.5935637E+002
 9.0001645E+001, 6.1585427E-002, 1.2204770E-001, 7.1869364E-002, 1.1579342E-002, 1.5269392E-002, 6.5166907E-003, 4.5737807E+002
 9.1010222E+001, 6.1723491E-002, 1.2165049E-001, 7.1871953E-002, 1.1774182E-002, 1.5421734E-002, 6.5457363E-003, 4.5939253E+002
 9.2001522E+001, 6.1825327E-002, 1.2168884E-001, 7.1770792E-002, 1.1649675E-002, 1.5633517E-002, 6.5200659E-003, 4.5677922E+002
 9.3000634E+001, 6.1629754E-002, 1.2205882E-001, 7.1778802E-002, 1.1480481E-002, 1.5696522E-002, 6.4956747E-003, 4.5956513E+002
 9.4005164E+001, 6.1670803E-002, 1.2206852E-001, 7.1733483E-002, 1.1428502E-002, 1.5824338E-002, 6.4847502E-003, 4.5971163E+002
 9.5001314E+001, 6.1535504E-002, 1.2203049E-001, 7.1803127E-002, 1.1521574E-002, 1.5970488E-002, 6.5036361E-003, 4.6018277E+002
 9.6010311E+001, 6.1435118E-002, 1.2200103E-001, 7.1861259E-002, 1.1597819E-002, 1.6036191E-002, 6.5191627E-003, 4.5850346E+002
 9.7008203E+001, 6.1617508E-002, 1.2209680E-001, 7.1750124E-002, 1.1432858E-002, 1.5876300E-002, 6.4866277E-003, 4.5730822E+002
 9.8000123E+001, 6.1646000E-002, 1.2192393E-001, 7.1779801E-002, 1.1547536E-002, 1.5874425E-002, 6.5057330E-003, 4.5973644E+002
 9.9005116E+001, 6.1439500E-002, 1.2182921E-001, 7.1844151E-002, 1.1664912E-002, 1.6458614E-002, 6.5280142E-003, 4.5814444E+002
 1.0000798E+002, 6.1386371E-002, 1.2184666E-001, 7.1903605E-002, 1.1718219E-002, 1.6231507E-002, 6.5401209E-003, 4.5823942E+002
 1.0100891E+002, 6.1268127E-002, 1.2170620E-001, 7.2018947E-002, 1.1907881E-002, 1.6179749E-002, 6.5765204E-003, 4.5838488E+002
 1.0200134E+002, 6.1211409E-002, 1.2184535E-001, 7.2004020E-002, 1.1825544E-002, 1.6258768E-002, 6.5633012E-003, 4.6021510E+002
 1.0300459E+002, 6.1065087E-002, 1.2197785E-001, 7.2092177E-002, 1.1853761E-002, 1.6002665E-002, 6.5737771E-003, 4.5894247E+002
 1.0400723E+002, 6.1215875E-002, 1.2213223E-001, 7.1926752E-002, 1.1605403E-002, 1.6242833E-002, 6.5251400E-003, 4.6025786E+002
 1.0500882E+002, 6.1301464E-002, 1.2162391E-001, 7.2004622E-002, 1.1932983E-002, 1.6295340E-002, 6.5792370E-003, 4.5805252E+002
 1.0600460E+002, 6.0964402E-002, 1.2189430E-001, 7.2146991E-002, 1.1953273E-002, 1.6193868E-002, 6.5925547E-003, 4.5896437E+002
 1.0700142E+002, 6.1072883E-002, 1.2171609E-001, 7.2101406E-002, 1.1991897E-002, 1.6395373E-002, 6.5950311E-003, 4.5888803E+002
 1.0800693E+002, 6.1214081E-002, 1.2159259E-001, 7.2013897E-002, 1.1960041E-002, 1.6651393E-002, 6.5840644E-003, 4.6062629E+002
 1.0900726E+002, 6.1131032E-002, 1.2210462E-001, 7.1953024E-002, 1.1647888E-002, 1.6462876E-002, 6.5334255E-003, 4.5992064E+002
 1.1001042E+002, 6.1098039E-002, 1.2219239E-001, 7.1939355E-002, 1.1591551E-002, 1.6530861E-002, 6.5241351E-003, 4.6148446E+002
 1.1100674E+002, 6.0871287E-002, 1.2235389E-001, 7.2032616E-002, 1.1612686E-002, 1.6518284E-002, 6.5340413E-003, 4.6015748E+002
 1.1200864E+002, 6.1034248E-002, 1.2192770E-001, 7.2029362E-002, 1.1815228E-002, 1.6662370E-002, 6.5637962E-003, 4.5930443E+002
 1.1300810E+002, 6.1030168E-002, 1.2154531E-001, 7.2146644E-002, 1.2123179E-002, 1.6576217E-002, 6.6178014E-003, 4.5761437E+002
 1.1400926E+002, 6.1210273E-002, 1.2144522E-001, 7.2030737E-002, 1.2049884E-002, 1.6825268E-002, 6.5986414E-003, 4.6013655E+002
 1.1500012E+002, 6.1074647E-002, 1.2172567E-001, 7.2082225E-002, 1.1967592E-002, 1.6503946E-002, 6.5900902E-003, 4.5884366E+002
 1.1600271E+002, 6.1032491E-002, 1.2149555E-001, 7.2150915E-002, 1.2151977E-002, 1.6629817E-002, 6.6223910E-003, 4.5841388E+002
 1.1700095E+002, 6.1277836E-002, 1.2124632E-001, 7.2080747E-002, 1.2197123E-002, 1.6568293E-002, 6.6239278E-003, 4.5857451E+002
 1.1800600E+002, 6.1129809E-002, 1.2165075E-001, 7.2042457E-002, 1.1962596E-002, 1.6692753E-002, 6.5865388E-003, 4.6005291E+002
 1.1900465E+002, 6.1130441E-002, 1.2174466E-001, 7.2036607E-002, 1.1910365E-002, 1.6555354E-002, 6.5783355E-003, 4.5978501E+002
 1.2000912E+002, 6.1050373E-002, 1.2147286E-001, 7.2131272E-002, 1.2142695E-002, 1.6735136E-002, 6.6196351E-003, 4.5863309E+002
 1.2100736E+002, 6.0903339E-002, 1.2154633E-001, 7.2185324E-002, 1.2165251E-002, 1.6830202E-002, 6.6269438E-003, 4.5814979E+002
 1.2200921E+002, 6.0901262E-002, 1.2174115E-001, 7.2141435E-002, 1.2024624E-002, 1.6780678E-002, 6.6029475E-003, 4.5913717E+002
 1.2300967E+002, 6.1417008E-002, 1.2137610E-001, 7.2023173E-002, 1.2071063E-002, 1.6150364E-002, 6.6009286E-003, 4.6163151E+002
 1.2400411E+002, 6.1302094E-002, 1.2110838E-001, 7.2092266E-002, 1.2276194E-002, 1.6645298E-002, 6.6364840E-003, 4.5716853E+002
 1.2500600E+002, 6.1133293E-002, 1.2124855E-001, 7.2135928E-002, 1.2255855E-002, 1.6778364E-002, 6.6367142E-003, 4.5967101E+002
 1.2600505E+002, 6.1032440E-002, 1.2147709E-001, 7.2162698E-002, 1.2173081E-002, 1.6582372E-002, 6.6263467E-003, 4.5832016E+002
 1.2700754E+002, 6.0895752E-002, 1.2149316E-001, 7.2211000E-002, 1.2217791E-002, 1.6781980E-002, 6.6365557E-003, 4.5890871E+002
 1.2800840E+002, 6.0725141E-002, 1.2137119E-001, 7.2362467E-002, 1.2436460E-002, 1.6660735E-002, 6.6798413E-003, 4.5993160E+002
 1.2900906E+002, 6.1053640E-002, 1.2078228E-001, 7.2299269E-002, 1.2653935E-002, 1.6840997E-002, 6.7074549E-003, 4.5860500E+002
 1.3000158E+002, 6.0959321E-002, 1.2079730E-001, 7.2344907E-002, 1.2695392E-002, 1.6885541E-002, 6.7169222E-003, 4.5892054E+002
 1.3100458E+002, 6.1050910E-002, 1.2114418E-001, 7.2185596E-002, 1.2359924E-002, 1.6968529E-002, 6.6557900E-003, 4.5978351E+002
 1.3200716E+002, 6.1064770E-002, 1.2141543E-001, 7.2118032E-002, 1.2157130E-002, 1.6875175E-002, 6.6208650E-003, 4.6021414E+002
 1.3300556E+002, 6.1157406E-002, 1.2121716E-001, 7.2134085E-002, 1.2268836E-002, 1.6749951E-002, 6.6384859E-003, 4.5809117E+002
 1.3400069E+002, 6.1324504E-002, 1.2099958E-001, 7.2080849E-002, 1.2317595E-002, 1.6835478E-002, 6.6418528E-003, 4.5888681E+002
 1.3500901E+002, 6.1024055E-002, 1.2114142E-001, 7.2170408E-002, 1.2346476E-002, 1.7190933E-002, 6.6527934E-003, 4.5865335E+002
 1.3600855E+002, 6.1079672E-002, 1.2119287E-001, 7.2165215E-002, 1.2314457E-002, 1.6900429E-002, 6.6475584E-003, 4.5819613E+002
 1.3700697E+002, 6.0849163E-002, 1.2127401E-001, 7.2244223E-002, 1.2360749E-002, 1.7153104E-002, 6.6602594E-003, 4.6076317E+002
 1.3800165E+002, 6.1060743E-002, 1.2120362E-001, 7.2168116E-002, 1.2312591E-002, 1.6938559E-002, 6.6475104E-003, 4.5982991E+002
 1.3900410E+002, 6.0862927E-002, 1.2133074E-001, 7.2250885E-002, 1.2339251E-002, 1.6943512E-002, 6.6574769E-003, 4.5843287E+002
 1.4000369E+002, 6.1144869E-002, 1.2116177E-001, 7.2140695E-002, 1.2303166E-002, 1.6859374E-002, 6.6440873E-003, 4.6002255E+002
 1.4100057E+002, 6.1161619E-002, 1.2126458E-001, 7.2035459E-002, 1.2144882E-002, 1.7331739E-002, 6.6132419E-003, 4.5956327E+002
 1.4200782E+002, 6.1503898E-002, 1.2103756E-001, 7.1910434E-002, 1.2120770E-002, 1.7209511E-002, 6.6005252E-003, 4.5921774E+002
 1.4300443E+002, 6.1254030E-002, 1.2120834E-001, 7.2024883E-002, 1.2159501E-002, 1.7127623E-002, 6.6145440E-003, 4.5983559E+002
 1.4400919E+002, 6.1213115E-002, 1.2106024E-001, 7.2085896E-002, 1.2295637E-002, 1.7148551E-002, 6.6391109E-003, 4.5966224E+002
 1.4500828E+002, 6.1153856E-002, 1.2134369E-001, 7.2062929E-002, 1.2134100E-002, 1.7024402E-002, 6.6135154E-003, 4.5991336E+002
 1.4600904E+002, 6.1003323E-002, 1.2152574E-001, 7.2094386E-002, 1.2080237E-002, 1.7088549E-002, 6.6078736E-003, 4.6131064E+002
 1.4700688E+002, 6.1132976E-002, 1.2138824E-001, 7.2044702E-002, 1.2094103E-002, 1.7154768E-002, 6.6063347E-003, 4.6134824E+002
 1.4800278E+002, 6.1080600E-002, 1.2116480E-001, 7.2148940E-002, 1.2311676E-002, 1.7062585E-002, 6.6460328E-003, 4.6163741E+002
 1.4900109E+002, 6.1032978E-002, 1.2118217E-001, 7.2171729E-002, 1.2327529E-002, 1.7068544E-002, 6.6500369E-003, 4.5862680E+002
 1.5000845E+002, 6.1009485E-002, 1.2133894E-001, 7.2147014E-002, 1.2225717E-002, 1.7045194E-002, 6.6331831E-003, 4.6064840E+002
 1.5100440E+002, 6.0905579E-002, 1.2143055E-001, 7.2161622E-002, 1.2198070E-002, 1.7202703E-002, 6.6302293E-003, 4.5891534E+002
 1.5200767E+002, 6.0957080E-002, 1.2145936E-001, 7.2132635E-002, 1.2153061E-002, 1.7137561E-002, 6.6214401E-003, 4.5987801E+002
 1.5300379E+002, 6.0967372E-002, 1.2142455E-001, 7.2140497E-002, 1.2177962E-002, 1.7105157E-002, 6.6256780E-003, 4.6128758E+002
 1.5400126E+002, 6.0938800E-002, 1.2189320E-001, 7.2037165E-002, 1.1842549E-002, 1.7068065E-002, 6.5685767E-003, 4.6181858E+002
