s,,,,,,,
Time,"O2 EXHAUST","CO2 EXHAUST","H2O EXHAUST","CO EXHAUST","FUEL EXHAUST","SOOT EXHAUST","TEMP EXHAUST"
 0.0000000E+000, 2.3099739E-001, 5.9146498E-004, 5.9412092E-003, 0.0000000E+000, 0.0000000E+000, 0.0000000E+000, 2.0000000E+001
 1.0029780E+000, 2.3099739E-001, 5.9146498E-004, 5.9412092E-003, 2.3947889E-026, 8.0143367E-026, 1.7159694E-026, 2.3385257E+001
 2.0032125E+000, 2.1844074E-001, 9.9601629E-003, 1.1382457E-002, 1.5479577E-004, 1.3880827E-004, 1.0731760E-004, 1.4146435E+002
 3.0015456E+000, 2.0625686E-001, 1.9180888E-002, 1.6636977E-002, 2.2806294E-004, 1.6969925E-004, 1.9598390E-004, 2.4618750E+002
 4.0042982E+000, 1.9416220E-001, 2.8494795E-002, 2.1813488E-002, 1.9945890E-004, 1.2412223E-004, 2.6354562E-004, 3.3484315E+002
 5.0034201E+000, 1.8223218E-001, 3.7712036E-002, 2.6911260E-002, 1.5160057E-004, 7.0227745E-005, 3.2621427E-004, 4.0792624E+002
 6.0028318E+000, 1.6343282E-001, 5.2206136E-002, 3.4951171E-002, 9.4888945E-005, 3.7845347E-006, 4.2873695E-004, 4.9381294E+002
 7.0021395E+000, 1.5179557E-001, 6.1105960E-002, 3.9945352E-002, 1.0502702E-004, 2.0638926E-007, 5.0132893E-004, 5.3118865E+002
 8.0050515E+000, 1.3713518E-001, 7.2301845E-002, 4.6241237E-002, 1.2814533E-004, 8.3133687E-007, 5.9487114E-004, 5.6375479E+002
 9.0079529E+000, 1.2226908E-001, 8.3663601E-002, 5.2622793E-002, 1.4566873E-004, 4.8548933E-007, 6.8852621E-004, 5.8928519E+002
 1.0001282E+001, 1.0803985E-001, 9.4531991E-002, 5.8732931E-002, 1.6687569E-004, 1.1931973E-006, 7.7906736E-004, 6.0950634E+002
 1.1001784E+001, 9.9653253E-002, 1.0094268E-001, 6.2332731E-002, 1.7606861E-004, 8.1585003E-007, 8.3176184E-004, 6.0557648E+002
 1.2003305E+001, 8.9297327E-002, 1.0882690E-001, 6.6787680E-002, 2.0900459E-004, 2.9761163E-006, 9.0120601E-004, 6.1176721E+002
 1.3001592E+001, 7.7478781E-002, 1.1787784E-001, 7.1855316E-002, 2.1047337E-004, 1.2932850E-006, 9.7313498E-004, 6.1610721E+002
 1.4005430E+001, 7.0502615E-002, 1.2320044E-001, 7.4852832E-002, 2.2490646E-004, 1.5940273E-006, 1.0183436E-003, 6.2147865E+002
 1.5004626E+001, 6.5758239E-002, 1.2683113E-001, 7.6887921E-002, 2.2725867E-004, 1.5235058E-006, 1.0475752E-003, 6.0938084E+002
 1.6000449E+001, 5.6175783E-002, 1.3409420E-001, 8.1020196E-002, 2.7969221E-004, 5.8086465E-006, 1.1162849E-003, 6.2168022E+002
 1.7001133E+001, 5.5252615E-002, 1.3486092E-001, 8.1397494E-002, 2.3923779E-004, 1.0463526E-006, 1.1136779E-003, 6.2488755E+002
 1.8001356E+001, 4.5180973E-002, 1.4248303E-001, 8.5744586E-002, 3.0248338E-004, 5.0973092E-006, 1.1875467E-003, 6.2483449E+002
 1.9005001E+001, 3.8979632E-002, 1.4729365E-001, 8.8384249E-002, 2.6127620E-004, 1.3455182E-006, 1.2167749E-003, 6.2709513E+002
 2.0001886E+001, 3.5973413E-002, 1.4946963E-001, 8.9713216E-002, 3.4795262E-004, 6.0905525E-006, 1.2525757E-003, 6.2137651E+002
 2.1002167E+001, 3.1104095E-002, 1.5301104E-001, 9.1861149E-002, 4.7732716E-004, 8.9050618E-006, 1.3083349E-003, 6.2052135E+002
 2.2006015E+001, 2.8408539E-002, 1.5536518E-001, 9.2924543E-002, 2.7899792E-004, 1.2504298E-006, 1.2844392E-003, 6.1245864E+002
 2.3005536E+001, 2.8047517E-002, 1.5562606E-001, 9.3084073E-002, 2.8955106E-004, 3.1094051E-006, 1.2887660E-003, 6.0505065E+002
 2.4009762E+001, 2.2361313E-002, 1.5994599E-001, 9.5533386E-002, 3.1410929E-004, 2.7279255E-006, 1.3282120E-003, 6.0972008E+002
 2.5003814E+001, 1.6717154E-002, 1.6315079E-001, 9.8310205E-002, 1.0811248E-003, 2.8372057E-005, 1.5180201E-003, 6.1888180E+002
 2.6002823E+001, 1.0169589E-002, 1.6781847E-001, 1.0123222E-001, 1.3225252E-003, 1.1673598E-005, 1.6067093E-003, 6.3061839E+002
 2.7007464E+001, 5.0077732E-003, 1.7186379E-001, 1.0341099E-001, 1.2560604E-003, 4.0182099E-005, 1.6244671E-003, 6.2689468E+002
 2.8006823E+001, 6.1108789E-003, 1.7125349E-001, 1.0286392E-001, 1.0957166E-003, 3.0135685E-005, 1.5852599E-003, 6.2330618E+002
 2.9000354E+001, 3.7839962E-003, 1.7234229E-001, 1.0405990E-001, 1.5539896E-003, 1.8777413E-004, 1.6921307E-003, 6.1144595E+002
 3.0007904E+001, 1.7832998E-003, 1.7142143E-001, 1.0566989E-001, 3.2130363E-003, 4.3487666E-004, 2.0405506E-003, 6.0368051E+002
 3.1001706E+001, 6.5251946E-004, 1.7079538E-001, 1.0667030E-001, 4.2658635E-003, 2.2738125E-004, 2.2613255E-003, 5.9844849E+002
 3.2007749E+001, 6.8943553E-004, 1.6879297E-001, 1.0716922E-001, 5.5326258E-003, 9.8427018E-004, 2.5170832E-003, 5.8409198E+002
 3.3004169E+001, 6.8783708E-004, 1.6911265E-001, 1.0712085E-001, 5.3538752E-003, 6.5280607E-004, 2.4812863E-003, 5.9211053E+002
 3.4001732E+001, 5.9748775E-004, 1.6714796E-001, 1.0771521E-001, 6.6780378E-003, 1.2767497E-003, 2.7496486E-003, 5.7244232E+002
 3.5006383E+001, 5.3847097E-004, 1.6531403E-001, 1.0829015E-001, 7.9287787E-003, 1.6296826E-003, 3.0033023E-003, 5.6347560E+002
 3.6000320E+001, 3.6090557E-004, 1.6527223E-001, 1.0851826E-001, 8.1224205E-003, 1.0471396E-003, 3.0444863E-003, 5.6976604E+002
 3.7004592E+001, 4.3323459E-004, 1.6455718E-001, 1.0864396E-001, 8.5341882E-003, 1.3942587E-003, 3.1271145E-003, 5.5652922E+002
 3.8005304E+001, 3.4293173E-004, 1.6156805E-001, 1.0953072E-001, 1.0534759E-002, 2.2550148E-003, 3.5323962E-003, 5.5296079E+002
 3.9007580E+001, 3.8688716E-004, 1.6041521E-001, 1.0974521E-001, 1.1208870E-002, 3.0444284E-003, 3.6678096E-003, 5.4005070E+002
 4.0008534E+001, 3.4268766E-004, 1.5975924E-001, 1.1004195E-001, 1.1725266E-002, 2.7056149E-003, 3.7733348E-003, 5.4364648E+002
 4.1005354E+001, 3.0973594E-004, 1.5880446E-001, 1.1030451E-001, 1.2348776E-002, 3.1251167E-003, 3.8994647E-003, 5.4474302E+002
 4.2003376E+001, 2.8638947E-004, 1.5798629E-001, 1.1055010E-001, 1.2898500E-002, 3.3373313E-003, 4.0108546E-003, 5.4005476E+002
 4.3003022E+001, 2.9714374E-004, 1.5687225E-001, 1.1081663E-001, 1.3595123E-002, 3.8672353E-003, 4.1514006E-003, 5.3714542E+002
 4.4004761E+001, 3.2929000E-004, 1.5532947E-001, 1.1119818E-001, 1.4568904E-002, 4.4525582E-003, 4.3479779E-003, 5.2969726E+002
 4.5003573E+001, 3.0888972E-004, 1.5616188E-001, 1.1094860E-001, 1.4010635E-002, 4.4187760E-003, 4.2348695E-003, 5.3029021E+002
 4.6009246E+001, 2.9457159E-004, 1.5523216E-001, 1.1126666E-001, 1.4664441E-002, 4.3689152E-003, 4.3676912E-003, 5.2672995E+002
 4.7002037E+001, 3.1677229E-004, 1.5423874E-001, 1.1153800E-001, 1.5310769E-002, 4.5814675E-003, 4.4984066E-003, 5.2825705E+002
 4.8006709E+001, 3.1482701E-004, 1.5334123E-001, 1.1178460E-001, 1.5896191E-002, 4.8561934E-003, 4.6168229E-003, 5.2595863E+002
 4.9003645E+001, 3.0178192E-004, 1.5230501E-001, 1.1201243E-001, 1.6529453E-002, 5.5687846E-003, 4.7444006E-003, 5.2607405E+002
 5.0008614E+001, 2.9616494E-004, 1.5121396E-001, 1.1231977E-001, 1.7246876E-002, 5.8696885E-003, 4.8895869E-003, 5.2460079E+002
 5.1002866E+001, 2.8209811E-004, 1.5168403E-001, 1.1228668E-001, 1.7012885E-002, 5.1967976E-003, 4.8431347E-003, 5.2531497E+002
 5.2001975E+001, 2.8091115E-004, 1.4979540E-001, 1.1262208E-001, 1.8106525E-002, 6.8934460E-003, 5.0626792E-003, 5.1840795E+002
 5.3008362E+001, 2.7423205E-004, 1.4961800E-001, 1.1278256E-001, 1.8306510E-002, 6.2855170E-003, 5.1041501E-003, 5.2199778E+002
 5.4003918E+001, 2.6963497E-004, 1.5003764E-001, 1.1266705E-001, 1.8032734E-002, 6.1813001E-003, 5.0487713E-003, 5.2379134E+002
 5.5000316E+001, 3.0512305E-004, 1.4817776E-001, 1.1303374E-001, 1.9136472E-002, 7.4752081E-003, 5.2707063E-003, 5.1342612E+002
 5.6000258E+001, 3.1025759E-004, 1.4814935E-001, 1.1304922E-001, 1.9160685E-002, 7.4149600E-003, 5.2756728E-003, 5.1814863E+002
 5.7005091E+001, 3.1888395E-004, 1.4801652E-001, 1.1304279E-001, 1.9214828E-002, 7.6830104E-003, 5.2862313E-003, 5.2053775E+002
 5.8004882E+001, 3.2801462E-004, 1.4592927E-001, 1.1360924E-001, 2.0570744E-002, 8.3084215E-003, 5.5604319E-003, 5.1518561E+002
 5.9002382E+001, 3.4403239E-004, 1.4587207E-001, 1.1357757E-001, 2.0572074E-002, 8.5505804E-003, 5.5602657E-003, 5.0997644E+002
 6.0002457E+001, 3.4022585E-004, 1.4456456E-001, 1.1398987E-001, 2.1464901E-002, 8.6280528E-003, 5.7413453E-003, 5.1124524E+002
 6.1007392E+001, 3.4907462E-004, 1.4516456E-001, 1.1380065E-001, 2.1055049E-002, 8.5630344E-003, 5.6582190E-003, 5.1053154E+002
 6.2005862E+001, 3.9141525E-004, 1.4459695E-001, 1.1388790E-001, 2.1372746E-002, 8.9786019E-003, 5.7218451E-003, 5.1041396E+002
 6.3005160E+001, 3.5386240E-004, 1.4478773E-001, 1.1384206E-001, 2.1253957E-002, 9.0378086E-003, 5.6978860E-003, 5.1124031E+002
 6.4007535E+001, 4.7955699E-004, 1.4363289E-001, 1.1400713E-001, 2.1890241E-002, 9.7952118E-003, 5.8251734E-003, 5.0713767E+002
 6.5005888E+001, 4.8051486E-004, 1.4357560E-001, 1.1403558E-001, 2.1937158E-002, 9.7299702E-003, 5.8347789E-003, 5.1001233E+002
 6.6001014E+001, 4.9171979E-004, 1.4281742E-001, 1.1421219E-001, 2.2407594E-002, 1.0103852E-002, 5.9296447E-003, 5.1158527E+002
 6.7002220E+001, 4.7699920E-004, 1.4253284E-001, 1.1428513E-001, 2.2589519E-002, 1.0282035E-002, 5.9663991E-003, 5.1005008E+002
 6.8008185E+001, 4.9345888E-004, 1.4175877E-001, 1.1446547E-001, 2.3069735E-002, 1.0642723E-002, 6.0632360E-003, 5.0940663E+002
 6.9010468E+001, 5.0946013E-004, 1.4182072E-001, 1.1443799E-001, 2.3021158E-002, 1.0622122E-002, 6.0533110E-003, 5.0972699E+002
 7.0010589E+001, 5.0987120E-004, 1.4085114E-001, 1.1466243E-001, 2.3621948E-002, 1.1166952E-002, 6.1744532E-003, 5.0800641E+002
 7.1001483E+001, 5.0886471E-004, 1.4064691E-001, 1.1466762E-001, 2.3716825E-002, 1.1545519E-002, 6.1931809E-003, 5.1009757E+002
 7.2007837E+001, 5.3843018E-004, 1.3956076E-001, 1.1494005E-001, 2.4405129E-002, 1.1905240E-002, 6.3321631E-003, 5.0873561E+002
 7.3003784E+001, 5.3668762E-004, 1.3997677E-001, 1.1483971E-001, 2.4144335E-002, 1.1702902E-002, 6.2795387E-003, 5.0802783E+002
 7.4006078E+001, 5.0509092E-004, 1.3900874E-001, 1.1513955E-001, 2.4801804E-002, 1.1913402E-002, 6.4128437E-003, 5.0881735E+002
 7.5006976E+001, 5.2472014E-004, 1.3916705E-001, 1.1500695E-001, 2.4631082E-002, 1.2333633E-002, 6.3774950E-003, 5.0586488E+002
 7.6004522E+001, 5.3585259E-004, 1.3890567E-001, 1.1511822E-001, 2.4831073E-002, 1.2121810E-002, 6.4183046E-003, 5.0872461E+002
 7.7002277E+001, 4.7067852E-004, 1.3887234E-001, 1.1511665E-001, 2.4845922E-002, 1.2469286E-002, 6.4212262E-003, 5.1010513E+002
 7.8005253E+001, 4.5690884E-004, 1.3748790E-001, 1.1550536E-001, 2.5755424E-002, 1.2886626E-002, 6.6052740E-003, 5.0774103E+002
 7.9001213E+001, 4.3106063E-004, 1.3819496E-001, 1.1527646E-001, 2.5268645E-002, 1.2997618E-002, 6.5065021E-003, 5.0780428E+002
 8.0010662E+001, 4.4944437E-004, 1.3797732E-001, 1.1536405E-001, 2.5431193E-002, 1.2814454E-002, 6.5396301E-003, 5.0623135E+002
 8.1005099E+001, 4.2620927E-004, 1.3781694E-001, 1.1535885E-001, 2.5499121E-002, 1.3262411E-002, 6.5529270E-003, 5.0812877E+002
 8.2003433E+001, 4.4115986E-004, 1.3781746E-001, 1.1535576E-001, 2.5496289E-002, 1.3218186E-002, 6.5523237E-003, 5.0578906E+002
 8.3010173E+001, 4.5691356E-004, 1.3747679E-001, 1.1541956E-001, 2.5695756E-002, 1.3437312E-002, 6.5923958E-003, 5.0477089E+002
 8.4007801E+001, 4.6388808E-004, 1.3772328E-001, 1.1535166E-001, 2.5534730E-002, 1.3336141E-002, 6.5598209E-003, 5.0768458E+002
 8.5006175E+001, 4.7603713E-004, 1.3641874E-001, 1.1569035E-001, 2.6370503E-002, 1.3794741E-002, 6.7286935E-003, 5.0519107E+002
 8.6003032E+001, 4.8085832E-004, 1.3680283E-001, 1.1554817E-001, 2.6092299E-002, 1.3886318E-002, 6.6720853E-003, 5.0498404E+002
 8.7004376E+001, 4.6639341E-004, 1.3647959E-001, 1.1559690E-001, 2.6273208E-002, 1.4289535E-002, 6.7083170E-003, 5.0545872E+002
 8.8005502E+001, 4.4962342E-004, 1.3638471E-001, 1.1562092E-001, 2.6333853E-002, 1.4400196E-002, 6.7205693E-003, 5.0557432E+002
 8.9009638E+001, 4.5069688E-004, 1.3652639E-001, 1.1554928E-001, 2.6216786E-002, 1.4555205E-002, 6.6965915E-003, 5.0443952E+002
 9.0009478E+001, 4.5394149E-004, 1.3655272E-001, 1.1551610E-001, 2.6180016E-002, 1.4693683E-002, 6.6889170E-003, 5.0523899E+002
 9.1000275E+001, 4.6246963E-004, 1.3700104E-001, 1.1537830E-001, 2.5876437E-002, 1.4615072E-002, 6.6273755E-003, 5.0382729E+002
 9.2009867E+001, 4.4953259E-004, 1.3598820E-001, 1.1558783E-001, 2.6485501E-002, 1.5393477E-002, 6.7499504E-003, 5.0534224E+002
 9.3003896E+001, 4.6924179E-004, 1.3633001E-001, 1.1554542E-001, 2.6300995E-002, 1.4892467E-002, 6.7130939E-003, 5.0383448E+002
 9.4001099E+001, 4.8385681E-004, 1.3647963E-001, 1.1547756E-001, 2.6182990E-002, 1.4951980E-002, 6.6889775E-003, 5.0666789E+002
 9.5010725E+001, 5.3822864E-004, 1.3611608E-001, 1.1545223E-001, 2.6324815E-002, 1.5604974E-002, 6.7165117E-003, 5.0513959E+002
 9.6007388E+001, 5.3671119E-004, 1.3610574E-001, 1.1553405E-001, 2.6391067E-002, 1.5127759E-002, 6.7306323E-003, 5.0342266E+002
 9.7005772E+001, 6.2655694E-004, 1.3579338E-001, 1.1541835E-001, 2.6441394E-002, 1.6087895E-002, 6.7389554E-003, 5.0478947E+002
 9.8008586E+001, 6.0047258E-004, 1.3565602E-001, 1.1552188E-001, 2.6581004E-002, 1.5832067E-002, 6.7678003E-003, 5.0441906E+002
 9.9006388E+001, 6.3476980E-004, 1.3535420E-001, 1.1556861E-001, 2.6749979E-002, 1.6001835E-002, 6.8016418E-003, 5.0428723E+002
 1.0000229E+002, 6.1091258E-004, 1.3567643E-001, 1.1547091E-001, 2.6533340E-002, 1.6061977E-002, 6.7577434E-003, 5.0647137E+002
 1.0100441E+002, 6.2563652E-004, 1.3499269E-001, 1.1554311E-001, 2.6891921E-002, 1.6916357E-002, 6.8292184E-003, 5.0524462E+002
 1.0200052E+002, 6.3795784E-004, 1.3500397E-001, 1.1558922E-001, 2.6921405E-002, 1.6558495E-002, 6.8356275E-003, 5.0301275E+002
 1.0300093E+002, 6.1787945E-004, 1.3558678E-001, 1.1546350E-001, 2.6567553E-002, 1.6256996E-002, 6.7643706E-003, 5.0354168E+002
 1.0400106E+002, 6.5226406E-004, 1.3485409E-001, 1.1559570E-001, 2.6992769E-002, 1.6757200E-002, 6.8497431E-003, 5.0430308E+002
 1.0500357E+002, 6.1303496E-004, 1.3445353E-001, 1.1570376E-001, 2.7253237E-002, 1.7051907E-002, 6.9024203E-003, 5.0354695E+002
 1.0600807E+002, 5.8976876E-004, 1.3480688E-001, 1.1558869E-001, 2.7009653E-002, 1.7154647E-002, 6.8529914E-003, 5.0459074E+002
 1.0700567E+002, 5.8102757E-004, 1.3445012E-001, 1.1573184E-001, 2.7276487E-002, 1.7019005E-002, 6.9073781E-003, 5.0337137E+002
 1.0801141E+002, 6.0086231E-004, 1.3471339E-001, 1.1564552E-001, 2.7093882E-002, 1.6944351E-002, 6.8703097E-003, 5.0358891E+002
 1.0901018E+002, 5.8864726E-004, 1.3465299E-001, 1.1567432E-001, 2.7142685E-002, 1.6938006E-002, 6.8802952E-003, 5.0511788E+002
 1.1000147E+002, 5.6052194E-004, 1.3464454E-001, 1.1566376E-001, 2.7139015E-002, 1.7137009E-002, 6.8794424E-003, 5.0173099E+002
 1.1100712E+002, 5.3246597E-004, 1.3446133E-001, 1.1568738E-001, 2.7238895E-002, 1.7472956E-002, 6.8994090E-003, 5.0321435E+002
 1.1200478E+002, 5.0089256E-004, 1.3434202E-001, 1.1576634E-001, 2.7352066E-002, 1.7355420E-002, 6.9227286E-003, 5.0380858E+002
 1.1300909E+002, 5.0446853E-004, 1.3451209E-001, 1.1577881E-001, 2.7285661E-002, 1.6925234E-002, 6.9098350E-003, 5.0475427E+002
 1.1400524E+002, 4.6775525E-004, 1.3461402E-001, 1.1569056E-001, 2.7174478E-002, 1.7419043E-002, 6.8868057E-003, 5.0530436E+002
 1.1500062E+002, 5.0148423E-004, 1.3464126E-001, 1.1568371E-001, 2.7156573E-002, 1.7266561E-002, 6.8831817E-003, 5.0417713E+002
 1.1600844E+002, 4.4975914E-004, 1.3466975E-001, 1.1563079E-001, 2.7104975E-002, 1.7751339E-002, 6.8723466E-003, 5.0559169E+002
 1.1701025E+002, 4.6631437E-004, 1.3434089E-001, 1.1572010E-001, 2.7318372E-002, 1.7786572E-002, 6.9154977E-003, 5.0446947E+002
 1.1800315E+002, 4.8412503E-004, 1.3448802E-001, 1.1565790E-001, 2.7205687E-002, 1.7802803E-002, 6.8925020E-003, 5.0480734E+002
 1.1900939E+002, 4.8008153E-004, 1.3412441E-001, 1.1573404E-001, 2.7425028E-002, 1.8074076E-002, 6.9366536E-003, 5.0589461E+002
 1.2001074E+002, 5.0480218E-004, 1.3380115E-001, 1.1580460E-001, 2.7621663E-002, 1.8179678E-002, 6.9762554E-003, 5.0350061E+002
 1.2100316E+002, 5.2160148E-004, 1.3383888E-001, 1.1579275E-001, 2.7595634E-002, 1.8107579E-002, 6.9709729E-003, 5.0457847E+002
 1.2200249E+002, 5.5093044E-004, 1.3412835E-001, 1.1573966E-001, 2.7426212E-002, 1.7736518E-002, 6.9369370E-003, 5.0439090E+002
 1.2300194E+002, 5.9242951E-004, 1.3370816E-001, 1.1570304E-001, 2.7584990E-002, 1.8625369E-002, 6.9676591E-003, 5.0360200E+002
 1.2400886E+002, 5.6274512E-004, 1.3425318E-001, 1.1572335E-001, 2.7358124E-002, 1.7539397E-002, 6.9233255E-003, 5.0365673E+002
 1.2500924E+002, 5.4739461E-004, 1.3410724E-001, 1.1566808E-001, 2.7381770E-002, 1.8234209E-002, 6.9272438E-003, 5.0474750E+002
 1.2600938E+002, 5.0770041E-004, 1.3385344E-001, 1.1575775E-001, 2.7563045E-002, 1.8352179E-002, 6.9641020E-003, 5.0487288E+002
 1.2700724E+002, 5.6266304E-004, 1.3418682E-001, 1.1563900E-001, 2.7324152E-002, 1.8191469E-002, 6.9155198E-003, 5.0399941E+002
 1.2800251E+002, 5.4620201E-004, 1.3395691E-001, 1.1570650E-001, 2.7477669E-002, 1.8301656E-002, 6.9466158E-003, 5.0495970E+002
 1.2901243E+002, 5.5614858E-004, 1.3415347E-001, 1.1569692E-001, 2.7382745E-002, 1.7928105E-002, 6.9278171E-003, 5.0591258E+002
 1.3000875E+002, 5.4212600E-004, 1.3392366E-001, 1.1565388E-001, 2.7452922E-002, 1.8708968E-002, 6.9410487E-003, 5.0433775E+002
 1.3101201E+002, 5.5453541E-004, 1.3384812E-001, 1.1571917E-001, 2.7535503E-002, 1.8405333E-002, 6.9581552E-003, 5.0364201E+002
 1.3200743E+002, 5.4248441E-004, 1.3366002E-001, 1.1577722E-001, 2.7663204E-002, 1.8472193E-002, 6.9840467E-003, 5.0436558E+002
 1.3300318E+002, 5.2701172E-004, 1.3328659E-001, 1.1583811E-001, 2.7875632E-002, 1.8904598E-002, 7.0266393E-003, 5.0361075E+002
 1.3401036E+002, 5.6737898E-004, 1.3342316E-001, 1.1578120E-001, 2.7771227E-002, 1.8815272E-002, 7.0053347E-003, 5.0400848E+002
 1.3500073E+002, 5.5456856E-004, 1.3366955E-001, 1.1574218E-001, 2.7632354E-002, 1.8618744E-002, 6.9775084E-003, 5.0400843E+002
 1.3600693E+002, 5.5872810E-004, 1.3360859E-001, 1.1575305E-001, 2.7667610E-002, 1.8655753E-002, 6.9845852E-003, 5.0243050E+002
 1.3700068E+002, 5.5183418E-004, 1.3394251E-001, 1.1565704E-001, 2.7446724E-002, 1.8611584E-002, 6.9398685E-003, 5.0455360E+002
 1.3800928E+002, 5.6973348E-004, 1.3360716E-001, 1.1571667E-001, 2.7640645E-002, 1.8836905E-002, 6.9787934E-003, 5.0195066E+002
 1.3900010E+002, 5.7682687E-004, 1.3339301E-001, 1.1577957E-001, 2.7783252E-002, 1.8845946E-002, 7.0076744E-003, 5.0284343E+002
 1.4000888E+002, 5.4808525E-004, 1.3359984E-001, 1.1571164E-001, 2.7640511E-002, 1.8972648E-002, 6.9787074E-003, 5.0494393E+002
 1.4100825E+002, 5.8848320E-004, 1.3327119E-001, 1.1578611E-001, 2.7842212E-002, 1.8999499E-002, 7.0193526E-003, 5.0132336E+002
 1.4200905E+002, 5.4071907E-004, 1.3324135E-001, 1.1571842E-001, 2.7805388E-002, 1.9674910E-002, 7.0112245E-003, 5.0267927E+002
 1.4300620E+002, 5.8370650E-004, 1.3341229E-001, 1.1571545E-001, 2.7726247E-002, 1.9174021E-002, 6.9956065E-003, 5.0309902E+002
 1.4400202E+002, 5.8522408E-004, 1.3344040E-001, 1.1564876E-001, 2.7663479E-002, 1.9522595E-002, 6.9823730E-003, 5.0278412E+002
 1.4500740E+002, 5.5209500E-004, 1.3344394E-001, 1.1575439E-001, 2.7742059E-002, 1.9002798E-002, 6.9992462E-003, 5.0476217E+002
 1.4601129E+002, 5.8969715E-004, 1.3309903E-001, 1.1568038E-001, 2.7839226E-002, 1.9988436E-002, 7.0173548E-003, 5.0073603E+002
 1.4701104E+002, 5.9241818E-004, 1.3302972E-001, 1.1576702E-001, 2.7935294E-002, 1.9581227E-002, 7.0374016E-003, 5.0209536E+002
 1.4800289E+002, 5.9417530E-004, 1.3331502E-001, 1.1578552E-001, 2.7822147E-002, 1.8892232E-002, 7.0153968E-003, 5.0294558E+002
 1.4901050E+002, 6.2890386E-004, 1.3322846E-001, 1.1572045E-001, 2.7811056E-002, 1.9320697E-002, 7.0123359E-003, 5.0551347E+002
 1.5000370E+002, 6.0226587E-004, 1.3335772E-001, 1.1575167E-001, 2.7777489E-002, 1.8982117E-002, 7.0061604E-003, 5.0262918E+002
 1.5100432E+002, 6.3223597E-004, 1.3333598E-001, 1.1571232E-001, 2.7756990E-002, 1.9142972E-002, 7.0015939E-003, 5.0347909E+002
 1.5201004E+002, 6.4149443E-004, 1.3321993E-001, 1.1574423E-001, 2.7832535E-002, 1.9138717E-002, 7.0168729E-003, 5.0163902E+002
 1.5300266E+002, 6.4325303E-004, 1.3323889E-001, 1.1578455E-001, 2.7854420E-002, 1.8845263E-002, 7.0217137E-003, 5.0570522E+002
 1.5401130E+002, 6.1809516E-004, 1.3337658E-001, 1.1580552E-001, 2.7809360E-002, 1.8546871E-002, 7.0131407E-003, 5.0759369E+002
