s,,,,,,,
Time,"O2 EXHAUST","CO2 EXHAUST","H2O EXHAUST","CO EXHAUST","FUEL EXHAUST","SOOT EXHAUST","TEMP EXHAUST"
 0.0000000E+000, 2.3099739E-001, 5.9146498E-004, 5.9412092E-003, 0.0000000E+000, 0.0000000E+000, 0.0000000E+000, 2.0000000E+001
 1.0050866E+000, 2.3099739E-001, 5.9146498E-004, 5.9412092E-003, 2.2050202E-032, 4.6263068E-031, 5.1796126E-032, 2.0503223E+001
 2.0008957E+000, 2.2476390E-001, 6.3267731E-003, 7.6033486E-003, 1.9415036E-005, 2.9043412E-004, 3.8216867E-004, 8.1029815E+001
 3.0067144E+000, 2.2149396E-001, 9.3310217E-003, 8.4902524E-003, 5.7913490E-005, 3.1332310E-004, 5.8842426E-004, 1.0790150E+002
 4.0030168E+000, 2.1763423E-001, 1.2882451E-002, 9.5224724E-003, 7.5097172E-005, 4.6508841E-004, 8.2617721E-004, 1.4493187E+002
 5.0054588E+000, 2.1472345E-001, 1.5565867E-002, 1.0308677E-002, 9.8696610E-005, 4.9956245E-004, 1.0080935E-003, 1.6871304E+002
 6.0056849E+000, 2.0934718E-001, 2.0520976E-002, 1.1756658E-002, 1.3575596E-004, 6.0335964E-004, 1.3426181E-003, 2.1144913E+002
 7.0041253E+000, 2.0646551E-001, 2.3196624E-002, 1.2532227E-002, 1.4392591E-004, 6.2958864E-004, 1.5207137E-003, 2.3254626E+002
 8.0018154E+000, 2.0238563E-001, 2.6961571E-002, 1.3634694E-002, 1.7580312E-004, 6.6690347E-004, 1.7756850E-003, 2.6103285E+002
 9.0057140E+000, 1.9786788E-001, 3.1183056E-002, 1.4854667E-002, 1.8108692E-004, 6.2423326E-004, 2.0550398E-003, 2.8557198E+002
 1.0002672E+001, 1.9265202E-001, 3.6052230E-002, 1.6263923E-002, 1.9104367E-004, 5.7606698E-004, 2.3780832E-003, 3.1343416E+002
 1.1006008E+001, 1.8852377E-001, 3.9899320E-002, 1.7380418E-002, 2.0450962E-004, 5.3970931E-004, 2.6345176E-003, 3.3311302E+002
 1.2006182E+001, 1.8415620E-001, 4.3983224E-002, 1.8560918E-002, 2.0999370E-004, 4.8377402E-004, 2.9048473E-003, 3.4763765E+002
 1.3006123E+001, 1.7920910E-001, 4.8611421E-002, 1.9897712E-002, 2.1429380E-004, 4.1936984E-004, 3.2107953E-003, 3.6450546E+002
 1.4005289E+001, 1.7413055E-001, 5.3377181E-002, 2.1269313E-002, 2.0952419E-004, 3.3436890E-004, 3.5238639E-003, 3.8023198E+002
 1.5002366E+001, 1.6938465E-001, 5.7823551E-002, 2.2550628E-002, 2.0823635E-004, 2.7162724E-004, 3.8166301E-003, 3.9214148E+002
 1.6006027E+001, 1.6527540E-001, 6.1675787E-002, 2.3659392E-002, 2.0469711E-004, 2.1930649E-004, 4.0697567E-003, 4.0091023E+002
 1.7009763E+001, 1.6174426E-001, 6.4981585E-002, 2.4612422E-002, 2.0453651E-004, 1.7984840E-004, 4.2875944E-003, 4.0683223E+002
 1.8003600E+001, 1.5888515E-001, 6.7662734E-002, 2.5383615E-002, 2.0115951E-004, 1.4431330E-004, 4.4635741E-003, 4.1332434E+002
 1.9000818E+001, 1.5489585E-001, 7.1391787E-002, 2.6459738E-002, 2.0309691E-004, 1.1473335E-004, 4.7097573E-003, 4.1823025E+002
 2.0008923E+001, 1.5145801E-001, 7.4604252E-002, 2.7387263E-002, 2.0564437E-004, 8.9713802E-005, 4.9220250E-003, 4.2266640E+002
 2.1007745E+001, 1.4938895E-001, 7.6539286E-002, 2.7945009E-002, 2.0545927E-004, 7.6281731E-005, 5.0495162E-003, 4.2372097E+002
 2.2003043E+001, 1.4665145E-001, 7.9097175E-002, 2.8682910E-002, 2.0640434E-004, 6.2768353E-005, 5.2182998E-003, 4.2432286E+002
 2.3000116E+001, 1.4408793E-001, 8.1493273E-002, 2.9373873E-002, 2.0679426E-004, 4.9181286E-005, 5.3763015E-003, 4.2757744E+002
 2.4007406E+001, 1.4122590E-001, 8.4164074E-002, 3.0145512E-002, 2.0995657E-004, 3.9524630E-005, 5.5530023E-003, 4.2809501E+002
 2.5001455E+001, 1.3883061E-001, 8.6399076E-002, 3.0791191E-002, 2.1252725E-004, 3.2939599E-005, 5.7008546E-003, 4.2946656E+002
 2.6002675E+001, 1.3731739E-001, 8.7808814E-002, 3.1199333E-002, 2.1576883E-004, 3.0539235E-005, 5.7944605E-003, 4.2706818E+002
 2.7010092E+001, 1.3516686E-001, 8.9817440E-002, 3.1778774E-002, 2.1653147E-004, 2.3532159E-005, 5.9270053E-003, 4.2954060E+002
 2.8008685E+001, 1.3196205E-001, 9.2802964E-002, 3.2642957E-002, 2.2310121E-004, 2.0555708E-005, 6.1251795E-003, 4.3086135E+002
 2.9008237E+001, 1.3167459E-001, 9.3070853E-002, 3.2720501E-002, 2.2368863E-004, 1.9824074E-005, 6.1429610E-003, 4.2654686E+002
 3.0003348E+001, 1.2965588E-001, 9.4953037E-002, 3.3264668E-002, 2.2663694E-004, 1.6828409E-005, 6.2676413E-003, 4.2788852E+002
 3.1009265E+001, 1.2743708E-001, 9.7019777E-002, 3.3862933E-002, 2.3125055E-004, 1.5519938E-005, 6.4048422E-003, 4.2787728E+002
 3.2007805E+001, 1.2573408E-001, 9.8605812E-002, 3.4322172E-002, 2.3501745E-004, 1.4485950E-005, 6.5101799E-003, 4.2811040E+002
 3.3006826E+001, 1.2450959E-001, 9.9745275E-002, 3.4652460E-002, 2.3837998E-004, 1.4563543E-005, 6.5859990E-003, 4.2713265E+002
 3.4005802E+001, 1.2220286E-001, 1.0189534E-001, 3.5274213E-002, 2.4201835E-004, 1.2773647E-005, 6.7284823E-003, 4.2699163E+002
 3.5000393E+001, 1.2093713E-001, 1.0307482E-001, 3.5615400E-002, 2.4421205E-004, 1.2065507E-005, 6.8066882E-003, 4.2805176E+002
 3.6007578E+001, 1.1992506E-001, 1.0401812E-001, 3.5888186E-002, 2.4581423E-004, 1.1382981E-005, 6.8692016E-003, 4.2614062E+002
 3.7004450E+001, 1.1782452E-001, 1.0597418E-001, 3.6454614E-002, 2.5055351E-004, 1.0615770E-005, 6.9991348E-003, 4.2668816E+002
 3.8002573E+001, 1.1640559E-001, 1.0729582E-001, 3.6837182E-002, 2.5348460E-004, 1.0083651E-005, 7.0868681E-003, 4.2735145E+002
 3.9006895E+001, 1.1487952E-001, 1.0871826E-001, 3.7248465E-002, 2.5579517E-004, 9.3339029E-006, 7.1811113E-003, 4.3001756E+002
 4.0000371E+001, 1.1361342E-001, 1.0989546E-001, 3.7590119E-002, 2.6005800E-004, 9.8415371E-006, 7.2596103E-003, 4.2664270E+002
 4.1007163E+001, 1.1237580E-001, 1.1104922E-001, 3.7923597E-002, 2.6171502E-004, 9.5159047E-006, 7.3360060E-003, 4.2708688E+002
 4.2003163E+001, 1.1065771E-001, 1.1264495E-001, 3.8387483E-002, 2.6888744E-004, 1.0779358E-005, 7.4427136E-003, 4.2719495E+002
 4.3007720E+001, 1.0864263E-001, 1.1451305E-001, 3.8932213E-002, 2.8033309E-004, 1.2314244E-005, 7.5682877E-003, 4.2985482E+002
 4.4003818E+001, 1.0811950E-001, 1.1499724E-001, 3.9073748E-002, 2.8394075E-004, 1.2993950E-005, 7.6009722E-003, 4.2911093E+002
 4.5008264E+001, 1.0633689E-001, 1.1665241E-001, 3.9555138E-002, 2.9179511E-004, 1.4430144E-005, 7.7117430E-003, 4.2997839E+002
 4.6002676E+001, 1.0579002E-001, 1.1715449E-001, 3.9703601E-002, 2.9866267E-004, 1.7607037E-005, 7.7463062E-003, 4.2817573E+002
 4.7006430E+001, 1.0458253E-001, 1.1828253E-001, 4.0028627E-002, 2.9840835E-004, 1.6240726E-005, 7.8205971E-003, 4.2845024E+002
 4.8001449E+001, 1.0303361E-001, 1.1971351E-001, 4.0448109E-002, 3.1123771E-004, 1.9024722E-005, 7.9176592E-003, 4.3022335E+002
 4.9001934E+001, 1.0139142E-001, 1.2122334E-001, 4.0893995E-002, 3.3081659E-004, 2.4321505E-005, 8.0213647E-003, 4.2963756E+002
 5.0004496E+001, 1.0109986E-001, 1.2150273E-001, 4.0971126E-002, 3.2459273E-004, 2.4066795E-005, 8.0384442E-003, 4.3054223E+002
 5.1002703E+001, 9.9682371E-002, 1.2280308E-001, 4.1356425E-002, 3.4379683E-004, 2.9791627E-005, 8.1282638E-003, 4.2927969E+002
 5.2007215E+001, 9.8802460E-002, 1.2361389E-001, 4.1594852E-002, 3.5245358E-004, 3.3896802E-005, 8.1835576E-003, 4.3141907E+002
 5.3008382E+001, 9.7489712E-002, 1.2481570E-001, 4.1952085E-002, 3.7227629E-004, 3.9755797E-005, 8.2670155E-003, 4.3059547E+002
 5.4002471E+001, 9.6450187E-002, 1.2577432E-001, 4.2233793E-002, 3.8215358E-004, 4.3030030E-005, 8.3323132E-003, 4.3059015E+002
 5.5000830E+001, 9.5834759E-002, 1.2633263E-001, 4.2401973E-002, 3.9545718E-004, 4.8235863E-005, 8.3719620E-003, 4.3135001E+002
 5.6008454E+001, 9.4664027E-002, 1.2740610E-001, 4.2720317E-002, 4.1180236E-004, 5.2763057E-005, 8.4462157E-003, 4.2935198E+002
 5.7002534E+001, 9.3615462E-002, 1.2836833E-001, 4.3005393E-002, 4.2593135E-004, 5.5898656E-005, 8.5126631E-003, 4.3125257E+002
 5.8003471E+001, 9.3304848E-002, 1.2865264E-001, 4.3089704E-002, 4.3028130E-004, 5.9351609E-005, 8.5323336E-003, 4.3135502E+002
 5.9006571E+001, 9.2092491E-002, 1.2976204E-001, 4.3419665E-002, 4.4894325E-004, 6.5219968E-005, 8.6094522E-003, 4.3096681E+002
 6.0007808E+001, 9.1249292E-002, 1.3053159E-001, 4.3649246E-002, 4.6319459E-004, 7.2015181E-005, 8.6632267E-003, 4.2992710E+002
 6.1002237E+001, 9.0505433E-002, 1.3119999E-001, 4.3853974E-002, 4.8528334E-004, 7.6202948E-005, 8.7120153E-003, 4.3200633E+002
 6.2001447E+001, 9.0414435E-002, 1.3128678E-001, 4.3877660E-002, 4.8289277E-004, 8.0395202E-005, 8.7172230E-003, 4.3155336E+002
 6.3006480E+001, 8.8893024E-002, 1.3268221E-001, 4.4291256E-002, 5.0372831E-004, 8.6511910E-005, 8.8136589E-003, 4.3055602E+002
 6.4000721E+001, 8.8004096E-002, 1.3349870E-001, 4.4532285E-002, 5.1418316E-004, 9.3780487E-005, 8.8697127E-003, 4.3405053E+002
 6.5009517E+001, 8.6680533E-002, 1.3468577E-001, 4.4896767E-002, 5.5505285E-004, 1.0324275E-004, 8.9567126E-003, 4.3327013E+002
 6.6003283E+001, 8.6862549E-002, 1.3451617E-001, 4.4847272E-002, 5.5398439E-004, 1.0727060E-004, 8.9453058E-003, 4.3112112E+002
 6.7001438E+001, 8.6165224E-002, 1.3515045E-001, 4.5037668E-002, 5.6786098E-004, 1.1174970E-004, 8.9900844E-003, 4.3085728E+002
 6.8008247E+001, 8.5264628E-002, 1.3597138E-001, 4.5283018E-002, 5.8386982E-004, 1.1945968E-004, 9.0476225E-003, 4.3144863E+002
 6.9009272E+001, 8.4131580E-002, 1.3699819E-001, 4.5593087E-002, 6.0970712E-004, 1.2692585E-004, 9.1208359E-003, 4.3461601E+002
 7.0009696E+001, 8.4388583E-002, 1.3676887E-001, 4.5521773E-002, 6.0019224E-004, 1.2796806E-004, 9.1036821E-003, 4.3298511E+002
 7.1005925E+001, 8.3213656E-002, 1.3782638E-001, 4.5844427E-002, 6.3287998E-004, 1.3804351E-004, 9.1803884E-003, 4.3336682E+002
 7.2005969E+001, 8.1858784E-002, 1.3906785E-001, 4.6212531E-002, 6.5171322E-004, 1.4759071E-004, 9.2662485E-003, 4.3359736E+002
 7.3008889E+001, 8.1768749E-002, 1.3913270E-001, 4.6240026E-002, 6.6783927E-004, 1.5124637E-004, 9.2739802E-003, 4.3304327E+002
 7.4004845E+001, 8.1381861E-002, 1.3948648E-001, 4.6345183E-002, 6.7368807E-004, 1.5483593E-004, 9.2985510E-003, 4.3308641E+002
 7.5001004E+001, 8.1321618E-002, 1.3955134E-001, 4.6359462E-002, 6.6564412E-004, 1.5753617E-004, 9.3011010E-003, 4.3356454E+002
 7.6006060E+001, 8.0158224E-002, 1.4061734E-001, 4.6675653E-002, 6.8201858E-004, 1.6476776E-004, 9.3748688E-003, 4.3344439E+002
 7.7004208E+001, 7.9827785E-002, 1.4091107E-001, 4.6766725E-002, 6.9379053E-004, 1.7103843E-004, 9.3967517E-003, 4.3279606E+002
 7.8006138E+001, 7.9265742E-002, 1.4143620E-001, 4.6917779E-002, 6.9322827E-004, 1.7240126E-004, 9.4312412E-003, 4.3372236E+002
 7.9007603E+001, 7.8590354E-002, 1.4203860E-001, 4.7104186E-002, 7.1663145E-004, 1.7922510E-004, 9.4759616E-003, 4.3217562E+002
 8.0006041E+001, 7.7689773E-002, 1.4285198E-001, 4.7351026E-002, 7.3934059E-004, 1.8640914E-004, 9.5344383E-003, 4.3443645E+002
 8.1002331E+001, 7.7733522E-002, 1.4280910E-001, 4.7339452E-002, 7.4079456E-004, 1.8810444E-004, 9.5319242E-003, 4.3321466E+002
 8.2003619E+001, 7.6892541E-002, 1.4357368E-001, 4.7569186E-002, 7.5792474E-004, 1.9309581E-004, 9.5859883E-003, 4.3301667E+002
 8.3007083E+001, 7.7037303E-002, 1.4344412E-001, 4.7529255E-002, 7.5319301E-004, 1.9219576E-004, 9.5764345E-003, 4.3438418E+002
 8.4003049E+001, 7.5971205E-002, 1.4440136E-001, 4.7822012E-002, 7.8409496E-004, 2.0546879E-004, 9.6461499E-003, 4.3447408E+002
 8.5009359E+001, 7.5234719E-002, 1.4509546E-001, 4.8019240E-002, 7.7887506E-004, 2.0332981E-004, 9.6907761E-003, 4.3374550E+002
 8.6004733E+001, 7.5026018E-002, 1.4527407E-001, 4.8077998E-002, 7.9221319E-004, 2.0799214E-004, 9.7054082E-003, 4.3424397E+002
 8.7002088E+001, 7.5475279E-002, 1.4486361E-001, 4.7954637E-002, 7.8306170E-004, 2.1464265E-004, 9.6763941E-003, 4.3426672E+002
 8.8009456E+001, 7.4764668E-002, 1.4550345E-001, 4.8149808E-002, 8.0274183E-004, 2.2007121E-004, 9.7227840E-003, 4.3523044E+002
 8.9006817E+001, 7.4547315E-002, 1.4572499E-001, 4.8204683E-002, 7.8633456E-004, 2.2081847E-004, 9.7338666E-003, 4.3283546E+002
 9.0009354E+001, 7.3748050E-002, 1.4644760E-001, 4.8423978E-002, 8.0647625E-004, 2.2386077E-004, 9.7858102E-003, 4.3348871E+002
 9.1003130E+001, 7.3420081E-002, 1.4673462E-001, 4.8515180E-002, 8.2202236E-004, 2.3051161E-004, 9.8080607E-003, 4.3478947E+002
 9.2005897E+001, 7.3619982E-002, 1.4656671E-001, 4.8458186E-002, 8.0627849E-004, 2.2705112E-004, 9.7936184E-003, 4.3357388E+002
 9.3010161E+001, 7.3682191E-002, 1.4649805E-001, 4.8442929E-002, 8.1461861E-004, 2.3189485E-004, 9.7908814E-003, 4.3297357E+002
 9.4005679E+001, 7.2660663E-002, 1.4743913E-001, 4.8719810E-002, 8.2492584E-004, 2.3630140E-004, 9.8551153E-003, 4.3335660E+002
 9.5010790E+001, 7.1804270E-002, 1.4822297E-001, 4.8952916E-002, 8.3805867E-004, 2.3989265E-004, 9.9095918E-003, 4.3549024E+002
 9.6008757E+001, 7.1614775E-002, 1.4837826E-001, 4.9007658E-002, 8.5633121E-004, 2.4340274E-004, 9.9237447E-003, 4.3542693E+002
 9.7009648E+001, 7.1107059E-002, 1.4885127E-001, 4.9143921E-002, 8.5624253E-004, 2.4875416E-004, 9.9549001E-003, 4.3537752E+002
 9.8008369E+001, 7.1531000E-002, 1.4846825E-001, 4.9027515E-002, 8.4526280E-004, 2.4750600E-004, 9.9273021E-003, 4.3590597E+002
 9.9004540E+001, 7.1147142E-002, 1.4883487E-001, 4.9129480E-002, 8.3845582E-004, 2.4552403E-004, 9.9500053E-003, 4.3473672E+002
 1.0000885E+002, 7.0516751E-002, 1.4939246E-001, 4.9304575E-002, 8.6476582E-004, 2.4991611E-004, 9.9923956E-003, 4.3594559E+002
 1.0100438E+002, 6.9839945E-002, 1.4999979E-001, 4.9490834E-002, 8.8528381E-004, 2.5528374E-004, 1.0036823E-002, 4.3596663E+002
 1.0201031E+002, 6.9534456E-002, 1.5025122E-001, 4.9578554E-002, 9.1323618E-004, 2.6391700E-004, 1.0059387E-002, 4.3575483E+002
 1.0300128E+002, 6.9770609E-002, 1.5006074E-001, 4.9509966E-002, 8.8816566E-004, 2.5758764E-004, 1.0041458E-002, 4.3783959E+002
 1.0400402E+002, 6.9217573E-002, 1.5056850E-001, 4.9660138E-002, 8.9516061E-004, 2.6048010E-004, 1.0076422E-002, 4.3615687E+002
 1.0500593E+002, 6.8511631E-002, 1.5122963E-001, 4.9849622E-002, 8.9319137E-004, 2.6173677E-004, 1.0119573E-002, 4.3804708E+002
 1.0600481E+002, 6.8409151E-002, 1.5131614E-001, 4.9878729E-002, 9.0083221E-004, 2.6377348E-004, 1.0126913E-002, 4.3643245E+002
 1.0700122E+002, 6.8217315E-002, 1.5149296E-001, 4.9930801E-002, 9.0284757E-004, 2.6374781E-004, 1.0138999E-002, 4.3541699E+002
 1.0800155E+002, 6.8036466E-002, 1.5165879E-001, 4.9979734E-002, 9.0495344E-004, 2.6666688E-004, 1.0150379E-002, 4.3866723E+002
 1.0900540E+002, 6.8527498E-002, 1.5119099E-001, 4.9848673E-002, 9.1192939E-004, 2.7287675E-004, 1.0121044E-002, 4.3725720E+002
 1.1000019E+002, 6.7638596E-002, 1.5202996E-001, 5.0086442E-002, 9.0447778E-004, 2.7066188E-004, 1.0174741E-002, 4.3457703E+002
 1.1100159E+002, 6.7052302E-002, 1.5258687E-001, 5.0243377E-002, 8.9782375E-004, 2.6202958E-004, 1.0210017E-002, 4.3645137E+002
 1.1200664E+002, 6.7164546E-002, 1.5248456E-001, 5.0212299E-002, 8.9495833E-004, 2.6562983E-004, 1.0202660E-002, 4.3677787E+002
 1.1300282E+002, 6.7088712E-002, 1.5255731E-001, 5.0232276E-002, 8.9314907E-004, 2.6619304E-004, 1.0207067E-002, 4.3695497E+002
 1.1400701E+002, 6.6622379E-002, 1.5298921E-001, 5.0358365E-002, 8.9607366E-004, 2.6703931E-004, 1.0236159E-002, 4.3697822E+002
 1.1500696E+002, 6.6493752E-002, 1.5308133E-001, 5.0397537E-002, 9.1920924E-004, 2.7417175E-004, 1.0247191E-002, 4.3700669E+002
 1.1600544E+002, 6.6818564E-002, 1.5276852E-001, 5.0311139E-002, 9.2617201E-004, 2.8141358E-004, 1.0228069E-002, 4.3603904E+002
 1.1700717E+002, 6.6478620E-002, 1.5309728E-001, 5.0400736E-002, 9.1670392E-004, 2.7898555E-004, 1.0247706E-002, 4.3635386E+002
 1.1800889E+002, 6.5497845E-002, 1.5396191E-001, 5.0673713E-002, 9.6017156E-004, 2.8569607E-004, 1.0314011E-002, 4.3788259E+002
 1.1900391E+002, 6.5708636E-002, 1.5378814E-001, 5.0612364E-002, 9.3961911E-004, 2.8776084E-004, 1.0298152E-002, 4.3769315E+002
 1.2000929E+002, 6.5548873E-002, 1.5395088E-001, 5.0653048E-002, 9.2821720E-004, 2.8529073E-004, 1.0306432E-002, 4.3790674E+002
 1.2100781E+002, 6.5956510E-002, 1.5357176E-001, 5.0543001E-002, 9.2682167E-004, 2.8573747E-004, 1.0281147E-002, 4.3668722E+002
 1.2200946E+002, 6.5671256E-002, 1.5382106E-001, 5.0623183E-002, 9.4201101E-004, 2.8426502E-004, 1.0300834E-002, 4.3741851E+002
 1.2300876E+002, 6.5296906E-002, 1.5419200E-001, 5.0720183E-002, 9.2384782E-004, 2.8129952E-004, 1.0321387E-002, 4.3738673E+002
 1.2400143E+002, 6.4750704E-002, 1.5467931E-001, 5.0871211E-002, 9.4317869E-004, 2.8405192E-004, 1.0357649E-002, 4.3701528E+002
 1.2500062E+002, 6.5558433E-002, 1.5392065E-001, 5.0653934E-002, 9.4581376E-004, 2.9076215E-004, 1.0308214E-002, 4.3659566E+002
 1.2600550E+002, 6.5236939E-002, 1.5424001E-001, 5.0737612E-002, 9.3043301E-004, 2.8341498E-004, 1.0325963E-002, 4.3676477E+002
 1.2700202E+002, 6.5268621E-002, 1.5423047E-001, 5.0725392E-002, 9.1311137E-004, 2.8225581E-004, 1.0321620E-002, 4.3489416E+002
 1.2800928E+002, 6.5220845E-002, 1.5426580E-001, 5.0740623E-002, 9.2227866E-004, 2.7673071E-004, 1.0325914E-002, 4.3576823E+002
 1.2900036E+002, 6.4512901E-002, 1.5492071E-001, 5.0931594E-002, 9.2636014E-004, 2.8341905E-004, 1.0369952E-002, 4.3555357E+002
 1.3000338E+002, 6.3965687E-002, 1.5540037E-001, 5.1084096E-002, 9.5245388E-004, 2.9015557E-004, 1.0407160E-002, 4.3719689E+002
 1.3100890E+002, 6.4057825E-002, 1.5532584E-001, 5.1057539E-002, 9.4313812E-004, 2.8618645E-004, 1.0400251E-002, 4.3719168E+002
 1.3200106E+002, 6.4446173E-002, 1.5496978E-001, 5.0951522E-002, 9.3698184E-004, 2.8847165E-004, 1.0375464E-002, 4.3599942E+002
 1.3301013E+002, 6.3860511E-002, 1.5550954E-001, 5.1110928E-002, 9.4392236E-004, 2.8454014E-004, 1.0412526E-002, 4.3733685E+002
 1.3400059E+002, 6.4192374E-002, 1.5519521E-001, 5.1021798E-002, 9.4668162E-004, 2.9058898E-004, 1.0392401E-002, 4.3693168E+002
 1.3500335E+002, 6.3855817E-002, 1.5551680E-001, 5.1111252E-002, 9.4073135E-004, 2.8812086E-004, 1.0412320E-002, 4.3733843E+002
 1.3600052E+002, 6.3696802E-002, 1.5564823E-001, 5.1156757E-002, 9.5470932E-004, 2.9306355E-004, 1.0423979E-002, 4.3778229E+002
 1.3701018E+002, 6.3719585E-002, 1.5563647E-001, 5.1148881E-002, 9.4650280E-004, 2.9244149E-004, 1.0421445E-002, 4.3888454E+002
 1.3800352E+002, 6.3317031E-002, 1.5601968E-001, 5.1256111E-002, 9.4057007E-004, 2.8982886E-004, 1.0445429E-002, 4.3723071E+002
 1.3900882E+002, 6.3110758E-002, 1.5618725E-001, 5.1316170E-002, 9.6208083E-004, 2.9190963E-004, 1.0461085E-002, 4.3780311E+002
 1.4000036E+002, 6.2691999E-002, 1.5657576E-001, 5.1428905E-002, 9.6349021E-004, 2.9598472E-004, 1.0486993E-002, 4.3890777E+002
 1.4100764E+002, 6.2462667E-002, 1.5676738E-001, 5.1493872E-002, 9.8137852E-004, 3.0554925E-004, 1.0503458E-002, 4.3719150E+002
 1.4200399E+002, 6.2951576E-002, 1.5630873E-001, 5.1362854E-002, 9.8353092E-004, 3.0409555E-004, 1.0473691E-002, 4.3769424E+002
 1.4300625E+002, 6.2794060E-002, 1.5646378E-001, 5.1403968E-002, 9.7696775E-004, 3.0190130E-004, 1.0482503E-002, 4.3604722E+002
 1.4400902E+002, 6.2037851E-002, 1.5717228E-001, 5.1607227E-002, 9.7518308E-004, 3.0013694E-004, 1.0528815E-002, 4.3968822E+002
 1.4500455E+002, 6.2213216E-002, 1.5698870E-001, 5.1563288E-002, 9.9164097E-004, 3.0491137E-004, 1.0520245E-002, 4.3851105E+002
 1.4600338E+002, 6.2498351E-002, 1.5674614E-001, 5.1482428E-002, 9.7160525E-004, 3.0131498E-004, 1.0499963E-002, 4.3907261E+002
 1.4700952E+002, 6.2361477E-002, 1.5687979E-001, 5.1517828E-002, 9.6592995E-004, 3.0429489E-004, 1.0507554E-002, 4.3758060E+002
 1.4800003E+002, 6.2015792E-002, 1.5716872E-001, 5.1617301E-002, 9.9551253E-004, 3.0440926E-004, 1.0532940E-002, 4.3910963E+002
 1.4900637E+002, 6.2245510E-002, 1.5696424E-001, 5.1553273E-002, 9.8624690E-004, 3.0709458E-004, 1.0517477E-002, 4.3860155E+002
 1.5000679E+002, 6.2084611E-002, 1.5714055E-001, 5.1592719E-002, 9.6535137E-004, 2.9693586E-004, 1.0524616E-002, 4.3888169E+002
 1.5100693E+002, 6.1990106E-002, 1.5721408E-001, 5.1620644E-002, 9.7768402E-004, 2.9981504E-004, 1.0532106E-002, 4.3801980E+002
 1.5200104E+002, 6.1605346E-002, 1.5755724E-001, 5.1726669E-002, 9.9073204E-004, 3.0527260E-004, 1.0557521E-002, 4.3893169E+002
 1.5300569E+002, 6.1471376E-002, 1.5768352E-001, 5.1762156E-002, 9.8909515E-004, 3.0840134E-004, 1.0565493E-002, 4.3764215E+002
 1.5400832E+002, 6.1170350E-002, 1.5796517E-001, 5.1843778E-002, 9.8982440E-004, 3.0188490E-004, 1.0584211E-002, 4.3809524E+002
