s,,,,,,,
Time,"O2 EXHAUST","CO2 EXHAUST","H2O EXHAUST","CO EXHAUST","FUEL EXHAUST","SOOT EXHAUST","TEMP EXHAUST"
 0.0000000E+000, 2.3099739E-001, 5.9146498E-004, 5.9412091E-003, 0.0000000E+000, 0.0000000E+000, 0.0000000E+000, 2.0000000E+001
 1.0050195E+000, 2.3099739E-001, 5.9146498E-004, 5.9412091E-003, 1.8525961E-033, 2.8991589E-032, 5.7832101E-034, 2.0413772E+001
 2.0030229E+000, 2.2373534E-001, 6.2612018E-003, 1.0675266E-002, 1.1148376E-005, 1.7491518E-004, 3.5290391E-005, 9.3763807E+001
 3.0054913E+000, 2.2015424E-001, 9.0640258E-003, 1.3023758E-002, 2.0777959E-005, 1.9090661E-004, 5.3627131E-005, 1.2764089E+002
 4.0030809E+000, 2.1413524E-001, 1.3768060E-002, 1.6963128E-002, 3.5941301E-005, 2.6336569E-004, 8.4186185E-005, 1.8366554E+002
 5.0037948E+000, 2.1103297E-001, 1.6202682E-002, 1.8995124E-002, 4.0102235E-005, 2.7390414E-004, 9.9204364E-005, 2.1057469E+002
 6.0044766E+000, 2.0575432E-001, 2.0356985E-002, 2.2455485E-002, 4.3462280E-005, 2.5679483E-004, 1.2402109E-004, 2.5316402E+002
 7.0038546E+000, 2.0247000E-001, 2.2944725E-002, 2.4607257E-002, 4.3603305E-005, 2.4506070E-004, 1.3905715E-004, 2.7810962E+002
 8.0008449E+000, 1.9672204E-001, 2.7489769E-002, 2.8378918E-002, 3.9664626E-005, 1.6852992E-004, 1.6455999E-004, 3.1609975E+002
 9.0033888E+000, 1.9100587E-001, 3.2013061E-002, 3.2128947E-002, 3.3852037E-005, 8.8681486E-005, 1.8953116E-004, 3.5155428E+002
 1.0003336E+001, 1.8638059E-001, 3.5666789E-002, 3.5161959E-002, 3.1255068E-005, 4.2275168E-005, 2.1015597E-004, 3.7528299E+002
 1.1001530E+001, 1.7987524E-001, 4.0796475E-002, 3.9425582E-002, 3.0525158E-005, 4.6019952E-006, 2.3974351E-004, 4.0124639E+002
 1.2001963E+001, 1.7419078E-001, 4.5268809E-002, 4.3149189E-002, 3.3309170E-005, 4.9424883E-008, 2.6627980E-004, 4.1983579E+002
 1.3002166E+001, 1.6815520E-001, 5.0015688E-002, 4.7102462E-002, 3.6847180E-005, 2.3960913E-008, 2.9457127E-004, 4.3982804E+002
 1.4004021E+001, 1.6249533E-001, 5.4467088E-002, 5.0809635E-002, 4.0155136E-005, 1.7836076E-008, 3.2109956E-004, 4.5299627E+002
 1.5003646E+001, 1.5920616E-001, 5.7053961E-002, 5.2964026E-002, 4.2085125E-005, 1.8220162E-008, 3.3651778E-004, 4.5320916E+002
 1.6006470E+001, 1.5290501E-001, 6.2009668E-002, 5.7091245E-002, 4.5795888E-005, 3.7031025E-008, 3.6605758E-004, 4.6556161E+002
 1.7006047E+001, 1.4859488E-001, 6.5399490E-002, 5.9914360E-002, 4.8333408E-005, 3.9640509E-008, 3.8626335E-004, 4.7251753E+002
 1.8006353E+001, 1.4416841E-001, 6.8880845E-002, 6.2813667E-002, 5.0918541E-005, 3.6152955E-008, 4.0701019E-004, 4.7608793E+002
 1.9007324E+001, 1.4124313E-001, 7.1181494E-002, 6.4729718E-002, 5.2652173E-005, 4.6986168E-008, 4.2072619E-004, 4.7436110E+002
 2.0005061E+001, 1.3677332E-001, 7.4696944E-002, 6.7657408E-002, 5.5256860E-005, 3.3999325E-008, 4.4167498E-004, 4.7750511E+002
 2.1003130E+001, 1.3208667E-001, 7.8382859E-002, 7.0727150E-002, 5.8034122E-005, 6.7733942E-008, 4.6364959E-004, 4.8448197E+002
 2.2004313E+001, 1.2882385E-001, 8.0949053E-002, 7.2864259E-002, 5.9917168E-005, 3.8912503E-008, 4.7893773E-004, 4.8379060E+002
 2.3006377E+001, 1.2614508E-001, 8.3055845E-002, 7.4618840E-002, 6.1494281E-005, 4.6625502E-008, 4.9149573E-004, 4.8205692E+002
 2.4000896E+001, 1.2256201E-001, 8.5873851E-002, 7.6965739E-002, 6.3606311E-005, 5.2011103E-008, 5.0829362E-004, 4.8079636E+002
 2.5005261E+001, 1.2073478E-001, 8.7310919E-002, 7.8162563E-002, 6.4683576E-005, 6.0445594E-008, 5.1685990E-004, 4.7835213E+002
 2.6002536E+001, 1.1799768E-001, 8.9463589E-002, 7.9955355E-002, 6.6296424E-005, 5.2297066E-008, 5.2969167E-004, 4.7456622E+002
 2.7003932E+001, 1.1495360E-001, 9.1857745E-002, 8.1949186E-002, 6.8050525E-005, 4.7134065E-008, 5.4395431E-004, 4.7801572E+002
 2.8002649E+001, 1.1219319E-001, 9.4028699E-002, 8.3757268E-002, 6.9710064E-005, 6.3813634E-008, 5.5690220E-004, 4.7689499E+002
 2.9003191E+001, 1.0929182E-001, 9.6310624E-002, 8.5657625E-002, 7.1376780E-005, 4.4674656E-008, 5.7049514E-004, 4.7885221E+002
 3.0003398E+001, 1.0634013E-001, 9.8632058E-002, 8.7590973E-002, 7.3119854E-005, 6.7652208E-008, 5.8433370E-004, 4.8259695E+002
 3.1006167E+001, 1.0424881E-001, 1.0027690E-001, 8.8960751E-002, 7.4305970E-005, 3.7476624E-008, 5.9412839E-004, 4.8014109E+002
 3.2005634E+001, 1.0141447E-001, 1.0250598E-001, 9.0817251E-002, 7.6015793E-005, 7.1160283E-008, 6.0742420E-004, 4.7889185E+002
 3.3003060E+001, 9.9346033E-002, 1.0413276E-001, 9.2172071E-002, 7.7235283E-005, 7.2356030E-008, 6.1712135E-004, 4.7724929E+002
 3.4000420E+001, 9.6907144E-002, 1.0605098E-001, 9.3769496E-002, 7.8612694E-005, 3.8582576E-008, 6.2854267E-004, 4.7816752E+002
 3.5004454E+001, 9.4023363E-002, 1.0831898E-001, 9.5658370E-002, 8.0328944E-005, 6.1879128E-008, 6.4206557E-004, 4.7768238E+002
 3.6000003E+001, 9.1595026E-002, 1.1022881E-001, 9.7248922E-002, 8.1760554E-005, 6.1991299E-008, 6.5344997E-004, 4.7864361E+002
 3.7003420E+001, 8.9245008E-002, 1.1207709E-001, 9.8788157E-002, 8.3117449E-005, 4.5799114E-008, 6.6446126E-004, 4.7733620E+002
 3.8007011E+001, 8.6705083E-002, 1.1407462E-001, 1.0045182E-001, 8.4656416E-005, 8.0380991E-008, 6.7637740E-004, 4.7891366E+002
 3.9002615E+001, 8.4176102E-002, 1.1606358E-001, 1.0210831E-001, 8.6164197E-005, 8.0015534E-008, 6.8823713E-004, 4.7674514E+002
 4.0006453E+001, 8.2446732E-002, 1.1742380E-001, 1.0324099E-001, 8.7107905E-005, 5.1845683E-008, 6.9632891E-004, 4.7691808E+002
 4.1005340E+001, 8.0812290E-002, 1.1870925E-001, 1.0431154E-001, 8.8074122E-005, 6.3038178E-008, 7.0399195E-004, 4.7675516E+002
 4.2003703E+001, 7.7488672E-002, 1.2131899E-001, 1.0649019E-001, 9.2771530E-005, 1.7740380E-006, 7.2014163E-004, 4.7703558E+002
 4.3001079E+001, 7.6022922E-002, 1.2246548E-001, 1.0745282E-001, 9.7735615E-005, 4.2023167E-006, 7.2786408E-004, 4.7424660E+002
 4.4002796E+001, 7.3811875E-002, 1.2418901E-001, 1.0890745E-001, 1.0915503E-004, 9.6345583E-006, 7.4032960E-004, 4.7800373E+002
 4.5008165E+001, 7.2208485E-002, 1.2544163E-001, 1.0996074E-001, 1.1540629E-004, 1.4272727E-005, 7.4894603E-004, 4.7619536E+002
 4.6000037E+001, 6.9035669E-002, 1.2791748E-001, 1.1204674E-001, 1.2993010E-004, 2.2325744E-005, 7.6644583E-004, 4.8069743E+002
 4.7003313E+001, 6.7684947E-002, 1.2896455E-001, 1.1293726E-001, 1.4046102E-004, 2.9847863E-005, 7.7479646E-004, 4.7586462E+002
 4.8002163E+001, 6.6111199E-002, 1.3018992E-001, 1.1397314E-001, 1.4947005E-004, 3.4436909E-005, 7.8385162E-004, 4.7582793E+002
 4.9005881E+001, 6.4121457E-002, 1.3173173E-001, 1.1528488E-001, 1.6521542E-004, 4.7088472E-005, 7.9619958E-004, 4.7638076E+002
 5.0006901E+001, 6.2962978E-002, 1.3263588E-001, 1.1604557E-001, 1.6995370E-004, 5.3614951E-005, 8.0246789E-004, 4.7373310E+002
 5.1007768E+001, 6.0824646E-002, 1.3430141E-001, 1.1745281E-001, 1.8181257E-004, 5.9725694E-005, 8.1469219E-004, 4.7530453E+002
 5.2009541E+001, 5.9394507E-002, 1.3541742E-001, 1.1839238E-001, 1.8799451E-004, 6.6068546E-005, 8.2250143E-004, 4.7487219E+002
 5.3006407E+001, 5.7662180E-002, 1.3676072E-001, 1.1953387E-001, 2.0099509E-004, 7.7362986E-005, 8.3310430E-004, 4.7565965E+002
 5.4005603E+001, 5.4646436E-002, 1.3910774E-001, 1.2151891E-001, 2.1876023E-004, 8.8414569E-005, 8.5055850E-004, 4.8048041E+002
 5.5001182E+001, 5.3242822E-002, 1.4018703E-001, 1.2244695E-001, 2.3495389E-004, 1.0335004E-004, 8.6032144E-004, 4.7723102E+002
 5.6007431E+001, 5.2665438E-002, 1.4064164E-001, 1.2282506E-001, 2.3502835E-004, 1.0265409E-004, 8.6297368E-004, 4.7355090E+002
 5.7006986E+001, 5.0032129E-002, 1.4267334E-001, 1.2456597E-001, 2.6228486E-004, 1.1750721E-004, 8.8065343E-004, 4.7620475E+002
 5.8006661E+001, 4.9867133E-002, 1.4280322E-001, 1.2467318E-001, 2.6188750E-004, 1.2074317E-004, 8.8132059E-004, 4.7040868E+002
 5.9002405E+001, 4.7762564E-002, 1.4441467E-001, 1.2607073E-001, 2.9229853E-004, 1.3268429E-004, 8.9724608E-004, 4.7661021E+002
 6.0004422E+001, 4.6427730E-002, 1.4548109E-001, 1.2693720E-001, 2.8170213E-004, 1.3057882E-004, 9.0113684E-004, 4.7714459E+002
 6.1002442E+001, 4.4676436E-002, 1.4684874E-001, 1.2808906E-001, 2.8948551E-004, 1.3105519E-004, 9.1075180E-004, 4.7843135E+002
 6.2006912E+001, 4.3327940E-002, 1.4789809E-001, 1.2897658E-001, 2.9743186E-004, 1.3660618E-004, 9.1855639E-004, 4.7809865E+002
 6.3001226E+001, 4.1959813E-002, 1.4898602E-001, 1.2986782E-001, 2.9044770E-004, 1.3206854E-004, 9.2335357E-004, 4.7962364E+002
 6.4002903E+001, 3.9833408E-002, 1.5061267E-001, 1.3127991E-001, 3.2187375E-004, 1.4704477E-004, 9.3958681E-004, 4.8111977E+002
 6.5001326E+001, 3.9341680E-002, 1.5098487E-001, 1.3160702E-001, 3.3118433E-004, 1.5623643E-004, 9.4376000E-004, 4.7615243E+002
 6.6006434E+001, 3.8158434E-002, 1.5186680E-001, 1.3240377E-001, 3.6460772E-004, 1.6740477E-004, 9.5610706E-004, 4.7839387E+002
 6.7004566E+001, 3.6292428E-002, 1.5332419E-001, 1.3363006E-001, 3.7230751E-004, 1.7166431E-004, 9.6622434E-004, 4.7814829E+002
 6.8001841E+001, 3.6003819E-002, 1.5358103E-001, 1.3380436E-001, 3.5167815E-004, 1.7044445E-004, 9.6324942E-004, 4.7344446E+002
 6.9009277E+001, 3.3919353E-002, 1.5522722E-001, 1.3516934E-001, 3.4971887E-004, 1.5805381E-004, 9.7237117E-004, 4.8167798E+002
 7.0006172E+001, 3.2973221E-002, 1.5592363E-001, 1.3580991E-001, 3.8212355E-004, 1.7079048E-004, 9.8342201E-004, 4.7976061E+002
 7.1008361E+001, 3.1400260E-002, 1.5709852E-001, 1.3686755E-001, 4.2466378E-004, 1.8675601E-004, 9.9944083E-004, 4.7859878E+002
 7.2001781E+001, 3.1319085E-002, 1.5720036E-001, 1.3690197E-001, 3.9824299E-004, 1.8518979E-004, 9.9431381E-004, 4.7899797E+002
 7.3008767E+001, 2.9811019E-002, 1.5836461E-001, 1.3790083E-001, 4.1449409E-004, 1.8476986E-004, 1.0045818E-003, 4.7775891E+002
 7.4000582E+001, 2.9040858E-002, 1.5894549E-001, 1.3841510E-001, 4.3099288E-004, 1.9559142E-004, 1.0115206E-003, 4.7823785E+002
 7.5001314E+001, 2.7205263E-002, 1.6035838E-001, 1.3963263E-001, 4.5352572E-004, 1.9665985E-004, 1.0245897E-003, 4.8005421E+002
 7.6002641E+001, 2.6001033E-002, 1.6127284E-001, 1.4043779E-001, 4.7711953E-004, 1.9684159E-004, 1.0349983E-003, 4.8112416E+002
 7.7003189E+001, 2.5692996E-002, 1.6155723E-001, 1.4061979E-001, 4.4848202E-004, 1.9103276E-004, 1.0304500E-003, 4.7737189E+002
 7.8008078E+001, 2.3881843E-002, 1.6290503E-001, 1.4184118E-001, 5.0152800E-004, 2.0510614E-004, 1.0497450E-003, 4.8021375E+002
 7.9004086E+001, 2.3608841E-002, 1.6312544E-001, 1.4201779E-001, 4.9803035E-004, 2.0242100E-004, 1.0502662E-003, 4.7750447E+002
 8.0007819E+001, 2.2573272E-002, 1.6379741E-001, 1.4275946E-001, 5.9432424E-004, 2.3610829E-004, 1.0750013E-003, 4.7473020E+002
 8.1009240E+001, 2.1928007E-002, 1.6436102E-001, 1.4315625E-001, 5.5655447E-004, 2.2639738E-004, 1.0700960E-003, 4.7451117E+002
 8.2010004E+001, 2.0871005E-002, 1.6518672E-001, 1.4385282E-001, 5.6184208E-004, 2.2074468E-004, 1.0760282E-003, 4.7573216E+002
 8.3009250E+001, 2.0082812E-002, 1.6571648E-001, 1.4441063E-001, 6.2358546E-004, 2.3618065E-004, 1.0924617E-003, 4.7633316E+002
 8.4004760E+001, 1.9094173E-002, 1.6655007E-001, 1.4503350E-001, 5.8665264E-004, 2.2196253E-004, 1.0893030E-003, 4.7685778E+002
 8.5008324E+001, 1.7918136E-002, 1.6735334E-001, 1.4586038E-001, 6.7031870E-004, 2.4079695E-004, 1.1120667E-003, 4.7457154E+002
 8.6001219E+001, 1.7522673E-002, 1.6764167E-001, 1.4612982E-001, 6.8595076E-004, 2.4489785E-004, 1.1171215E-003, 4.6850833E+002
 8.7001664E+001, 1.5584453E-002, 1.6915047E-001, 1.4740715E-001, 6.9799752E-004, 2.4504768E-004, 1.1284776E-003, 4.8131384E+002
 8.8008573E+001, 1.4662022E-002, 1.6976120E-001, 1.4806503E-001, 7.7696293E-004, 2.6147760E-004, 1.1491076E-003, 4.7900604E+002
 8.9009654E+001, 1.4616704E-002, 1.6971221E-001, 1.4813533E-001, 8.3535071E-004, 2.6956782E-004, 1.1614589E-003, 4.7366962E+002
 9.0003439E+001, 1.3410302E-002, 1.7064605E-001, 1.4893122E-001, 8.4562276E-004, 2.7694898E-004, 1.1690969E-003, 4.7701223E+002
 9.1008263E+001, 1.3112195E-002, 1.7081558E-001, 1.4915916E-001, 8.9135425E-004, 2.7700287E-004, 1.1799765E-003, 4.7989482E+002
 9.2009642E+001, 1.1841562E-002, 1.7166289E-001, 1.5006678E-001, 9.9817060E-004, 2.8182850E-004, 1.2080054E-003, 4.8154671E+002
 9.3002504E+001, 1.1456851E-002, 1.7189756E-001, 1.5034761E-001, 1.0432943E-003, 3.0329583E-004, 1.2191312E-003, 4.7739575E+002
 9.4004023E+001, 1.0754159E-002, 1.7252009E-001, 1.5077525E-001, 9.9598902E-004, 2.9297896E-004, 1.2125040E-003, 4.8143763E+002
 9.5002486E+001, 1.0515950E-002, 1.7280239E-001, 1.5088744E-001, 9.3153904E-004, 2.7697881E-004, 1.2001936E-003, 4.8069063E+002
 9.6001521E+001, 9.3365955E-003, 1.7353150E-001, 1.5175494E-001, 1.0689698E-003, 2.9670933E-004, 1.2341622E-003, 4.7904334E+002
 9.7001071E+001, 8.4759490E-003, 1.7402501E-001, 1.5241335E-001, 1.1993706E-003, 2.8729441E-004, 1.2652432E-003, 4.8311414E+002
 9.8001054E+001, 8.5253796E-003, 1.7391606E-001, 1.5241283E-001, 1.2467499E-003, 3.0111973E-004, 1.2748646E-003, 4.7256628E+002
 9.9001850E+001, 8.0189142E-003, 1.7364753E-001, 1.5306636E-001, 1.7078238E-003, 3.5758850E-004, 1.3730861E-003, 4.7225617E+002
 1.0000797E+002, 7.2077089E-003, 1.7442307E-001, 1.5353384E-001, 1.6145529E-003, 3.3583687E-004, 1.3573990E-003, 4.7757259E+002
 1.0100067E+002, 7.1894323E-003, 1.7423001E-001, 1.5364367E-001, 1.7567399E-003, 3.6242196E-004, 1.3870495E-003, 4.7147860E+002
 1.0200772E+002, 7.1629145E-003, 1.7414073E-001, 1.5371441E-001, 1.8329746E-003, 3.7081973E-004, 1.4030293E-003, 4.7633143E+002
 1.0300901E+002, 6.6859347E-003, 1.7436157E-001, 1.5409726E-001, 1.9377970E-003, 4.0006745E-004, 1.4269940E-003, 4.7368290E+002
 1.0400937E+002, 5.8862066E-003, 1.7432710E-001, 1.5493783E-001, 2.3949361E-003, 4.6990992E-004, 1.5257213E-003, 4.7129755E+002
 1.0500600E+002, 6.3124603E-003, 1.7449979E-001, 1.5441775E-001, 2.0458921E-003, 4.0994291E-004, 1.4511878E-003, 4.7501447E+002
 1.0600095E+002, 5.7512800E-003, 1.7488811E-001, 1.5481406E-001, 2.0844818E-003, 4.0180484E-004, 1.4617906E-003, 4.7611853E+002
 1.0700962E+002, 5.5443450E-003, 1.7444701E-001, 1.5523410E-001, 2.4983002E-003, 4.8061402E-004, 1.5487852E-003, 4.7127318E+002
 1.0800637E+002, 5.3915401E-003, 1.7422721E-001, 1.5549785E-001, 2.7330986E-003, 5.1103528E-004, 1.5983221E-003, 4.7352162E+002
 1.0900235E+002, 5.3147942E-003, 1.7413755E-001, 1.5561959E-001, 2.8363301E-003, 5.2743948E-004, 1.6201420E-003, 4.7238446E+002
 1.1000287E+002, 5.2559737E-003, 1.7398550E-001, 1.5574909E-001, 2.9709612E-003, 5.6321873E-004, 1.6483952E-003, 4.6997142E+002
 1.1100081E+002, 5.1755077E-003, 1.7392197E-001, 1.5586995E-001, 3.0622079E-003, 5.4600864E-004, 1.6677730E-003, 4.7106458E+002
 1.1200511E+002, 5.0003139E-003, 1.7348985E-001, 1.5625405E-001, 3.4531860E-003, 6.1701080E-004, 1.7498769E-003, 4.6646806E+002
 1.1300805E+002, 4.8677558E-003, 1.7338172E-001, 1.5642195E-001, 3.5890059E-003, 7.2099772E-004, 1.7786423E-003, 4.6364199E+002
 1.1400445E+002, 4.4525730E-003, 1.7348746E-001, 1.5679998E-001, 3.7415712E-003, 7.4156359E-004, 1.8122713E-003, 4.6812207E+002
 1.1500961E+002, 4.4985044E-003, 1.7360120E-001, 1.5671837E-001, 3.6486845E-003, 6.4536295E-004, 1.7928295E-003, 4.6562479E+002
 1.1600462E+002, 4.4450408E-003, 1.7334419E-001, 1.5688903E-001, 3.8508945E-003, 7.0551035E-004, 1.8350985E-003, 4.6278369E+002
 1.1700290E+002, 4.6955363E-003, 1.7302840E-001, 1.5678064E-001, 3.9319764E-003, 7.2215319E-004, 1.8508139E-003, 4.6490639E+002
 1.1800794E+002, 3.9250955E-003, 1.7176511E-001, 1.5812166E-001, 5.1902574E-003, 1.1440334E-003, 2.1157875E-003, 4.6199652E+002
 1.1900540E+002, 4.4268014E-003, 1.7263478E-001, 1.5722753E-001, 4.3393228E-003, 8.5800191E-004, 1.9366834E-003, 4.6411326E+002
 1.2000145E+002, 4.5140709E-003, 1.7222214E-001, 1.5733486E-001, 4.5761902E-003, 8.9318475E-004, 1.9855499E-003, 4.6179187E+002
 1.2100546E+002, 4.2215448E-003, 1.7159808E-001, 1.5790122E-001, 5.1472956E-003, 1.1157772E-003, 2.1055217E-003, 4.5659852E+002
 1.2200052E+002, 4.2289508E-003, 1.7142004E-001, 1.5799635E-001, 5.2749637E-003, 1.0626056E-003, 2.1321171E-003, 4.5411015E+002
 1.2300770E+002, 3.8839734E-003, 1.7121662E-001, 1.5844012E-001, 5.5973961E-003, 1.1480765E-003, 2.2007136E-003, 4.5656350E+002
 1.2400535E+002, 4.0199044E-003, 1.7097455E-001, 1.5840327E-001, 5.6840030E-003, 1.2118960E-003, 2.2180522E-003, 4.5672325E+002
 1.2500228E+002, 4.2799444E-003, 1.7075972E-001, 1.5825053E-001, 5.6974571E-003, 1.1621690E-003, 2.2197179E-003, 4.5444733E+002
 1.2600100E+002, 3.9617693E-003, 1.7060771E-001, 1.5865218E-001, 5.9751433E-003, 1.1996792E-003, 2.2789291E-003, 4.5506516E+002
 1.2700157E+002, 4.0185104E-003, 1.7023879E-001, 1.5875351E-001, 6.1899307E-003, 1.2994118E-003, 2.3232711E-003, 4.5613736E+002
 1.2800820E+002, 3.6794328E-003, 1.7025643E-001, 1.5910046E-001, 6.3646125E-003, 1.3017069E-003, 2.3611754E-003, 4.5739901E+002
 1.2900226E+002, 3.6831887E-003, 1.7062455E-001, 1.5893603E-001, 6.1170020E-003, 1.2016592E-003, 2.3097256E-003, 4.5934914E+002
 1.3000004E+002, 3.7720573E-003, 1.6996556E-001, 1.5912892E-001, 6.5069383E-003, 1.3847590E-003, 2.3902889E-003, 4.5261463E+002
 1.3100421E+002, 3.4726419E-003, 1.6962680E-001, 1.5960815E-001, 6.9069835E-003, 1.4092933E-003, 2.4748962E-003, 4.5386075E+002
 1.3200041E+002, 3.4819293E-003, 1.6931091E-001, 1.5974046E-001, 7.1147915E-003, 1.4776670E-003, 2.5180352E-003, 4.5791880E+002
 1.3300707E+002, 3.7510293E-003, 1.6828014E-001, 1.5987013E-001, 7.6346813E-003, 1.9058185E-003, 2.6245660E-003, 4.5217965E+002
 1.3400329E+002, 3.8429326E-003, 1.6918765E-001, 1.5942163E-001, 7.0010766E-003, 1.4835269E-003, 2.4927121E-003, 4.5191096E+002
 1.3500695E+002, 3.9791541E-003, 1.6822779E-001, 1.5965675E-001, 7.5453912E-003, 1.9056472E-003, 2.6049397E-003, 4.5016895E+002
 1.3600275E+002, 3.5834815E-003, 1.6754074E-001, 1.6037939E-001, 8.2259920E-003, 2.0634656E-003, 2.7482413E-003, 4.5056156E+002
 1.3700675E+002, 3.5377058E-003, 1.6804718E-001, 1.6022014E-001, 7.9203904E-003, 1.8719067E-003, 2.6850438E-003, 4.5052310E+002
 1.3800848E+002, 3.4893250E-003, 1.6746683E-001, 1.6055829E-001, 8.3518469E-003, 1.8919836E-003, 2.7750477E-003, 4.5088423E+002
 1.3900391E+002, 3.8870097E-003, 1.6805266E-001, 1.5983556E-001, 7.7159993E-003, 1.9307800E-003, 2.6408446E-003, 4.5194893E+002
 1.4000893E+002, 3.4529815E-003, 1.6712172E-001, 1.6069230E-001, 8.5740243E-003, 2.2051716E-003, 2.8211278E-003, 4.4578753E+002
 1.4100227E+002, 3.6362776E-003, 1.6852318E-001, 1.5991551E-001, 7.5517685E-003, 1.7164138E-003, 2.6080320E-003, 4.5475842E+002
 1.4200408E+002, 3.6325312E-003, 1.6658311E-001, 1.6073523E-001, 8.8324448E-003, 2.3642618E-003, 2.8739284E-003, 4.4800446E+002
 1.4300643E+002, 3.6271016E-003, 1.6683119E-001, 1.6066070E-001, 8.6843329E-003, 2.1847393E-003, 2.8433142E-003, 4.4907988E+002
 1.4400482E+002, 3.2693750E-003, 1.6639518E-001, 1.6122476E-001, 9.1717674E-003, 2.3114338E-003, 2.9462694E-003, 4.4862096E+002
 1.4500641E+002, 3.2382560E-003, 1.6637274E-001, 1.6126827E-001, 9.2044540E-003, 2.3134450E-003, 2.9532128E-003, 4.4752298E+002
 1.4600254E+002, 3.3185439E-003, 1.6657550E-001, 1.6114762E-001, 9.0516525E-003, 2.0489905E-003, 2.9213207E-003, 4.5627712E+002
 1.4700503E+002, 3.6547787E-003, 1.6563382E-001, 1.6119928E-001, 9.4911677E-003, 2.3268535E-003, 3.0109742E-003, 4.4093763E+002
 1.4800261E+002, 3.3212380E-003, 1.6535707E-001, 1.6161192E-001, 9.8299295E-003, 2.6373958E-003, 3.0826800E-003, 4.5107194E+002
 1.4901031E+002, 3.4491113E-003, 1.6573638E-001, 1.6133725E-001, 9.5191769E-003, 2.4334925E-003, 3.0176306E-003, 4.5024982E+002
 1.5000845E+002, 3.3663039E-003, 1.6561863E-001, 1.6146628E-001, 9.6386636E-003, 2.5030276E-003, 3.0428055E-003, 4.4790054E+002
 1.5100861E+002, 3.0734569E-003, 1.6554526E-001, 1.6182187E-001, 9.8575353E-003, 2.4595796E-003, 3.0897447E-003, 4.5023570E+002
 1.5200998E+002, 3.2867855E-003, 1.6503233E-001, 1.6180566E-001, 1.0073767E-002, 2.6616303E-003, 3.1335646E-003, 4.5269709E+002
 1.5300961E+002, 3.4492364E-003, 1.6441485E-001, 1.6191117E-001, 1.0399502E-002, 2.8010927E-003, 3.2004750E-003, 4.5201356E+002
 1.5400792E+002, 3.4466121E-003, 1.6497050E-001, 1.6164634E-001, 1.0017298E-002, 2.7518180E-003, 3.1209862E-003, 4.4720759E+002
