s,,,,,,,
Time,"O2 EXHAUST","CO2 EXHAUST","H2O EXHAUST","CO EXHAUST","FUEL EXHAUST","SOOT EXHAUST","TEMP EXHAUST"
 0.0000000E+000, 2.3099739E-001, 5.9146498E-004, 5.9412092E-003, 0.0000000E+000, 0.0000000E+000, 0.0000000E+000, 2.0000000E+001
 1.0049469E+000, 2.3099739E-001, 5.9146498E-004, 5.9412092E-003, 1.3031151E-031, 1.3140501E-030, 3.8497783E-032, 2.0573623E+001
 2.0039198E+000, 2.2276975E-001, 8.0995148E-003, 9.1027073E-003, 4.2890289E-005, 2.9168989E-004, 5.4437889E-005, 1.0069054E+002
 3.0034981E+000, 2.1801051E-001, 1.2450105E-002, 1.0947228E-002, 8.0196761E-005, 3.5041530E-004, 8.8651947E-005, 1.4426344E+002
 4.0002143E+000, 2.1218267E-001, 1.7796998E-002, 1.3195416E-002, 1.0664936E-004, 4.4649872E-004, 1.2654243E-004, 1.9694595E+002
 5.0065728E+000, 2.0648286E-001, 2.3042548E-002, 1.5398799E-002, 1.2995664E-004, 4.8070758E-004, 1.6314766E-004, 2.4418334E+002
 6.0027643E+000, 1.9924958E-001, 2.9742542E-002, 1.8190922E-002, 1.3620715E-004, 4.6216056E-004, 2.0485968E-004, 2.9998038E+002
 7.0014561E+000, 1.9395133E-001, 3.4673267E-002, 2.0238662E-002, 1.3307140E-004, 3.8701495E-004, 2.3389803E-004, 3.2996893E+002
 8.0026782E+000, 1.8441348E-001, 4.3562696E-002, 2.3920433E-002, 1.1696897E-004, 2.5274718E-004, 2.8400991E-004, 3.8702333E+002
 9.0023455E+000, 1.7822436E-001, 4.9329597E-002, 2.6309251E-002, 1.0688227E-004, 1.7025620E-004, 3.1659644E-004, 4.1256613E+002
 1.0003752E+001, 1.6964808E-001, 5.7321955E-002, 2.9618531E-002, 9.1472890E-005, 5.9099606E-005, 3.6145155E-004, 4.4582067E+002
 1.1003318E+001, 1.6226912E-001, 6.4173899E-002, 3.2465917E-002, 8.9293240E-005, 1.2024095E-005, 4.0227161E-004, 4.6755129E+002
 1.2001399E+001, 1.5568125E-001, 7.0274518E-002, 3.5008265E-002, 9.5030885E-005, 2.0932901E-006, 4.4026207E-004, 4.8174561E+002
 1.3007763E+001, 1.4778370E-001, 7.7582757E-002, 3.8056108E-002, 1.0429647E-004, 9.7870759E-008, 4.8628568E-004, 4.9282620E+002
 1.4000923E+001, 1.3986871E-001, 8.4905749E-002, 4.1110811E-002, 1.1433024E-004, 1.0134270E-007, 5.3256289E-004, 5.0373650E+002
 1.5006162E+001, 1.3466534E-001, 8.9720172E-002, 4.3118925E-002, 1.2075074E-004, 5.9608607E-008, 5.6294959E-004, 5.0641863E+002
 1.6006271E+001, 1.2839287E-001, 9.5523511E-002, 4.5539705E-002, 1.2868497E-004, 9.2946218E-008, 5.9961973E-004, 5.1302744E+002
 1.7007978E+001, 1.2284696E-001, 1.0065459E-001, 4.7680092E-002, 1.3573249E-004, 1.3000417E-007, 6.3204892E-004, 5.1172972E+002
 1.8003703E+001, 1.1660131E-001, 1.0643311E-001, 5.0090523E-002, 1.4363516E-004, 1.6398151E-007, 6.6856275E-004, 5.1949740E+002
 1.9003841E+001, 1.1207610E-001, 1.1062018E-001, 5.1836891E-002, 1.4914451E-004, 8.0808965E-008, 6.9497385E-004, 5.1740332E+002
 2.0000339E+001, 1.0768481E-001, 1.1468211E-001, 5.3531936E-002, 1.5539524E-004, 2.6288837E-007, 7.2078989E-004, 5.1837302E+002
 2.1005008E+001, 1.0389478E-001, 1.1818937E-001, 5.4994432E-002, 1.5965989E-004, 1.8505998E-007, 7.4283784E-004, 5.1624517E+002
 2.2000473E+001, 9.8430711E-002, 1.2324416E-001, 5.7103410E-002, 1.6703400E-004, 2.9822319E-007, 7.7487739E-004, 5.2167272E+002
 2.3004105E+001, 9.5692091E-002, 1.2577457E-001, 5.8161370E-002, 1.7303615E-004, 9.1528503E-007, 7.9141170E-004, 5.1614590E+002
 2.4003684E+001, 9.2243275E-002, 1.2895454E-001, 5.9495684E-002, 1.8556731E-004, 2.9625052E-006, 8.1325987E-004, 5.1667556E+002
 2.5006298E+001, 8.8437041E-002, 1.3245397E-001, 6.0970974E-002, 2.0660977E-004, 9.2160907E-006, 8.3885786E-004, 5.1459980E+002
 2.6002741E+001, 8.4348676E-002, 1.3622046E-001, 6.2553579E-002, 2.2373813E-004, 1.2841105E-005, 8.6522590E-004, 5.1667441E+002
 2.7006124E+001, 8.0944104E-002, 1.3934963E-001, 6.3873895E-002, 2.4371086E-004, 1.6114098E-005, 8.8836344E-004, 5.1431523E+002
 2.8006359E+001, 7.7014722E-002, 1.4296926E-001, 6.5395278E-002, 2.6067269E-004, 1.8463046E-005, 9.1381082E-004, 5.1758620E+002
 2.9001414E+001, 7.5357693E-002, 1.4451284E-001, 6.6031245E-002, 2.5452967E-004, 1.8818871E-005, 9.2179484E-004, 5.1169874E+002
 3.0004323E+001, 7.0690909E-002, 1.4881012E-001, 6.7838672E-002, 2.7593624E-004, 2.1625390E-005, 9.5227850E-004, 5.1590788E+002
 3.1002229E+001, 6.7859890E-002, 1.5140943E-001, 6.8937382E-002, 2.9457532E-004, 2.4810700E-005, 9.7193735E-004, 5.1525067E+002
 3.2005997E+001, 6.4676345E-002, 1.5434342E-001, 7.0169385E-002, 3.0707970E-004, 2.7534019E-005, 9.9229764E-004, 5.1259835E+002
 3.3008203E+001, 6.1609247E-002, 1.5716813E-001, 7.1357198E-002, 3.2088271E-004, 2.8843975E-005, 1.0122778E-003, 5.1303078E+002
 3.4001686E+001, 5.8834392E-002, 1.5971164E-001, 7.2435139E-002, 3.4207406E-004, 3.4246809E-005, 1.0321477E-003, 5.0894217E+002
 3.5007805E+001, 5.4878434E-002, 1.6337107E-001, 7.3962283E-002, 3.4776293E-004, 3.3209414E-005, 1.0554179E-003, 5.1631325E+002
 3.6004601E+001, 5.2085560E-002, 1.6593692E-001, 7.5045519E-002, 3.6477835E-004, 3.7252223E-005, 1.0745271E-003, 5.1390238E+002
 3.7004612E+001, 4.9342950E-002, 1.6843895E-001, 7.6115082E-002, 3.9521212E-004, 4.1487219E-005, 1.0961286E-003, 5.1136866E+002
 3.8004285E+001, 4.4951217E-002, 1.7249152E-001, 7.7813806E-002, 4.0934926E-004, 4.0102747E-005, 1.1235791E-003, 5.1722936E+002
 3.9004178E+001, 4.1357974E-002, 1.7579229E-001, 7.9207734E-002, 4.3167902E-004, 4.4483855E-005, 1.1482560E-003, 5.2043443E+002
 4.0002732E+001, 4.0176088E-002, 1.7689879E-001, 7.9659729E-002, 4.2321095E-004, 4.3386875E-005, 1.1531078E-003, 5.1637702E+002
 4.1007812E+001, 3.6864092E-002, 1.7991070E-001, 8.0954538E-002, 4.6744062E-004, 4.8377729E-005, 1.1807396E-003, 5.1756658E+002
 4.2003188E+001, 3.1516308E-002, 1.8483387E-001, 8.3026375E-002, 4.9316570E-004, 4.9990340E-005, 1.2159206E-003, 5.2500767E+002
 4.3010650E+001, 3.1658826E-002, 1.8467958E-001, 8.2978393E-002, 5.1005219E-004, 5.2611629E-005, 1.2186114E-003, 5.1301917E+002
 4.4004760E+001, 2.8021171E-002, 1.8803237E-001, 8.4386598E-002, 5.2468360E-004, 5.2374944E-005, 1.2419512E-003, 5.2292932E+002
 4.5010166E+001, 2.6102128E-002, 1.8977212E-001, 8.5138596E-002, 5.5449863E-004, 5.5538477E-005, 1.2588268E-003, 5.1866738E+002
 4.6007230E+001, 2.1961027E-002, 1.9358024E-001, 8.6744583E-002, 5.7793513E-004, 5.5267267E-005, 1.2867982E-003, 5.2629573E+002
 4.7004813E+001, 2.0477667E-002, 1.9491684E-001, 8.7328537E-002, 6.0732244E-004, 5.7905496E-005, 1.3011528E-003, 5.2001661E+002
 4.8000141E+001, 1.8116686E-002, 1.9702212E-001, 8.8265469E-002, 6.7148685E-004, 6.1311536E-005, 1.3275956E-003, 5.2047011E+002
 4.9004396E+001, 1.5137219E-002, 1.9963319E-001, 8.9462393E-002, 7.8748046E-004, 6.9466014E-005, 1.3681985E-003, 5.2143704E+002
 5.0004801E+001, 1.1843566E-002, 2.0247485E-001, 9.0801571E-002, 9.5179914E-004, 7.1525316E-005, 1.4205518E-003, 5.2534746E+002
 5.1008371E+001, 9.6153957E-003, 2.0361927E-001, 9.1963497E-002, 1.6673916E-003, 8.9045658E-005, 1.5808731E-003, 5.2658573E+002
 5.2005746E+001, 8.7753872E-003, 2.0457928E-001, 9.2225508E-002, 1.5243698E-003, 9.7448011E-005, 1.5559935E-003, 5.2241657E+002
 5.3009203E+001, 7.0674930E-003, 2.0557738E-001, 9.3074894E-002, 1.9774783E-003, 1.1710329E-004, 1.6591556E-003, 5.1988812E+002
 5.4008753E+001, 6.9533676E-003, 2.0510021E-001, 9.3302676E-002, 2.4223261E-003, 1.7728382E-004, 1.7516574E-003, 5.0988231E+002
 5.5008887E+001, 5.6139917E-003, 2.0433515E-001, 9.4401631E-002, 3.9032389E-003, 6.8413036E-004, 2.0645615E-003, 5.0477035E+002
 5.6004682E+001, 5.2261474E-003, 2.0521827E-001, 9.4443614E-002, 3.5616611E-003, 2.8371460E-004, 1.9966461E-003, 4.9790628E+002
 5.7010833E+001, 4.5059455E-003, 2.0622728E-001, 9.4614354E-002, 3.3019100E-003, 2.4335725E-004, 1.9470345E-003, 5.0417815E+002
 5.8007582E+001, 4.0477791E-003, 2.0408758E-001, 9.5600776E-002, 5.2601118E-003, 5.0011443E-004, 2.3539869E-003, 4.9110348E+002
 5.9009723E+001, 3.3634440E-003, 2.0412249E-001, 9.6044518E-002, 5.7084475E-003, 6.1593315E-004, 2.4503222E-003, 4.9458922E+002
 6.0002957E+001, 3.1805797E-003, 2.0397085E-001, 9.6226466E-002, 5.9637953E-003, 5.8760915E-004, 2.5041558E-003, 4.8772820E+002
 6.1002241E+001, 3.0586226E-003, 2.0283107E-001, 9.6638258E-002, 6.8893966E-003, 8.9858804E-004, 2.6957408E-003, 4.8525739E+002
 6.2006070E+001, 3.0403079E-003, 2.0244608E-001, 9.6760243E-002, 7.1842395E-003, 1.0110696E-003, 2.7566366E-003, 4.7339907E+002
 6.3005300E+001, 2.6752761E-003, 2.0254112E-001, 9.7007222E-002, 7.3996947E-003, 8.5829089E-004, 2.8034030E-003, 4.8141233E+002
 6.4001580E+001, 2.9643667E-003, 2.0047795E-001, 9.7401973E-002, 8.7093583E-003, 1.4034720E-003, 3.0717690E-003, 4.6665786E+002
 6.5008540E+001, 2.7022334E-003, 2.0025856E-001, 9.7654946E-002, 9.0683953E-003, 1.4141001E-003, 3.1474257E-003, 4.6351428E+002
 6.6000133E+001, 2.7202484E-003, 1.9901300E-001, 9.7997138E-002, 9.9675556E-003, 1.7713084E-003, 3.3327044E-003, 4.6097960E+002
 6.7008062E+001, 2.5595905E-003, 1.9923044E-001, 9.8054104E-002, 9.9320302E-003, 1.6640796E-003, 3.3263975E-003, 4.6152227E+002
 6.8011320E+001, 2.5816673E-003, 1.9800903E-001, 9.8388949E-002, 1.0812931E-002, 2.0002560E-003, 3.5079069E-003, 4.5928132E+002
 6.9006402E+001, 2.4392520E-003, 1.9743861E-001, 9.8669334E-002, 1.1353008E-002, 2.0485336E-003, 3.6202641E-003, 4.5606441E+002
 7.0011224E+001, 2.4037652E-003, 1.9638576E-001, 9.8979422E-002, 1.2135298E-002, 2.4366451E-003, 3.7816466E-003, 4.5639764E+002
 7.1008646E+001, 2.5988588E-003, 1.9532750E-001, 9.9161422E-002, 1.2785279E-002, 2.6442384E-003, 3.9146286E-003, 4.5040973E+002
 7.2008112E+001, 2.5283932E-003, 1.9534991E-001, 9.9198119E-002, 1.2814000E-002, 2.6726245E-003, 3.9209217E-003, 4.4821198E+002
 7.3001728E+001, 2.3923457E-003, 1.9368643E-001, 9.9789873E-002, 1.4154536E-002, 3.0071653E-003, 4.1983144E-003, 4.4767977E+002
 7.4002901E+001, 2.5916821E-003, 1.9404865E-001, 9.9575375E-002, 1.3772171E-002, 2.7415988E-003, 4.1185158E-003, 4.4480983E+002
 7.5008586E+001, 2.6638159E-003, 1.9297822E-001, 9.9798250E-002, 1.4471786E-002, 3.2404361E-003, 4.2620673E-003, 4.4133872E+002
 7.6009986E+001, 2.4127928E-003, 1.9168445E-001, 1.0027655E-001, 1.5536178E-002, 3.9974679E-003, 4.4824832E-003, 4.4104715E+002
 7.7010366E+001, 2.6435668E-003, 1.9184990E-001, 1.0013297E-001, 1.5312127E-002, 3.5677961E-003, 4.4354413E-003, 4.4364607E+002
 7.8002273E+001, 2.7576855E-003, 1.9019983E-001, 1.0046090E-001, 1.6374781E-002, 4.4184996E-003, 4.6533378E-003, 4.3503636E+002
 7.9005360E+001, 2.6529069E-003, 1.8968059E-001, 1.0066555E-001, 1.6814834E-002, 4.6628800E-003, 4.7445587E-003, 4.3403631E+002
 8.0001542E+001, 2.5857734E-003, 1.8905517E-001, 1.0089858E-001, 1.7329858E-002, 4.7919147E-003, 4.8512134E-003, 4.3351708E+002
 8.1006369E+001, 2.8197767E-003, 1.8862698E-001, 1.0090662E-001, 1.7522939E-002, 4.6237319E-003, 4.8900298E-003, 4.3383810E+002
 8.2011882E+001, 2.7766893E-003, 1.8790137E-001, 1.0107016E-001, 1.8012019E-002, 5.2704730E-003, 4.9905202E-003, 4.3114803E+002
 8.3000779E+001, 3.0866162E-003, 1.8636862E-001, 1.0125423E-001, 1.8872638E-002, 5.9351926E-003, 5.1658061E-003, 4.2796760E+002
 8.4005242E+001, 2.7700855E-003, 1.8564842E-001, 1.0160761E-001, 1.9557285E-002, 6.5699163E-003, 5.3082591E-003, 4.2608633E+002
 8.5003998E+001, 2.9335285E-003, 1.8506479E-001, 1.0173788E-001, 1.9944477E-002, 6.2718347E-003, 5.3877564E-003, 4.2660771E+002
 8.6008498E+001, 2.9867264E-003, 1.8488139E-001, 1.0172658E-001, 2.0013491E-002, 6.4845474E-003, 5.4014488E-003, 4.2675822E+002
 8.7006236E+001, 3.0463956E-003, 1.8438276E-001, 1.0186782E-001, 2.0376428E-002, 6.3832949E-003, 5.4762587E-003, 4.2107399E+002
 8.8003203E+001, 2.9496106E-003, 1.8362011E-001, 1.0212838E-001, 2.0981054E-002, 6.7447003E-003, 5.6012984E-003, 4.2201073E+002
 8.9008409E+001, 3.2816553E-003, 1.8222951E-001, 1.0226487E-001, 2.1729873E-002, 7.3190957E-003, 5.7534703E-003, 4.1887718E+002
 9.0001185E+001, 3.1205321E-003, 1.8129139E-001, 1.0261586E-001, 2.2505359E-002, 7.7558159E-003, 5.9140857E-003, 4.1921176E+002
 9.1001954E+001, 3.1589893E-003, 1.8117523E-001, 1.0263479E-001, 2.2575221E-002, 7.7138839E-003, 5.9283642E-003, 4.1792208E+002
 9.2008484E+001, 3.1113506E-003, 1.8024816E-001, 1.0296076E-001, 2.3317772E-002, 7.8057402E-003, 6.0819835E-003, 4.2338450E+002
 9.3002234E+001, 3.2821811E-003, 1.7979106E-001, 1.0293744E-001, 2.3493712E-002, 8.1472677E-003, 6.1169525E-003, 4.1922143E+002
 9.4007518E+001, 3.3067905E-003, 1.7882063E-001, 1.0318788E-001, 2.4177711E-002, 8.4787169E-003, 6.2577577E-003, 4.1503250E+002
 9.5011201E+001, 3.3142391E-003, 1.7802768E-001, 1.0335079E-001, 2.4694900E-002, 9.0531545E-003, 6.3638687E-003, 4.1521111E+002
 9.6001867E+001, 3.5066845E-003, 1.7730244E-001, 1.0351150E-001, 2.5175128E-002, 8.7341450E-003, 6.4624598E-003, 4.1745182E+002
 9.7008811E+001, 3.4766731E-003, 1.7585562E-001, 1.0400024E-001, 2.6312756E-002, 8.8128258E-003, 6.6976532E-003, 4.1546858E+002
 9.8008457E+001, 3.6946122E-003, 1.7491762E-001, 1.0416172E-001, 2.6887917E-002, 8.8081646E-003, 6.8153173E-003, 4.1438771E+002
 9.9002253E+001, 3.8644886E-003, 1.7379259E-001, 1.0448671E-001, 2.7712286E-002, 8.3947710E-003, 6.9852841E-003, 4.0795045E+002
 1.0000211E+002, 3.8955018E-003, 1.7196404E-001, 1.0510643E-001, 2.9150402E-002, 8.1945706E-003, 7.2826017E-003, 4.1029840E+002
 1.0101151E+002, 4.5618468E-003, 1.6886061E-001, 1.0557239E-001, 3.0985925E-002, 8.8179111E-003, 7.6574456E-003, 4.2027588E+002
 1.0200165E+002, 4.6703585E-003, 1.7047266E-001, 1.0499275E-001, 2.9681184E-002, 8.6281445E-003, 7.3874180E-003, 4.0368973E+002
 1.0300016E+002, 5.8731596E-003, 1.6837824E-001, 1.0485640E-001, 3.0447219E-002, 8.6190050E-003, 7.5390381E-003, 3.9593716E+002
 1.0400216E+002, 8.3856913E-003, 1.6416837E-001, 1.0449620E-001, 3.1897873E-002, 8.7229890E-003, 7.8246959E-003, 4.3629532E+002
 1.0500983E+002, 7.1025718E-003, 1.6573588E-001, 1.0473996E-001, 3.1476772E-002, 9.4743922E-003, 7.7438584E-003, 4.0140959E+002
 1.0600467E+002, 8.3116149E-003, 1.6558567E-001, 1.0384478E-001, 3.0612123E-002, 1.0115239E-002, 7.5575723E-003, 3.8335587E+002
 1.0700795E+002, 9.9858295E-003, 1.6535533E-001, 1.0275267E-001, 2.9573308E-002, 1.0160686E-002, 7.3334592E-003, 3.7637907E+002
 1.0800873E+002, 9.9979878E-003, 1.6684526E-001, 1.0242566E-001, 2.8579813E-002, 9.0980199E-003, 7.1294249E-003, 3.8115974E+002
 1.0901297E+002, 1.0145472E-002, 1.6725094E-001, 1.0228083E-001, 2.8249539E-002, 8.5429600E-003, 7.0610556E-003, 3.8536626E+002
 1.1000804E+002, 1.1258042E-002, 1.6466244E-001, 1.0224352E-001, 2.9337692E-002, 9.3021449E-003, 7.2787642E-003, 3.7636241E+002
 1.1100008E+002, 1.1442409E-002, 1.6244406E-001, 1.0282112E-001, 3.0903268E-002, 9.4949444E-003, 7.6010622E-003, 3.7360708E+002
 1.1200149E+002, 1.2526877E-002, 1.6150008E-001, 1.0237804E-001, 3.0850723E-002, 9.5237752E-003, 7.5841082E-003, 3.7492272E+002
 1.1300875E+002, 1.2003053E-002, 1.6107220E-001, 1.0297223E-001, 3.1652801E-002, 8.9909223E-003, 7.7534961E-003, 3.7791140E+002
 1.1400689E+002, 1.2729928E-002, 1.6045003E-001, 1.0261508E-001, 3.1552282E-002, 9.3509029E-003, 7.7281969E-003, 3.7215862E+002
 1.1500778E+002, 1.3994114E-002, 1.5688984E-001, 1.0274973E-001, 3.3242800E-002, 1.0386313E-002, 8.0692003E-003, 3.6927544E+002
 1.1600771E+002, 1.4240731E-002, 1.5596545E-001, 1.0286790E-001, 3.3767573E-002, 1.0495229E-002, 8.1761436E-003, 3.6848085E+002
 1.1700569E+002, 1.3850665E-002, 1.5542967E-001, 1.0340166E-001, 3.4553552E-002, 9.9836042E-003, 8.3414298E-003, 3.7125233E+002
 1.1800091E+002, 1.4446403E-002, 1.5346891E-001, 1.0357929E-001, 3.5591306E-002, 1.0350844E-002, 8.5521141E-003, 3.6762481E+002
 1.1900162E+002, 1.5554055E-002, 1.5167065E-001, 1.0329493E-001, 3.6078668E-002, 1.1036265E-002, 8.6457727E-003, 3.7024092E+002
 1.2001206E+002, 1.6167595E-002, 1.5078000E-001, 1.0311891E-001, 3.6283008E-002, 1.1316509E-002, 8.6842179E-003, 3.6824986E+002
 1.2100646E+002, 1.6584735E-002, 1.4936411E-001, 1.0329472E-001, 3.7080595E-002, 1.1350309E-002, 8.8466915E-003, 3.7444643E+002
 1.2200769E+002, 1.6512405E-002, 1.4880620E-001, 1.0354319E-001, 3.7581211E-002, 1.1273262E-002, 8.9506631E-003, 3.7121349E+002
 1.2300618E+002, 1.7056238E-002, 1.4737592E-001, 1.0354648E-001, 3.8208307E-002, 1.1844746E-002, 9.0764982E-003, 3.6566972E+002
 1.2400576E+002, 1.7589150E-002, 1.4706346E-001, 1.0322435E-001, 3.8009871E-002, 1.2183918E-002, 9.0320712E-003, 3.6955033E+002
 1.2500981E+002, 1.7840195E-002, 1.4597990E-001, 1.0340281E-001, 3.8666170E-002, 1.2230061E-002, 9.1662547E-003, 3.7277574E+002
 1.2600555E+002, 1.8266325E-002, 1.4524626E-001, 1.0333738E-001, 3.8916585E-002, 1.2313029E-002, 9.2155243E-003, 3.7206693E+002
 1.2700337E+002, 1.9450201E-002, 1.4282760E-001, 1.0311486E-001, 3.9740754E-002, 1.3548891E-002, 9.3776590E-003, 3.6761722E+002
 1.2800929E+002, 1.9764839E-002, 1.4300109E-001, 1.0284132E-001, 3.9380160E-002, 1.3534702E-002, 9.3013919E-003, 3.6887520E+002
 1.2900810E+002, 1.9068040E-002, 1.4288457E-001, 1.0340008E-001, 4.0012116E-002, 1.3313716E-002, 9.4361823E-003, 3.7476808E+002
 1.3001113E+002, 1.9425849E-002, 1.4195977E-001, 1.0344824E-001, 4.0463800E-002, 1.3380736E-002, 9.5274524E-003, 3.7743953E+002
 1.3100905E+002, 2.0247768E-002, 1.3913090E-001, 1.0372028E-001, 4.1977816E-002, 1.3972499E-002, 9.8350186E-003, 3.7082046E+002
 1.3200752E+002, 2.0159092E-002, 1.3964001E-001, 1.0363943E-001, 4.1671752E-002, 1.3810718E-002, 9.7724645E-003, 3.7280591E+002
 1.3300375E+002, 2.0615293E-002, 1.3812879E-001, 1.0376254E-001, 4.2457762E-002, 1.4188978E-002, 9.9318830E-003, 3.7028602E+002
 1.3400713E+002, 1.9653761E-002, 1.3885268E-001, 1.0429109E-001, 4.2691408E-002, 1.3573644E-002, 9.9863370E-003, 3.8002807E+002
 1.3500265E+002, 2.0088234E-002, 1.3785920E-001, 1.0428725E-001, 4.3119424E-002, 1.3770855E-002, 1.0072119E-002, 3.7776915E+002
 1.3600041E+002, 2.0229210E-002, 1.3619162E-001, 1.0467208E-001, 4.4246516E-002, 1.4202568E-002, 1.0303725E-002, 3.7540990E+002
 1.3700444E+002, 2.0068520E-002, 1.3615328E-001, 1.0477561E-001, 4.4371843E-002, 1.4326803E-002, 1.0330365E-002, 3.8070815E+002
 1.3800621E+002, 1.9633418E-002, 1.3599863E-001, 1.0521588E-001, 4.4894970E-002, 1.3803211E-002, 1.0441591E-002, 3.8316512E+002
 1.3901024E+002, 1.9392041E-002, 1.3508610E-001, 1.0576016E-001, 4.5855716E-002, 1.3361421E-002, 1.0642078E-002, 3.8381620E+002
 1.4000539E+002, 1.9190120E-002, 1.3519356E-001, 1.0587597E-001, 4.5929485E-002, 1.3292318E-002, 1.0658541E-002, 3.8379741E+002
 1.4100070E+002, 1.8990605E-002, 1.3453471E-001, 1.0625468E-001, 4.6609411E-002, 1.3164281E-002, 1.0800349E-002, 3.8448029E+002
 1.4200740E+002, 1.8467821E-002, 1.3400225E-001, 1.0684627E-001, 4.7455443E-002, 1.2851713E-002, 1.0978531E-002, 3.8858527E+002
 1.4300456E+002, 1.8341534E-002, 1.3421971E-001, 1.0685506E-001, 4.7370533E-002, 1.2890770E-002, 1.0961637E-002, 3.8747415E+002
 1.4400021E+002, 1.9311464E-002, 1.3147063E-001, 1.0697409E-001, 4.8691230E-002, 1.3625742E-002, 1.1228236E-002, 3.8334536E+002
 1.4500007E+002, 1.9457675E-002, 1.3111605E-001, 1.0700655E-001, 4.8878285E-002, 1.3529712E-002, 1.1266204E-002, 3.8384353E+002
 1.4601038E+002, 1.9241342E-002, 1.3113360E-001, 1.0712567E-001, 4.8995805E-002, 1.3680449E-002, 1.1291507E-002, 3.8713535E+002
 1.4700555E+002, 1.9566435E-002, 1.2975686E-001, 1.0723390E-001, 4.9710154E-002, 1.4426102E-002, 1.1436373E-002, 3.8254686E+002
 1.4800449E+002, 2.0088220E-002, 1.2876396E-001, 1.0716326E-001, 5.0068461E-002, 1.4659726E-002, 1.1507213E-002, 3.7986533E+002
 1.4900286E+002, 1.9297734E-002, 1.2904600E-001, 1.0772640E-001, 5.0529574E-002, 1.4006407E-002, 1.1607774E-002, 3.8729726E+002
 1.5001281E+002, 1.9292157E-002, 1.2848302E-001, 1.0792784E-001, 5.0983433E-002, 1.3943893E-002, 1.1701690E-002, 3.9015511E+002
 1.5100123E+002, 1.8629120E-002, 1.2924757E-001, 1.0822463E-001, 5.0958141E-002, 1.3396027E-002, 1.1700873E-002, 3.8978646E+002
 1.5200636E+002, 1.9198369E-002, 1.2765709E-001, 1.0824988E-001, 5.1678109E-002, 1.4049642E-002, 1.1845655E-002, 3.8626778E+002
 1.5300332E+002, 1.9129810E-002, 1.2739351E-001, 1.0842578E-001, 5.1974404E-002, 1.3804900E-002, 1.1907592E-002, 3.8610096E+002
 1.5401271E+002, 1.9655941E-002, 1.2680910E-001, 1.0821875E-001, 5.2013233E-002, 1.4023901E-002, 1.1912397E-002, 3.8372314E+002
