s,,,,,,,
Time,"O2 EXHAUST","CO2 EXHAUST","H2O EXHAUST","CO EXHAUST","FUEL EXHAUST","SOOT EXHAUST","TEMP EXHAUST"
 0.0000000E+000, 2.3134768E-001, 5.9236189E-004, 4.4338011E-003, 0.0000000E+000, 0.0000000E+000, 0.0000000E+000, 2.0000000E+001
 1.0044964E+000, 2.3134768E-001, 5.9236189E-004, 4.4338011E-003, 1.6037276E-029, 1.0092337E-028, 5.1249747E-030, 2.0460309E+001
 2.0059943E+000, 2.2537979E-001, 5.4511827E-003, 7.1934116E-003, 4.3946347E-005, 1.2632771E-004, 4.2134715E-005, 8.7430019E+001
 3.0002099E+000, 2.2115621E-001, 8.8323353E-003, 9.1609514E-003, 1.1197495E-004, 2.5068085E-004, 7.9558010E-005, 1.2659794E+002
 4.0059793E+000, 2.1532702E-001, 1.3577453E-002, 1.1863649E-002, 1.6083264E-004, 3.3565134E-004, 1.2199175E-004, 1.7225064E+002
 5.0037353E+000, 2.0957173E-001, 1.8265712E-002, 1.4533107E-002, 2.0838934E-004, 4.0731221E-004, 1.6376215E-004, 2.1997328E+002
 6.0016717E+000, 2.0165968E-001, 2.4816391E-002, 1.8185830E-002, 2.1339185E-004, 3.8896779E-004, 2.0883031E-004, 2.7404019E+002
 7.0006945E+000, 1.9849929E-001, 2.7407927E-002, 1.9650688E-002, 2.3108765E-004, 3.9973111E-004, 2.3006059E-004, 3.0074454E+002
 8.0024607E+000, 1.9129246E-001, 3.3443091E-002, 2.2963790E-002, 1.9423610E-004, 3.2381270E-004, 2.6261102E-004, 3.4291780E+002
 9.0040588E+000, 1.8300111E-001, 4.0379367E-002, 2.6781535E-002, 1.5970050E-004, 2.1705203E-004, 3.0171312E-004, 3.8615356E+002
 1.0000549E+001, 1.7586592E-001, 4.6348061E-002, 3.0065609E-002, 1.2912895E-004, 1.3327104E-004, 3.3517600E-004, 4.1002467E+002
 1.1008598E+001, 1.7299548E-001, 4.8763019E-002, 3.1384563E-002, 1.0896096E-004, 8.4137824E-005, 3.4702776E-004, 4.2219972E+002
 1.2003018E+001, 1.6920551E-001, 5.1929210E-002, 3.3129270E-002, 9.4835389E-005, 4.6231776E-005, 3.6523127E-004, 4.2847662E+002
 1.3007026E+001, 1.6241860E-001, 5.7560738E-002, 3.6259518E-002, 9.1239644E-005, 2.2506704E-005, 4.0226719E-004, 4.4065955E+002
 1.4006496E+001, 1.5463166E-001, 6.4012609E-002, 3.9852389E-002, 9.2411201E-005, 6.4980057E-006, 4.4584299E-004, 4.6093794E+002
 1.5011160E+001, 1.5140437E-001, 6.6685556E-002, 4.1341566E-002, 9.3443960E-005, 1.2643688E-006, 4.6401446E-004, 4.5862667E+002
 1.6002511E+001, 1.4693557E-001, 7.0380173E-002, 4.3404707E-002, 9.8661288E-005, 1.2176684E-006, 4.8995159E-004, 4.7027098E+002
 1.7009596E+001, 1.4175640E-001, 7.4663007E-002, 4.5795640E-002, 1.0416872E-004, 2.5408235E-007, 5.1990117E-004, 4.6503352E+002
 1.8006384E+001, 1.3704139E-001, 7.8561280E-002, 4.7972422E-002, 1.0960702E-004, 1.6169287E-007, 5.4725359E-004, 4.7005027E+002
 1.9005995E+001, 1.3101626E-001, 8.3542585E-002, 5.0754071E-002, 1.1664045E-004, 2.0661049E-007, 5.8222338E-004, 4.8607733E+002
 2.0004867E+001, 1.2599780E-001, 8.7691684E-002, 5.3070954E-002, 1.2246105E-004, 1.8097936E-007, 6.1134274E-004, 4.8792566E+002
 2.1002169E+001, 1.2253353E-001, 9.0555935E-002, 5.4670274E-002, 1.2640333E-004, 1.2237929E-007, 6.3142832E-004, 4.8587995E+002
 2.2003969E+001, 1.1687577E-001, 9.5232717E-002, 5.7282500E-002, 1.3350589E-004, 7.4200855E-007, 6.6436829E-004, 4.9831260E+002
 2.3003821E+001, 1.1360237E-001, 9.7937378E-002, 5.8794019E-002, 1.3827044E-004, 2.5473323E-006, 6.8356020E-004, 4.9661551E+002
 2.4000825E+001, 1.0871696E-001, 1.0197911E-001, 6.1048968E-002, 1.4236597E-004, 6.4244024E-008, 7.1158536E-004, 4.9907760E+002
 2.5010041E+001, 1.0835948E-001, 1.0225765E-001, 6.1217047E-002, 1.5273277E-004, 1.7295555E-005, 7.1569883E-004, 4.8992957E+002
 2.6009512E+001, 1.0243831E-001, 1.0716996E-001, 6.3947677E-002, 1.4973369E-004, 1.1985934E-007, 7.4803449E-004, 5.0423387E+002
 2.7005195E+001, 1.0156058E-001, 1.0788972E-001, 6.4353874E-002, 1.5414590E-004, 6.5749385E-006, 7.5382221E-004, 4.8748594E+002
 2.8000463E+001, 9.8281439E-002, 1.1058502E-001, 6.5870573E-002, 1.6717869E-004, 2.2629205E-005, 7.7474029E-004, 4.9025103E+002
 2.9001114E+001, 9.9283251E-002, 1.0977619E-001, 6.5404686E-002, 1.5471885E-004, 2.3955722E-006, 7.6661322E-004, 4.7985775E+002
 3.0002159E+001, 9.4171265E-002, 1.1387592E-001, 6.7787174E-002, 2.3460289E-004, 1.3208188E-004, 8.1142674E-004, 4.8080457E+002
 3.1000999E+001, 9.1439028E-002, 1.1589719E-001, 6.9089041E-002, 3.7526305E-004, 3.8423553E-004, 8.5543467E-004, 4.8583146E+002
 3.2010046E+001, 8.9585989E-002, 1.1733762E-001, 6.9957321E-002, 4.2823070E-004, 4.9699845E-004, 8.7656781E-004, 4.8420026E+002
 3.3008153E+001, 8.6646083E-002, 1.1937902E-001, 7.1388636E-002, 6.6282177E-004, 8.6703070E-004, 9.4103520E-004, 4.8665269E+002
 3.4010612E+001, 8.7549841E-002, 1.1891851E-001, 7.0921916E-002, 4.9540112E-004, 5.6648002E-004, 9.0171698E-004, 4.6966291E+002
 3.5009854E+001, 8.5073644E-002, 1.2074445E-001, 7.2107586E-002, 6.3001252E-004, 7.7476557E-004, 9.4310432E-004, 4.8269756E+002
 3.6000097E+001, 8.3910507E-002, 1.2121698E-001, 7.2694759E-002, 8.8873348E-004, 1.4769429E-003, 1.0022596E-003, 4.6732021E+002
 3.7007976E+001, 8.1794770E-002, 1.2296251E-001, 7.3716423E-002, 9.2754471E-004, 1.2359313E-003, 1.0223769E-003, 4.7306553E+002
 3.8007077E+001, 8.1163612E-002, 1.2337189E-001, 7.4016203E-002, 9.8500946E-004, 1.4147436E-003, 1.0375602E-003, 4.6394006E+002
 3.9005767E+001, 7.9131730E-002, 1.2395134E-001, 7.5005243E-002, 1.5185403E-003, 3.3373366E-003, 1.1568990E-003, 4.6670193E+002
 4.0013794E+001, 7.8788899E-002, 1.2430829E-001, 7.5230548E-002, 1.5379167E-003, 2.8191261E-003, 1.1634862E-003, 4.5619820E+002
 4.1009498E+001, 7.8211678E-002, 1.2466254E-001, 7.5477309E-002, 1.5782866E-003, 3.1746503E-003, 1.1746012E-003, 4.6901987E+002
 4.2000471E+001, 7.7373064E-002, 1.2522216E-001, 7.5888153E-002, 1.6573238E-003, 3.3115096E-003, 1.1954607E-003, 4.5273674E+002
 4.3001217E+001, 7.6176558E-002, 1.2592368E-001, 7.6445327E-002, 1.7909818E-003, 3.8614875E-003, 1.2290930E-003, 4.5611921E+002
 4.4003594E+001, 7.6712845E-002, 1.2567673E-001, 7.6158850E-002, 1.6725099E-003, 3.6831405E-003, 1.2018003E-003, 4.4210552E+002
 4.5006307E+001, 7.5514016E-002, 1.2585822E-001, 7.6766063E-002, 2.0772745E-003, 5.0078306E-003, 1.2906033E-003, 4.4978080E+002
 4.6007741E+001, 7.4980550E-002, 1.2625474E-001, 7.6986678E-002, 2.0779426E-003, 5.2390962E-003, 1.2934113E-003, 4.4314826E+002
 4.7002640E+001, 7.4776154E-002, 1.2625614E-001, 7.7045292E-002, 2.1254299E-003, 5.7726962E-003, 1.3036977E-003, 4.3846273E+002
 4.8005783E+001, 7.4334893E-002, 1.2671103E-001, 7.7268097E-002, 2.1004516E-003, 5.4866256E-003, 1.3013464E-003, 4.4004091E+002
 4.9004675E+001, 7.3629416E-002, 1.2652154E-001, 7.7629032E-002, 2.4738367E-003, 6.8398056E-003, 1.3808689E-003, 4.3636450E+002
 5.0004294E+001, 7.4223344E-002, 1.2675597E-001, 7.7344917E-002, 2.1412880E-003, 5.4412283E-003, 1.3104838E-003, 4.3247799E+002
 5.1004995E+001, 7.3766242E-002, 1.2653892E-001, 7.7509816E-002, 2.3720270E-003, 6.8885224E-003, 1.3589572E-003, 4.2893629E+002
 5.2000744E+001, 7.3086504E-002, 1.2726565E-001, 7.7887058E-002, 2.3482318E-003, 6.2074439E-003, 1.3586857E-003, 4.3772486E+002
 5.3009253E+001, 7.2881166E-002, 1.2685417E-001, 7.7896280E-002, 2.5420512E-003, 7.8455470E-003, 1.3978660E-003, 4.2980118E+002
 5.4011085E+001, 7.2535852E-002, 1.2711981E-001, 7.8157289E-002, 2.6298670E-003, 7.3231365E-003, 1.4186484E-003, 4.2423900E+002
 5.5006419E+001, 7.2138382E-002, 1.2686976E-001, 7.8189595E-002, 2.7720218E-003, 9.3191916E-003, 1.4477354E-003, 4.2822859E+002
 5.6001690E+001, 7.2409484E-002, 1.2695401E-001, 7.8013427E-002, 2.5944600E-003, 8.9836268E-003, 1.4098806E-003, 4.2090769E+002
 5.7010442E+001, 7.1800370E-002, 1.2748322E-001, 7.8378467E-002, 2.6485329E-003, 8.4683935E-003, 1.4251319E-003, 4.2255185E+002
 5.8011715E+001, 7.2012498E-002, 1.2734030E-001, 7.8189894E-002, 2.5636996E-003, 8.9049556E-003, 1.4058185E-003, 4.3138388E+002
 5.9003544E+001, 7.2336803E-002, 1.2671337E-001, 7.7962620E-002, 2.6637075E-003, 1.0052998E-002, 1.4232522E-003, 4.1369942E+002
 6.0001153E+001, 7.1998515E-002, 1.2668160E-001, 7.8121651E-002, 2.8054871E-003, 1.0661193E-002, 1.4537182E-003, 4.2027217E+002
 6.1002028E+001, 7.2743725E-002, 1.2628991E-001, 7.7731145E-002, 2.6684097E-003, 1.0468698E-002, 1.4214278E-003, 4.0734113E+002
 6.2007087E+001, 7.2532955E-002, 1.2610118E-001, 7.7726859E-002, 2.7523137E-003, 1.1758144E-002, 1.4383201E-003, 4.1292423E+002
 6.3001838E+001, 7.2483253E-002, 1.2625328E-001, 7.7764089E-002, 2.7138082E-003, 1.1456691E-002, 1.4310087E-003, 4.1659013E+002
 6.4002402E+001, 7.2900402E-002, 1.2559883E-001, 7.7480513E-002, 2.7813122E-003, 1.2580447E-002, 1.4412246E-003, 4.0797306E+002
 6.5004576E+001, 7.2684532E-002, 1.2584821E-001, 7.7646509E-002, 2.8011657E-003, 1.2071296E-002, 1.4471928E-003, 4.0319324E+002
 6.6009857E+001, 7.2593411E-002, 1.2575890E-001, 7.7634667E-002, 2.8331635E-003, 1.2699479E-002, 1.4535190E-003, 4.0449167E+002
 6.7006973E+001, 7.2424130E-002, 1.2574137E-001, 7.7639234E-002, 2.8468445E-003, 1.3422225E-002, 1.4563643E-003, 4.1373468E+002
 6.8006206E+001, 7.3090847E-002, 1.2488838E-001, 7.7179619E-002, 2.8635502E-003, 1.4866939E-002, 1.4542571E-003, 3.9566765E+002
 6.9010754E+001, 7.2651232E-002, 1.2535456E-001, 7.7462477E-002, 2.8799316E-003, 1.4218968E-002, 1.4609293E-003, 4.0299495E+002
 7.0007931E+001, 7.3034957E-002, 1.2484991E-001, 7.7168346E-002, 2.8727901E-003, 1.5241774E-002, 1.4559995E-003, 4.0336929E+002
 7.1001767E+001, 7.2741008E-002, 1.2499642E-001, 7.7389015E-002, 2.9819486E-003, 1.4964953E-002, 1.4806009E-003, 4.0514489E+002
 7.2007729E+001, 7.3066278E-002, 1.2458278E-001, 7.7095560E-002, 2.9354602E-003, 1.6047854E-002, 1.4677690E-003, 3.9229620E+002
 7.3001160E+001, 7.3175289E-002, 1.2465967E-001, 7.7071405E-002, 2.8809346E-003, 1.5568415E-002, 1.4564856E-003, 3.9000155E+002
 7.4008976E+001, 7.2958120E-002, 1.2441229E-001, 7.7151560E-002, 3.0564226E-003, 1.6535002E-002, 1.4927989E-003, 4.0393982E+002
 7.5001814E+001, 7.3513912E-002, 1.2402823E-001, 7.6845567E-002, 2.9838663E-003, 1.6657221E-002, 1.4745215E-003, 3.8623956E+002
 7.6006965E+001, 7.3733800E-002, 1.2366713E-001, 7.6689954E-002, 3.0219128E-003, 1.7315830E-002, 1.4803315E-003, 3.9730322E+002
 7.7006663E+001, 7.3194521E-002, 1.2379067E-001, 7.6836400E-002, 3.0873055E-003, 1.8528945E-002, 1.4953150E-003, 4.0105637E+002
 7.8011103E+001, 7.3333332E-002, 1.2350630E-001, 7.6723859E-002, 3.1254747E-003, 1.9136909E-002, 1.5016666E-003, 4.0398623E+002
 7.9003001E+001, 7.4276376E-002, 1.2291971E-001, 7.6243198E-002, 3.0030829E-003, 1.9000673E-002, 1.4712453E-003, 3.9268317E+002
 8.0008862E+001, 7.3876588E-002, 1.2306635E-001, 7.6430497E-002, 3.0878322E-003, 1.9353996E-002, 1.4905686E-003, 3.9791960E+002
 8.1002540E+001, 7.3925907E-002, 1.2287592E-001, 7.6447920E-002, 3.1857284E-003, 1.9431405E-002, 1.5104720E-003, 3.8949063E+002
 8.2006529E+001, 7.4147773E-002, 1.2282850E-001, 7.6277004E-002, 3.0717378E-003, 1.9537906E-002, 1.4854899E-003, 3.9912287E+002
 8.3005288E+001, 7.4406565E-002, 1.2270951E-001, 7.6170552E-002, 3.0390701E-003, 1.9275575E-002, 1.4776215E-003, 3.8477060E+002
 8.4001216E+001, 7.4682066E-002, 1.2209283E-001, 7.6093662E-002, 3.2514305E-003, 1.9776346E-002, 1.5194312E-003, 3.9201464E+002
 8.5006615E+001, 7.4867802E-002, 1.2219136E-001, 7.5991793E-002, 3.1261012E-003, 1.9360519E-002, 1.4929736E-003, 3.8940278E+002
 8.6008934E+001, 7.4475772E-002, 1.2226856E-001, 7.6186835E-002, 3.2477630E-003, 1.9777438E-002, 1.5198176E-003, 3.8257767E+002
 8.7007364E+001, 7.4427160E-002, 1.2197968E-001, 7.6297480E-002, 3.4630682E-003, 1.9948604E-002, 1.5644642E-003, 3.8004225E+002
 8.8005148E+001, 7.4045529E-002, 1.2223952E-001, 7.6431832E-002, 3.4560456E-003, 2.0291676E-002, 1.5646909E-003, 3.8884337E+002
 8.9004666E+001, 7.3873132E-002, 1.2210606E-001, 7.6683182E-002, 3.7123778E-003, 1.9894098E-002, 1.6192558E-003, 3.8461856E+002
 9.0004330E+001, 7.5540508E-002, 1.1986760E-001, 7.5796588E-002, 4.0044083E-003, 2.2263393E-002, 1.6674214E-003, 3.8188713E+002
 9.1007619E+001, 7.4488566E-002, 1.2150281E-001, 7.6336359E-002, 3.7053881E-003, 2.0430241E-002, 1.6136950E-003, 3.8477538E+002
 9.2005555E+001, 7.4510982E-002, 1.2140710E-001, 7.6322028E-002, 3.7367697E-003, 2.0606885E-002, 1.6198431E-003, 3.8528310E+002
 9.3005100E+001, 7.4737086E-002, 1.2004887E-001, 7.6433949E-002, 4.4271722E-003, 2.1756499E-002, 1.7601102E-003, 3.7981669E+002
 9.4004711E+001, 7.5083797E-002, 1.2007203E-001, 7.6137290E-002, 4.1827166E-003, 2.1891717E-002, 1.7073733E-003, 3.8049297E+002
 9.5002799E+001, 7.5070755E-002, 1.2009125E-001, 7.6142177E-002, 4.1780846E-003, 2.1881087E-002, 1.7065001E-003, 3.7922384E+002
 9.6012213E+001, 7.5301745E-002, 1.1959424E-001, 7.5984373E-002, 4.2750196E-003, 2.2777360E-002, 1.7241402E-003, 3.7589033E+002
 9.7006236E+001, 7.5759056E-002, 1.1911531E-001, 7.5738335E-002, 4.2925596E-003, 2.3172576E-002, 1.7247211E-003, 3.7217393E+002
 9.8003297E+001, 7.5754889E-002, 1.1835132E-001, 7.5864203E-002, 4.7313418E-003, 2.4024202E-002, 1.8145340E-003, 3.7890457E+002
 9.9006777E+001, 7.5773558E-002, 1.1875470E-001, 7.5744266E-002, 4.4580924E-003, 2.3801146E-002, 1.7581186E-003, 3.7374959E+002
 1.0000307E+002, 7.5636237E-002, 1.1890667E-001, 7.5770749E-002, 4.4125373E-003, 2.3928436E-002, 1.7492827E-003, 3.8321835E+002
 1.0100788E+002, 7.5832949E-002, 1.1829778E-001, 7.5739287E-002, 4.6576197E-003, 2.4494022E-002, 1.7982251E-003, 3.7514775E+002
 1.0200091E+002, 7.5924510E-002, 1.1826894E-001, 7.5714457E-002, 4.6500588E-003, 2.4303622E-002, 1.7963947E-003, 3.7764683E+002
 1.0300318E+002, 7.5913964E-002, 1.1820848E-001, 7.5720348E-002, 4.6817733E-003, 2.4436554E-002, 1.8028514E-003, 3.8654432E+002
 1.0400757E+002, 7.5640888E-002, 1.1830999E-001, 7.5895964E-002, 4.7759262E-003, 2.4411331E-002, 1.8239048E-003, 3.7178059E+002
 1.0500717E+002, 7.5784473E-002, 1.1750728E-001, 7.5889742E-002, 5.1278638E-003, 2.5449285E-002, 1.8946678E-003, 3.6526670E+002
 1.0600288E+002, 7.6844675E-002, 1.1583614E-001, 7.5447842E-002, 5.5184943E-003, 2.6778012E-002, 1.9679728E-003, 3.6871652E+002
 1.0700698E+002, 7.6358836E-002, 1.1707431E-001, 7.5454010E-002, 4.9765993E-003, 2.6309255E-002, 1.8590348E-003, 3.8297877E+002
 1.0800776E+002, 7.5395376E-002, 1.1806334E-001, 7.6027143E-002, 4.9909270E-003, 2.5213462E-002, 1.8687716E-003, 3.8176225E+002
 1.0900580E+002, 7.5635628E-002, 1.1741551E-001, 7.5970660E-002, 5.2334722E-003, 2.5812178E-002, 1.9169036E-003, 3.6821959E+002
 1.1000116E+002, 7.5600827E-002, 1.1721024E-001, 7.5981147E-002, 5.3337851E-003, 2.6311946E-002, 1.9372320E-003, 3.6200779E+002
 1.1100795E+002, 7.5864422E-002, 1.1619893E-001, 7.5877583E-002, 5.7020383E-003, 2.7801126E-002, 2.0101264E-003, 3.7763323E+002
 1.1200711E+002, 7.5569531E-002, 1.1706927E-001, 7.5967899E-002, 5.3869651E-003, 2.6799480E-002, 1.9477940E-003, 3.8699026E+002
 1.1300967E+002, 7.4874043E-002, 1.1746518E-001, 7.6427199E-002, 5.5746691E-003, 2.6393430E-002, 1.9910643E-003, 3.8207872E+002
 1.1400222E+002, 7.5620447E-002, 1.1668992E-001, 7.6056942E-002, 5.6246360E-003, 2.6852313E-002, 1.9966719E-003, 3.7032669E+002
 1.1501104E+002, 7.5631276E-002, 1.1599494E-001, 7.6169919E-002, 6.0224083E-003, 2.7573863E-002, 2.0780743E-003, 3.6438514E+002
 1.1600950E+002, 7.6139634E-002, 1.1576276E-001, 7.5819599E-002, 5.8483592E-003, 2.7836867E-002, 2.0388573E-003, 3.6065433E+002
 1.1701286E+002, 7.6502050E-002, 1.1513011E-001, 7.5598480E-002, 5.9551548E-003, 2.8801786E-002, 2.0577205E-003, 3.8551275E+002
 1.1800756E+002, 7.5628763E-002, 1.1598968E-001, 7.6089691E-002, 5.9627641E-003, 2.8038970E-002, 2.0651356E-003, 3.7850097E+002
 1.1900727E+002, 7.6236499E-002, 1.1532378E-001, 7.5645800E-002, 5.9088280E-003, 2.9270230E-002, 2.0489990E-003, 3.7407091E+002
 1.2000960E+002, 7.6006434E-002, 1.1497567E-001, 7.6039710E-002, 6.3720913E-003, 2.8756610E-002, 2.1468960E-003, 3.8363658E+002
 1.2100910E+002, 7.5615270E-002, 1.1537841E-001, 7.6261477E-002, 6.3689253E-003, 2.8369772E-002, 2.1489137E-003, 3.8441268E+002
 1.2200924E+002, 7.6224581E-002, 1.1482540E-001, 7.5854306E-002, 6.2929150E-003, 2.9165028E-002, 2.1287572E-003, 3.7621380E+002
 1.2300963E+002, 7.5801116E-002, 1.1530058E-001, 7.6077672E-002, 6.2590563E-003, 2.8760237E-002, 2.1246202E-003, 3.6795382E+002
 1.2401039E+002, 7.6082637E-002, 1.1482589E-001, 7.5889498E-002, 6.3218439E-003, 2.9567051E-002, 2.1350214E-003, 3.7298474E+002
 1.2500723E+002, 7.5866848E-002, 1.1498615E-001, 7.6067970E-002, 6.3911675E-003, 2.9167067E-002, 2.1510955E-003, 3.7439919E+002
 1.2600221E+002, 7.6295418E-002, 1.1432491E-001, 7.5889114E-002, 6.5425110E-003, 2.9676787E-002, 2.1794038E-003, 3.6860483E+002
 1.2700422E+002, 7.6649364E-002, 1.1362421E-001, 7.5753170E-002, 6.7456921E-003, 3.0342363E-002, 2.2186638E-003, 3.6197194E+002
 1.2800859E+002, 7.7169830E-002, 1.1308947E-001, 7.5542901E-002, 6.8149627E-003, 3.0385485E-002, 2.2300615E-003, 3.7229119E+002
 1.2900013E+002, 7.6174775E-002, 1.1423372E-001, 7.5939510E-002, 6.6238773E-003, 3.0088658E-002, 2.1963984E-003, 3.7998821E+002
 1.3001165E+002, 7.5641723E-002, 1.1485187E-001, 7.6278558E-002, 6.6170710E-003, 2.9218762E-002, 2.1990729E-003, 3.7947515E+002
 1.3100935E+002, 7.6282376E-002, 1.1398766E-001, 7.5968504E-002, 6.7547811E-003, 2.9968039E-002, 2.2230694E-003, 3.6353469E+002
 1.3200290E+002, 7.7789200E-002, 1.1186640E-001, 7.5283662E-002, 7.1526204E-003, 3.1662152E-002, 2.2949132E-003, 3.5670416E+002
 1.3300365E+002, 7.6670535E-002, 1.1340561E-001, 7.5733628E-002, 6.8279782E-003, 3.0799305E-002, 2.2350021E-003, 3.8529527E+002
 1.3400992E+002, 7.5615341E-002, 1.1487144E-001, 7.6210622E-002, 6.5561590E-003, 2.9666606E-002, 2.1860266E-003, 3.8819638E+002
 1.3501094E+002, 7.5747996E-002, 1.1397521E-001, 7.6334016E-002, 7.0502536E-003, 3.0220661E-002, 2.2869183E-003, 3.7425906E+002
 1.3600075E+002, 7.6132004E-002, 1.1355677E-001, 7.6043397E-002, 7.0072960E-003, 3.1050110E-002, 2.2748171E-003, 3.6622535E+002
 1.3700924E+002, 7.7056236E-002, 1.1246477E-001, 7.5569436E-002, 7.1161960E-003, 3.1968590E-002, 2.2910511E-003, 3.5803653E+002
 1.3801007E+002, 7.6291002E-002, 1.1317434E-001, 7.6034025E-002, 7.1687757E-003, 3.1198578E-002, 2.3071892E-003, 3.6162416E+002
 1.3900788E+002, 7.7271152E-002, 1.1145788E-001, 7.5510316E-002, 7.5175033E-003, 3.3407963E-002, 2.3711269E-003, 3.8745321E+002
 1.4000898E+002, 7.5828151E-002, 1.1370973E-001, 7.6126459E-002, 7.0073176E-003, 3.1563615E-002, 2.2758509E-003, 3.8773010E+002
 1.4100690E+002, 7.6005299E-002, 1.1377748E-001, 7.6069583E-002, 6.9306441E-003, 3.0996602E-002, 2.2597137E-003, 3.7448898E+002
 1.4200281E+002, 7.6828119E-002, 1.1175475E-001, 7.5851702E-002, 7.6548419E-003, 3.2789691E-002, 2.4028338E-003, 3.6521712E+002
 1.4300789E+002, 7.5854084E-002, 1.1304348E-001, 7.6278880E-002, 7.4225408E-003, 3.1945712E-002, 2.3612208E-003, 3.6509092E+002
 1.4400796E+002, 7.6459566E-002, 1.1201159E-001, 7.6102093E-002, 7.7387006E-003, 3.2441542E-002, 2.4227016E-003, 3.6416699E+002
 1.4500042E+002, 7.7028923E-002, 1.1143410E-001, 7.5809377E-002, 7.7626635E-003, 3.2820682E-002, 2.4240103E-003, 3.7568049E+002
 1.4600844E+002, 7.7031448E-002, 1.1141138E-001, 7.5767428E-002, 7.7403477E-003, 3.3087718E-002, 2.4190303E-003, 3.8413347E+002
 1.4701044E+002, 7.6665842E-002, 1.1200067E-001, 7.5975645E-002, 7.6429959E-003, 3.2294496E-002, 2.4019200E-003, 3.7137856E+002
 1.4800574E+002, 7.6718746E-002, 1.1148340E-001, 7.5998737E-002, 7.8912802E-003, 3.2980241E-002, 2.4521708E-003, 3.7234747E+002
 1.4900806E+002, 7.7128318E-002, 1.1093864E-001, 7.5865215E-002, 8.0258868E-003, 3.3085735E-002, 2.4776382E-003, 3.6404933E+002
 1.5001078E+002, 7.7492544E-002, 1.1082516E-001, 7.5512478E-002, 7.7988952E-003, 3.3731287E-002, 2.4277645E-003, 3.8067588E+002
 1.5100454E+002, 7.6711972E-002, 1.1173976E-001, 7.5971481E-002, 7.7557381E-003, 3.2645987E-002, 2.4245636E-003, 3.8448365E+002
 1.5200984E+002, 7.6188491E-002, 1.1232964E-001, 7.6241127E-002, 7.7077746E-003, 3.2176496E-002, 2.4181447E-003, 3.8148474E+002
 1.5300778E+002, 7.6571387E-002, 1.1139555E-001, 7.6113078E-002, 8.0209577E-003, 3.3144050E-002, 2.4796400E-003, 3.7287426E+002
 1.5400105E+002, 7.6381381E-002, 1.1163406E-001, 7.6191510E-002, 7.9776122E-003, 3.3032334E-002, 2.4718623E-003, 3.6328173E+002
