s,,,,,,,
Time,"O2 EXHAUST","CO2 EXHAUST","H2O EXHAUST","CO EXHAUST","FUEL EXHAUST","SOOT EXHAUST","TEMP EXHAUST"
 0.0000000E+000, 2.3099739E-001, 5.9146498E-004, 5.9412092E-003, 0.0000000E+000, 0.0000000E+000, 0.0000000E+000, 2.0000000E+001
 1.0035421E+000, 2.3099739E-001, 5.9146498E-004, 5.9412092E-003, 1.1108949E-028, 3.2614306E-028, 3.9165220E-029, 2.2490359E+001
 2.0039542E+000, 2.1956393E-001, 9.1463286E-003, 1.0887374E-002, 1.2387643E-004, 1.2976149E-004, 9.4249028E-005, 1.3092381E+002
 3.0038929E+000, 2.1098157E-001, 1.5556949E-002, 1.4610370E-002, 2.2944808E-004, 1.8597167E-004, 1.6760715E-004, 2.0575091E+002
 4.0006493E+000, 2.0172494E-001, 2.2653124E-002, 1.8580226E-002, 2.2794017E-004, 1.6577081E-004, 2.2343105E-004, 2.8318822E+002
 5.0049170E+000, 1.9139140E-001, 3.0611180E-002, 2.3003385E-002, 2.0364734E-004, 1.2362756E-004, 2.8118917E-004, 3.5464778E+002
 6.0043051E+000, 1.8143220E-001, 3.8341253E-002, 2.7250192E-002, 1.4124050E-004, 6.2324539E-005, 3.2897157E-004, 4.1040068E+002
 7.0003583E+000, 1.6972741E-001, 4.7378921E-002, 3.2252830E-002, 9.7595318E-005, 1.3635044E-005, 3.9112272E-004, 4.6278910E+002
 8.0052324E+000, 1.5499186E-001, 5.8663853E-002, 3.8573062E-002, 1.0076652E-004, 1.7076760E-007, 4.8109271E-004, 5.1189475E+002
 9.0051193E+000, 1.4841382E-001, 6.3689673E-002, 4.1397305E-002, 1.0960459E-004, 1.4607360E-007, 5.2275357E-004, 5.2553330E+002
 1.0001219E+001, 1.3296114E-001, 7.5496595E-002, 4.8031599E-002, 1.2992435E-004, 2.9026459E-007, 6.2053049E-004, 5.5455892E+002
 1.1002146E+001, 1.2193339E-001, 8.3919893E-002, 5.2766962E-002, 1.4623438E-004, 5.8771778E-007, 6.9067535E-004, 5.6582047E+002
 1.2007852E+001, 1.1495080E-001, 8.9256338E-002, 5.5764443E-002, 1.5458982E-004, 2.8870849E-007, 7.3469051E-004, 5.7015211E+002
 1.3007982E+001, 1.0497041E-001, 9.6881989E-002, 6.0049357E-002, 1.6776899E-004, 2.7883637E-007, 7.9785285E-004, 5.7791911E+002
 1.4006505E+001, 9.7200497E-002, 1.0280776E-001, 6.3388645E-002, 1.8546519E-004, 1.0364626E-006, 8.4853361E-004, 5.7962405E+002
 1.5008622E+001, 8.7019157E-002, 1.1059189E-001, 6.7758201E-002, 1.9547985E-004, 1.2285090E-006, 9.1227142E-004, 5.9130393E+002
 1.6007458E+001, 8.0372330E-002, 1.1567034E-001, 7.0611995E-002, 2.0439025E-004, 9.4935225E-007, 9.5436421E-004, 5.9172049E+002
 1.7002070E+001, 7.6860354E-002, 1.1834219E-001, 7.2123357E-002, 2.1683275E-004, 1.9643639E-006, 9.7817254E-004, 5.8423048E+002
 1.8005644E+001, 7.2895668E-002, 1.2136085E-001, 7.3828741E-002, 2.2921342E-004, 3.2826266E-006, 1.0047116E-003, 5.7945108E+002
 1.9002025E+001, 6.7921606E-002, 1.2516505E-001, 7.5963135E-002, 2.3327838E-004, 2.9044957E-006, 1.0356832E-003, 5.8275535E+002
 2.0006785E+001, 6.2450413E-002, 1.2934136E-001, 7.8313378E-002, 2.4325855E-004, 3.0298326E-006, 1.0708674E-003, 5.9188281E+002
 2.1007348E+001, 5.6966947E-002, 1.3352108E-001, 8.0670548E-002, 2.5715860E-004, 4.8125377E-006, 1.1069190E-003, 5.8501625E+002
 2.2007236E+001, 5.4820160E-002, 1.3517840E-001, 8.1587069E-002, 2.4851497E-004, 2.7261927E-006, 1.1181790E-003, 5.8757134E+002
 2.3008841E+001, 5.3825440E-002, 1.3591166E-001, 8.2022335E-002, 2.6792439E-004, 5.4729307E-006, 1.1281423E-003, 5.7344368E+002
 2.4005430E+001, 4.7171963E-002, 1.4099665E-001, 8.4878651E-002, 2.7594604E-004, 4.3532129E-006, 1.1700962E-003, 5.7932805E+002
 2.5000725E+001, 4.1522663E-002, 1.4530368E-001, 8.7306908E-002, 2.8971239E-004, 5.6175035E-006, 1.2071265E-003, 5.9056048E+002
 2.6007500E+001, 3.9520954E-002, 1.4683030E-001, 8.8167243E-002, 2.9431608E-004, 5.4639632E-006, 1.2201926E-003, 5.7742439E+002
 2.7007530E+001, 3.4601720E-002, 1.5053587E-001, 9.0295929E-002, 3.3700193E-004, 8.1272958E-006, 1.2586643E-003, 5.8473263E+002
 2.8003450E+001, 3.1482858E-002, 1.5291610E-001, 9.1636022E-002, 3.4315779E-004, 7.1091799E-006, 1.2788173E-003, 5.8718752E+002
 2.9009266E+001, 2.4920780E-002, 1.5794274E-001, 9.4448991E-002, 3.4284552E-004, 8.4037372E-006, 1.3185228E-003, 5.9311144E+002
 3.0005539E+001, 2.1334118E-002, 1.6069608E-001, 9.5985066E-002, 3.3897754E-004, 6.1339279E-006, 1.3394788E-003, 5.9548150E+002
 3.1008142E+001, 1.8692626E-002, 1.6258134E-001, 9.7161334E-002, 4.3346704E-004, 1.0875444E-005, 1.3746545E-003, 6.0018480E+002
 3.2006723E+001, 1.6257796E-002, 1.6449937E-001, 9.8188401E-002, 3.9722833E-004, 8.7686494E-006, 1.3820609E-003, 5.9032007E+002
 3.3002217E+001, 1.6596626E-002, 1.6427356E-001, 9.8032531E-002, 3.7422106E-004, 7.0265214E-006, 1.3753414E-003, 5.8944245E+002
 3.4005949E+001, 1.2201174E-002, 1.6758248E-001, 9.9935399E-002, 4.1392413E-004, 8.4147176E-006, 1.4100351E-003, 5.8620024E+002
 3.5004866E+001, 8.2476151E-003, 1.6984465E-001, 1.0187408E-001, 9.3867539E-004, 3.1341475E-005, 1.5404426E-003, 5.9365348E+002
 3.6005287E+001, 6.0152100E-003, 1.7115932E-001, 1.0295267E-001, 1.2062362E-003, 6.9249097E-005, 1.6082107E-003, 5.8588574E+002
 3.7007625E+001, 4.4573497E-003, 1.7116930E-001, 1.0399729E-001, 2.0169084E-003, 1.0274850E-004, 1.7821005E-003, 5.8403890E+002
 3.8004839E+001, 3.0611906E-003, 1.7195609E-001, 1.0469226E-001, 2.2153866E-003, 7.1099268E-005, 1.8308801E-003, 5.8320908E+002
 3.9006593E+001, 3.1065264E-003, 1.7029217E-001, 1.0514425E-001, 3.2959210E-003, 4.0851022E-004, 2.0493861E-003, 5.6636861E+002
 4.0001251E+001, 2.5224193E-003, 1.7142822E-001, 1.0521393E-001, 2.8531510E-003, 1.5174685E-004, 1.9634424E-003, 5.7356972E+002
 4.1010422E+001, 1.8651403E-003, 1.6993871E-001, 1.0610582E-001, 4.2001195E-003, 3.5864105E-004, 2.2404522E-003, 5.6181717E+002
 4.2009267E+001, 1.3581132E-003, 1.6788172E-001, 1.0706678E-001, 5.8490795E-003, 6.4330589E-004, 2.5777201E-003, 5.5399144E+002
 4.3007125E+001, 1.1317398E-003, 1.6939153E-001, 1.0676922E-001, 4.9567723E-003, 4.1522432E-004, 2.3983517E-003, 5.5552380E+002
 4.4000560E+001, 1.4145890E-003, 1.6850194E-001, 1.0681990E-001, 5.3859287E-003, 6.9489556E-004, 2.4833268E-003, 5.4428262E+002
 4.5001213E+001, 8.5311003E-004, 1.6507772E-001, 1.0824726E-001, 7.9959758E-003, 1.0535119E-003, 3.0158371E-003, 5.4290298E+002
 4.6000891E+001, 8.2553106E-004, 1.6443277E-001, 1.0843488E-001, 8.4249794E-003, 1.2958153E-003, 3.1027149E-003, 5.3550726E+002
 4.7009889E+001, 9.0061692E-004, 1.6468649E-001, 1.0831601E-001, 8.2210980E-003, 1.2105574E-003, 3.0610093E-003, 5.3529183E+002
 4.8001484E+001, 7.0977785E-004, 1.6212099E-001, 1.0916683E-001, 1.0007792E-002, 1.8685663E-003, 3.4237861E-003, 5.2614250E+002
 4.9003621E+001, 7.5436930E-004, 1.6324559E-001, 1.0881011E-001, 9.2375300E-003, 1.6427683E-003, 3.2675366E-003, 5.2894039E+002
 5.0004130E+001, 6.8413155E-004, 1.6317479E-001, 1.0889860E-001, 9.3369809E-003, 1.5310454E-003, 3.2882985E-003, 5.2457358E+002
 5.1005064E+001, 5.0197608E-004, 1.6113460E-001, 1.0963945E-001, 1.0806767E-002, 1.7851282E-003, 3.5872838E-003, 5.2538479E+002
 5.2008879E+001, 5.1208837E-004, 1.6012702E-001, 1.0987430E-001, 1.1432136E-002, 2.3010505E-003, 3.7133949E-003, 5.1817153E+002
 5.3002332E+001, 4.8806347E-004, 1.5934840E-001, 1.1011652E-001, 1.1961725E-002, 2.4581240E-003, 3.8207804E-003, 5.1439919E+002
 5.4002007E+001, 5.5294230E-004, 1.5782202E-001, 1.1049082E-001, 1.2922146E-002, 2.9191008E-003, 4.0146227E-003, 5.1444764E+002
 5.5007503E+001, 5.0294205E-004, 1.5737225E-001, 1.1066290E-001, 1.3252936E-002, 2.9622047E-003, 4.0819866E-003, 5.0798403E+002
 5.6006033E+001, 5.3246664E-004, 1.5792208E-001, 1.1048302E-001, 1.2872082E-002, 2.8533700E-003, 4.0046802E-003, 5.1053956E+002
 5.7004052E+001, 4.7097426E-004, 1.5667677E-001, 1.1086681E-001, 1.3716791E-002, 3.2230014E-003, 4.1759369E-003, 5.1072158E+002
 5.8003019E+001, 5.0905627E-004, 1.5605215E-001, 1.1102925E-001, 1.4116587E-002, 3.3064559E-003, 4.2567126E-003, 5.0543784E+002
 5.9009212E+001, 4.8178595E-004, 1.5447455E-001, 1.1147013E-001, 1.5151642E-002, 3.8429850E-003, 4.4661517E-003, 5.0667593E+002
 6.0002050E+001, 5.1669632E-004, 1.5415659E-001, 1.1152215E-001, 1.5331769E-002, 4.0098097E-003, 4.5022565E-003, 5.0361976E+002
 6.1001670E+001, 4.9701950E-004, 1.5376611E-001, 1.1165105E-001, 1.5603095E-002, 4.0745668E-003, 4.5573403E-003, 5.0420463E+002
 6.2007993E+001, 5.3012903E-004, 1.5284882E-001, 1.1186573E-001, 1.6172641E-002, 4.4393183E-003, 4.6721966E-003, 5.0392307E+002
 6.3007508E+001, 5.6328305E-004, 1.5273712E-001, 1.1187052E-001, 1.6225390E-002, 4.4939415E-003, 4.6826225E-003, 4.9943010E+002
 6.4004151E+001, 5.5518028E-004, 1.5177803E-001, 1.1211623E-001, 1.6837681E-002, 4.9223302E-003, 4.8063131E-003, 4.9551701E+002
 6.5004587E+001, 5.7482043E-004, 1.5094976E-001, 1.1235766E-001, 1.7387983E-002, 5.0012434E-003, 4.9177461E-003, 4.9463385E+002
 6.6005896E+001, 5.8488991E-004, 1.4992327E-001, 1.1266557E-001, 1.8076799E-002, 5.1047966E-003, 5.0573092E-003, 4.9851157E+002
 6.7008590E+001, 5.5029690E-004, 1.4937097E-001, 1.1280708E-001, 1.8429944E-002, 5.4760880E-003, 5.1286563E-003, 4.9824850E+002
 6.8009179E+001, 5.5055617E-004, 1.4873099E-001, 1.1290711E-001, 1.8790268E-002, 6.1321905E-003, 5.2008502E-003, 4.9539296E+002
 6.9001361E+001, 5.7020087E-004, 1.4868949E-001, 1.1293445E-001, 1.8828982E-002, 5.9644957E-003, 5.2088214E-003, 4.9420898E+002
 7.0003118E+001, 5.6119812E-004, 1.4859758E-001, 1.1298186E-001, 1.8905773E-002, 5.8928038E-003, 5.2245582E-003, 4.9544842E+002
 7.1002951E+001, 5.4732617E-004, 1.4765406E-001, 1.1324910E-001, 1.9527450E-002, 6.1816094E-003, 5.3503836E-003, 4.9907924E+002
 7.2006171E+001, 5.9004910E-004, 1.4797232E-001, 1.1308290E-001, 1.9259782E-002, 6.3942580E-003, 5.2955139E-003, 4.9425420E+002
 7.3001203E+001, 5.9651141E-004, 1.4644675E-001, 1.1349512E-001, 2.0249466E-002, 6.8633597E-003, 5.4956366E-003, 4.9327641E+002
 7.4005794E+001, 5.9966412E-004, 1.4638311E-001, 1.1349885E-001, 2.0280554E-002, 6.9538676E-003, 5.5017989E-003, 4.9214390E+002
 7.5008176E+001, 5.8027869E-004, 1.4714885E-001, 1.1334413E-001, 1.9823394E-002, 6.4641631E-003, 5.4098388E-003, 4.9361789E+002
 7.6002861E+001, 6.4403180E-004, 1.4557144E-001, 1.1371186E-001, 2.0801611E-002, 7.0718212E-003, 5.6070935E-003, 4.9037223E+002
 7.7002671E+001, 6.2361103E-004, 1.4472018E-001, 1.1399104E-001, 2.1391315E-002, 7.1307579E-003, 5.7267927E-003, 4.9207782E+002
 7.8004350E+001, 5.8957771E-004, 1.4520221E-001, 1.1383806E-001, 2.1062072E-002, 7.2558513E-003, 5.6600165E-003, 4.9404382E+002
 7.9006768E+001, 6.4202682E-004, 1.4490088E-001, 1.1384427E-001, 2.1199978E-002, 7.5986823E-003, 5.6872013E-003, 4.9380167E+002
 8.0004922E+001, 6.3893078E-004, 1.4362007E-001, 1.1415848E-001, 2.2007027E-002, 8.2244227E-003, 5.8501038E-003, 4.9066389E+002
 8.1003440E+001, 6.9515581E-004, 1.4364620E-001, 1.1415156E-001, 2.1989159E-002, 7.9808074E-003, 5.8464785E-003, 4.9050101E+002
 8.2003895E+001, 7.1916762E-004, 1.4323134E-001, 1.1422640E-001, 2.2229824E-002, 8.2451990E-003, 5.8947967E-003, 4.8901203E+002
 8.3002494E+001, 7.3377730E-004, 1.4279501E-001, 1.1431850E-001, 2.2493223E-002, 8.4851528E-003, 5.9478190E-003, 4.8897385E+002
 8.4009371E+001, 7.8258220E-004, 1.4204178E-001, 1.1453283E-001, 2.2989172E-002, 8.4602187E-003, 6.0481920E-003, 4.8775275E+002
 8.5006050E+001, 7.1528819E-004, 1.4243380E-001, 1.1445435E-001, 2.2756719E-002, 8.4439975E-003, 6.0014552E-003, 4.9062837E+002
 8.6005943E+001, 7.0834122E-004, 1.4171012E-001, 1.1460304E-001, 2.3191088E-002, 8.9968706E-003, 6.0888618E-003, 4.9152054E+002
 8.7008649E+001, 7.3439184E-004, 1.4147302E-001, 1.1461430E-001, 2.3304677E-002, 9.2907798E-003, 6.1113410E-003, 4.9114519E+002
 8.8006886E+001, 7.3544509E-004, 1.4074494E-001, 1.1483101E-001, 2.3792089E-002, 9.4000184E-003, 6.2100832E-003, 4.8858665E+002
 8.9008411E+001, 7.4837972E-004, 1.4106029E-001, 1.1471592E-001, 2.3564746E-002, 9.4277166E-003, 6.1638356E-003, 4.9051685E+002
 9.0001966E+001, 7.3715383E-004, 1.4040872E-001, 1.1488927E-001, 2.3985659E-002, 9.7029757E-003, 6.2489264E-003, 4.8603346E+002
 9.1007814E+001, 7.8007499E-004, 1.4060749E-001, 1.1484797E-001, 2.3865260E-002, 9.3831144E-003, 6.2246837E-003, 4.8982853E+002
 9.2000274E+001, 7.8994006E-004, 1.4033977E-001, 1.1493496E-001, 2.4049809E-002, 9.3387894E-003, 6.2621333E-003, 4.9105206E+002
 9.3003181E+001, 8.1499414E-004, 1.3889204E-001, 1.1520564E-001, 2.4897890E-002, 1.0447584E-002, 6.4325147E-003, 4.8783125E+002
 9.4002424E+001, 7.6798522E-004, 1.3928801E-001, 1.1510511E-001, 2.4646716E-002, 1.0474797E-002, 6.3817953E-003, 4.8926563E+002
 9.5001279E+001, 7.8043233E-004, 1.3960641E-001, 1.1507865E-001, 2.4484768E-002, 9.9524125E-003, 6.3495901E-003, 4.8940861E+002
 9.6006499E+001, 7.8653519E-004, 1.3847379E-001, 1.1535524E-001, 2.5197328E-002, 1.0476702E-002, 6.4934058E-003, 4.8591338E+002
 9.7007680E+001, 7.5858635E-004, 1.3932858E-001, 1.1514622E-001, 2.4659777E-002, 1.0179980E-002, 6.3849152E-003, 4.8692229E+002
 9.8001015E+001, 7.3250193E-004, 1.3878463E-001, 1.1531277E-001, 2.5027911E-002, 1.0344901E-002, 6.4595413E-003, 4.8928220E+002
 9.9005801E+001, 7.9615131E-004, 1.3865811E-001, 1.1525120E-001, 2.5036724E-002, 1.0710835E-002, 6.4604313E-003, 4.8888710E+002
 1.0000991E+002, 7.4602457E-004, 1.3832501E-001, 1.1539328E-001, 2.5292972E-002, 1.0707130E-002, 6.5127361E-003, 4.9078989E+002
 1.0100822E+002, 7.3277473E-004, 1.3862297E-001, 1.1519435E-001, 2.5010711E-002, 1.1395051E-002, 6.4545792E-003, 4.9048363E+002
 1.0200279E+002, 7.7973557E-004, 1.3769778E-001, 1.1547151E-001, 2.5630588E-002, 1.1332804E-002, 6.5801622E-003, 4.8844110E+002
 1.0300259E+002, 7.7697062E-004, 1.3828813E-001, 1.1532489E-001, 2.5257323E-002, 1.1072977E-002, 6.5048028E-003, 4.8709278E+002
 1.0400398E+002, 7.8543436E-004, 1.3784279E-001, 1.1547656E-001, 2.5569705E-002, 1.0989441E-002, 6.5682544E-003, 4.8887564E+002
 1.0500984E+002, 8.4130244E-004, 1.3687956E-001, 1.1565905E-001, 2.6135066E-002, 1.1549057E-002, 6.6818508E-003, 4.8708268E+002
 1.0600067E+002, 8.6613401E-004, 1.3688423E-001, 1.1565160E-001, 2.6126925E-002, 1.1482218E-002, 6.6801420E-003, 4.8606234E+002
 1.0700302E+002, 8.3265112E-004, 1.3671751E-001, 1.1567286E-001, 2.6217788E-002, 1.1822458E-002, 6.6983058E-003, 4.8754185E+002
 1.0800237E+002, 7.7490797E-004, 1.3724283E-001, 1.1559774E-001, 2.5928331E-002, 1.1480535E-002, 6.6404001E-003, 4.8796986E+002
 1.0900993E+002, 7.7584872E-004, 1.3670446E-001, 1.1567770E-001, 2.6228275E-002, 1.2055260E-002, 6.7004520E-003, 4.8917099E+002
 1.1000797E+002, 7.6799638E-004, 1.3644957E-001, 1.1574814E-001, 2.6394975E-002, 1.2161187E-002, 6.7341768E-003, 4.8835034E+002
 1.1100306E+002, 7.8786772E-004, 1.3672544E-001, 1.1567800E-001, 2.6218947E-002, 1.1961566E-002, 6.6986175E-003, 4.8843264E+002
 1.1200540E+002, 7.8530669E-004, 1.3598866E-001, 1.1589912E-001, 2.6713616E-002, 1.2076010E-002, 6.7988470E-003, 4.8847226E+002
 1.1300577E+002, 7.6292299E-004, 1.3585670E-001, 1.1590585E-001, 2.6777850E-002, 1.2390405E-002, 6.8115764E-003, 4.8665929E+002
 1.1401035E+002, 7.8510466E-004, 1.3578949E-001, 1.1587434E-001, 2.6783647E-002, 1.2625859E-002, 6.8122887E-003, 4.8738797E+002
 1.1500614E+002, 8.1095396E-004, 1.3625036E-001, 1.1579511E-001, 2.6518280E-002, 1.2089228E-002, 6.7590371E-003, 4.8450543E+002
 1.1600625E+002, 8.0535858E-004, 1.3598709E-001, 1.1581816E-001, 2.6652977E-002, 1.2494403E-002, 6.7858354E-003, 4.8686088E+002
 1.1700590E+002, 8.1431719E-004, 1.3576413E-001, 1.1586186E-001, 2.6785009E-002, 1.2631501E-002, 6.8123800E-003, 4.8776247E+002
 1.1800587E+002, 8.2355282E-004, 1.3594059E-001, 1.1580677E-001, 2.6664772E-002, 1.2581303E-002, 6.7879969E-003, 4.8733073E+002
 1.1900109E+002, 8.0889063E-004, 1.3560579E-001, 1.1585959E-001, 2.6853910E-002, 1.2983202E-002, 6.8259013E-003, 4.8625385E+002
 1.2000906E+002, 7.4442363E-004, 1.3568701E-001, 1.1582893E-001, 2.6795826E-002, 1.3278988E-002, 6.8140921E-003, 4.8784553E+002
 1.2100605E+002, 7.6899560E-004, 1.3545327E-001, 1.1587520E-001, 2.6934313E-002, 1.3356681E-002, 6.8419351E-003, 4.8861607E+002
 1.2200878E+002, 8.0799696E-004, 1.3519569E-001, 1.1591360E-001, 2.7077221E-002, 1.3470197E-002, 6.8705374E-003, 4.8686769E+002
 1.2300816E+002, 7.8750003E-004, 1.3554567E-001, 1.1586395E-001, 2.6884355E-002, 1.3165038E-002, 6.8319541E-003, 4.8814906E+002
 1.2400850E+002, 7.9715410E-004, 1.3540037E-001, 1.1590648E-001, 2.6980910E-002, 1.3151955E-002, 6.8515061E-003, 4.8736253E+002
 1.2500156E+002, 8.2583532E-004, 1.3588650E-001, 1.1569168E-001, 2.6602143E-002, 1.3388537E-002, 6.7741446E-003, 4.8747910E+002
 1.2600869E+002, 8.3882830E-004, 1.3551759E-001, 1.1582852E-001, 2.6869236E-002, 1.3225429E-002, 6.8284906E-003, 4.8932634E+002
 1.2700399E+002, 8.1500554E-004, 1.3514826E-001, 1.1586854E-001, 2.7064283E-002, 1.3813002E-002, 6.8673897E-003, 4.8671547E+002
 1.2800764E+002, 7.9935474E-004, 1.3519005E-001, 1.1592813E-001, 2.7090835E-002, 1.3427869E-002, 6.8734115E-003, 4.8890317E+002
 1.2900045E+002, 8.8120921E-004, 1.3512743E-001, 1.1581048E-001, 2.7028626E-002, 1.3936359E-002, 6.8595806E-003, 4.8655975E+002
 1.3001027E+002, 8.6584451E-004, 1.3534512E-001, 1.1581679E-001, 2.6936718E-002, 1.3528293E-002, 6.8415959E-003, 4.8809292E+002
 1.3100820E+002, 8.2657286E-004, 1.3506144E-001, 1.1588951E-001, 2.7118528E-002, 1.3808348E-002, 6.8783331E-003, 4.8713195E+002
 1.3200699E+002, 8.2926186E-004, 1.3514660E-001, 1.1588242E-001, 2.7075216E-002, 1.3671401E-002, 6.8697200E-003, 4.8995166E+002
 1.3300063E+002, 8.5891305E-004, 1.3503568E-001, 1.1586831E-001, 2.7113440E-002, 1.3855546E-002, 6.8770386E-003, 4.8783362E+002
 1.3400028E+002, 8.3493748E-004, 1.3464548E-001, 1.1593137E-001, 2.7335131E-002, 1.4343300E-002, 6.9214848E-003, 4.8825335E+002
 1.3500126E+002, 8.1282968E-004, 1.3501509E-001, 1.1588186E-001, 2.7133652E-002, 1.4005015E-002, 6.8812099E-003, 4.8796215E+002
 1.3600329E+002, 7.8583544E-004, 1.3505878E-001, 1.1584858E-001, 2.7089630E-002, 1.4235504E-002, 6.8721183E-003, 4.8794637E+002
 1.3700016E+002, 7.9097681E-004, 1.3524416E-001, 1.1576172E-001, 2.6941565E-002, 1.4380407E-002, 6.8418400E-003, 4.8737468E+002
 1.3800065E+002, 7.9558997E-004, 1.3530197E-001, 1.1578144E-001, 2.6930593E-002, 1.4124624E-002, 6.8399439E-003, 4.8783082E+002
 1.3900631E+002, 8.1912240E-004, 1.3521733E-001, 1.1577303E-001, 2.6961515E-002, 1.4246867E-002, 6.8459045E-003, 4.8781920E+002
 1.4000473E+002, 8.1423682E-004, 1.3502912E-001, 1.1582181E-001, 2.7082158E-002, 1.4341154E-002, 6.8702820E-003, 4.8793318E+002
 1.4100776E+002, 8.0472436E-004, 1.3482620E-001, 1.1581517E-001, 2.7167691E-002, 1.4825500E-002, 6.8870174E-003, 4.8941331E+002
 1.4200620E+002, 7.7766317E-004, 1.3528041E-001, 1.1572511E-001, 2.6898098E-002, 1.4589238E-002, 6.8328085E-003, 4.8983951E+002
 1.4300031E+002, 7.7629614E-004, 1.3537662E-001, 1.1569733E-001, 2.6834356E-002, 1.4574645E-002, 6.8199032E-003, 4.8787775E+002
 1.4400054E+002, 7.4152014E-004, 1.3530783E-001, 1.1574224E-001, 2.6899442E-002, 1.4579717E-002, 6.8333136E-003, 4.9069514E+002
 1.4501057E+002, 7.4766538E-004, 1.3554639E-001, 1.1566090E-001, 2.6731840E-002, 1.4580576E-002, 6.7992666E-003, 4.8839930E+002
 1.4600847E+002, 7.6660428E-004, 1.3591864E-001, 1.1553916E-001, 2.6474046E-002, 1.4510954E-002, 6.7469398E-003, 4.8854124E+002
 1.4700670E+002, 7.9075293E-004, 1.3565675E-001, 1.1560822E-001, 2.6642241E-002, 1.4506001E-002, 6.7809293E-003, 4.8823138E+002
 1.4800131E+002, 8.1034650E-004, 1.3580501E-001, 1.1550044E-001, 2.6494690E-002, 1.4793417E-002, 6.7504682E-003, 4.8710753E+002
 1.4901048E+002, 7.8388418E-004, 1.3537138E-001, 1.1564021E-001, 2.6793532E-002, 1.4905378E-002, 6.8111105E-003, 4.8943294E+002
 1.5000252E+002, 8.0753077E-004, 1.3525344E-001, 1.1567828E-001, 2.6874291E-002, 1.4807031E-002, 6.8274919E-003, 4.8899729E+002
 1.5100070E+002, 7.6568764E-004, 1.3604343E-001, 1.1548413E-001, 2.6377046E-002, 1.4605534E-002, 6.7271306E-003, 4.9069982E+002
 1.5201012E+002, 8.0657357E-004, 1.3540394E-001, 1.1559634E-001, 2.6745580E-002, 1.5016345E-002, 6.8010877E-003, 4.8933734E+002
 1.5300574E+002, 8.2775414E-004, 1.3564838E-001, 1.1551665E-001, 2.6576325E-002, 1.4932732E-002, 6.7667325E-003, 4.8835291E+002
 1.5400737E+002, 8.1289316E-004, 1.3579750E-001, 1.1541976E-001, 2.6437221E-002, 1.5294828E-002, 6.7380897E-003, 4.8755890E+002
