s,,,,,,,
Time,"O2 EXHAUST","CO2 EXHAUST","H2O EXHAUST","CO EXHAUST","FUEL EXHAUST","SOOT EXHAUST","TEMP EXHAUST"
 0.0000000E+000, 2.3099739E-001, 5.9146498E-004, 5.9412091E-003, 0.0000000E+000, 0.0000000E+000, 0.0000000E+000, 2.0000000E+001
 1.0045936E+000, 2.3099739E-001, 5.9146498E-004, 5.9412091E-003, 2.9291721E-028, 2.0290231E-027, 8.8030957E-029, 2.1188497E+001
 2.0034901E+000, 2.1967042E-001, 9.7262127E-003, 1.1708506E-002, 7.4387338E-005, 2.8639624E-004, 5.3927681E-005, 1.2878210E+002
 3.0044562E+000, 2.1015259E-001, 1.7456400E-002, 1.6566313E-002, 1.2070585E-004, 3.5930531E-004, 9.5964578E-005, 2.1131628E+002
 4.0012357E+000, 2.0024958E-001, 2.5575595E-002, 2.1607756E-002, 1.2624331E-004, 3.4704661E-004, 1.3078859E-004, 2.9361845E+002
 5.0049621E+000, 1.9700426E-001, 2.8244833E-002, 2.3255626E-002, 1.2137624E-004, 3.4729640E-004, 1.4079024E-004, 3.1791870E+002
 6.0066214E+000, 1.8385663E-001, 3.9132370E-002, 2.9938790E-002, 7.3854366E-005, 1.6406244E-004, 1.7559861E-004, 3.9868490E+002
 7.0036253E+000, 1.7456190E-001, 4.6816486E-002, 3.4662868E-002, 4.5552436E-005, 6.3284748E-005, 2.0129871E-004, 4.4690681E+002
 8.0030529E+000, 1.6334799E-001, 5.6049826E-002, 4.0365424E-002, 3.0084118E-005, 1.5707271E-006, 2.3619187E-004, 4.8426795E+002
 9.0055527E+000, 1.5211604E-001, 6.5258352E-002, 4.6080949E-002, 3.4786917E-005, 4.0348557E-007, 2.7534681E-004, 5.1739218E+002
 1.0006935E+001, 1.4144685E-001, 7.4005163E-002, 5.1510026E-002, 3.9348445E-005, 3.9940612E-007, 3.1255899E-004, 5.3698402E+002
 1.1005585E+001, 1.2986638E-001, 8.3497255E-002, 5.7403283E-002, 4.5420184E-005, 1.6323909E-006, 3.5318454E-004, 5.6245169E+002
 1.2006257E+001, 1.2183843E-001, 9.0078266E-002, 6.1488407E-002, 4.9095868E-005, 2.2355523E-006, 3.8123531E-004, 5.6787195E+002
 1.3007160E+001, 1.0964548E-001, 1.0007304E-001, 6.7693063E-002, 5.5000955E-005, 3.6779655E-006, 4.2390667E-004, 5.8544317E+002
 1.4009541E+001, 1.0504936E-001, 1.0384212E-001, 7.0031693E-002, 5.6393344E-005, 2.1408797E-006, 4.3981770E-004, 5.8112311E+002
 1.5004550E+001, 9.6935350E-002, 1.1049508E-001, 7.4160330E-002, 5.9292953E-005, 1.3631409E-006, 4.6799854E-004, 5.8619193E+002
 1.6000126E+001, 8.9569102E-002, 1.1650953E-001, 7.7913087E-002, 7.6341501E-005, 2.8608200E-005, 4.9659643E-004, 5.9677500E+002
 1.7001220E+001, 8.6275590E-002, 1.1906502E-001, 7.9618474E-002, 1.6205377E-004, 1.7150854E-004, 5.2572589E-004, 5.8026481E+002
 1.8005743E+001, 8.2203298E-002, 1.2233248E-001, 8.1697201E-002, 1.9979331E-004, 2.8164305E-004, 5.4742412E-004, 5.8220705E+002
 1.9005024E+001, 7.7950084E-002, 1.2560115E-001, 8.3905306E-002, 3.2839014E-004, 5.0040118E-004, 5.8878638E-004, 5.7904544E+002
 2.0002497E+001, 7.7029376E-002, 1.2589124E-001, 8.4450317E-002, 5.8728942E-004, 1.0507719E-003, 6.4600697E-004, 5.6075962E+002
 2.1004887E+001, 7.3416803E-002, 1.2837650E-001, 8.6352312E-002, 8.4378054E-004, 1.6886236E-003, 7.1179808E-004, 5.6821629E+002
 2.2004234E+001, 7.3347204E-002, 1.2824986E-001, 8.6415902E-002, 9.4458008E-004, 1.9165189E-003, 7.3308408E-004, 5.4471821E+002
 2.3006545E+001, 7.1563650E-002, 1.2925848E-001, 8.7412408E-002, 1.2073950E-003, 2.3822392E-003, 7.9412749E-004, 5.4104427E+002
 2.4006208E+001, 7.0245189E-002, 1.3005573E-001, 8.8104002E-002, 1.3479661E-003, 2.8484020E-003, 8.2784573E-004, 5.3514778E+002
 2.5005769E+001, 6.8106194E-002, 1.3092750E-001, 8.9373830E-002, 1.8641539E-003, 3.7113418E-003, 9.4314543E-004, 5.3370670E+002
 2.6001358E+001, 6.7478453E-002, 1.3108007E-001, 8.9693931E-002, 2.0255448E-003, 4.4352593E-003, 9.7869909E-004, 5.2346551E+002
 2.7002323E+001, 6.5366501E-002, 1.3196018E-001, 9.0884089E-002, 2.4831370E-003, 5.5669845E-003, 1.0813557E-003, 5.2843385E+002
 2.8007267E+001, 6.5273467E-002, 1.3229485E-001, 9.0905133E-002, 2.3505404E-003, 5.1796185E-003, 1.0540510E-003, 5.1854357E+002
 2.9005116E+001, 6.5066262E-002, 1.3202656E-001, 9.1091584E-002, 2.6004315E-003, 5.6540581E-003, 1.1070097E-003, 5.1321760E+002
 3.0008682E+001, 6.3896035E-002, 1.3232028E-001, 9.1760323E-002, 2.9463829E-003, 6.6242685E-003, 1.1830818E-003, 5.1704975E+002
 3.1002714E+001, 6.3675124E-002, 1.3234294E-001, 9.1916851E-002, 3.0469388E-003, 6.7216187E-003, 1.2049331E-003, 4.9995384E+002
 3.2001657E+001, 6.2784910E-002, 1.3251173E-001, 9.2404084E-002, 3.3196724E-003, 7.6770627E-003, 1.2646456E-003, 4.9636336E+002
 3.3004334E+001, 6.2681124E-002, 1.3253859E-001, 9.2455348E-002, 3.3444978E-003, 7.8017763E-003, 1.2701286E-003, 4.9601094E+002
 3.4004663E+001, 6.1642051E-002, 1.3267013E-001, 9.3049767E-002, 3.7094634E-003, 8.9197426E-003, 1.3496434E-003, 4.9754885E+002
 3.5001344E+001, 6.1188354E-002, 1.3218250E-001, 9.3397141E-002, 4.1707171E-003, 1.0062920E-002, 1.4474278E-003, 4.9482628E+002
 3.6008419E+001, 6.1266835E-002, 1.3203788E-001, 9.3376838E-002, 4.2197286E-003, 1.0125878E-002, 1.4574335E-003, 4.8480986E+002
 3.7007307E+001, 6.0515943E-002, 1.3201853E-001, 9.3833128E-002, 4.5525123E-003, 1.1029738E-002, 1.5293597E-003, 4.8051081E+002
 3.8008470E+001, 6.0198855E-002, 1.3250001E-001, 9.3921581E-002, 4.4045204E-003, 1.0949816E-002, 1.4993328E-003, 4.8119447E+002
 3.9007612E+001, 5.9903040E-002, 1.3179568E-001, 9.4144220E-002, 4.8740899E-003, 1.2490629E-002, 1.5980199E-003, 4.8056707E+002
 4.0000025E+001, 5.9578665E-002, 1.3168186E-001, 9.4370599E-002, 5.0846505E-003, 1.2946361E-002, 1.6431084E-003, 4.7875811E+002
 4.1003008E+001, 5.9483535E-002, 1.3188447E-001, 9.4336210E-002, 4.9728042E-003, 1.3110673E-002, 1.6197479E-003, 4.7718993E+002
 4.2007267E+001, 5.9014411E-002, 1.3168872E-001, 9.4714213E-002, 5.3257254E-003, 1.3578883E-002, 1.6952996E-003, 4.7616931E+002
 4.3000357E+001, 5.8591928E-002, 1.3142708E-001, 9.4949844E-002, 5.6098151E-003, 1.4696781E-002, 1.7556870E-003, 4.7379507E+002
 4.4009805E+001, 5.8752785E-002, 1.3143746E-001, 9.4801246E-002, 5.5010030E-003, 1.4745276E-002, 1.7321865E-003, 4.7012245E+002
 4.5001288E+001, 5.8654414E-002, 1.3094677E-001, 9.4931768E-002, 5.8095683E-003, 1.5489970E-002, 1.7969201E-003, 4.6682190E+002
 4.6003037E+001, 5.8171853E-002, 1.3095217E-001, 9.5222369E-002, 6.0137168E-003, 1.6048203E-002, 1.8411153E-003, 4.6435026E+002
 4.7003890E+001, 5.7991069E-002, 1.3073359E-001, 9.5325238E-002, 6.1839897E-003, 1.6730519E-002, 1.8770535E-003, 4.6326029E+002
 4.8008751E+001, 5.7807422E-002, 1.3056230E-001, 9.5369102E-002, 6.2929970E-003, 1.7625338E-002, 1.8999321E-003, 4.6620305E+002
 4.9000093E+001, 5.7638857E-002, 1.3057246E-001, 9.5485781E-002, 6.3710010E-003, 1.7727743E-002, 1.9168521E-003, 4.6019127E+002
 5.0006240E+001, 5.7612984E-002, 1.3038617E-001, 9.5476577E-002, 6.4478019E-003, 1.8256578E-002, 1.9326992E-003, 4.5876758E+002
 5.1005426E+001, 5.7350372E-002, 1.3012594E-001, 9.5627127E-002, 6.6704878E-003, 1.9127045E-002, 1.9798060E-003, 4.5990113E+002
 5.2007514E+001, 5.7654308E-002, 1.2975583E-001, 9.5467935E-002, 6.7209278E-003, 1.9392680E-002, 1.9891875E-003, 4.5849981E+002
 5.3008155E+001, 5.7425005E-002, 1.2972382E-001, 9.5601752E-002, 6.8303574E-003, 1.9748778E-002, 2.0127330E-003, 4.5286947E+002
 5.4006084E+001, 5.7753346E-002, 1.2909287E-001, 9.5444524E-002, 6.9974849E-003, 2.0426150E-002, 2.0462827E-003, 4.5598179E+002
 5.5002446E+001, 5.7203979E-002, 1.2934292E-001, 9.5741083E-002, 7.0982372E-003, 2.0743354E-002, 2.0691188E-003, 4.5727880E+002
 5.6002995E+001, 5.7385348E-002, 1.2891928E-001, 9.5606505E-002, 7.1912681E-003, 2.1507427E-002, 2.0874952E-003, 4.5119030E+002
 5.7006721E+001, 5.7425220E-002, 1.2868919E-001, 9.5512373E-002, 7.2283804E-003, 2.2273760E-002, 2.0945741E-003, 4.4740758E+002
 5.8001171E+001, 5.7200635E-002, 1.2873384E-001, 9.5626190E-002, 7.2900460E-003, 2.2556229E-002, 2.1081023E-003, 4.5000172E+002
 5.9011517E+001, 5.7155915E-002, 1.2825967E-001, 9.5726199E-002, 7.5695417E-003, 2.3195465E-002, 2.1666143E-003, 4.4925399E+002
 6.0001988E+001, 5.7180129E-002, 1.2841486E-001, 9.5610794E-002, 7.4214069E-003, 2.3360094E-002, 2.1352056E-003, 4.5027115E+002
 6.1006268E+001, 5.7194649E-002, 1.2818159E-001, 9.5581236E-002, 7.5044791E-003, 2.3915786E-002, 2.1522151E-003, 4.5144986E+002
 6.2008961E+001, 5.7397808E-002, 1.2799199E-001, 9.5349962E-002, 7.4272110E-003, 2.4602583E-002, 2.1347131E-003, 4.4219133E+002
 6.3007976E+001, 5.7190250E-002, 1.2819510E-001, 9.5506743E-002, 7.4476470E-003, 2.4280169E-002, 2.1399753E-003, 4.4407972E+002
 6.4002915E+001, 5.7327685E-002, 1.2778718E-001, 9.5395883E-002, 7.5506289E-003, 2.5078176E-002, 2.1605699E-003, 4.4685569E+002
 6.5000483E+001, 5.7056613E-002, 1.2757416E-001, 9.5436982E-002, 7.6777030E-003, 2.6437436E-002, 2.1871859E-003, 4.5074412E+002
 6.6003145E+001, 5.7228917E-002, 1.2752132E-001, 9.5287474E-002, 7.5961348E-003, 2.6569465E-002, 2.1693186E-003, 4.4480521E+002
 6.7002918E+001, 5.7413670E-002, 1.2733748E-001, 9.5116051E-002, 7.5575182E-003, 2.7022174E-002, 2.1602029E-003, 4.4712454E+002
 6.8004864E+001, 5.7484961E-002, 1.2694031E-001, 9.5058408E-002, 7.6931921E-003, 2.7809569E-002, 2.1879156E-003, 4.4336403E+002
 6.9000115E+001, 5.7542632E-002, 1.2701636E-001, 9.5008590E-002, 7.6244507E-003, 2.7664366E-002, 2.1733566E-003, 4.4532490E+002
 7.0005393E+001, 5.7437180E-002, 1.2686300E-001, 9.4963115E-002, 7.6631565E-003, 2.8642538E-002, 2.1810986E-003, 4.4138096E+002
 7.1004533E+001, 5.7805541E-002, 1.2643211E-001, 9.4708478E-002, 7.6742732E-003, 2.9237963E-002, 2.1817209E-003, 4.3917994E+002
 7.2010482E+001, 5.7402330E-002, 1.2664298E-001, 9.4881141E-002, 7.7053382E-003, 2.9641221E-002, 2.1893167E-003, 4.4509118E+002
 7.3001012E+001, 5.7767409E-002, 1.2646389E-001, 9.4718522E-002, 7.6676628E-003, 2.9283803E-002, 2.1804223E-003, 4.4109242E+002
 7.4004489E+001, 5.7818918E-002, 1.2619374E-001, 9.4543149E-002, 7.6668364E-003, 3.0488630E-002, 2.1791276E-003, 4.3844756E+002
 7.5007512E+001, 5.7755361E-002, 1.2611443E-001, 9.4618900E-002, 7.7548450E-003, 3.0535207E-002, 2.1978416E-003, 4.3906864E+002
 7.6003306E+001, 5.8055446E-002, 1.2574450E-001, 9.4381753E-002, 7.7519902E-003, 3.1207033E-002, 2.1956935E-003, 4.3695188E+002
 7.7006641E+001, 5.8080765E-002, 1.2573689E-001, 9.4377168E-002, 7.7518144E-003, 3.1139047E-002, 2.1956238E-003, 4.3818924E+002
 7.8005642E+001, 5.8253889E-002, 1.2540759E-001, 9.4174446E-002, 7.7565441E-003, 3.2089475E-002, 2.1952856E-003, 4.3981572E+002
 7.9000492E+001, 5.8377349E-002, 1.2528180E-001, 9.4039831E-002, 7.7183294E-003, 3.2498363E-002, 2.1864972E-003, 4.3606073E+002
 8.0005857E+001, 5.8509732E-002, 1.2518501E-001, 9.3956541E-002, 7.7021792E-003, 3.2554543E-002, 2.1826021E-003, 4.3518671E+002
 8.1008820E+001, 5.8563742E-002, 1.2508697E-001, 9.3846630E-002, 7.6696764E-003, 3.3075326E-002, 2.1751647E-003, 4.3520672E+002
 8.2006279E+001, 5.8494225E-002, 1.2498096E-001, 9.3888545E-002, 7.7465105E-003, 3.3370007E-002, 2.1913509E-003, 4.3402634E+002
 8.3003539E+001, 5.8854953E-002, 1.2453885E-001, 9.3637478E-002, 7.7651695E-003, 3.4002106E-002, 2.1935587E-003, 4.3470530E+002
 8.4009912E+001, 5.8675634E-002, 1.2497124E-001, 9.3686902E-002, 7.6100288E-003, 3.3638315E-002, 2.1617809E-003, 4.3262804E+002
 8.5001437E+001, 5.8706733E-002, 1.2465806E-001, 9.3669012E-002, 7.7362609E-003, 3.4226531E-002, 2.1877980E-003, 4.3547677E+002
 8.6009044E+001, 5.9147506E-002, 1.2433232E-001, 9.3313760E-002, 7.6307636E-003, 3.4810844E-002, 2.1636240E-003, 4.3517575E+002
 8.7003836E+001, 5.8981911E-002, 1.2433010E-001, 9.3378798E-002, 7.6789214E-003, 3.5184285E-002, 2.1740356E-003, 4.3482268E+002
 8.8003679E+001, 5.9295139E-002, 1.2396327E-001, 9.3143486E-002, 7.6757279E-003, 3.5785555E-002, 2.1718268E-003, 4.3417569E+002
 8.9008162E+001, 5.9406109E-002, 1.2402469E-001, 9.3112681E-002, 7.6255914E-003, 3.5350901E-002, 2.1612322E-003, 4.3383545E+002
 9.0010961E+001, 5.9141098E-002, 1.2397513E-001, 9.3186773E-002, 7.7025796E-003, 3.6191157E-002, 2.1776869E-003, 4.3484110E+002
 9.1010106E+001, 5.9560596E-002, 1.2376292E-001, 9.2878463E-002, 7.5791377E-003, 3.6401603E-002, 2.1500995E-003, 4.3271228E+002
 9.2008994E+001, 5.9741778E-002, 1.2349429E-001, 9.2855382E-002, 7.6795848E-003, 3.6296705E-002, 2.1707203E-003, 4.3066548E+002
 9.3009993E+001, 5.9793189E-002, 1.2329964E-001, 9.2734618E-002, 7.6825804E-003, 3.7076811E-002, 2.1705642E-003, 4.3033819E+002
 9.4008300E+001, 5.9917769E-002, 1.2329374E-001, 9.2559197E-002, 7.5632577E-003, 3.7444536E-002, 2.1447230E-003, 4.3072592E+002
 9.5000357E+001, 5.9822670E-002, 1.2317145E-001, 9.2650364E-002, 7.6813958E-003, 3.7632574E-002, 2.1697784E-003, 4.3219320E+002
 9.6005929E+001, 5.9690371E-002, 1.2330185E-001, 9.2624003E-002, 7.6076920E-003, 3.8057668E-002, 2.1543722E-003, 4.3152940E+002
 9.7003666E+001, 5.9885171E-002, 1.2319590E-001, 9.2539040E-002, 7.5934326E-003, 3.7878761E-002, 2.1508477E-003, 4.2704600E+002
 9.8008123E+001, 5.9957975E-002, 1.2302360E-001, 9.2448815E-002, 7.6070320E-003, 3.8371301E-002, 2.1530778E-003, 4.3164347E+002
 9.9009975E+001, 6.0004612E-002, 1.2287258E-001, 9.2301486E-002, 7.5725857E-003, 3.9216810E-002, 2.1450013E-003, 4.3079851E+002
 1.0000093E+002, 5.9876060E-002, 1.2298672E-001, 9.2431047E-002, 7.6125967E-003, 3.8877987E-002, 2.1541304E-003, 4.2901535E+002
 1.0100943E+002, 6.0021193E-002, 1.2288686E-001, 9.2272667E-002, 7.5462824E-003, 3.9262908E-002, 2.1393693E-003, 4.2880687E+002
 1.0200431E+002, 6.0230998E-002, 1.2277107E-001, 9.2054313E-002, 7.4449777E-003, 3.9708830E-002, 2.1169717E-003, 4.2864278E+002
 1.0300444E+002, 6.0007554E-002, 1.2275151E-001, 9.2243478E-002, 7.5866174E-003, 3.9738178E-002, 2.1475372E-003, 4.2964158E+002
 1.0400983E+002, 6.0058111E-002, 1.2249598E-001, 9.2169541E-002, 7.6486407E-003, 4.0409629E-002, 2.1599005E-003, 4.3066856E+002
 1.0500465E+002, 6.0306591E-002, 1.2242281E-001, 9.1995910E-002, 7.5583592E-003, 4.0383755E-002, 2.1400633E-003, 4.3002728E+002
 1.0600427E+002, 6.0223252E-002, 1.2233442E-001, 9.2029018E-002, 7.6215802E-003, 4.0745119E-002, 2.1533772E-003, 4.2838706E+002
 1.0700566E+002, 6.0256390E-002, 1.2249259E-001, 9.1979463E-002, 7.5169771E-003, 4.0536542E-002, 2.1313989E-003, 4.2881076E+002
 1.0800224E+002, 6.0376382E-002, 1.2207704E-001, 9.1889994E-002, 7.6382574E-003, 4.1315951E-002, 2.1559211E-003, 4.2918568E+002
 1.0901026E+002, 6.0341731E-002, 1.2212734E-001, 9.1880944E-002, 7.6103188E-003, 4.1405586E-002, 2.1500846E-003, 4.3159503E+002
 1.1000076E+002, 6.0564039E-002, 1.2187908E-001, 9.1714284E-002, 7.6029263E-003, 4.1806293E-002, 2.1474578E-003, 4.2514563E+002
 1.1101170E+002, 6.0411412E-002, 1.2229290E-001, 9.1892849E-002, 7.5438465E-003, 4.0721102E-002, 2.1363860E-003, 4.2784239E+002
 1.1200920E+002, 6.0441471E-002, 1.2211284E-001, 9.1710211E-002, 7.4984287E-003, 4.1871324E-002, 2.1258161E-003, 4.2907040E+002
 1.1300038E+002, 6.0262509E-002, 1.2212881E-001, 9.1843851E-002, 7.5856201E-003, 4.1920741E-002, 2.1447479E-003, 4.2849043E+002
 1.1400863E+002, 6.0278792E-002, 1.2207205E-001, 9.1854742E-002, 7.6179847E-003, 4.1911918E-002, 2.1515154E-003, 4.2688955E+002
 1.1500963E+002, 6.0146823E-002, 1.2209930E-001, 9.1974671E-002, 7.6900276E-003, 4.1810207E-002, 2.1672159E-003, 4.2831450E+002
 1.1600359E+002, 6.0265836E-002, 1.2193625E-001, 9.1854507E-002, 7.6782954E-003, 4.2240225E-002, 2.1640032E-003, 4.2804370E+002
 1.1700471E+002, 6.0597981E-002, 1.2154443E-001, 9.1596818E-002, 7.6705857E-003, 4.2924388E-002, 2.1607140E-003, 4.2618794E+002
 1.1800201E+002, 6.0346345E-002, 1.2147294E-001, 9.1816435E-002, 7.8565444E-003, 4.3023803E-002, 2.2006539E-003, 4.2304677E+002
 1.1900176E+002, 6.0277275E-002, 1.2174885E-001, 9.1824396E-002, 7.7406845E-003, 4.2719458E-002, 2.1767274E-003, 4.2602404E+002
 1.2000157E+002, 6.0589638E-002, 1.2121464E-001, 9.1643013E-002, 7.8486377E-003, 4.3390497E-002, 2.1978743E-003, 4.2511302E+002
 1.2100144E+002, 6.0511868E-002, 1.2155483E-001, 9.1739329E-002, 7.7647834E-003, 4.2551052E-002, 2.1811377E-003, 4.2487215E+002
 1.2200106E+002, 6.0604615E-002, 1.2119150E-001, 9.1618417E-002, 7.8418480E-003, 4.3497320E-002, 2.1963096E-003, 4.2861656E+002
 1.2300150E+002, 6.0412849E-002, 1.2137535E-001, 9.1637033E-002, 7.7761438E-003, 4.3839281E-002, 2.1828555E-003, 4.2605469E+002
 1.2400331E+002, 6.0484861E-002, 1.2123692E-001, 9.1643924E-002, 7.8410974E-003, 4.3780735E-002, 2.1963360E-003, 4.2571374E+002
 1.2500524E+002, 6.0330134E-002, 1.2145008E-001, 9.1723648E-002, 7.8035402E-003, 4.3602406E-002, 2.1890922E-003, 4.2903279E+002
 1.2601002E+002, 6.0629581E-002, 1.2094107E-001, 9.1525889E-002, 7.8893270E-003, 4.4359009E-002, 2.2055476E-003, 4.2208412E+002
 1.2700210E+002, 6.0147510E-002, 1.2149377E-001, 9.1828312E-002, 7.8586865E-003, 4.3756615E-002, 2.2012055E-003, 4.2711914E+002
 1.2800118E+002, 6.0367078E-002, 1.2105129E-001, 9.1620364E-002, 7.9093012E-003, 4.4765707E-002, 2.2103269E-003, 4.2617112E+002
 1.2900964E+002, 6.0471575E-002, 1.2114191E-001, 9.1597434E-002, 7.8517032E-003, 4.4260150E-002, 2.1982385E-003, 4.2358904E+002
 1.3000191E+002, 6.0328952E-002, 1.2109846E-001, 9.1688772E-002, 7.9357509E-003, 4.4488314E-002, 2.2162444E-003, 4.2678051E+002
 1.3100500E+002, 6.0393693E-002, 1.2116705E-001, 9.1648935E-002, 7.8770263E-003, 4.4278453E-002, 2.2038218E-003, 4.2728310E+002
 1.3200981E+002, 6.0735057E-002, 1.2056499E-001, 9.1378707E-002, 7.9538844E-003, 4.5409039E-002, 2.2179609E-003, 4.2561962E+002
 1.3300143E+002, 6.0571840E-002, 1.2070927E-001, 9.1511044E-002, 7.9829912E-003, 4.5141207E-002, 2.2248555E-003, 4.2619887E+002
 1.3400459E+002, 6.0595511E-002, 1.2083654E-001, 9.1556043E-002, 7.9568812E-003, 4.4560895E-002, 2.2197318E-003, 4.2543221E+002
 1.3500567E+002, 6.0604692E-002, 1.2067299E-001, 9.1499925E-002, 7.9909518E-003, 4.5131948E-002, 2.2264277E-003, 4.2513173E+002
 1.3600903E+002, 6.0676520E-002, 1.2049205E-001, 9.1451294E-002, 8.0368254E-003, 4.5437622E-002, 2.2356047E-003, 4.2631364E+002
 1.3701118E+002, 6.0316287E-002, 1.2075718E-001, 9.1624798E-002, 8.0436764E-003, 4.5547355E-002, 2.2381854E-003, 4.2803760E+002
 1.3801013E+002, 6.0452119E-002, 1.2054330E-001, 9.1544752E-002, 8.0816465E-003, 4.5808027E-002, 2.2455158E-003, 4.2596943E+002
 1.3900852E+002, 6.0516981E-002, 1.2062182E-001, 9.1520639E-002, 8.0292583E-003, 4.5498958E-002, 2.2345050E-003, 4.2571951E+002
 1.4001030E+002, 6.0207018E-002, 1.2076989E-001, 9.1655534E-002, 8.0608395E-003, 4.5826294E-002, 2.2419523E-003, 4.2835648E+002
 1.4101102E+002, 6.0467076E-002, 1.2056940E-001, 9.1486640E-002, 8.0300997E-003, 4.5983861E-002, 2.2344712E-003, 4.2783947E+002
 1.4200826E+002, 6.0620033E-002, 1.2054438E-001, 9.1447167E-002, 8.0117136E-003, 4.5590145E-002, 2.2303884E-003, 4.2527848E+002
 1.4300820E+002, 6.0976430E-002, 1.2011844E-001, 9.1209187E-002, 8.0322117E-003, 4.6142391E-002, 2.2330609E-003, 4.2283653E+002
 1.4400209E+002, 6.0305514E-002, 1.2056901E-001, 9.1667242E-002, 8.1563647E-003, 4.5757992E-002, 2.2617888E-003, 4.2869150E+002
 1.4501069E+002, 6.0602490E-002, 1.2042063E-001, 9.1461770E-002, 8.0768926E-003, 4.5839178E-002, 2.2439792E-003, 4.2376890E+002
 1.4601074E+002, 6.0354399E-002, 1.2041568E-001, 9.1565627E-002, 8.1541479E-003, 4.6369772E-002, 2.2606757E-003, 4.2675521E+002
 1.4700809E+002, 6.0516220E-002, 1.2039644E-001, 9.1578617E-002, 8.1689065E-003, 4.5664524E-002, 2.2637876E-003, 4.2466509E+002
 1.4801156E+002, 6.0143614E-002, 1.2070905E-001, 9.1759562E-002, 8.1599784E-003, 4.5693527E-002, 2.2631506E-003, 4.2610029E+002
 1.4900236E+002, 6.0348128E-002, 1.2028083E-001, 9.1607672E-002, 8.2428265E-003, 4.6456400E-002, 2.2793047E-003, 4.2477337E+002
 1.5000692E+002, 6.0165821E-002, 1.2048886E-001, 9.1650499E-002, 8.1827818E-003, 4.6588843E-002, 2.2671748E-003, 4.2536361E+002
 1.5100471E+002, 6.0280930E-002, 1.2029944E-001, 9.1646543E-002, 8.2622427E-003, 4.6506272E-002, 2.2835829E-003, 4.2341354E+002
 1.5200901E+002, 6.0459287E-002, 1.2010786E-001, 9.1602338E-002, 8.3141081E-003, 4.6364235E-002, 2.2940113E-003, 4.2540034E+002
 1.5300106E+002, 6.0203072E-002, 1.2036530E-001, 9.1705891E-002, 8.2748572E-003, 4.6403380E-002, 2.2865849E-003, 4.2683667E+002
 1.5400131E+002, 6.0488385E-002, 1.2003339E-001, 9.1561076E-002, 8.3184761E-003, 4.6598397E-002, 2.2946485E-003, 4.2432615E+002
