s,,,,,,,
Time,"O2 EXHAUST","CO2 EXHAUST","H2O EXHAUST","CO EXHAUST","FUEL EXHAUST","SOOT EXHAUST","TEMP EXHAUST"
 0.0000000E+000, 2.3099739E-001, 5.9146498E-004, 5.9412091E-003, 0.0000000E+000, 0.0000000E+000, 0.0000000E+000, 2.0000000E+001
 1.0024569E+000, 2.3099739E-001, 5.9146498E-004, 5.9412091E-003, 4.4053011E-032, 2.2510196E-031, 5.0039544E-032, 2.0343806E+001
 2.0011169E+000, 2.2384551E-001, 7.2592975E-003, 7.8331859E-003, 2.0896587E-005, 9.8228711E-005, 4.4296477E-004, 8.6852232E+001
 3.0019327E+000, 2.2154437E-001, 9.3902977E-003, 8.4468571E-003, 4.4361623E-005, 1.0869209E-004, 5.8816542E-004, 1.0481276E+002
 4.0010745E+000, 2.1867155E-001, 1.2066609E-002, 9.2087089E-003, 5.7239618E-005, 1.3431098E-004, 7.6693229E-004, 1.3266755E+002
 5.0056884E+000, 2.1547571E-001, 1.5025992E-002, 1.0058728E-002, 8.5894034E-005, 1.7016075E-004, 9.6772661E-004, 1.5983882E+002
 6.0063325E+000, 2.1316437E-001, 1.7173491E-002, 1.0672467E-002, 1.0083009E-004, 1.9326402E-004, 1.1121670E-003, 1.7923569E+002
 7.0023857E+000, 2.1009717E-001, 2.0024447E-002, 1.1486864E-002, 1.1991572E-004, 2.2236344E-004, 1.3037609E-003, 2.0259079E+002
 8.0045472E+000, 2.0761374E-001, 2.2345733E-002, 1.2145164E-002, 1.2626716E-004, 2.3389138E-004, 1.4577705E-003, 2.2055660E+002
 9.0015946E+000, 2.0477430E-001, 2.4993505E-002, 1.2899082E-002, 1.3922589E-004, 2.4621592E-004, 1.6346777E-003, 2.4053029E+002
 1.0005476E+001, 2.0240034E-001, 2.7197607E-002, 1.3530744E-002, 1.5775186E-004, 2.6060836E-004, 1.7836165E-003, 2.5793051E+002
 1.1002094E+001, 1.9984517E-001, 2.9582743E-002, 1.4209356E-002, 1.6837153E-004, 2.6588487E-004, 1.9427478E-003, 2.7358290E+002
 1.2003428E+001, 1.9701962E-001, 3.2231777E-002, 1.4959429E-002, 1.7314233E-004, 2.5514496E-004, 2.1179653E-003, 2.8734611E+002
 1.3001148E+001, 1.9483352E-001, 3.4277580E-002, 1.5539815E-002, 1.7900148E-004, 2.5269069E-004, 2.2537535E-003, 2.9811709E+002
 1.4004035E+001, 1.9263756E-001, 3.6337344E-002, 1.6121826E-002, 1.8049902E-004, 2.5135185E-004, 2.3895160E-003, 3.1062567E+002
 1.5007633E+001, 1.9083754E-001, 3.8021977E-002, 1.6599926E-002, 1.8563234E-004, 2.4710143E-004, 2.5013987E-003, 3.1965027E+002
 1.6004470E+001, 1.8819262E-001, 4.0506914E-002, 1.7300899E-002, 1.8514664E-004, 2.3871044E-004, 2.6646887E-003, 3.3194668E+002
 1.7004261E+001, 1.8588051E-001, 4.2676524E-002, 1.7914680E-002, 1.8799034E-004, 2.2654240E-004, 2.8079649E-003, 3.3643714E+002
 1.8006614E+001, 1.8522806E-001, 4.3293248E-002, 1.8087039E-002, 1.8481089E-004, 2.2326967E-004, 2.8478290E-003, 3.3919805E+002
 1.9005814E+001, 1.8317618E-001, 4.5217959E-002, 1.8631646E-002, 1.8755859E-004, 2.1450881E-004, 2.9749814E-003, 3.4450551E+002
 2.0005997E+001, 1.8273471E-001, 4.5630209E-002, 1.8749059E-002, 1.8960321E-004, 2.1364170E-004, 3.0025310E-003, 3.4637754E+002
 2.1007618E+001, 1.8168317E-001, 4.6618974E-002, 1.9027799E-002, 1.8904855E-004, 2.0835115E-004, 3.0674264E-003, 3.4993552E+002
 2.2003130E+001, 1.7989171E-001, 4.8306913E-002, 1.9502798E-002, 1.8643305E-004, 1.9236594E-004, 3.1778492E-003, 3.5351175E+002
 2.3006964E+001, 1.7956270E-001, 4.8617782E-002, 1.9590042E-002, 1.8548837E-004, 1.8786075E-004, 3.1980855E-003, 3.5464925E+002
 2.4006399E+001, 1.7930597E-001, 4.8862580E-002, 1.9657920E-002, 1.8316449E-004, 1.8235180E-004, 3.2136790E-003, 3.5230503E+002
 2.5003522E+001, 1.7830732E-001, 4.9803112E-002, 1.9922495E-002, 1.8155270E-004, 1.7616541E-004, 3.2751741E-003, 3.5628887E+002
 2.6005117E+001, 1.7699539E-001, 5.1032418E-002, 2.0270890E-002, 1.8436613E-004, 1.7111783E-004, 3.3566149E-003, 3.5876202E+002
 2.7005254E+001, 1.7651099E-001, 5.1481691E-002, 2.0400207E-002, 1.8916941E-004, 1.7084765E-004, 3.3871960E-003, 3.5971009E+002
 2.8005920E+001, 1.7660978E-001, 5.1391255E-002, 2.0373323E-002, 1.8661998E-004, 1.7361880E-004, 3.3806979E-003, 3.5824745E+002
 2.9006274E+001, 1.7553867E-001, 5.2398878E-002, 2.0657633E-002, 1.8648647E-004, 1.6390801E-004, 3.4469242E-003, 3.5840447E+002
 3.0003728E+001, 1.7565851E-001, 5.2287011E-002, 2.0625405E-002, 1.8527480E-004, 1.6741582E-004, 3.4393064E-003, 3.6025834E+002
 3.1001963E+001, 1.7477236E-001, 5.3120389E-002, 2.0860326E-002, 1.8477521E-004, 1.6253209E-004, 3.4939963E-003, 3.6020939E+002
 3.2003138E+001, 1.7435492E-001, 5.3510653E-002, 2.0971291E-002, 1.8635632E-004, 1.6144417E-004, 3.5200000E-003, 3.6010081E+002
 3.3003317E+001, 1.7376622E-001, 5.4065623E-002, 2.1127253E-002, 1.8510645E-004, 1.5688409E-004, 3.5562211E-003, 3.6008336E+002
 3.4007252E+001, 1.7410232E-001, 5.3748733E-002, 2.1038119E-002, 1.8568146E-004, 1.6043051E-004, 3.5355087E-003, 3.6018109E+002
 3.5002210E+001, 1.7350309E-001, 5.4311082E-002, 2.1197318E-002, 1.8661426E-004, 1.5602238E-004, 3.5726873E-003, 3.6032376E+002
 3.6003460E+001, 1.7339527E-001, 5.4415992E-002, 2.1225366E-002, 1.8365944E-004, 1.5437502E-004, 3.5789461E-003, 3.6317596E+002
 3.7007775E+001, 1.7341569E-001, 5.4395243E-002, 2.1220070E-002, 1.8473278E-004, 1.5607155E-004, 3.5778141E-003, 3.5767387E+002
 3.8002653E+001, 1.7343985E-001, 5.4368053E-002, 2.1213522E-002, 1.8695727E-004, 1.6522519E-004, 3.5765080E-003, 3.6152425E+002
 3.9003165E+001, 1.7248622E-001, 5.5260342E-002, 2.1467258E-002, 1.9058576E-004, 1.5919565E-004, 3.6359648E-003, 3.5796908E+002
 4.0002906E+001, 1.7265559E-001, 5.5100769E-002, 2.1421959E-002, 1.9012938E-004, 1.6433471E-004, 3.6253736E-003, 3.5995455E+002
 4.1007294E+001, 1.7229588E-001, 5.5439293E-002, 2.1517264E-002, 1.8969787E-004, 1.6244968E-004, 3.6475396E-003, 3.6073167E+002
 4.2006025E+001, 1.7237465E-001, 5.5361539E-002, 2.1496634E-002, 1.9222121E-004, 1.6687757E-004, 3.6429732E-003, 3.5897019E+002
 4.3001235E+001, 1.7204474E-001, 5.5672621E-002, 2.1584273E-002, 1.9190284E-004, 1.6200240E-004, 3.6633591E-003, 3.5864594E+002
 4.4006831E+001, 1.7206606E-001, 5.5657608E-002, 2.1577973E-002, 1.8797726E-004, 1.5946910E-004, 3.6615223E-003, 3.5753548E+002
 4.5007781E+001, 1.7250007E-001, 5.5249223E-002, 2.1462786E-002, 1.8811174E-004, 1.6343016E-004, 3.6346985E-003, 3.5702053E+002
 4.6005089E+001, 1.7192049E-001, 5.5795079E-002, 2.1616437E-002, 1.8735270E-004, 1.5886434E-004, 3.6704265E-003, 3.5839400E+002
 4.7006596E+001, 1.7138956E-001, 5.6292301E-002, 2.1757643E-002, 1.8902089E-004, 1.5531053E-004, 3.7034818E-003, 3.6150438E+002
 4.8005775E+001, 1.7116509E-001, 5.6501643E-002, 2.1817364E-002, 1.9024847E-004, 1.5512112E-004, 3.7175126E-003, 3.5974583E+002
 4.9006752E+001, 1.7103816E-001, 5.6621439E-002, 2.1850599E-002, 1.8920060E-004, 1.5756163E-004, 3.7251630E-003, 3.6068354E+002
 5.0003557E+001, 1.7059539E-001, 5.7036827E-002, 2.1968225E-002, 1.8995118E-004, 1.5459990E-004, 3.7526389E-003, 3.6155286E+002
 5.1004155E+001, 1.7033551E-001, 5.7279206E-002, 2.2037423E-002, 1.9146406E-004, 1.5383223E-004, 3.7689037E-003, 3.6351594E+002
 5.2005690E+001, 1.7022184E-001, 5.7387754E-002, 2.2067410E-002, 1.9022925E-004, 1.5171277E-004, 3.7757739E-003, 3.5973811E+002
 5.3000138E+001, 1.7046723E-001, 5.7158285E-002, 2.2002277E-002, 1.8950374E-004, 1.5158521E-004, 3.7605284E-003, 3.6088417E+002
 5.4007438E+001, 1.7014629E-001, 5.7458626E-002, 2.2087161E-002, 1.8978900E-004, 1.5421878E-004, 3.7803390E-003, 3.5852765E+002
 5.5000318E+001, 1.7039472E-001, 5.7224039E-002, 2.2021305E-002, 1.9045924E-004, 1.5718704E-004, 3.7650590E-003, 3.5815182E+002
 5.6001715E+001, 1.6948185E-001, 5.8078283E-002, 2.2263572E-002, 1.9276680E-004, 1.5705986E-004, 3.8217286E-003, 3.5970962E+002
 5.7002717E+001, 1.6901801E-001, 5.8511848E-002, 2.2386789E-002, 1.9442075E-004, 1.5674655E-004, 3.8505952E-003, 3.6130654E+002
 5.8000637E+001, 1.6932536E-001, 5.8223568E-002, 2.2305063E-002, 1.9372969E-004, 1.5942363E-004, 3.8314901E-003, 3.5811805E+002
 5.9002593E+001, 1.6851775E-001, 5.8982292E-002, 2.2519427E-002, 1.9418311E-004, 1.5389180E-004, 3.8814775E-003, 3.6066526E+002
 6.0001029E+001, 1.6917028E-001, 5.8370965E-002, 2.2346056E-002, 1.9257271E-004, 1.5698823E-004, 3.8409317E-003, 3.6221053E+002
 6.1002518E+001, 1.6918862E-001, 5.8347377E-002, 2.2341561E-002, 1.9673822E-004, 1.6459872E-004, 3.8402824E-003, 3.6143540E+002
 6.2005384E+001, 1.6844097E-001, 5.9047689E-002, 2.2540460E-002, 1.9911229E-004, 1.5883748E-004, 3.8868444E-003, 3.5849479E+002
 6.3002681E+001, 1.6808982E-001, 5.9375130E-002, 2.2633747E-002, 2.0080827E-004, 1.5991389E-004, 3.9087422E-003, 3.6396145E+002
 6.4007791E+001, 1.6847282E-001, 5.9017726E-002, 2.2532105E-002, 1.9929357E-004, 1.5822672E-004, 3.8849134E-003, 3.6361947E+002
 6.5002016E+001, 1.6806389E-001, 5.9404063E-002, 2.2640434E-002, 1.9794976E-004, 1.5368633E-004, 3.9100258E-003, 3.6019506E+002
 6.6007016E+001, 1.6818549E-001, 5.9288577E-002, 2.2608161E-002, 1.9857461E-004, 1.5665866E-004, 3.9025674E-003, 3.5708394E+002
 6.7004844E+001, 1.6834382E-001, 5.9132939E-002, 2.2566979E-002, 2.0379692E-004, 1.6171213E-004, 3.8934638E-003, 3.5713341E+002
 6.8007167E+001, 1.6813134E-001, 5.9336843E-002, 2.2622911E-002, 2.0071760E-004, 1.5722470E-004, 3.9062049E-003, 3.5967266E+002
 6.9002980E+001, 1.6870671E-001, 5.8794994E-002, 2.2470448E-002, 2.0157514E-004, 1.6103290E-004, 3.8707617E-003, 3.5897228E+002
 7.0002661E+001, 1.6849915E-001, 5.8993125E-002, 2.2525010E-002, 1.9901385E-004, 1.5913449E-004, 3.8832353E-003, 3.6024136E+002
 7.1001018E+001, 1.6885533E-001, 5.8659047E-002, 2.2430595E-002, 1.9873890E-004, 1.5947827E-004, 3.8612088E-003, 3.5891215E+002
 7.2005568E+001, 1.6929808E-001, 5.8246896E-002, 2.2312339E-002, 1.9507645E-004, 1.6286480E-004, 3.8333157E-003, 3.5970540E+002
 7.3002841E+001, 1.6822723E-001, 5.9249891E-002, 2.2596766E-002, 1.9769641E-004, 1.5895632E-004, 3.8998337E-003, 3.5734641E+002
 7.4006311E+001, 1.6809848E-001, 5.9375440E-002, 2.2630643E-002, 1.9470210E-004, 1.5295272E-004, 3.9074409E-003, 3.6112350E+002
 7.5005418E+001, 1.6817241E-001, 5.9307904E-002, 2.2610752E-002, 1.9312462E-004, 1.5265169E-004, 3.9026588E-003, 3.5937567E+002
 7.6001114E+001, 1.6718272E-001, 6.0233520E-002, 2.2873940E-002, 1.9686347E-004, 1.4842456E-004, 3.9643309E-003, 3.6395479E+002
 7.7002995E+001, 1.6719214E-001, 6.0224282E-002, 2.2871326E-002, 1.9687060E-004, 1.5022345E-004, 3.9637251E-003, 3.6238557E+002
 7.8000426E+001, 1.6752252E-001, 5.9913417E-002, 2.2783817E-002, 1.9727938E-004, 1.5161145E-004, 3.9433729E-003, 3.5728142E+002
 7.9005276E+001, 1.6696742E-001, 6.0434797E-002, 2.2930860E-002, 1.9712548E-004, 1.5077610E-004, 3.9776226E-003, 3.6005965E+002
 8.0006946E+001, 1.6828389E-001, 5.9197968E-002, 2.2581632E-002, 1.9677351E-004, 1.5798814E-004, 3.8962198E-003, 3.5724627E+002
 8.1002167E+001, 1.6745283E-001, 5.9978245E-002, 2.2801798E-002, 1.9675040E-004, 1.5705982E-004, 3.9475214E-003, 3.6216327E+002
 8.2006784E+001, 1.6692454E-001, 6.0478707E-002, 2.2941643E-002, 1.9407817E-004, 1.4981009E-004, 3.9798504E-003, 3.6100460E+002
 8.3001840E+001, 1.6690264E-001, 6.0503112E-002, 2.2947165E-002, 1.9145650E-004, 1.4577657E-004, 3.9808877E-003, 3.6451128E+002
 8.4006628E+001, 1.6691598E-001, 6.0487065E-002, 2.2944271E-002, 1.9454518E-004, 1.4589353E-004, 3.9805009E-003, 3.6070631E+002
 8.5002355E+001, 1.6721382E-001, 6.0205566E-002, 2.2865310E-002, 1.9547885E-004, 1.4997048E-004, 3.9621933E-003, 3.6012309E+002
 8.6007240E+001, 1.6723036E-001, 6.0193226E-002, 2.2860909E-002, 1.9368358E-004, 1.4465791E-004, 3.9609932E-003, 3.6184670E+002
 8.7003536E+001, 1.6761781E-001, 5.9832310E-002, 2.2757686E-002, 1.9108324E-004, 1.4557557E-004, 3.9366987E-003, 3.5996552E+002
 8.8006752E+001, 1.6743804E-001, 6.0003065E-002, 2.2805491E-002, 1.9031334E-004, 1.4031149E-004, 3.9477599E-003, 3.6063411E+002
 8.9000761E+001, 1.6741621E-001, 6.0017106E-002, 2.2811605E-002, 1.9446546E-004, 1.4832766E-004, 3.9495819E-003, 3.6004960E+002
 9.0007647E+001, 1.6794934E-001, 5.9518748E-002, 2.2670096E-002, 1.9278521E-004, 1.4765589E-004, 3.9164491E-003, 3.5963891E+002
 9.1003136E+001, 1.6688825E-001, 6.0516951E-002, 2.2951683E-002, 1.9253661E-004, 1.3863689E-004, 3.9820311E-003, 3.6171160E+002
 9.2001590E+001, 1.6809871E-001, 5.9378762E-002, 2.2630291E-002, 1.9223033E-004, 1.4954932E-004, 3.9071244E-003, 3.5869605E+002
 9.3007004E+001, 1.6744046E-001, 5.9998210E-002, 2.2804826E-002, 1.9169638E-004, 1.4499406E-004, 3.9477400E-003, 3.6186850E+002
 9.4003643E+001, 1.6820802E-001, 5.9271287E-002, 2.2601578E-002, 1.9534522E-004, 1.5574377E-004, 3.9007317E-003, 3.5441533E+002
 9.5007649E+001, 1.6760239E-001, 5.9838581E-002, 2.2762174E-002, 1.9633243E-004, 1.5593778E-004, 3.9382474E-003, 3.5896056E+002
 9.6004946E+001, 1.6742164E-001, 6.0010030E-002, 2.2810005E-002, 1.9526784E-004, 1.5322414E-004, 3.9492904E-003, 3.6034286E+002
 9.7003986E+001, 1.6698094E-001, 6.0424515E-002, 2.2926797E-002, 1.9493505E-004, 1.5111150E-004, 3.9764726E-003, 3.5798257E+002
 9.8007249E+001, 1.6730264E-001, 6.0122092E-002, 2.2841785E-002, 1.9553565E-004, 1.5016494E-004, 3.9567168E-003, 3.6232110E+002
 9.9007107E+001, 1.6739128E-001, 6.0041030E-002, 2.2817917E-002, 1.9365702E-004, 1.5011571E-004, 3.9509801E-003, 3.6137523E+002
 1.0000759E+002, 1.6758250E-001, 5.9857120E-002, 2.2767638E-002, 1.9675449E-004, 1.5430681E-004, 3.9395577E-003, 3.6109917E+002
 1.0100082E+002, 1.6704813E-001, 6.0362988E-002, 2.2909221E-002, 1.9447755E-004, 1.4641275E-004, 3.9723277E-003, 3.5880115E+002
 1.0200005E+002, 1.6758156E-001, 5.9863240E-002, 2.2767290E-002, 1.9279576E-004, 1.5086589E-004, 3.9391033E-003, 3.6067272E+002
 1.0300314E+002, 1.6800898E-001, 5.9458559E-002, 2.2654410E-002, 1.9530486E-004, 1.5390099E-004, 3.9130368E-003, 3.5850049E+002
 1.0400690E+002, 1.6789259E-001, 5.9567031E-002, 2.2685197E-002, 1.9566094E-004, 1.5558579E-004, 3.9202465E-003, 3.5944491E+002
 1.0500410E+002, 1.6755533E-001, 5.9882368E-002, 2.2774672E-002, 1.9660532E-004, 1.5628183E-004, 3.9411857E-003, 3.5942844E+002
 1.0600261E+002, 1.6711132E-001, 6.0297171E-002, 2.2892676E-002, 1.9840893E-004, 1.5585256E-004, 3.9688510E-003, 3.6155222E+002
 1.0700091E+002, 1.6710650E-001, 6.0304196E-002, 2.2893883E-002, 1.9690586E-004, 1.5220036E-004, 3.9689875E-003, 3.5956604E+002
 1.0800592E+002, 1.6701116E-001, 6.0397994E-002, 2.2919014E-002, 1.9431133E-004, 1.4591093E-004, 3.9745935E-003, 3.5978432E+002
 1.0900700E+002, 1.6728551E-001, 6.0139695E-002, 2.2846333E-002, 1.9471493E-004, 1.4741756E-004, 3.9576966E-003, 3.6313603E+002
 1.1000642E+002, 1.6700799E-001, 6.0401432E-002, 2.2919841E-002, 1.9403352E-004, 1.4521059E-004, 3.9747594E-003, 3.5698034E+002
 1.1100039E+002, 1.6741587E-001, 6.0014888E-002, 2.2811624E-002, 1.9573854E-004, 1.5332875E-004, 3.9497118E-003, 3.5581185E+002
 1.1200147E+002, 1.6749488E-001, 5.9937830E-002, 2.2790591E-002, 1.9714613E-004, 1.5931476E-004, 3.9449497E-003, 3.5815991E+002
 1.1300822E+002, 1.6702756E-001, 6.0376649E-002, 2.2914689E-002, 1.9763017E-004, 1.5596466E-004, 3.9739085E-003, 3.6014801E+002
 1.1400238E+002, 1.6690796E-001, 6.0489792E-002, 2.2946683E-002, 1.9770975E-004, 1.5147742E-004, 3.9813652E-003, 3.5929305E+002
 1.1500127E+002, 1.6681798E-001, 6.0580162E-002, 2.2970130E-002, 1.9375826E-004, 1.4489897E-004, 3.9864521E-003, 3.6209893E+002
 1.1600438E+002, 1.6687302E-001, 6.0526261E-002, 2.2955738E-002, 1.9532674E-004, 1.4700129E-004, 3.9832473E-003, 3.6242259E+002
 1.1700593E+002, 1.6751042E-001, 5.9930852E-002, 2.2785999E-002, 1.9209776E-004, 1.5069103E-004, 3.9433980E-003, 3.5664007E+002
 1.1800319E+002, 1.6765067E-001, 5.9796223E-002, 2.2749124E-002, 1.9422895E-004, 1.5327846E-004, 3.9350069E-003, 3.5625763E+002
 1.1900265E+002, 1.6651047E-001, 6.0865797E-002, 2.3052038E-002, 1.9624099E-004, 1.4572488E-004, 4.0057711E-003, 3.6210215E+002
 1.2000478E+002, 1.6679810E-001, 6.0598614E-002, 2.2975666E-002, 1.9435670E-004, 1.4270674E-004, 3.9877948E-003, 3.6199730E+002
 1.2100426E+002, 1.6703267E-001, 6.0378977E-002, 2.2913071E-002, 1.9322541E-004, 1.4616687E-004, 3.9731080E-003, 3.6098129E+002
 1.2200110E+002, 1.6656823E-001, 6.0813685E-002, 2.3036637E-002, 1.9489695E-004, 1.4308038E-004, 4.0020536E-003, 3.6238587E+002
 1.2300492E+002, 1.6639259E-001, 6.0978597E-002, 2.3083394E-002, 1.9529340E-004, 1.4076737E-004, 4.0129830E-003, 3.6379385E+002
 1.2400707E+002, 1.6623772E-001, 6.1124064E-002, 2.3124596E-002, 1.9556569E-004, 1.3887323E-004, 4.0226069E-003, 3.6310857E+002
 1.2500460E+002, 1.6714878E-001, 6.0271230E-002, 2.2882475E-002, 1.9282119E-004, 1.4257763E-004, 3.9659356E-003, 3.6436140E+002
 1.2600237E+002, 1.6709072E-001, 6.0322588E-002, 2.2898066E-002, 1.9493556E-004, 1.4599629E-004, 3.9697703E-003, 3.5576392E+002
 1.2700466E+002, 1.6700697E-001, 6.0396001E-002, 2.2920157E-002, 1.9764183E-004, 1.5579669E-004, 3.9751836E-003, 3.6118701E+002
 1.2800371E+002, 1.6695764E-001, 6.0443700E-002, 2.2933529E-002, 1.9741913E-004, 1.5053261E-004, 3.9782716E-003, 3.6450716E+002
 1.2900646E+002, 1.6693229E-001, 6.0469912E-002, 2.2940012E-002, 1.9567229E-004, 1.4851564E-004, 3.9796170E-003, 3.6038992E+002
 1.3000633E+002, 1.6671083E-001, 6.0676286E-002, 2.2998574E-002, 1.9633115E-004, 1.5193088E-004, 3.9933297E-003, 3.6019445E+002
 1.3100476E+002, 1.6595044E-001, 6.1389977E-002, 2.3200361E-002, 1.9705189E-004, 1.4830181E-004, 4.0404138E-003, 3.6279379E+002
 1.3200609E+002, 1.6643191E-001, 6.0933744E-002, 2.3073118E-002, 1.9992613E-004, 1.5312718E-004, 4.0110367E-003, 3.5582330E+002
 1.3300316E+002, 1.6747279E-001, 5.9954213E-002, 2.2796848E-002, 2.0027431E-004, 1.6302299E-004, 3.9467040E-003, 3.5931396E+002
 1.3400507E+002, 1.6706678E-001, 6.0333638E-002, 2.2904517E-002, 2.0143543E-004, 1.6464388E-004, 3.9719041E-003, 3.5992205E+002
 1.3500387E+002, 1.6605026E-001, 6.1293736E-002, 2.3174161E-002, 1.9888147E-004, 1.5046425E-004, 4.0344816E-003, 3.6445595E+002
 1.3600296E+002, 1.6574933E-001, 6.1578514E-002, 2.3253781E-002, 1.9745597E-004, 1.4721649E-004, 4.0528983E-003, 3.6590286E+002
 1.3700275E+002, 1.6547051E-001, 6.1842605E-002, 2.3327824E-002, 1.9649014E-004, 1.4128539E-004, 4.0700543E-003, 3.6490149E+002
 1.3800776E+002, 1.6606824E-001, 6.1280250E-002, 2.3169100E-002, 1.9647572E-004, 1.4739730E-004, 4.0330741E-003, 3.6233293E+002
 1.3900541E+002, 1.6603652E-001, 6.1307273E-002, 2.3178016E-002, 1.9891461E-004, 1.4732349E-004, 4.0353787E-003, 3.5826828E+002
 1.4000288E+002, 1.6634931E-001, 6.1013986E-002, 2.3094877E-002, 1.9821839E-004, 1.4960092E-004, 4.0159432E-003, 3.6273411E+002
 1.4100082E+002, 1.6648540E-001, 6.0885259E-002, 2.3059009E-002, 1.9908005E-004, 1.4964227E-004, 4.0076654E-003, 3.6096445E+002
 1.4200389E+002, 1.6630624E-001, 6.1056312E-002, 2.3106487E-002, 1.9753360E-004, 1.4441553E-004, 4.0185780E-003, 3.6069837E+002
 1.4300705E+002, 1.6724334E-001, 6.0178458E-002, 2.2857583E-002, 1.9531011E-004, 1.4807683E-004, 3.9603743E-003, 3.5728450E+002
 1.4400041E+002, 1.6731668E-001, 6.0106948E-002, 2.2838302E-002, 1.9704140E-004, 1.5135422E-004, 3.9560469E-003, 3.6261725E+002
 1.4500081E+002, 1.6682145E-001, 6.0570079E-002, 2.2969502E-002, 1.9804705E-004, 1.5391746E-004, 3.9867175E-003, 3.6015801E+002
 1.4600442E+002, 1.6625024E-001, 6.1107510E-002, 2.3121330E-002, 1.9830569E-004, 1.4666052E-004, 4.0221116E-003, 3.6089050E+002
 1.4700116E+002, 1.6671118E-001, 6.0674775E-002, 2.2998846E-002, 1.9763427E-004, 1.5057633E-004, 3.9935123E-003, 3.5977520E+002
 1.4800124E+002, 1.6723986E-001, 6.0181047E-002, 2.2858522E-002, 1.9571554E-004, 1.4908027E-004, 3.9606322E-003, 3.5948714E+002
 1.4900790E+002, 1.6805948E-001, 5.9409481E-002, 2.2640893E-002, 1.9597686E-004, 1.5811892E-004, 3.9099553E-003, 3.5890962E+002
 1.5000002E+002, 1.6762283E-001, 5.9821983E-002, 2.2756370E-002, 1.9420705E-004, 1.5512602E-004, 3.9366960E-003, 3.5945491E+002
 1.5100682E+002, 1.6718156E-001, 6.0236084E-002, 2.2873432E-002, 1.9459291E-004, 1.5346748E-004, 3.9640084E-003, 3.5924961E+002
 1.5200580E+002, 1.6645830E-001, 6.0914500E-002, 2.3065727E-002, 1.9615858E-004, 1.4738625E-004, 4.0089558E-003, 3.6364135E+002
 1.5300321E+002, 1.6599206E-001, 6.1352354E-002, 2.3189620E-002, 1.9675891E-004, 1.4318936E-004, 4.0378764E-003, 3.6344130E+002
 1.5400100E+002, 1.6655537E-001, 6.0823242E-002, 2.3040056E-002, 1.9630789E-004, 1.4728358E-004, 4.0029875E-003, 3.5997744E+002
