s,,,,,,,
Time,"O2 EXHAUST","CO2 EXHAUST","H2O EXHAUST","CO EXHAUST","FUEL EXHAUST","SOOT EXHAUST","TEMP EXHAUST"
 0.0000000E+000, 2.3099739E-001, 5.9146498E-004, 5.9412091E-003, 0.0000000E+000, 0.0000000E+000, 0.0000000E+000, 2.0000000E+001
 1.0043049E+000, 2.3099739E-001, 5.9146498E-004, 5.9412091E-003, 2.2700343E-031, 1.9557333E-030, 6.2738436E-032, 2.0365239E+001
 2.0052463E+000, 2.2362765E-001, 6.3419564E-003, 1.0745089E-002, 1.2590672E-005, 1.8577915E-004, 3.6070552E-005, 9.3454342E+001
 3.0023942E+000, 2.1926091E-001, 9.7544924E-003, 1.3610967E-002, 2.7741720E-005, 2.0704834E-004, 5.9137321E-005, 1.3316970E+002
 4.0009381E+000, 2.1394145E-001, 1.3911881E-002, 1.7091886E-002, 4.0799903E-005, 2.7340011E-004, 8.6070619E-005, 1.8149681E+002
 5.0036591E+000, 2.1082868E-001, 1.6354138E-002, 1.9129214E-002, 4.4448784E-005, 2.9140218E-004, 1.0102223E-004, 2.0896127E+002
 6.0026427E+000, 2.0730888E-001, 1.9124439E-002, 2.1434181E-002, 4.5360654E-005, 2.8917107E-004, 1.1728380E-004, 2.3747081E+002
 7.0003156E+000, 2.0170541E-001, 2.3543014E-002, 2.5109487E-002, 4.6137060E-005, 2.4549986E-004, 1.4307384E-004, 2.7774489E+002
 8.0031579E+000, 1.9649878E-001, 2.7656539E-002, 2.8523933E-002, 4.3075951E-005, 1.9124323E-004, 1.6626461E-004, 3.1238378E+002
 9.0004367E+000, 1.9106803E-001, 3.1954788E-002, 3.2087115E-002, 3.7397081E-005, 1.1215107E-004, 1.8996005E-004, 3.4240762E+002
 1.0002834E+001, 1.8396248E-001, 3.7569030E-002, 3.6746150E-002, 3.2653933E-005, 4.0009312E-005, 2.2148908E-004, 3.7533981E+002
 1.1007570E+001, 1.7957083E-001, 4.1035768E-002, 3.9624930E-002, 3.0736432E-005, 4.9748601E-006, 2.4117681E-004, 3.9284262E+002
 1.2000643E+001, 1.7355815E-001, 4.5766364E-002, 4.3563557E-002, 3.3678354E-005, 5.5587570E-008, 2.6924487E-004, 4.1176233E+002
 1.3003213E+001, 1.6642247E-001, 5.1378430E-002, 4.8237398E-002, 3.7875900E-005, 4.3985890E-008, 3.0269605E-004, 4.3268320E+002
 1.4000150E+001, 1.6067033E-001, 5.5902354E-002, 5.2005018E-002, 4.1262821E-005, 5.9662034E-008, 3.2966198E-004, 4.4420559E+002
 1.5004552E+001, 1.5605627E-001, 5.9531200E-002, 5.5027212E-002, 4.3986529E-005, 6.5488600E-008, 3.5129407E-004, 4.4802533E+002
 1.6001997E+001, 1.5087744E-001, 6.3604286E-002, 5.8419305E-002, 4.7004386E-005, 6.0605408E-008, 3.7556585E-004, 4.5583863E+002
 1.7003503E+001, 1.4722554E-001, 6.6476492E-002, 6.0811252E-002, 4.9109012E-005, 2.6504464E-008, 3.9267643E-004, 4.5661590E+002
 1.8002335E+001, 1.4218937E-001, 7.0437299E-002, 6.4109935E-002, 5.2094499E-005, 5.3439845E-008, 4.1629012E-004, 4.6214051E+002
 1.9005630E+001, 1.3903987E-001, 7.2914352E-002, 6.6172827E-002, 5.3922089E-005, 4.1991061E-008, 4.3104937E-004, 4.6493757E+002
 2.0007716E+001, 1.3544211E-001, 7.5743922E-002, 6.8529334E-002, 5.6030774E-005, 3.2321960E-008, 4.4791359E-004, 4.6567402E+002
 2.1003014E+001, 1.3187800E-001, 7.8547041E-002, 7.0863806E-002, 5.8115779E-005, 3.4328740E-008, 4.6461930E-004, 4.6751709E+002
 2.2005958E+001, 1.2793522E-001, 8.1647968E-002, 7.3446299E-002, 6.0424145E-005, 3.6553184E-008, 4.8310026E-004, 4.6896719E+002
 2.3003594E+001, 1.2410605E-001, 8.4659399E-002, 7.5954433E-002, 6.2757805E-005, 1.2179043E-007, 5.0106772E-004, 4.7265472E+002
 2.4001278E+001, 1.2192633E-001, 8.6373814E-002, 7.7382093E-002, 6.3967043E-005, 5.6411517E-008, 5.1127083E-004, 4.7066087E+002
 2.5005993E+001, 1.1990477E-001, 8.7963783E-002, 7.8706188E-002, 6.5123089E-005, 3.6186970E-008, 5.2074079E-004, 4.6662234E+002
 2.6007544E+001, 1.1622115E-001, 9.0860814E-002, 8.1118961E-002, 6.7325154E-005, 8.1285499E-008, 5.3801641E-004, 4.6664824E+002
 2.7002266E+001, 1.1283132E-001, 9.3526801E-002, 8.3339303E-002, 6.9348510E-005, 9.8037973E-008, 5.5391359E-004, 4.7278987E+002
 2.8008027E+001, 1.0956965E-001, 9.6092089E-002, 8.5475650E-002, 7.1226994E-005, 8.5648110E-008, 5.6919550E-004, 4.7288466E+002
 2.9000907E+001, 1.0779015E-001, 9.7491655E-002, 8.6641209E-002, 7.2259219E-005, 7.4870724E-008, 5.7753457E-004, 4.7451292E+002
 3.0000843E+001, 1.0615662E-001, 9.8776377E-002, 8.7711173E-002, 7.3231636E-005, 7.4237604E-008, 5.8519475E-004, 4.6971332E+002
 3.1001629E+001, 1.0272174E-001, 1.0147791E-001, 8.9960969E-002, 7.5201388E-005, 4.5108113E-008, 6.0128647E-004, 4.7173787E+002
 3.2009049E+001, 1.0009929E-001, 1.0354045E-001, 9.1678652E-002, 7.6723717E-005, 2.6713595E-008, 6.1357599E-004, 4.7268306E+002
 3.3000422E+001, 9.7635699E-002, 1.0547789E-001, 9.3292321E-002, 7.8240004E-005, 1.3206277E-007, 6.2513882E-004, 4.7319658E+002
 3.4001416E+001, 9.6039347E-002, 1.0673348E-001, 9.4337896E-002, 7.9125466E-005, 7.1786926E-008, 6.3261123E-004, 4.7037880E+002
 3.5002948E+001, 9.4324252E-002, 1.0808237E-001, 9.5461266E-002, 8.0128352E-005, 9.6395489E-008, 6.4065010E-004, 4.6731365E+002
 3.6001720E+001, 9.0661024E-002, 1.1096346E-001, 9.7860657E-002, 8.2261073E-005, 3.7628689E-008, 6.5781829E-004, 4.6996855E+002
 3.7001540E+001, 8.8068521E-002, 1.1300241E-001, 9.9558733E-002, 8.3786429E-005, 4.2027817E-008, 6.6997168E-004, 4.7263400E+002
 3.8002365E+001, 8.5982083E-002, 1.1464331E-001, 1.0092535E-001, 8.5036863E-005, 7.6440408E-008, 6.7975740E-004, 4.7151054E+002
 3.9002187E+001, 8.3980058E-002, 1.1621782E-001, 1.0223668E-001, 8.6236829E-005, 1.3994775E-007, 6.8914721E-004, 4.7249447E+002
 4.0000145E+001, 8.1914271E-002, 1.1784252E-001, 1.0358975E-001, 8.7446991E-005, 1.5640510E-007, 6.9883029E-004, 4.7414467E+002
 4.1004517E+001, 8.0089336E-002, 1.1927777E-001, 1.0478507E-001, 8.8527661E-005, 1.9521408E-007, 7.0738680E-004, 4.6728040E+002
 4.2007070E+001, 7.7978381E-002, 1.2092299E-001, 1.0617030E-001, 9.7731714E-005, 2.0229101E-005, 7.1891859E-004, 4.7435556E+002
 4.3007182E+001, 7.4867912E-002, 1.2332719E-001, 1.0821452E-001, 1.2175367E-004, 7.7809162E-005, 7.3805777E-004, 4.7069473E+002
 4.4002640E+001, 7.3451645E-002, 1.2439501E-001, 1.0915240E-001, 1.4823343E-004, 1.2985476E-004, 7.4997948E-004, 4.6926839E+002
 4.5001909E+001, 7.1733602E-002, 1.2569872E-001, 1.1027990E-001, 1.7140443E-004, 2.1711200E-004, 7.6255321E-004, 4.7206310E+002
 4.6002133E+001, 7.0051588E-002, 1.2697600E-001, 1.1139621E-001, 2.0009018E-004, 2.5067692E-004, 7.7616675E-004, 4.6979749E+002
 4.7007580E+001, 6.8662527E-002, 1.2799812E-001, 1.1231670E-001, 2.3754329E-004, 3.5013150E-004, 7.9019791E-004, 4.7119007E+002
 4.8002457E+001, 6.7649609E-002, 1.2866769E-001, 1.1298704E-001, 2.9795418E-004, 5.7945626E-004, 8.0715260E-004, 4.6470952E+002
 4.9005895E+001, 6.6700152E-002, 1.2937601E-001, 1.1362134E-001, 3.2190488E-004, 6.0728886E-004, 8.1644232E-004, 4.6727291E+002
 5.0004737E+001, 6.5255456E-002, 1.3032269E-001, 1.1461190E-001, 4.2946927E-004, 8.1277276E-004, 8.4520650E-004, 4.6186053E+002
 5.1007831E+001, 6.3988961E-002, 1.3122399E-001, 1.1544298E-001, 4.7297129E-004, 9.9828557E-004, 8.5984618E-004, 4.6246797E+002
 5.2009522E+001, 6.3703377E-002, 1.3144894E-001, 1.1563636E-001, 4.7623995E-004, 9.7219764E-004, 8.6185775E-004, 4.5904617E+002
 5.3002516E+001, 6.2089210E-002, 1.3229674E-001, 1.1675296E-001, 6.9445690E-004, 1.5868012E-003, 9.1399207E-004, 4.5968771E+002
 5.4006564E+001, 6.1366029E-002, 1.3270131E-001, 1.1722988E-001, 7.6926274E-004, 1.9058377E-003, 9.3252508E-004, 4.5898147E+002
 5.5006056E+001, 6.0798811E-002, 1.3314175E-001, 1.1760748E-001, 7.7523128E-004, 1.8928984E-003, 9.3637045E-004, 4.5668030E+002
 5.6001237E+001, 6.0186326E-002, 1.3332860E-001, 1.1804428E-001, 9.2449062E-004, 2.3461629E-003, 9.6975103E-004, 4.5101490E+002
 5.7001780E+001, 5.9663163E-002, 1.3373190E-001, 1.1837556E-001, 9.2255535E-004, 2.4083934E-003, 9.7167113E-004, 4.5171846E+002
 5.8002039E+001, 5.9231820E-002, 1.3393446E-001, 1.1869482E-001, 1.0022292E-003, 2.5373085E-003, 9.9008536E-004, 4.5139650E+002
 5.9001093E+001, 5.8911419E-002, 1.3383048E-001, 1.1894388E-001, 1.1802151E-003, 3.0997787E-003, 1.0279956E-003, 4.4756559E+002
 6.0004727E+001, 5.8372532E-002, 1.3399343E-001, 1.1932275E-001, 1.3093865E-003, 3.5233246E-003, 1.0568910E-003, 4.4224580E+002
 6.1002478E+001, 5.8296400E-002, 1.3400304E-001, 1.1938547E-001, 1.3383006E-003, 3.5733917E-003, 1.0632031E-003, 4.4174980E+002
 6.2000354E+001, 5.7336346E-002, 1.3440577E-001, 1.2000761E-001, 1.4914614E-003, 4.3127921E-003, 1.0986806E-003, 4.4217918E+002
 6.3006775E+001, 5.6685592E-002, 1.3491163E-001, 1.2044838E-001, 1.5019493E-003, 4.2664441E-003, 1.1038831E-003, 4.4126730E+002
 6.4005072E+001, 5.6533056E-002, 1.3464795E-001, 1.2056779E-001, 1.6819655E-003, 4.9639967E-003, 1.1413070E-003, 4.4103954E+002
 6.5004533E+001, 5.6009509E-002, 1.3485800E-001, 1.2091982E-001, 1.7762870E-003, 5.3353423E-003, 1.1629348E-003, 4.3579176E+002
 6.6008237E+001, 5.6193620E-002, 1.3443439E-001, 1.2085204E-001, 1.9268103E-003, 5.6871153E-003, 1.1930487E-003, 4.3327755E+002
 6.7002694E+001, 5.6219862E-002, 1.3427730E-001, 1.2084813E-001, 1.9940514E-003, 5.9097511E-003, 1.2066876E-003, 4.2950087E+002
 6.8001362E+001, 5.5824554E-002, 1.3452356E-001, 1.2107328E-001, 2.0055468E-003, 6.1761129E-003, 1.2106038E-003, 4.3027691E+002
 6.9007717E+001, 5.5703406E-002, 1.3443361E-001, 1.2110002E-001, 2.0605998E-003, 6.7619493E-003, 1.2219961E-003, 4.2680579E+002
 7.0007330E+001, 5.5155257E-002, 1.3472543E-001, 1.2148153E-001, 2.1341634E-003, 6.9533597E-003, 1.2396061E-003, 4.2881625E+002
 7.1003627E+001, 5.4971679E-002, 1.3476832E-001, 1.2162910E-001, 2.1932691E-003, 7.0489151E-003, 1.2526439E-003, 4.2781561E+002
 7.2007071E+001, 5.4659047E-002, 1.3465295E-001, 1.2181120E-001, 2.3417785E-003, 7.8704837E-003, 1.2841110E-003, 4.2556170E+002
 7.3001428E+001, 5.4819674E-002, 1.3432586E-001, 1.2164597E-001, 2.3997296E-003, 8.5175127E-003, 1.2947555E-003, 4.2294095E+002
 7.4002377E+001, 5.4472156E-002, 1.3459830E-001, 1.2192394E-001, 2.4262092E-003, 8.3171324E-003, 1.3020641E-003, 4.2033260E+002
 7.5007681E+001, 5.4111450E-002, 1.3472834E-001, 1.2216947E-001, 2.4992333E-003, 8.5906327E-003, 1.3186195E-003, 4.2194288E+002
 7.6007743E+001, 5.4247781E-002, 1.3455563E-001, 1.2205880E-001, 2.5171664E-003, 8.8088977E-003, 1.3214989E-003, 4.2155923E+002
 7.7009133E+001, 5.3739315E-002, 1.3470385E-001, 1.2237627E-001, 2.6209163E-003, 9.3804097E-003, 1.3448089E-003, 4.2187569E+002
 7.8005168E+001, 5.3601799E-002, 1.3438947E-001, 1.2247052E-001, 2.8102752E-003, 1.0218091E-002, 1.3839608E-003, 4.1897523E+002
 7.9005492E+001, 5.3844503E-002, 1.3416295E-001, 1.2229411E-001, 2.8169470E-003, 1.0360203E-002, 1.3840913E-003, 4.1677079E+002
 8.0002989E+001, 5.3365773E-002, 1.3460575E-001, 1.2261933E-001, 2.7938617E-003, 1.0179332E-002, 1.3816634E-003, 4.1960412E+002
 8.1001591E+001, 5.3178364E-002, 1.3450000E-001, 1.2268361E-001, 2.8760119E-003, 1.0926105E-002, 1.3988277E-003, 4.1714254E+002
 8.2004910E+001, 5.3259419E-002, 1.3416609E-001, 1.2261593E-001, 2.9881077E-003, 1.1531037E-002, 1.4211479E-003, 4.1551445E+002
 8.3003784E+001, 5.2935900E-002, 1.3437195E-001, 1.2285637E-001, 3.0244864E-003, 1.1514666E-002, 1.4302130E-003, 4.1638803E+002
 8.4000498E+001, 5.2873885E-002, 1.3436777E-001, 1.2286116E-001, 3.0295484E-003, 1.1765642E-002, 1.4312849E-003, 4.1237952E+002
 8.5009272E+001, 5.2624192E-002, 1.3430846E-001, 1.2298036E-001, 3.1201304E-003, 1.2460765E-002, 1.4505428E-003, 4.1331896E+002
 8.6000813E+001, 5.2373315E-002, 1.3455003E-001, 1.2311367E-001, 3.0847293E-003, 1.2495786E-002, 1.4442839E-003, 4.1382172E+002
 8.7002520E+001, 5.2121073E-002, 1.3439340E-001, 1.2337246E-001, 3.2902168E-003, 1.2838019E-002, 1.4878385E-003, 4.1304220E+002
 8.8000518E+001, 5.2395231E-002, 1.3422740E-001, 1.2313102E-001, 3.2362679E-003, 1.2986095E-002, 1.4752034E-003, 4.1335843E+002
 8.9005163E+001, 5.1863472E-002, 1.3446251E-001, 1.2345733E-001, 3.3063630E-003, 1.3444693E-002, 1.4917350E-003, 4.1153960E+002
 9.0003176E+001, 5.1850672E-002, 1.3442333E-001, 1.2341264E-001, 3.3008895E-003, 1.3757416E-002, 1.4903245E-003, 4.1014675E+002
 9.1009341E+001, 5.1574058E-002, 1.3438989E-001, 1.2357453E-001, 3.4022903E-003, 1.4342453E-002, 1.5120729E-003, 4.1215690E+002
 9.2005869E+001, 5.1738253E-002, 1.3423155E-001, 1.2345001E-001, 3.4063987E-003, 1.4469685E-002, 1.5120441E-003, 4.0967116E+002
 9.3002824E+001, 5.1663497E-002, 1.3403076E-001, 1.2347936E-001, 3.5113174E-003, 1.5073368E-002, 1.5335833E-003, 4.0949518E+002
 9.4000336E+001, 5.1469492E-002, 1.3414382E-001, 1.2360127E-001, 3.5262788E-003, 1.5174024E-002, 1.5374765E-003, 4.1018277E+002
 9.5004091E+001, 5.1507730E-002, 1.3403236E-001, 1.2361608E-001, 3.5827952E-003, 1.5178597E-002, 1.5490587E-003, 4.1080260E+002
 9.6005695E+001, 5.1438155E-002, 1.3394934E-001, 1.2357427E-001, 3.5989006E-003, 1.5808022E-002, 1.5520643E-003, 4.0753515E+002
 9.7001430E+001, 5.1225828E-002, 1.3407757E-001, 1.2367774E-001, 3.5978863E-003, 1.6029373E-002, 1.5525891E-003, 4.0702906E+002
 9.8005340E+001, 5.1185299E-002, 1.3387788E-001, 1.2371245E-001, 3.7046590E-003, 1.6464899E-002, 1.5745353E-003, 4.0666516E+002
 9.9007991E+001, 5.0928370E-002, 1.3392942E-001, 1.2388438E-001, 3.7733492E-003, 1.6754674E-002, 1.5896978E-003, 4.0724120E+002
 1.0000783E+002, 5.0987857E-002, 1.3379646E-001, 1.2384815E-001, 3.8128797E-003, 1.6917964E-002, 1.5974807E-003, 4.0601540E+002
 1.0100465E+002, 5.1106323E-002, 1.3364172E-001, 1.2374295E-001, 3.8258827E-003, 1.7153359E-002, 1.5993976E-003, 4.0525521E+002
 1.0200397E+002, 5.1090777E-002, 1.3363997E-001, 1.2371995E-001, 3.8150225E-003, 1.7314849E-002, 1.5970382E-003, 4.0558285E+002
 1.0300373E+002, 5.1311305E-002, 1.3314582E-001, 1.2354140E-001, 3.9393837E-003, 1.8100385E-002, 1.6210837E-003, 4.0362036E+002
 1.0400212E+002, 5.1055451E-002, 1.3331594E-001, 1.2371460E-001, 3.9561988E-003, 1.8140721E-002, 1.6257087E-003, 4.0524716E+002
 1.0500486E+002, 5.1234543E-002, 1.3308761E-001, 1.2354505E-001, 3.9679696E-003, 1.8527421E-002, 1.6269328E-003, 4.0257280E+002
 1.0600470E+002, 5.0820221E-002, 1.3334283E-001, 1.2385379E-001, 4.0187024E-003, 1.8520259E-002, 1.6393899E-003, 4.0431439E+002
 1.0700305E+002, 5.0821366E-002, 1.3301662E-001, 1.2384117E-001, 4.1566674E-003, 1.9225767E-002, 1.6673525E-003, 4.0404789E+002
 1.0800340E+002, 5.0697884E-002, 1.3307934E-001, 1.2389783E-001, 4.1595185E-003, 1.9392615E-002, 1.6683337E-003, 4.0624543E+002
 1.0900702E+002, 5.0870887E-002, 1.3285886E-001, 1.2379556E-001, 4.2024826E-003, 1.9518965E-002, 1.6763518E-003, 4.0167333E+002
 1.1000558E+002, 5.0907190E-002, 1.3270215E-001, 1.2372788E-001, 4.2366461E-003, 1.9954416E-002, 1.6828366E-003, 4.0192349E+002
 1.1100970E+002, 5.0938762E-002, 1.3282450E-001, 1.2368877E-001, 4.1619701E-003, 1.9730760E-002, 1.6673875E-003, 4.0323930E+002
 1.1200697E+002, 5.1221071E-002, 1.3214148E-001, 1.2347683E-001, 4.3520592E-003, 2.0771596E-002, 1.7045604E-003, 4.0209600E+002
 1.1300152E+002, 5.1308592E-002, 1.3222577E-001, 1.2337358E-001, 4.2605787E-003, 2.0646310E-002, 1.6852550E-003, 4.0554277E+002
 1.1400795E+002, 5.1288880E-002, 1.3219576E-001, 1.2332499E-001, 4.2491237E-003, 2.0985328E-002, 1.6826035E-003, 4.0021927E+002
 1.1500611E+002, 5.1144438E-002, 1.3227817E-001, 1.2352284E-001, 4.3161083E-003, 2.0633864E-002, 1.6975738E-003, 4.0202496E+002
 1.1600076E+002, 5.1276595E-002, 1.3187664E-001, 1.2326630E-001, 4.3604182E-003, 2.1918204E-002, 1.7048373E-003, 4.0091274E+002
 1.1700599E+002, 5.1358074E-002, 1.3181500E-001, 1.2322590E-001, 4.3659613E-003, 2.1861191E-002, 1.7056790E-003, 4.0185290E+002
 1.1800243E+002, 5.1430590E-002, 1.3165430E-001, 1.2319865E-001, 4.4222387E-003, 2.1989529E-002, 1.7169244E-003, 3.9916599E+002
 1.1900503E+002, 5.1490018E-002, 1.3157762E-001, 1.2315851E-001, 4.4348439E-003, 2.2054950E-002, 1.7192074E-003, 3.9905797E+002
 1.2000890E+002, 5.1435762E-002, 1.3152950E-001, 1.2323407E-001, 4.4956604E-003, 2.2077866E-002, 1.7320874E-003, 4.0320248E+002
 1.2100920E+002, 5.1594816E-002, 1.3131710E-001, 1.2301647E-001, 4.4759084E-003, 2.2709872E-002, 1.7265842E-003, 3.9998994E+002
 1.2200589E+002, 5.1384583E-002, 1.3124765E-001, 1.2318097E-001, 4.5937971E-003, 2.3077081E-002, 1.7516905E-003, 4.0129381E+002
 1.2300509E+002, 5.1335121E-002, 1.3113241E-001, 1.2321738E-001, 4.6641503E-003, 2.3372692E-002, 1.7662458E-003, 4.0053625E+002
 1.2400729E+002, 5.1457420E-002, 1.3124214E-001, 1.2309310E-001, 4.5501702E-003, 2.3133639E-002, 1.7422192E-003, 3.9981587E+002
 1.2500965E+002, 5.1419263E-002, 1.3126317E-001, 1.2312325E-001, 4.5568253E-003, 2.3131080E-002, 1.7437811E-003, 3.9947239E+002
 1.2600593E+002, 5.1367109E-002, 1.3102018E-001, 1.2310533E-001, 4.6558499E-003, 2.3914587E-002, 1.7638009E-003, 3.9805900E+002
 1.2700725E+002, 5.1864429E-002, 1.3068528E-001, 1.2276627E-001, 4.6238066E-003, 2.3854308E-002, 1.7549254E-003, 3.9542432E+002
 1.2800838E+002, 5.1808610E-002, 1.3069183E-001, 1.2268716E-001, 4.5809048E-003, 2.4394333E-002, 1.7456825E-003, 3.9660307E+002
 1.2900879E+002, 5.1504688E-002, 1.3065522E-001, 1.2297377E-001, 4.7481656E-003, 2.4600222E-002, 1.7816615E-003, 3.9939099E+002
 1.3000735E+002, 5.1243291E-002, 1.3093870E-001, 1.2310905E-001, 4.6953464E-003, 2.4586993E-002, 1.7718766E-003, 3.9940356E+002
 1.3101138E+002, 5.1595500E-002, 1.3047250E-001, 1.2282280E-001, 4.7503600E-003, 2.5192660E-002, 1.7810788E-003, 4.0120864E+002
 1.3200148E+002, 5.1848635E-002, 1.3034405E-001, 1.2261162E-001, 4.6955973E-003, 2.5232032E-002, 1.7684849E-003, 3.9663825E+002
 1.3300454E+002, 5.1540925E-002, 1.3053297E-001, 1.2292527E-001, 4.7769281E-003, 2.4889266E-002, 1.7871770E-003, 3.9771178E+002
 1.3400791E+002, 5.1753751E-002, 1.3020416E-001, 1.2268545E-001, 4.7966585E-003, 2.5618956E-002, 1.7895419E-003, 3.9753356E+002
 1.3500908E+002, 5.2267136E-002, 1.2978368E-001, 1.2224522E-001, 4.7502977E-003, 2.6070248E-002, 1.7770740E-003, 3.9780773E+002
 1.3601004E+002, 5.2213289E-002, 1.2965631E-001, 1.2224737E-001, 4.8084650E-003, 2.6546427E-002, 1.7889228E-003, 3.9397344E+002
 1.3700550E+002, 5.1685137E-002, 1.3002853E-001, 1.2273828E-001, 4.9024358E-003, 2.6051602E-002, 1.8114121E-003, 3.9970886E+002
 1.3800449E+002, 5.2198544E-002, 1.2985718E-001, 1.2231891E-001, 4.7564708E-003, 2.5915198E-002, 1.7788353E-003, 3.9806291E+002
 1.3900338E+002, 5.2111283E-002, 1.2961397E-001, 1.2230324E-001, 4.8571757E-003, 2.6838244E-002, 1.7992179E-003, 3.9380812E+002
 1.4000217E+002, 5.1873732E-002, 1.2976280E-001, 1.2258860E-001, 4.9408730E-003, 2.6394031E-002, 1.8181891E-003, 3.9638390E+002
 1.4100250E+002, 5.1950598E-002, 1.2952329E-001, 1.2254748E-001, 5.0248660E-003, 2.6719091E-002, 1.8349752E-003, 3.9746575E+002
 1.4200426E+002, 5.2305271E-002, 1.2929555E-001, 1.2223883E-001, 4.9627286E-003, 2.6922092E-002, 1.8202104E-003, 3.9453910E+002
 1.4300156E+002, 5.2493251E-002, 1.2913824E-001, 1.2205781E-001, 4.9370405E-003, 2.7173699E-002, 1.8137409E-003, 3.9496383E+002
 1.4401129E+002, 5.2375640E-002, 1.2929037E-001, 1.2214266E-001, 4.9147182E-003, 2.7021731E-002, 1.8097927E-003, 3.9793278E+002
 1.4500261E+002, 5.2625825E-002, 1.2907796E-001, 1.2190116E-001, 4.8815804E-003, 2.7365086E-002, 1.8013921E-003, 3.9445908E+002
 1.4600541E+002, 5.2636461E-002, 1.2897827E-001, 1.2186544E-001, 4.9072371E-003, 2.7665224E-002, 1.8063664E-003, 3.9501043E+002
 1.4700557E+002, 5.3045978E-002, 1.2844136E-001, 1.2140795E-001, 4.9048183E-003, 2.8859654E-002, 1.8027337E-003, 3.9057152E+002
 1.4800806E+002, 5.2694501E-002, 1.2890455E-001, 1.2174871E-001, 4.8791603E-003, 2.8038076E-002, 1.7998651E-003, 3.9448412E+002
 1.4900293E+002, 5.2462747E-002, 1.2884349E-001, 1.2202021E-001, 5.0486099E-003, 2.8049500E-002, 1.8361753E-003, 3.9892882E+002
 1.5000469E+002, 5.3058450E-002, 1.2847921E-001, 1.2151133E-001, 4.9410651E-003, 2.8315352E-002, 1.8107941E-003, 3.9375303E+002
 1.5100573E+002, 5.3267915E-002, 1.2825167E-001, 1.2123071E-001, 4.8950049E-003, 2.9018244E-002, 1.7995110E-003, 3.9071529E+002
 1.5200574E+002, 5.2845520E-002, 1.2850154E-001, 1.2169099E-001, 5.0261313E-003, 2.8447458E-002, 1.8293300E-003, 3.9557692E+002
 1.5300298E+002, 5.2953109E-002, 1.2863343E-001, 1.2159305E-001, 4.9160627E-003, 2.8119903E-002, 1.8062779E-003, 3.9206907E+002
 1.5400421E+002, 5.3708092E-002, 1.2762636E-001, 1.2070093E-001, 4.8942019E-003, 3.0552299E-002, 1.7957164E-003, 3.8985794E+002
