s,,,,,,,
Time,"O2 EXHAUST","CO2 EXHAUST","H2O EXHAUST","CO EXHAUST","FUEL EXHAUST","SOOT EXHAUST","TEMP EXHAUST"
 0.0000000E+000, 2.3099739E-001, 5.9146498E-004, 5.9412092E-003, 0.0000000E+000, 0.0000000E+000, 0.0000000E+000, 2.0000000E+001
 1.0040990E+000, 2.3099739E-001, 5.9146498E-004, 5.9412092E-003, 1.3674524E-032, 6.7613884E-032, 5.5084935E-033, 2.0214581E+001
 2.0015509E+000, 2.2608581E-001, 4.2743346E-003, 8.0243789E-003, 1.8377052E-005, 2.9637159E-004, 3.3081573E-005, 7.0245585E+001
 3.0038504E+000, 2.2390797E-001, 5.9102047E-003, 8.9701310E-003, 4.1866048E-005, 2.8627043E-004, 5.1061189E-005, 9.0742088E+001
 4.0022068E+000, 2.2071176E-001, 8.3251912E-003, 1.0334355E-002, 5.2127017E-005, 3.8958749E-004, 7.2369833E-005, 1.2303643E+002
 5.0032404E+000, 2.1708183E-001, 1.1074675E-002, 1.1887357E-002, 6.3510734E-005, 4.7094005E-004, 9.6565752E-005, 1.5667703E+002
 6.0003353E+000, 2.1410420E-001, 1.3312016E-002, 1.3163204E-002, 8.2336523E-005, 5.6175700E-004, 1.1830507E-004, 1.8391530E+002
 7.0022405E+000, 2.1121334E-001, 1.5498295E-002, 1.4406170E-002, 9.7555879E-005, 5.9532216E-004, 1.3886687E-004, 2.0812781E+002
 8.0028732E+000, 2.0734719E-001, 1.8452490E-002, 1.6071080E-002, 1.0636567E-004, 5.6382499E-004, 1.6413014E-004, 2.3767573E+002
 9.0072821E+000, 2.0261811E-001, 2.2065380E-002, 1.8106233E-002, 1.1641675E-004, 5.3508368E-004, 1.9487138E-004, 2.7249545E+002
 1.0003011E+001, 1.9777758E-001, 2.5780206E-002, 2.0188947E-002, 1.1892424E-004, 4.7473156E-004, 2.2480164E-004, 3.0583817E+002
 1.1003075E+001, 1.9472442E-001, 2.8138503E-002, 2.1502384E-002, 1.1357382E-004, 4.0786947E-004, 2.4231382E-004, 3.1876078E+002
 1.2007500E+001, 1.8887188E-001, 3.2652471E-002, 2.4019230E-002, 1.0561422E-004, 2.9819044E-004, 2.7632276E-004, 3.5456508E+002
 1.3004123E+001, 1.8355020E-001, 3.6756987E-002, 2.6307176E-002, 9.7923143E-005, 2.0218923E-004, 3.0714961E-004, 3.7987106E+002
 1.4003089E+001, 1.7827449E-001, 4.0815791E-002, 2.8573964E-002, 9.3816367E-005, 1.3602410E-004, 3.3838340E-004, 3.9509203E+002
 1.5003728E+001, 1.7492644E-001, 4.3389260E-002, 3.0012317E-002, 9.2098680E-005, 9.9778153E-005, 3.5837710E-004, 4.0215623E+002
 1.6000501E+001, 1.7045299E-001, 4.6825211E-002, 3.1933826E-002, 9.0695524E-005, 5.8461812E-005, 3.8526245E-004, 4.1280233E+002
 1.7004263E+001, 1.6676503E-001, 4.9654041E-002, 3.3517625E-002, 9.0996882E-005, 3.3865071E-005, 4.0770960E-004, 4.2050061E+002
 1.8004052E+001, 1.6210087E-001, 5.3224969E-002, 3.5520434E-002, 9.4191297E-005, 1.7451335E-005, 4.3664878E-004, 4.2689136E+002
 1.9003660E+001, 1.5773322E-001, 5.6566514E-002, 3.7395762E-002, 9.8120393E-005, 7.8170209E-006, 4.6393056E-004, 4.3667381E+002
 2.0001770E+001, 1.5487561E-001, 5.8750622E-002, 3.8622708E-002, 1.0163558E-004, 5.9024211E-006, 4.8196561E-004, 4.3257172E+002
 2.1002104E+001, 1.5122633E-001, 6.1540164E-002, 4.0189489E-002, 1.0591050E-004, 3.2205143E-006, 5.0495393E-004, 4.3949071E+002
 2.2007373E+001, 1.4741427E-001, 6.4453290E-002, 4.1826166E-002, 1.1075927E-004, 2.0852527E-006, 5.2904314E-004, 4.3940658E+002
 2.3004155E+001, 1.4515559E-001, 6.6179300E-002, 4.2795870E-002, 1.1362009E-004, 1.7440340E-006, 5.4331328E-004, 4.3833021E+002
 2.4002906E+001, 1.4209793E-001, 6.8515747E-002, 4.4108632E-002, 1.1757319E-004, 1.3022069E-006, 5.6264757E-004, 4.4016590E+002
 2.5003251E+001, 1.3903205E-001, 7.0858357E-002, 4.5424932E-002, 1.2159646E-004, 1.0150780E-006, 5.8204569E-004, 4.3960973E+002
 2.6003538E+001, 1.3616865E-001, 7.3046335E-002, 4.6654260E-002, 1.2528808E-004, 8.4474636E-007, 6.0014919E-004, 4.4008042E+002
 2.7003884E+001, 1.3345533E-001, 7.5119433E-002, 4.7819198E-002, 1.2890823E-004, 8.3679347E-007, 6.1732840E-004, 4.3933382E+002
 2.8001266E+001, 1.3133349E-001, 7.6740772E-002, 4.8730161E-002, 1.3164625E-004, 6.5818905E-007, 6.3074402E-004, 4.4024383E+002
 2.9008138E+001, 1.2845513E-001, 7.8940101E-002, 4.9965930E-002, 1.3540685E-004, 5.6266961E-007, 6.4895212E-004, 4.4000802E+002
 3.0001910E+001, 1.2733665E-001, 7.9794732E-002, 5.0446132E-002, 1.3686637E-004, 4.6593221E-007, 6.5602717E-004, 4.3915903E+002
 3.1002514E+001, 1.2482235E-001, 8.1715763E-002, 5.1525615E-002, 1.4021834E-004, 4.8668740E-007, 6.7194568E-004, 4.3894689E+002
 3.2004858E+001, 1.2214813E-001, 8.3759152E-002, 5.2673734E-002, 1.4368803E-004, 3.1252921E-007, 6.8885757E-004, 4.4148812E+002
 3.3000220E+001, 1.2060796E-001, 8.4935741E-002, 5.3335032E-002, 1.4585013E-004, 4.1261944E-007, 6.9863069E-004, 4.3833853E+002
 3.4007084E+001, 1.1972367E-001, 8.5611440E-002, 5.3714669E-002, 1.4698337E-004, 3.9300102E-007, 7.0422002E-004, 4.3410395E+002
 3.5006796E+001, 1.1667544E-001, 8.7940492E-002, 5.5023380E-002, 1.5100640E-004, 3.4354456E-007, 7.2351080E-004, 4.3580692E+002
 3.6001299E+001, 1.1600942E-001, 8.8449344E-002, 5.5309328E-002, 1.5190167E-004, 3.8874195E-007, 7.2772896E-004, 4.3138075E+002
 3.7007496E+001, 1.1297124E-001, 9.0770687E-002, 5.6613740E-002, 1.5593772E-004, 3.1897550E-007, 7.4696153E-004, 4.3572105E+002
 3.8001473E+001, 1.1201249E-001, 9.1503137E-002, 5.7025381E-002, 1.5725991E-004, 3.5967811E-007, 7.5304040E-004, 4.3435702E+002
 3.9000702E+001, 1.1020688E-001, 9.2882842E-002, 5.7800568E-002, 1.5958112E-004, 2.9570989E-007, 7.6445476E-004, 4.3341756E+002
 4.0002739E+001, 1.0903290E-001, 9.3779943E-002, 5.8304570E-002, 1.6106390E-004, 2.5166993E-007, 7.7187084E-004, 4.3695009E+002
 4.1005139E+001, 1.0714340E-001, 9.5223587E-002, 5.9115810E-002, 1.6359386E-004, 2.6674911E-007, 7.8383586E-004, 4.3219638E+002
 4.2007141E+001, 1.0471284E-001, 9.7080578E-002, 6.0159366E-002, 1.6688014E-004, 2.6934973E-007, 7.9923358E-004, 4.3468092E+002
 4.3005507E+001, 1.0384487E-001, 9.7743572E-002, 6.0532065E-002, 1.6814905E-004, 3.1686206E-007, 8.0475146E-004, 4.3291577E+002
 4.4001085E+001, 1.0231595E-001, 9.8911885E-002, 6.1188440E-002, 1.7008288E-004, 3.0495071E-007, 8.1441016E-004, 4.3141585E+002
 4.5000701E+001, 1.0042894E-001, 1.0035287E-001, 6.1998827E-002, 1.7310983E-004, 5.0416998E-007, 8.2646068E-004, 4.3393802E+002
 4.6001441E+001, 9.9743681E-002, 1.0087614E-001, 6.2293114E-002, 1.7421353E-004, 6.1730624E-007, 8.3083765E-004, 4.2983042E+002
 4.7009300E+001, 9.8427528E-002, 1.0188091E-001, 6.2858418E-002, 1.7650861E-004, 8.5222596E-007, 8.3927981E-004, 4.3106894E+002
 4.8001872E+001, 9.6029475E-002, 1.0370412E-001, 6.3890500E-002, 1.8560508E-004, 3.3585681E-006, 8.5565595E-004, 4.2957249E+002
 4.9005704E+001, 9.4181710E-002, 1.0510292E-001, 6.4687456E-002, 1.9658464E-004, 6.7479044E-006, 8.6907782E-004, 4.3230292E+002
 5.0005619E+001, 9.3324058E-002, 1.0575634E-001, 6.5056169E-002, 1.9892907E-004, 7.4521663E-006, 8.7475052E-004, 4.3197827E+002
 5.1008624E+001, 9.1869899E-002, 1.0685511E-001, 6.5683949E-002, 2.0893123E-004, 1.0592800E-005, 8.8558889E-004, 4.3059214E+002
 5.2007246E+001, 9.0311495E-002, 1.0803454E-001, 6.6356025E-002, 2.1827816E-004, 1.4567943E-005, 8.9692494E-004, 4.3082869E+002
 5.3006358E+001, 8.8415007E-002, 1.0945357E-001, 6.7178721E-002, 2.4052574E-004, 2.2097136E-005, 9.1292273E-004, 4.3228184E+002
 5.4001268E+001, 8.8502266E-002, 1.0938818E-001, 6.7140807E-002, 2.3949791E-004, 2.2305426E-005, 9.1218503E-004, 4.3005905E+002
 5.5003114E+001, 8.6301298E-002, 1.1103918E-001, 6.8094448E-002, 2.6261359E-004, 2.9806798E-005, 9.3020436E-004, 4.3177144E+002
 5.6002178E+001, 8.4845140E-002, 1.1213746E-001, 6.8723312E-002, 2.7368721E-004, 3.5565386E-005, 9.4126859E-004, 4.3239730E+002
 5.7006974E+001, 8.4171050E-002, 1.1264668E-001, 6.9014164E-002, 2.7825862E-004, 3.8271631E-005, 9.4627785E-004, 4.3016637E+002
 5.8002706E+001, 8.2699543E-002, 1.1375670E-001, 6.9649844E-002, 2.8952026E-004, 4.2628983E-005, 9.5747522E-004, 4.3207278E+002
 5.9005655E+001, 8.2039112E-002, 1.1424565E-001, 6.9937788E-002, 3.0068067E-004, 4.6691681E-005, 9.6373678E-004, 4.3134618E+002
 6.0004182E+001, 8.1175378E-002, 1.1490019E-001, 7.0309805E-002, 3.0512245E-004, 5.0138914E-005, 9.6986808E-004, 4.2780766E+002
 6.1004016E+001, 7.9870245E-002, 1.1588635E-001, 7.0872930E-002, 3.1386107E-004, 5.4918477E-005, 9.7954456E-004, 4.3463551E+002
 6.2001614E+001, 7.8552949E-002, 1.1686610E-001, 7.1445869E-002, 3.3307044E-004, 6.2671628E-005, 9.9141525E-004, 4.3107204E+002
 6.3001045E+001, 7.7041608E-002, 1.1799020E-001, 7.2103056E-002, 3.5498366E-004, 7.2429928E-005, 1.0050078E-003, 4.2949308E+002
 6.4001517E+001, 7.7003779E-002, 1.1802360E-001, 7.2117949E-002, 3.5201563E-004, 7.1790838E-005, 1.0046357E-003, 4.2736536E+002
 6.5001954E+001, 7.5458525E-002, 1.1920111E-001, 7.2782065E-002, 3.5598376E-004, 7.3854710E-005, 1.0148033E-003, 4.2820684E+002
 6.6000770E+001, 7.3489068E-002, 1.2069344E-001, 7.3630935E-002, 3.6663093E-004, 7.8211214E-005, 1.0288939E-003, 4.3262759E+002
 6.7007299E+001, 7.2463455E-002, 1.2146953E-001, 7.4073175E-002, 3.7278335E-004, 8.1445545E-005, 1.0363537E-003, 4.3319504E+002
 6.8009940E+001, 7.2302060E-002, 1.2157710E-001, 7.4146680E-002, 3.8318065E-004, 8.6823923E-005, 1.0394341E-003, 4.2739727E+002
 6.9003109E+001, 7.1022065E-002, 1.2254444E-001, 7.4699132E-002, 3.9180366E-004, 9.0108345E-005, 1.0489369E-003, 4.3122252E+002
 7.0008616E+001, 7.0542660E-002, 1.2291811E-001, 7.4902407E-002, 3.8723521E-004, 9.1147956E-005, 1.0509140E-003, 4.2888377E+002
 7.1006121E+001, 6.8090350E-002, 1.2474720E-001, 7.5967779E-002, 4.1977203E-004, 1.0285074E-004, 1.0723624E-003, 4.3071254E+002
 7.2003054E+001, 6.7986370E-002, 1.2483967E-001, 7.6008254E-002, 4.1097337E-004, 1.0261360E-004, 1.0712076E-003, 4.3179860E+002
 7.3004524E+001, 6.6602176E-002, 1.2589091E-001, 7.6604622E-002, 4.1720979E-004, 1.0242662E-004, 1.0808624E-003, 4.3438043E+002
 7.4008977E+001, 6.5670141E-002, 1.2659240E-001, 7.7007557E-002, 4.2527386E-004, 1.0645911E-004, 1.0881419E-003, 4.3030490E+002
 7.5004653E+001, 6.6210995E-002, 1.2617946E-001, 7.6775253E-002, 4.2435067E-004, 1.0646227E-004, 1.0846766E-003, 4.2919167E+002
 7.6000174E+001, 6.3568198E-002, 1.2815092E-001, 7.7923940E-002, 4.5970468E-004, 1.1502373E-004, 1.1078555E-003, 4.2944929E+002
 7.7002856E+001, 6.3756286E-002, 1.2801817E-001, 7.7839300E-002, 4.5164782E-004, 1.1716921E-004, 1.1050777E-003, 4.3379573E+002
 7.8008219E+001, 6.2412955E-002, 1.2902416E-001, 7.8422150E-002, 4.6711138E-004, 1.2009848E-004, 1.1163529E-003, 4.2945706E+002
 7.9007498E+001, 6.1832044E-002, 1.2946963E-001, 7.8670895E-002, 4.6666177E-004, 1.2094239E-004, 1.1197812E-003, 4.2740847E+002
 8.0001710E+001, 5.9666530E-002, 1.3110594E-001, 7.9606116E-002, 4.8179835E-004, 1.2346683E-004, 1.1359736E-003, 4.3360757E+002
 8.1003236E+001, 5.9959809E-002, 1.3090742E-001, 7.9472162E-002, 4.6397132E-004, 1.2212238E-004, 1.1305807E-003, 4.2765670E+002
 8.2002103E+001, 5.7914681E-002, 1.3243657E-001, 8.0359590E-002, 4.8863996E-004, 1.3086069E-004, 1.1479689E-003, 4.3056380E+002
 8.3002959E+001, 5.7528378E-002, 1.3272033E-001, 8.0528924E-002, 4.9684903E-004, 1.3210288E-004, 1.1519741E-003, 4.3173086E+002
 8.4005459E+001, 5.7384499E-002, 1.3283770E-001, 8.0588259E-002, 4.9189448E-004, 1.3232766E-004, 1.1518405E-003, 4.3138000E+002
 8.5003130E+001, 5.5746962E-002, 1.3406773E-001, 8.1297188E-002, 5.0790116E-004, 1.3817162E-004, 1.1650049E-003, 4.3135488E+002
 8.6003278E+001, 5.5792768E-002, 1.3403842E-001, 8.1275786E-002, 5.0400084E-004, 1.3755589E-004, 1.1639367E-003, 4.3008923E+002
 8.7008311E+001, 5.4457988E-002, 1.3502936E-001, 8.1856867E-002, 5.2467700E-004, 1.4570881E-004, 1.1762104E-003, 4.3196510E+002
 8.8002687E+001, 5.5312373E-002, 1.3441081E-001, 8.1479966E-002, 5.0069910E-004, 1.3967410E-004, 1.1661753E-003, 4.2937585E+002
 8.9001318E+001, 5.4080402E-002, 1.3534187E-001, 8.2012046E-002, 5.0926435E-004, 1.4062984E-004, 1.1753785E-003, 4.2876283E+002
 9.0008328E+001, 5.3050811E-002, 1.3612049E-001, 8.2456715E-002, 5.1618925E-004, 1.4043197E-004, 1.1830240E-003, 4.3001883E+002
 9.1001616E+001, 5.2409175E-002, 1.3660944E-001, 8.2732202E-002, 5.1762653E-004, 1.4296046E-004, 1.1872009E-003, 4.2951829E+002
 9.2004231E+001, 5.1059506E-002, 1.3762913E-001, 8.3315225E-002, 5.2723083E-004, 1.4394573E-004, 1.1973282E-003, 4.2856750E+002
 9.3000609E+001, 5.0515485E-002, 1.3803482E-001, 8.3552193E-002, 5.3495430E-004, 1.4284453E-004, 1.2021941E-003, 4.2940937E+002
 9.4003177E+001, 5.0461097E-002, 1.3807388E-001, 8.3575889E-002, 5.3639796E-004, 1.4567697E-004, 1.2028127E-003, 4.3064790E+002
 9.5004305E+001, 5.0028527E-002, 1.3841206E-001, 8.3759675E-002, 5.3210023E-004, 1.4231824E-004, 1.2045670E-003, 4.3485399E+002
 9.6007866E+001, 4.9415306E-002, 1.3886520E-001, 8.4027574E-002, 5.4325138E-004, 1.4448584E-004, 1.2105432E-003, 4.3285049E+002
 9.7004778E+001, 4.8203483E-002, 1.3974920E-001, 8.4560022E-002, 5.7267818E-004, 1.5287441E-004, 1.2238470E-003, 4.2894444E+002
 9.8000421E+001, 4.8032781E-002, 1.3990008E-001, 8.4626654E-002, 5.5878358E-004, 1.5318022E-004, 1.2220618E-003, 4.3107255E+002
 9.9000218E+001, 4.7022713E-002, 1.4065833E-001, 8.5064112E-002, 5.6899788E-004, 1.5664172E-004, 1.2302512E-003, 4.2952650E+002
 1.0000146E+002, 4.6514946E-002, 1.4103503E-001, 8.5285064E-002, 5.7690719E-004, 1.6087368E-004, 1.2349276E-003, 4.2981385E+002
 1.0100169E+002, 4.5896395E-002, 1.4150489E-001, 8.5551700E-002, 5.7975655E-004, 1.5975139E-004, 1.2392562E-003, 4.2774025E+002
 1.0200633E+002, 4.6127807E-002, 1.4133897E-001, 8.5449217E-002, 5.7224090E-004, 1.5735057E-004, 1.2363321E-003, 4.2463714E+002
 1.0300363E+002, 4.5062327E-002, 1.4215353E-001, 8.5906672E-002, 5.7344879E-004, 1.5637537E-004, 1.2430361E-003, 4.3010136E+002
 1.0400128E+002, 4.3987812E-002, 1.4297282E-001, 8.6368839E-002, 5.7626002E-004, 1.5456685E-004, 1.2501213E-003, 4.2908480E+002
 1.0500126E+002, 4.3433380E-002, 1.4340174E-001, 8.6605839E-002, 5.7385331E-004, 1.5041927E-004, 1.2529990E-003, 4.3676542E+002
 1.0600622E+002, 4.2653677E-002, 1.4399207E-001, 8.6941623E-002, 5.7807066E-004, 1.5483579E-004, 1.2585741E-003, 4.3306804E+002
 1.0700429E+002, 4.1498210E-002, 1.4482451E-001, 8.7452625E-002, 6.1328248E-004, 1.6320565E-004, 1.2727103E-003, 4.3441216E+002
 1.0800701E+002, 4.1990502E-002, 1.4446172E-001, 8.7237027E-002, 6.0349305E-004, 1.6275947E-004, 1.2677409E-003, 4.2645120E+002
 1.0900961E+002, 4.1062529E-002, 1.4515191E-001, 8.7641603E-002, 6.1774967E-004, 1.6224860E-004, 1.2762586E-003, 4.2800720E+002
 1.1000605E+002, 4.1304632E-002, 1.4498144E-001, 8.7532691E-002, 6.0722644E-004, 1.6399119E-004, 1.2726535E-003, 4.3209399E+002
 1.1100181E+002, 3.9695962E-002, 1.4617966E-001, 8.8232804E-002, 6.3023648E-004, 1.6722827E-004, 1.2870677E-003, 4.3093807E+002
 1.1200558E+002, 3.9772435E-002, 1.4611730E-001, 8.8200728E-002, 6.3245361E-004, 1.7037520E-004, 1.2870497E-003, 4.2820636E+002
 1.1300518E+002, 3.8610113E-002, 1.4700608E-001, 8.8699715E-002, 6.3365386E-004, 1.6923206E-004, 1.2943393E-003, 4.2740022E+002
 1.1400435E+002, 3.8652037E-002, 1.4698819E-001, 8.8677489E-002, 6.2411858E-004, 1.6712998E-004, 1.2921533E-003, 4.3196917E+002
 1.1500328E+002, 3.8331349E-002, 1.4721722E-001, 8.8819467E-002, 6.3489713E-004, 1.7247164E-004, 1.2962765E-003, 4.3457748E+002
 1.1600841E+002, 3.8189297E-002, 1.4732531E-001, 8.8880779E-002, 6.3553123E-004, 1.7138151E-004, 1.2972676E-003, 4.2813806E+002
 1.1700068E+002, 3.7947686E-002, 1.4748640E-001, 8.8990818E-002, 6.5107136E-004, 1.7930557E-004, 1.3018742E-003, 4.2964861E+002
 1.1800366E+002, 3.6637766E-002, 1.4848063E-001, 8.9555332E-002, 6.5735108E-004, 1.7942422E-004, 1.3110872E-003, 4.2995516E+002
 1.1900056E+002, 3.7668615E-002, 1.4770979E-001, 8.9107696E-002, 6.4470088E-004, 1.7716923E-004, 1.3022759E-003, 4.2695095E+002
 1.2000188E+002, 3.6055145E-002, 1.4894090E-001, 8.9801338E-002, 6.4827811E-004, 1.7480970E-004, 1.3127838E-003, 4.2902706E+002
 1.2100249E+002, 3.7072101E-002, 1.4818317E-001, 8.9358840E-002, 6.3391565E-004, 1.7270078E-004, 1.3037090E-003, 4.3136136E+002
 1.2200667E+002, 3.5201004E-002, 1.4958390E-001, 9.0171605E-002, 6.5636721E-004, 1.7203811E-004, 1.3196057E-003, 4.3467725E+002
 1.2300742E+002, 3.4957903E-002, 1.4975668E-001, 9.0279207E-002, 6.6489508E-004, 1.7793942E-004, 1.3228012E-003, 4.3092120E+002
 1.2400407E+002, 3.5871454E-002, 1.4910217E-001, 8.9874018E-002, 6.3454995E-004, 1.7130156E-004, 1.3111164E-003, 4.2983302E+002
 1.2500061E+002, 3.4284577E-002, 1.5026978E-001, 9.0569007E-002, 6.6693477E-004, 1.7623117E-004, 1.3272983E-003, 4.2805810E+002
 1.2600507E+002, 3.4629472E-002, 1.5000939E-001, 9.0419929E-002, 6.6432942E-004, 1.7617690E-004, 1.3246794E-003, 4.2753923E+002
 1.2700654E+002, 3.4523149E-002, 1.5009030E-001, 9.0465182E-002, 6.6431827E-004, 1.7926252E-004, 1.3253172E-003, 4.2875070E+002
 1.2800302E+002, 3.3149891E-002, 1.5113315E-001, 9.1056979E-002, 6.7064952E-004, 1.7838209E-004, 1.3349261E-003, 4.3071674E+002
 1.2900442E+002, 3.3927783E-002, 1.5053093E-001, 9.0725251E-002, 6.7481442E-004, 1.8017549E-004, 1.3310541E-003, 4.2814107E+002
 1.3000550E+002, 3.3358723E-002, 1.5093265E-001, 9.0979297E-002, 6.9762151E-004, 1.8604909E-004, 1.3391226E-003, 4.3070140E+002
 1.3101022E+002, 3.3160038E-002, 1.5110760E-001, 9.1057804E-002, 6.8246334E-004, 1.8187057E-004, 1.3372568E-003, 4.2648954E+002
 1.3200322E+002, 3.2427265E-002, 1.5162577E-001, 9.1385318E-002, 7.1172826E-004, 1.8533012E-004, 1.3476313E-003, 4.2706488E+002
 1.3300583E+002, 3.1854854E-002, 1.5207336E-001, 9.1628334E-002, 7.0586460E-004, 1.8184339E-004, 1.3499156E-003, 4.2926969E+002
 1.3400917E+002, 3.2180142E-002, 1.5185065E-001, 9.1480830E-002, 6.8802430E-004, 1.7880106E-004, 1.3443284E-003, 4.2917828E+002
 1.3500609E+002, 3.0871974E-002, 1.5280308E-001, 9.2056316E-002, 7.2115042E-004, 1.8719315E-004, 1.3589667E-003, 4.2985730E+002
 1.3601018E+002, 3.1280640E-002, 1.5252352E-001, 9.1870978E-002, 6.9861032E-004, 1.8304780E-004, 1.3519221E-003, 4.2895619E+002
 1.3700685E+002, 3.0317513E-002, 1.5327016E-001, 9.2282301E-002, 6.9345451E-004, 1.7508390E-004, 1.3567243E-003, 4.3260444E+002
 1.3800694E+002, 3.1024787E-002, 1.5273601E-001, 9.1976313E-002, 6.8797957E-004, 1.7701389E-004, 1.3513241E-003, 4.3134485E+002
 1.3900433E+002, 2.9300030E-002, 1.5396474E-001, 9.2744115E-002, 7.5049920E-004, 1.8606212E-004, 1.3744506E-003, 4.2969325E+002
 1.4000440E+002, 2.9011952E-002, 1.5419747E-001, 9.2863186E-002, 7.4178667E-004, 1.8935662E-004, 1.3744240E-003, 4.3224683E+002
 1.4100106E+002, 2.9744857E-002, 1.5366596E-001, 9.2540275E-002, 7.2192539E-004, 1.8352958E-004, 1.3659602E-003, 4.2498519E+002
 1.4200643E+002, 2.8600676E-002, 1.5449428E-001, 9.3045091E-002, 7.5410334E-004, 1.9118752E-004, 1.3794133E-003, 4.3096708E+002
 1.4300833E+002, 2.9069269E-002, 1.5416828E-001, 9.2833430E-002, 7.3132964E-004, 1.9200547E-004, 1.3719511E-003, 4.2878290E+002
 1.4400616E+002, 2.9745333E-002, 1.5367994E-001, 9.2534980E-002, 7.1170264E-004, 1.8634841E-004, 1.3638790E-003, 4.3113955E+002
 1.4500077E+002, 2.8727731E-002, 1.5445198E-001, 9.2973934E-002, 7.1703828E-004, 1.8451582E-004, 1.3711317E-003, 4.2653737E+002
 1.4600812E+002, 2.8266051E-002, 1.5478544E-001, 9.3178031E-002, 7.3066647E-004, 1.8665626E-004, 1.3766921E-003, 4.2931667E+002
 1.4700159E+002, 2.7500653E-002, 1.5530988E-001, 9.3525107E-002, 7.7247028E-004, 1.9302895E-004, 1.3898045E-003, 4.2996559E+002
 1.4800707E+002, 2.7049817E-002, 1.5557665E-001, 9.3741534E-002, 8.2488771E-004, 2.0674688E-004, 1.4031538E-003, 4.3362735E+002
 1.4900047E+002, 2.7417537E-002, 1.5538286E-001, 9.3557177E-002, 7.6563639E-004, 1.9643472E-004, 1.3889168E-003, 4.3053989E+002
 1.5000415E+002, 2.6839762E-002, 1.5579487E-001, 9.3814529E-002, 7.8651396E-004, 1.9777897E-004, 1.3966529E-003, 4.3212653E+002
 1.5100511E+002, 2.6249725E-002, 1.5622619E-001, 9.4073271E-002, 8.0005761E-004, 2.0318959E-004, 1.4029696E-003, 4.3239140E+002
 1.5200136E+002, 2.6096647E-002, 1.5633605E-001, 9.4140980E-002, 8.0491987E-004, 2.0508280E-004, 1.4048813E-003, 4.2623847E+002
 1.5300253E+002, 2.6189689E-002, 1.5627183E-001, 9.4099441E-002, 8.0053723E-004, 2.0122250E-004, 1.4034335E-003, 4.2825764E+002
 1.5400810E+002, 2.7199521E-002, 1.5557472E-001, 9.3643390E-002, 7.4910507E-004, 1.9166166E-004, 1.3868904E-003, 4.2844632E+002
