s,,,,,,,
Time,"O2 EXHAUST","CO2 EXHAUST","H2O EXHAUST","CO EXHAUST","FUEL EXHAUST","SOOT EXHAUST","TEMP EXHAUST"
 0.0000000E+000, 2.3099739E-001, 5.9146498E-004, 5.9412092E-003, 0.0000000E+000, 0.0000000E+000, 0.0000000E+000, 2.0000000E+001
 1.0011733E+000, 2.3099739E-001, 5.9146498E-004, 5.9412092E-003, 1.3491005E-028, 8.2117051E-028, 3.8760539E-029, 2.1160833E+001
 2.0031656E+000, 2.2061125E-001, 1.0079291E-002, 9.9592402E-003, 7.6978542E-005, 1.8505196E-004, 7.3675615E-005, 1.1905282E+002
 3.0000154E+000, 2.1432852E-001, 1.5816835E-002, 1.2398449E-002, 1.3304301E-004, 2.4858945E-004, 1.2026879E-004, 1.7614620E+002
 4.0039782E+000, 2.0788079E-001, 2.1734254E-002, 1.4896570E-002, 1.7238713E-004, 2.8635743E-004, 1.6436085E-004, 2.3196970E+002
 5.0025334E+000, 2.0013296E-001, 2.8886424E-002, 1.7888099E-002, 1.9076100E-004, 3.1065587E-004, 2.1139697E-004, 2.9389183E+002
 6.0016079E+000, 1.9056886E-001, 3.7798516E-002, 2.1572976E-002, 1.6833959E-004, 2.2184018E-004, 2.6029077E-004, 3.5459822E+002
 7.0030482E+000, 1.8047326E-001, 4.7219027E-002, 2.5457868E-002, 1.3401621E-004, 1.3043475E-004, 3.0969631E-004, 4.1145010E+002
 8.0062690E+000, 1.7495310E-001, 5.2388304E-002, 2.7579206E-002, 1.0421978E-004, 6.1261788E-005, 3.3445597E-004, 4.3952880E+002
 9.0057769E+000, 1.6685918E-001, 5.9924380E-002, 3.0695738E-002, 8.6021866E-005, 9.7365787E-006, 3.7596401E-004, 4.7001114E+002
 1.0000067E+001, 1.5752914E-001, 6.8565185E-002, 3.4295200E-002, 9.2643572E-005, 7.4770412E-007, 4.2945034E-004, 4.9465252E+002
 1.1001126E+001, 1.4877481E-001, 7.6665420E-002, 3.7673709E-002, 1.0330851E-004, 1.4787811E-007, 4.8054628E-004, 5.1756781E+002
 1.2003459E+001, 1.4415740E-001, 8.0937474E-002, 3.9455742E-002, 1.0915646E-004, 1.9194296E-007, 5.0754209E-004, 5.2779983E+002
 1.3002263E+001, 1.3826627E-001, 8.6388433E-002, 4.1729224E-002, 1.1628681E-004, 8.1367429E-008, 5.4191655E-004, 5.2869764E+002
 1.4003104E+001, 1.3604496E-001, 8.8443708E-002, 4.2586488E-002, 1.1902821E-004, 5.5780876E-008, 5.5488872E-004, 5.2558658E+002
 1.5004761E+001, 1.3165639E-001, 9.2504201E-002, 4.4280158E-002, 1.2446810E-004, 3.0906643E-008, 5.8052225E-004, 5.2468398E+002
 1.6001470E+001, 1.2863096E-001, 9.5303360E-002, 4.5447782E-002, 1.2829025E-004, 5.5178094E-008, 5.9820854E-004, 5.2675086E+002
 1.7001393E+001, 1.2500704E-001, 9.8656226E-002, 4.6846393E-002, 1.3288439E-004, 7.0986537E-008, 6.1939680E-004, 5.2761141E+002
 1.8002890E+001, 1.2154139E-001, 1.0186269E-001, 4.8183911E-002, 1.3725402E-004, 9.5554622E-008, 6.3965478E-004, 5.3050939E+002
 1.9001775E+001, 1.2057769E-001, 1.0275391E-001, 4.8555967E-002, 1.3878527E-004, 1.5328405E-007, 6.4535324E-004, 5.3097324E+002
 2.0004067E+001, 1.1801364E-001, 1.0512644E-001, 4.9545447E-002, 1.4183029E-004, 1.4769406E-007, 6.6030224E-004, 5.3344463E+002
 2.1002314E+001, 1.1740404E-001, 1.0569072E-001, 4.9780634E-002, 1.4240014E-004, 6.2642337E-008, 6.6382456E-004, 5.2714188E+002
 2.2008150E+001, 1.1519001E-001, 1.0773920E-001, 5.0635099E-002, 1.4516787E-004, 6.2123814E-008, 6.7676145E-004, 5.2903136E+002
 2.3001132E+001, 1.1455709E-001, 1.0832476E-001, 5.0879374E-002, 1.4598855E-004, 7.0242198E-008, 6.8046577E-004, 5.2640306E+002
 2.4007442E+001, 1.1329218E-001, 1.0949508E-001, 5.1367545E-002, 1.4757729E-004, 8.8223718E-008, 6.8785837E-004, 5.2836297E+002
 2.5007697E+001, 1.1212002E-001, 1.1057958E-001, 5.1819925E-002, 1.4905573E-004, 9.7432805E-008, 6.9471019E-004, 5.2464362E+002
 2.6006085E+001, 1.1224102E-001, 1.1046768E-001, 5.1773215E-002, 1.4886985E-004, 6.8344365E-008, 6.9399604E-004, 5.2737056E+002
 2.7007969E+001, 1.0877618E-001, 1.1367308E-001, 5.3110504E-002, 1.5346244E-004, 1.7975666E-007, 7.1429542E-004, 5.3088127E+002
 2.8003138E+001, 1.0964067E-001, 1.1287342E-001, 5.2776816E-002, 1.5224093E-004, 1.3023558E-007, 7.0921505E-004, 5.3012318E+002
 2.9007066E+001, 1.0631425E-001, 1.1595127E-001, 5.4060552E-002, 1.5629716E-004, 6.3890677E-008, 7.2863083E-004, 5.2710471E+002
 3.0004691E+001, 1.0707783E-001, 1.1524480E-001, 5.3765853E-002, 1.5532790E-004, 6.7241529E-008, 7.2416603E-004, 5.2416297E+002
 3.1003343E+001, 1.0564165E-001, 1.1657359E-001, 5.4320121E-002, 1.5712404E-004, 6.7063711E-008, 7.3255801E-004, 5.2622471E+002
 3.2003333E+001, 1.0394436E-001, 1.1814394E-001, 5.4975170E-002, 1.5926985E-004, 7.7140120E-008, 7.4248050E-004, 5.2601095E+002
 3.3006871E+001, 1.0390241E-001, 1.1818270E-001, 5.4991373E-002, 1.5936217E-004, 1.0744607E-007, 7.4273381E-004, 5.2849242E+002
 3.4003371E+001, 1.0275402E-001, 1.1924498E-001, 5.5434647E-002, 1.6098142E-004, 1.6323408E-007, 7.4948192E-004, 5.2390778E+002
 3.5000449E+001, 1.0262237E-001, 1.1936691E-001, 5.5485416E-002, 1.6105074E-004, 1.1548342E-007, 7.5023150E-004, 5.2942659E+002
 3.6003228E+001, 9.9574384E-002, 1.2218666E-001, 5.6661828E-002, 1.6510503E-004, 1.9452869E-007, 7.6809168E-004, 5.3420384E+002
 3.7000399E+001, 1.0131691E-001, 1.2057495E-001, 5.5989180E-002, 1.6254352E-004, 7.1332087E-008, 7.5783080E-004, 5.2744790E+002
 3.8004347E+001, 1.0019325E-001, 1.2161444E-001, 5.6422879E-002, 1.6405867E-004, 1.2733771E-007, 7.6441929E-004, 5.2581972E+002
 3.9004114E+001, 9.9876543E-002, 1.2190727E-001, 5.6545163E-002, 1.6459687E-004, 1.5368013E-007, 7.6629922E-004, 5.2994201E+002
 4.0001648E+001, 9.7794477E-002, 1.2383375E-001, 5.7348672E-002, 1.6713305E-004, 1.3927329E-007, 7.7845129E-004, 5.2600884E+002
 4.1006079E+001, 9.7577193E-002, 1.2403366E-001, 5.7432864E-002, 1.6824427E-004, 3.7347112E-007, 7.7989413E-004, 5.3168279E+002
 4.2000616E+001, 9.6666790E-002, 1.2487690E-001, 5.7783948E-002, 1.6870661E-004, 1.7889349E-007, 7.8507434E-004, 5.2587282E+002
 4.3005357E+001, 9.7742133E-002, 1.2388244E-001, 5.7368799E-002, 1.6700865E-004, 6.1120843E-008, 7.7871800E-004, 5.2112311E+002
 4.4001337E+001, 9.5894213E-002, 1.2559080E-001, 5.8082377E-002, 1.7034871E-004, 3.9053639E-007, 7.8972812E-004, 5.2193567E+002
 4.5000122E+001, 9.4705049E-002, 1.2669076E-001, 5.8541386E-002, 1.7203427E-004, 5.1550065E-007, 7.9671755E-004, 5.2795419E+002
 4.6006743E+001, 9.5077396E-002, 1.2634573E-001, 5.8397847E-002, 1.7196539E-004, 5.9662977E-007, 7.9462373E-004, 5.2376715E+002
 4.7003067E+001, 9.5995042E-002, 1.2549784E-001, 5.8043359E-002, 1.6996636E-004, 3.4421392E-007, 7.8908605E-004, 5.2444018E+002
 4.8001755E+001, 9.5438551E-002, 1.2601302E-001, 5.8258039E-002, 1.7044027E-004, 2.7932365E-007, 7.9229196E-004, 5.2934059E+002
 4.9004129E+001, 9.3589712E-002, 1.2772072E-001, 5.8972392E-002, 1.7487875E-004, 1.1107732E-006, 8.0353359E-004, 5.2557499E+002
 5.0000637E+001, 9.1748694E-002, 1.2941850E-001, 5.9684587E-002, 1.8136856E-004, 2.1133670E-006, 8.1515529E-004, 5.2651265E+002
 5.1007328E+001, 9.3321405E-002, 1.2796488E-001, 5.9077174E-002, 1.7827712E-004, 1.8487148E-006, 8.0573345E-004, 5.2607227E+002
 5.2002914E+001, 9.3576932E-002, 1.2773311E-001, 5.8977177E-002, 1.7449206E-004, 8.4562151E-007, 8.0352538E-004, 5.3220078E+002
 5.3000572E+001, 9.4667010E-002, 1.2672511E-001, 5.8556293E-002, 1.7268652E-004, 8.4989927E-007, 7.9706437E-004, 5.2435417E+002
 5.4006582E+001, 9.0737992E-002, 1.3035137E-001, 6.0075199E-002, 1.8419347E-004, 3.3273570E-006, 8.2138212E-004, 5.2262113E+002
 5.5007614E+001, 9.0971578E-002, 1.3013763E-001, 5.9984379E-002, 1.8216354E-004, 2.6123635E-006, 8.1965897E-004, 5.2027923E+002
 5.6001118E+001, 9.0574329E-002, 1.3049863E-001, 6.0139593E-002, 1.8749218E-004, 4.2434699E-006, 8.2297675E-004, 5.2617614E+002
 5.7005721E+001, 9.1048027E-002, 1.3006658E-001, 5.9955034E-002, 1.8236770E-004, 2.2742686E-006, 8.1927465E-004, 5.2988063E+002
 5.8007177E+001, 9.1731537E-002, 1.2943436E-001, 5.9691131E-002, 1.8131824E-004, 2.6087009E-006, 8.1524007E-004, 5.2877521E+002
 5.9001267E+001, 9.0624500E-002, 1.3045827E-001, 6.0118466E-002, 1.8295272E-004, 2.7420387E-006, 8.2176026E-004, 5.2661254E+002
 6.0004676E+001, 8.9970258E-002, 1.3106396E-001, 6.0370843E-002, 1.8349162E-004, 2.7093059E-006, 8.2552548E-004, 5.3217159E+002
 6.1002183E+001, 8.9124269E-002, 1.3183997E-001, 6.0699270E-002, 1.8949079E-004, 4.5230830E-006, 8.3148771E-004, 5.2322977E+002
 6.2006381E+001, 8.9760283E-002, 1.3125390E-001, 6.0453094E-002, 1.8690913E-004, 4.0692467E-006, 8.2740273E-004, 5.2677672E+002
 6.3004248E+001, 8.9157631E-002, 1.3181150E-001, 6.0685678E-002, 1.8765645E-004, 4.0265514E-006, 8.3092292E-004, 5.2985810E+002
 6.4004340E+001, 9.0401613E-002, 1.3066072E-001, 6.0205551E-002, 1.8598418E-004, 3.8654331E-006, 8.2363013E-004, 5.2110390E+002
 6.5000297E+001, 8.9479586E-002, 1.3151092E-001, 6.0562170E-002, 1.8920692E-004, 4.9382864E-006, 8.2944414E-004, 5.2343872E+002
 6.6000708E+001, 8.7908313E-002, 1.3296378E-001, 6.1168871E-002, 1.9188426E-004, 5.0096984E-006, 8.3877261E-004, 5.2675697E+002
 6.7002693E+001, 8.8690954E-002, 1.3224060E-001, 6.0866587E-002, 1.9024742E-004, 4.5612816E-006, 8.3406401E-004, 5.2880469E+002
 6.8004756E+001, 8.8243900E-002, 1.3265350E-001, 6.1039334E-002, 1.9134519E-004, 4.7189989E-006, 8.3678739E-004, 5.3349917E+002
 6.9001342E+001, 8.9259690E-002, 1.3171290E-001, 6.0647507E-002, 1.9061571E-004, 5.0539233E-006, 8.3096324E-004, 5.2726922E+002
 7.0003196E+001, 8.7451546E-002, 1.3338073E-001, 6.1346669E-002, 1.9650668E-004, 7.2150797E-006, 8.4227608E-004, 5.2432717E+002
 7.1000196E+001, 8.6835234E-002, 1.3394517E-001, 6.1586384E-002, 2.0173011E-004, 7.5955675E-006, 8.4679714E-004, 5.2861278E+002
 7.2004866E+001, 8.6984502E-002, 1.3380640E-001, 6.1528989E-002, 2.0205487E-004, 7.6553254E-006, 8.4603055E-004, 5.2465189E+002
 7.3001880E+001, 8.8222998E-002, 1.3266861E-001, 6.1048642E-002, 1.9450903E-004, 5.7228816E-006, 8.3755674E-004, 5.2740446E+002
 7.4000035E+001, 8.8854640E-002, 1.3208667E-001, 6.0804156E-002, 1.9189429E-004, 5.0790191E-006, 8.3348958E-004, 5.2425212E+002
 7.5002037E+001, 8.6570306E-002, 1.3418438E-001, 6.1690291E-002, 2.0637182E-004, 9.4180625E-006, 8.4923371E-004, 5.2970919E+002
 7.6005476E+001, 8.7347267E-002, 1.3347733E-001, 6.1387134E-002, 1.9680672E-004, 5.6526133E-006, 8.4292248E-004, 5.2952355E+002
 7.7004326E+001, 8.8342946E-002, 1.3255549E-001, 6.1002943E-002, 1.9590537E-004, 6.4273744E-006, 8.3717455E-004, 5.2659714E+002
 7.8003256E+001, 8.6180314E-002, 1.3454841E-001, 6.1839921E-002, 2.0454454E-004, 8.3035570E-006, 8.5103550E-004, 5.2495274E+002
 7.9006452E+001, 8.8082218E-002, 1.3279710E-001, 6.1103460E-002, 1.9595663E-004, 6.3057763E-006, 8.3864141E-004, 5.2257838E+002
 8.0004707E+001, 8.7220770E-002, 1.3359179E-001, 6.1436554E-002, 1.9871726E-004, 7.1928496E-006, 8.4402183E-004, 5.2529164E+002
 8.1001374E+001, 8.6303304E-002, 1.3444340E-001, 6.1789865E-002, 1.9786822E-004, 6.3268851E-006, 8.4897130E-004, 5.2566094E+002
 8.2007398E+001, 8.7476681E-002, 1.3335452E-001, 6.1337944E-002, 1.9877603E-004, 7.2699099E-006, 8.4260467E-004, 5.2105142E+002
 8.3005030E+001, 8.6808141E-002, 1.3397171E-001, 6.1596394E-002, 2.0065855E-004, 7.3342668E-006, 8.4672731E-004, 5.2120046E+002
 8.4000027E+001, 8.7492111E-002, 1.3334026E-001, 6.1331974E-002, 1.9873147E-004, 7.3141122E-006, 8.4250923E-004, 5.2112176E+002
 8.5007510E+001, 8.5062270E-002, 1.3558312E-001, 6.2271293E-002, 2.0570762E-004, 8.4806227E-006, 8.5751968E-004, 5.2415550E+002
 8.6001477E+001, 8.6252098E-002, 1.3448164E-001, 6.1812206E-002, 2.0460037E-004, 9.0753810E-006, 8.5064514E-004, 5.2441569E+002
 8.7006267E+001, 8.5794249E-002, 1.3490719E-001, 6.1988437E-002, 2.0384160E-004, 8.0291800E-006, 8.5304665E-004, 5.2339758E+002
 8.8002533E+001, 8.4171325E-002, 1.3640513E-001, 6.2615649E-002, 2.0837070E-004, 1.0034352E-005, 8.6304381E-004, 5.2641270E+002
 8.9004633E+001, 8.5140708E-002, 1.3550975E-001, 6.2241269E-002, 2.0621462E-004, 8.5905133E-006, 8.5718627E-004, 5.2674895E+002
 9.0007020E+001, 8.6446195E-002, 1.3430615E-001, 6.1736117E-002, 2.0134457E-004, 7.9902031E-006, 8.4888964E-004, 5.2009295E+002
 9.1003638E+001, 8.6832246E-002, 1.3394295E-001, 6.1588984E-002, 2.0541247E-004, 8.8630012E-006, 8.4757327E-004, 5.2449680E+002
 9.2007953E+001, 8.8037597E-002, 1.3283933E-001, 6.1120351E-002, 1.9526231E-004, 6.4146684E-006, 8.3874696E-004, 5.2640076E+002
 9.3000455E+001, 8.8343782E-002, 1.3255982E-001, 6.1001058E-002, 1.9205668E-004, 5.6156219E-006, 8.3637547E-004, 5.2387192E+002
 9.4000974E+001, 8.6571544E-002, 1.3419021E-001, 6.1687737E-002, 2.0117071E-004, 7.9594976E-006, 8.4815370E-004, 5.2090533E+002
 9.5007222E+001, 8.5352897E-002, 1.3531160E-001, 6.2159768E-002, 2.0715423E-004, 9.8898375E-006, 8.5619376E-004, 5.2615324E+002
 9.6004515E+001, 8.6898893E-002, 1.3388935E-001, 6.1560881E-002, 1.9933893E-004, 7.0698191E-006, 8.4594809E-004, 5.2645806E+002
 9.7002271E+001, 8.6292723E-002, 1.3444908E-001, 6.1795118E-002, 2.0089033E-004, 7.5037402E-006, 8.4965349E-004, 5.2407224E+002
 9.8000475E+001, 8.7463053E-002, 1.3337164E-001, 6.1341841E-002, 1.9541114E-004, 6.4361259E-006, 8.4198639E-004, 5.2704036E+002
 9.9001312E+001, 8.5523000E-002, 1.3516302E-001, 6.2091622E-002, 2.0050537E-004, 7.3205686E-006, 8.5387289E-004, 5.3324899E+002
 1.0000687E+002, 8.6165320E-002, 1.3456454E-001, 6.1844974E-002, 2.0281887E-004, 8.2058896E-006, 8.5076270E-004, 5.3001795E+002
 1.0100028E+002, 8.6393871E-002, 1.3436317E-001, 6.1753886E-002, 1.9513409E-004, 5.3722979E-006, 8.4790164E-004, 5.3241914E+002
 1.0200622E+002, 8.7124805E-002, 1.3368346E-001, 6.1472791E-002, 1.9675275E-004, 6.2432827E-006, 8.4415296E-004, 5.2815974E+002
 1.0300293E+002, 8.6587764E-002, 1.3417897E-001, 6.1680535E-002, 1.9852321E-004, 6.1008194E-006, 8.4751833E-004, 5.2361849E+002
 1.0400226E+002, 8.6404768E-002, 1.3435181E-001, 6.1750059E-002, 1.9607269E-004, 5.6544446E-006, 8.4803441E-004, 5.2705492E+002
 1.0500497E+002, 8.5929067E-002, 1.3478698E-001, 6.1935045E-002, 2.0028228E-004, 7.1539570E-006, 8.5155921E-004, 5.2717168E+002
 1.0600315E+002, 8.5178351E-002, 1.3547647E-001, 6.2226149E-002, 2.0488175E-004, 9.0552068E-006, 8.5669996E-004, 5.2690911E+002
 1.0700551E+002, 8.5796226E-002, 1.3490292E-001, 6.1988299E-002, 2.0555377E-004, 9.1388759E-006, 8.5338805E-004, 5.2303280E+002
 1.0800638E+002, 8.4139127E-002, 1.3642842E-001, 6.2630152E-002, 2.1339962E-004, 1.0549707E-005, 8.6426235E-004, 5.2771158E+002
 1.0900158E+002, 8.4871189E-002, 1.3575218E-001, 6.2347230E-002, 2.1160315E-004, 1.0768660E-005, 8.5980237E-004, 5.2872957E+002
 1.1000369E+002, 8.4787753E-002, 1.3582920E-001, 6.2379562E-002, 2.1191920E-004, 1.0325157E-005, 8.6033423E-004, 5.2838892E+002
 1.1100506E+002, 8.5880400E-002, 1.3482335E-001, 6.1956378E-002, 2.0676985E-004, 9.1262775E-006, 8.5316932E-004, 5.2177074E+002
 1.1200517E+002, 8.6903932E-002, 1.3388170E-001, 6.1559729E-002, 2.0146213E-004, 8.2805814E-006, 8.4635721E-004, 5.2249673E+002
 1.1300461E+002, 8.5652417E-002, 1.3503755E-001, 6.2043356E-002, 2.0458725E-004, 8.6707384E-006, 8.5399204E-004, 5.2802841E+002
 1.1400240E+002, 8.4572481E-002, 1.3602691E-001, 6.2463174E-002, 2.1337675E-004, 1.0064086E-005, 8.6183807E-004, 5.2489309E+002
 1.1500716E+002, 8.6829309E-002, 1.3395199E-001, 6.1588192E-002, 2.0066043E-004, 7.8078070E-006, 8.4660887E-004, 5.2592131E+002
 1.1600542E+002, 8.7923418E-002, 1.3294366E-001, 6.1164878E-002, 1.9645459E-004, 6.2642127E-006, 8.3963124E-004, 5.2145083E+002
 1.1700670E+002, 8.4895026E-002, 1.3572954E-001, 6.2338367E-002, 2.1217098E-004, 9.9071413E-006, 8.5978772E-004, 5.2647283E+002
 1.1800195E+002, 8.5129760E-002, 1.3551368E-001, 6.2247286E-002, 2.1079638E-004, 1.0208660E-005, 8.5819229E-004, 5.2467716E+002
 1.1900825E+002, 8.6627331E-002, 1.3413434E-001, 6.1667610E-002, 2.0441018E-004, 8.0291644E-006, 8.4851159E-004, 5.2226196E+002
 1.2000420E+002, 8.6303163E-002, 1.3443741E-001, 6.1791756E-002, 2.0244787E-004, 7.5265563E-006, 8.4991707E-004, 5.2424693E+002
 1.2100000E+002, 8.6844140E-002, 1.3393433E-001, 6.1583699E-002, 2.0363540E-004, 8.2764610E-006, 8.4714031E-004, 5.2240145E+002
 1.2200579E+002, 8.5774626E-002, 1.3492279E-001, 6.1996754E-002, 2.0575560E-004, 8.6665683E-006, 8.5355101E-004, 5.1812656E+002
 1.2300247E+002, 8.4819372E-002, 1.3580668E-001, 6.2365408E-002, 2.0691274E-004, 8.5982122E-006, 8.5912514E-004, 5.2408120E+002
 1.2400325E+002, 8.5025167E-002, 1.3561723E-001, 6.2285712E-002, 2.0595086E-004, 8.3132020E-006, 8.5777738E-004, 5.2612282E+002
 1.2500695E+002, 8.4321421E-002, 1.3625929E-001, 6.2559875E-002, 2.1345694E-004, 1.1031579E-005, 8.6325551E-004, 5.2830519E+002
 1.2600307E+002, 8.3955552E-002, 1.3660755E-001, 6.2698197E-002, 2.0667039E-004, 8.8378443E-006, 8.6389898E-004, 5.2522136E+002
 1.2700325E+002, 8.5479204E-002, 1.3519467E-001, 6.2111065E-002, 2.0706885E-004, 9.7647221E-006, 8.5547088E-004, 5.2084111E+002
 1.2800037E+002, 8.4214003E-002, 1.3635953E-001, 6.2601137E-002, 2.1301150E-004, 1.0475169E-005, 8.6376407E-004, 5.2529224E+002
 1.2900618E+002, 8.5548504E-002, 1.3512924E-001, 6.2084828E-002, 2.0808120E-004, 9.3395904E-006, 8.5529364E-004, 5.2118591E+002
 1.3000053E+002, 8.5164986E-002, 1.3547511E-001, 6.2235775E-002, 2.1551503E-004, 9.6288225E-006, 8.5897157E-004, 5.2462865E+002
 1.3100193E+002, 8.5666443E-002, 1.3501775E-001, 6.2039992E-002, 2.0967336E-004, 9.9810173E-006, 8.5496322E-004, 5.2057253E+002
 1.3200446E+002, 8.7017643E-002, 1.3377778E-001, 6.1515557E-002, 2.0045629E-004, 7.4250405E-006, 8.4551537E-004, 5.2407236E+002
 1.3300195E+002, 8.5894558E-002, 1.3481855E-001, 6.1948409E-002, 2.0053511E-004, 7.6133685E-006, 8.5180359E-004, 5.3091204E+002
 1.3400733E+002, 8.5622420E-002, 1.3505835E-001, 6.2056986E-002, 2.0979325E-004, 1.0232504E-005, 8.5523354E-004, 5.2764076E+002
 1.3500385E+002, 8.6801577E-002, 1.3397898E-001, 6.1598498E-002, 1.9970024E-004, 7.5156610E-006, 8.4656567E-004, 5.2959670E+002
 1.3600757E+002, 8.4556351E-002, 1.3605095E-001, 6.2466537E-002, 2.0645024E-004, 9.0372134E-006, 8.6049789E-004, 5.3002829E+002
 1.3700854E+002, 8.4904470E-002, 1.3572653E-001, 6.2332884E-002, 2.0775535E-004, 9.5077858E-006, 8.5882286E-004, 5.3025321E+002
 1.3800592E+002, 8.4375091E-002, 1.3621527E-001, 6.2537496E-002, 2.0919946E-004, 9.7692474E-006, 8.6207746E-004, 5.2951698E+002
 1.3900208E+002, 8.4646570E-002, 1.3596087E-001, 6.2433745E-002, 2.1132221E-004, 1.0061799E-005, 8.6099967E-004, 5.2611386E+002
 1.4000533E+002, 8.5824117E-002, 1.3487330E-001, 6.1978644E-002, 2.0833802E-004, 1.0104367E-005, 8.5380650E-004, 5.2044690E+002
 1.4100698E+002, 8.7761059E-002, 1.3309204E-001, 6.1227958E-002, 1.9789656E-004, 7.3979816E-006, 8.4083455E-004, 5.2679723E+002
 1.4200246E+002, 8.5197001E-002, 1.3545927E-001, 6.2218997E-002, 2.0487931E-004, 8.6654275E-006, 8.5659580E-004, 5.2212576E+002
 1.4300388E+002, 8.4875466E-002, 1.3575488E-001, 6.2343669E-002, 2.0670418E-004, 8.9301859E-006, 8.5876833E-004, 5.2572441E+002
 1.4400041E+002, 8.4148228E-002, 1.3642473E-001, 6.2625229E-002, 2.0985821E-004, 9.5659475E-006, 8.6348085E-004, 5.3114124E+002
 1.4500121E+002, 8.4420244E-002, 1.3617114E-001, 6.2520928E-002, 2.1105645E-004, 9.3244605E-006, 8.6220967E-004, 5.2976137E+002
 1.4600069E+002, 8.4941627E-002, 1.3569158E-001, 6.2318743E-002, 2.0816585E-004, 9.4636165E-006, 8.5870025E-004, 5.2747608E+002
 1.4700692E+002, 8.6394870E-002, 1.3435227E-001, 6.1756398E-002, 2.0249347E-004, 7.8835398E-006, 8.4941387E-004, 5.2027014E+002
 1.4800150E+002, 8.6656604E-002, 1.3410842E-001, 6.1655976E-002, 2.0351323E-004, 7.7153789E-006, 8.4816313E-004, 5.2489318E+002
 1.4900465E+002, 8.4979586E-002, 1.3565698E-001, 6.2304014E-002, 2.0780369E-004, 8.8882345E-006, 8.5841415E-004, 5.2322105E+002
 1.5000244E+002, 8.5685224E-002, 1.3500677E-001, 6.2030849E-002, 2.0489222E-004, 8.5899542E-006, 8.5387195E-004, 5.2560707E+002
 1.5100356E+002, 8.7485168E-002, 1.3334005E-001, 6.1336801E-002, 2.0386087E-004, 7.6642958E-006, 8.4360771E-004, 5.2148725E+002
 1.5200083E+002, 8.7579210E-002, 1.3325942E-001, 6.1298432E-002, 1.9881143E-004, 7.3887967E-006, 8.4203923E-004, 5.2266487E+002
 1.5300377E+002, 8.7144864E-002, 1.3366133E-001, 6.1466111E-002, 1.9938398E-004, 6.9914086E-006, 8.4458380E-004, 5.2293883E+002
 1.5400628E+002, 8.6113021E-002, 1.3460774E-001, 6.1866744E-002, 2.0679532E-004, 9.0503826E-006, 8.5187555E-004, 5.2534236E+002
