s,,,,,,,
Time,"O2 EXHAUST","CO2 EXHAUST","H2O EXHAUST","CO EXHAUST","FUEL EXHAUST","SOOT EXHAUST","TEMP EXHAUST"
 0.0000000E+000, 2.3099739E-001, 5.9146498E-004, 5.9412092E-003, 0.0000000E+000, 0.0000000E+000, 0.0000000E+000, 2.0000000E+001
 1.0013647E+000, 2.3099739E-001, 5.9146498E-004, 5.9412092E-003, 2.1403225E-035, 1.0483635E-033, 8.3556104E-036, 2.0297131E+001
 2.0029134E+000, 2.2498961E-001, 5.2796746E-003, 9.8504441E-003, 4.9051513E-006, 1.7973665E-004, 2.8250406E-005, 8.3319497E+001
 3.0040382E+000, 2.2135240E-001, 8.1292497E-003, 1.2236990E-002, 1.3034770E-005, 1.8619826E-004, 4.6524937E-005, 1.1780279E+002
 4.0017281E+000, 2.1675556E-001, 1.1721404E-002, 1.5241320E-002, 2.1318931E-005, 2.6071573E-004, 6.9140821E-005, 1.6269745E+002
 5.0011064E+000, 2.1375471E-001, 1.4070965E-002, 1.7206867E-002, 2.6906328E-005, 2.8285987E-004, 8.3969572E-005, 1.8932610E+002
 6.0026889E+000, 2.0962553E-001, 1.7314275E-002, 1.9912245E-002, 3.0467630E-005, 2.8929960E-004, 1.0354884E-004, 2.2497313E+002
 7.0022812E+000, 2.0502316E-001, 2.0935778E-002, 2.2930702E-002, 3.3128315E-005, 2.7108984E-004, 1.2512896E-004, 2.6263267E+002
 8.0027882E+000, 2.0114926E-001, 2.3992252E-002, 2.5473907E-002, 3.3053084E-005, 2.2903721E-004, 1.4284447E-004, 2.8978615E+002
 9.0065432E+000, 1.9734243E-001, 2.7000076E-002, 2.7974681E-002, 3.1920421E-005, 1.7269280E-004, 1.6005096E-004, 3.1430597E+002
 1.0004462E+001, 1.9113159E-001, 3.1905908E-002, 3.2053299E-002, 2.9992302E-005, 8.9275943E-005, 1.8809788E-004, 3.5176078E+002
 1.1003215E+001, 1.8760826E-001, 3.4685956E-002, 3.4365571E-002, 2.9448872E-005, 5.3872956E-005, 2.0410937E-004, 3.6564256E+002
 1.2001132E+001, 1.8242864E-001, 3.8770745E-002, 3.7764025E-002, 2.9182371E-005, 9.3570677E-006, 2.2774950E-004, 3.8660551E+002
 1.3005415E+001, 1.7682452E-001, 4.3178982E-002, 4.1436913E-002, 3.1783186E-005, 5.2318495E-007, 2.5388097E-004, 4.0915778E+002
 1.4002267E+001, 1.7167390E-001, 4.7228260E-002, 4.4811802E-002, 3.4756982E-005, 9.5582092E-009, 2.7800998E-004, 4.2406336E+002
 1.5007906E+001, 1.6742464E-001, 5.0568779E-002, 4.7596059E-002, 3.7256468E-005, 1.8243200E-008, 2.9792551E-004, 4.3175132E+002
 1.6007128E+001, 1.6191338E-001, 5.4901428E-002, 5.1207206E-002, 4.0481813E-005, 1.3941503E-008, 3.2375240E-004, 4.4443636E+002
 1.7002219E+001, 1.5910696E-001, 5.7107692E-002, 5.3046059E-002, 4.2119117E-005, 5.8218781E-009, 3.3690283E-004, 4.4681138E+002
 1.8005647E+001, 1.5333942E-001, 6.1641775E-002, 5.6825137E-002, 4.5516374E-005, 2.6585238E-008, 3.6393517E-004, 4.5780274E+002
 1.9006359E+001, 1.4976183E-001, 6.4454275E-002, 5.9169285E-002, 4.7612453E-005, 2.2226089E-008, 3.8070096E-004, 4.5711650E+002
 2.0005337E+001, 1.4686388E-001, 6.6732494E-002, 6.1068111E-002, 4.9303883E-005, 1.9579518E-008, 3.9428044E-004, 4.6028233E+002
 2.1001919E+001, 1.4303584E-001, 6.9741875E-002, 6.3576360E-002, 5.1550221E-005, 2.3178096E-008, 4.1222063E-004, 4.6069535E+002
 2.2007268E+001, 1.3925352E-001, 7.2715333E-002, 6.6054656E-002, 5.3762822E-005, 1.8588972E-008, 4.2994520E-004, 4.6346025E+002
 2.3007585E+001, 1.3578339E-001, 7.5443354E-002, 6.8328391E-002, 5.5794760E-005, 1.7361953E-008, 4.4620715E-004, 4.6548805E+002
 2.4002083E+001, 1.3384853E-001, 7.6964435E-002, 6.9596169E-002, 5.6926181E-005, 1.6530433E-008, 4.5527410E-004, 4.6311357E+002
 2.5006519E+001, 1.2962329E-001, 8.0286059E-002, 7.2364687E-002, 5.9416286E-005, 2.5888508E-008, 4.7507801E-004, 4.6769543E+002
 2.6005122E+001, 1.2737779E-001, 8.2051349E-002, 7.3836007E-002, 6.0729160E-005, 2.6617389E-008, 4.8560062E-004, 4.6518537E+002
 2.7000099E+001, 1.2462956E-001, 8.4211835E-002, 7.5636740E-002, 6.2351002E-005, 3.5753319E-008, 4.9848216E-004, 4.6384288E+002
 2.8004193E+001, 1.2221090E-001, 8.6113257E-002, 7.7221517E-002, 6.3762838E-005, 2.5964647E-008, 5.0981574E-004, 4.6015207E+002
 2.9006776E+001, 1.1808226E-001, 8.9358948E-002, 7.9926736E-002, 6.6190582E-005, 3.7646788E-008, 5.2916576E-004, 4.6712311E+002
 3.0000377E+001, 1.1565899E-001, 9.1264017E-002, 8.1514523E-002, 6.7589744E-005, 2.1779831E-008, 5.4051778E-004, 4.6639666E+002
 3.1001025E+001, 1.1325636E-001, 9.3152818E-002, 8.3088806E-002, 6.9005323E-005, 3.0686959E-008, 5.5177894E-004, 4.6432777E+002
 3.2000935E+001, 1.1202271E-001, 9.4122656E-002, 8.3897132E-002, 6.9722982E-005, 2.2874561E-008, 5.5755922E-004, 4.5852875E+002
 3.3007689E+001, 1.0910490E-001, 9.6416483E-002, 8.5808962E-002, 7.1423802E-005, 1.6474631E-008, 5.7123125E-004, 4.6318224E+002
 3.4003569E+001, 1.0621853E-001, 9.8685569E-002, 8.7700212E-002, 7.3127241E-005, 2.8196925E-008, 5.8476031E-004, 4.5916774E+002
 3.5003358E+001, 1.0282765E-001, 1.0135127E-001, 8.9922025E-002, 7.5122694E-005, 3.4144938E-008, 6.0065291E-004, 4.6665244E+002
 3.6006151E+001, 1.0082672E-001, 1.0292432E-001, 9.1233092E-002, 7.6278827E-005, 1.8495844E-008, 6.1002666E-004, 4.6276608E+002
 3.7004805E+001, 9.8767324E-002, 1.0454329E-001, 9.2582474E-002, 7.7492264E-005, 2.2850085E-008, 6.1967908E-004, 4.6009410E+002
 3.8004866E+001, 9.5596405E-002, 1.0703606E-001, 9.4660168E-002, 7.9365676E-005, 3.7630175E-008, 6.3454228E-004, 4.6514446E+002
 3.9003404E+001, 9.3143343E-002, 1.0896452E-001, 9.6267491E-002, 8.0805747E-005, 4.2338361E-008, 6.4603874E-004, 4.6583875E+002
 4.0007307E+001, 9.0840823E-002, 1.1077461E-001, 9.7776182E-002, 8.2166185E-005, 4.8087382E-008, 6.5683148E-004, 4.6650863E+002
 4.1003187E+001, 8.9314257E-002, 1.1197474E-001, 9.8776424E-002, 8.3041794E-005, 3.3130105E-008, 6.6398163E-004, 4.6088838E+002
 4.2005443E+001, 8.6485411E-002, 1.1419857E-001, 1.0062999E-001, 8.4733261E-005, 5.8481735E-008, 6.7724555E-004, 4.6662762E+002
 4.3006696E+001, 8.5304953E-002, 1.1512663E-001, 1.0140345E-001, 8.5394320E-005, 3.3156063E-008, 6.8277131E-004, 4.6211765E+002
 4.4007169E+001, 8.2556873E-002, 1.1728703E-001, 1.0320407E-001, 8.6995053E-005, 3.0348702E-008, 6.9564782E-004, 4.6171841E+002
 4.5008433E+001, 7.9987082E-002, 1.1930682E-001, 1.0488804E-001, 8.8778331E-005, 2.3809765E-007, 7.0774774E-004, 4.6362714E+002
 4.6004785E+001, 7.7609993E-002, 1.2116724E-001, 1.0644888E-001, 9.5502073E-005, 3.8282819E-006, 7.1998236E-004, 4.6191725E+002
 4.7000037E+001, 7.5840034E-002, 1.2255675E-001, 1.0760924E-001, 9.7701010E-005, 5.2302307E-006, 7.2851495E-004, 4.6380457E+002
 4.8006492E+001, 7.4277988E-002, 1.2377134E-001, 1.0863809E-001, 1.0722770E-004, 1.0890815E-005, 7.3760383E-004, 4.6157577E+002
 4.9005607E+001, 7.1589579E-002, 1.2586227E-001, 1.1040813E-001, 1.2303473E-004, 2.2390678E-005, 7.5312327E-004, 4.6362044E+002
 5.0004020E+001, 6.9917557E-002, 1.2716164E-001, 1.1150968E-001, 1.3369035E-004, 2.8843795E-005, 7.6294606E-004, 4.6141955E+002
 5.1001877E+001, 6.7956743E-002, 1.2868346E-001, 1.1280136E-001, 1.4697884E-004, 4.1017847E-005, 7.7462389E-004, 4.6462750E+002
 5.2000185E+001, 6.6038048E-002, 1.3016842E-001, 1.1406813E-001, 1.6326567E-004, 4.9934363E-005, 7.8673071E-004, 4.6333562E+002
 5.3002707E+001, 6.4642186E-002, 1.3125179E-001, 1.1498730E-001, 1.7254347E-004, 5.9949986E-005, 7.9500499E-004, 4.5880980E+002
 5.4005238E+001, 6.3169473E-002, 1.3238350E-001, 1.1596252E-001, 1.9006487E-004, 7.1534253E-005, 8.0532723E-004, 4.6009308E+002
 5.5003503E+001, 6.1301613E-002, 1.3383052E-001, 1.1719307E-001, 2.0395369E-004, 8.8046495E-005, 8.1669979E-004, 4.6105949E+002
 5.6001110E+001, 5.8997445E-002, 1.3561137E-001, 1.1871512E-001, 2.2497933E-004, 1.0059641E-004, 8.3153923E-004, 4.5947202E+002
 5.7002150E+001, 5.7374903E-002, 1.3688525E-001, 1.1977759E-001, 2.2631816E-004, 1.0667679E-004, 8.3921660E-004, 4.6014865E+002
 5.8005558E+001, 5.6146232E-002, 1.3782314E-001, 1.2059194E-001, 2.4407648E-004, 1.2612001E-004, 8.4846518E-004, 4.5787309E+002
 5.9001424E+001, 5.4630400E-002, 1.3898815E-001, 1.2159598E-001, 2.6217299E-004, 1.3667488E-004, 8.5910389E-004, 4.6011954E+002
 6.0004706E+001, 5.2758123E-002, 1.4043967E-001, 1.2283000E-001, 2.7590109E-004, 1.4879565E-004, 8.7046813E-004, 4.6237440E+002
 6.1005158E+001, 5.1097613E-002, 1.4175192E-001, 1.2391590E-001, 2.7278978E-004, 1.4342986E-004, 8.7741388E-004, 4.6122776E+002
 6.2000521E+001, 4.9364444E-002, 1.4308099E-001, 1.2506444E-001, 2.9506818E-004, 1.5930062E-004, 8.8990101E-004, 4.6184507E+002
 6.3008612E+001, 4.7656617E-002, 1.4440885E-001, 1.2618812E-001, 3.0491146E-004, 1.7044176E-004, 8.9971493E-004, 4.6213458E+002
 6.4003549E+001, 4.6689523E-002, 1.4515147E-001, 1.2682777E-001, 3.1627744E-004, 1.8218265E-004, 9.0646011E-004, 4.5896678E+002
 6.5002529E+001, 4.5231855E-002, 1.4627324E-001, 1.2779152E-001, 3.3214663E-004, 1.9641301E-004, 9.1637040E-004, 4.5715399E+002
 6.6004617E+001, 4.3337116E-002, 1.4774358E-001, 1.2903978E-001, 3.4512882E-004, 2.0813106E-004, 9.2768392E-004, 4.6100135E+002
 6.7006267E+001, 4.1482698E-002, 1.4917953E-001, 1.3026331E-001, 3.6013274E-004, 2.1850306E-004, 9.3923138E-004, 4.6342008E+002
 6.8001531E+001, 4.0347047E-002, 1.5005096E-001, 1.3101819E-001, 3.7566383E-004, 2.1849380E-004, 9.4761681E-004, 4.6126213E+002
 6.9002538E+001, 3.9910907E-002, 1.5039448E-001, 1.3130113E-001, 3.7418500E-004, 2.2856488E-004, 9.4929269E-004, 4.5873175E+002
 7.0002726E+001, 3.7640234E-002, 1.5215867E-001, 1.3279762E-001, 3.8910736E-004, 2.3601492E-004, 9.6272688E-004, 4.6173078E+002
 7.1006283E+001, 3.5744131E-002, 1.5359806E-001, 1.3406411E-001, 4.2498231E-004, 2.4297951E-004, 9.7876915E-004, 4.6357111E+002
 7.2004591E+001, 3.5728499E-002, 1.5363841E-001, 1.3405838E-001, 4.0453481E-004, 2.5027463E-004, 9.7461921E-004, 4.6013465E+002
 7.3005049E+001, 3.3630854E-002, 1.5525726E-001, 1.3544702E-001, 4.2625647E-004, 2.5442437E-004, 9.8866803E-004, 4.6145260E+002
 7.4005758E+001, 3.2402792E-002, 1.5619321E-001, 1.3626177E-001, 4.4506621E-004, 2.7362408E-004, 9.9813076E-004, 4.5996551E+002
 7.5001310E+001, 3.0915623E-002, 1.5731807E-001, 1.3725806E-001, 4.7650340E-004, 2.7553009E-004, 1.0113968E-003, 4.6315862E+002
 7.6004154E+001, 2.9863489E-002, 1.5814521E-001, 1.3794535E-001, 4.7604238E-004, 2.8397117E-004, 1.0160966E-003, 4.6302403E+002
 7.7009634E+001, 2.8597016E-002, 1.5911590E-001, 1.3878737E-001, 4.9394314E-004, 2.8555294E-004, 1.0255659E-003, 4.5752489E+002
 7.8003433E+001, 2.6940068E-002, 1.6037156E-001, 1.3989454E-001, 5.2646878E-004, 2.9431378E-004, 1.0398242E-003, 4.6203130E+002
 7.9004253E+001, 2.5550832E-002, 1.6141868E-001, 1.4082432E-001, 5.5698656E-004, 3.0717315E-004, 1.0524422E-003, 4.5926978E+002
 8.0006914E+001, 2.3674827E-002, 1.6278536E-001, 1.4210009E-001, 6.2927441E-004, 3.3920076E-004, 1.0758698E-003, 4.6836066E+002
 8.1008162E+001, 2.4073900E-002, 1.6251540E-001, 1.4181610E-001, 5.9835873E-004, 3.4093390E-004, 1.0676752E-003, 4.5974553E+002
 8.2006161E+001, 2.1815717E-002, 1.6419651E-001, 1.4334172E-001, 6.6444537E-004, 3.4693280E-004, 1.0915973E-003, 4.6563848E+002
 8.3005401E+001, 2.1003705E-002, 1.6480960E-001, 1.4388726E-001, 6.8288596E-004, 3.4399770E-004, 1.0991078E-003, 4.6359869E+002
 8.4002918E+001, 2.0327425E-002, 1.6532687E-001, 1.4433421E-001, 6.9154725E-004, 3.5770636E-004, 1.1039658E-003, 4.6013961E+002
 8.5008908E+001, 1.8451201E-002, 1.6674427E-001, 1.4559823E-001, 7.3558506E-004, 3.3516243E-004, 1.1216306E-003, 4.6382125E+002
 8.6007482E+001, 1.7681130E-002, 1.6728255E-001, 1.4612923E-001, 7.7896345E-004, 3.6495373E-004, 1.1340540E-003, 4.6693691E+002
 8.7009745E+001, 1.6425255E-002, 1.6822467E-001, 1.4697511E-001, 8.1124738E-004, 3.6416019E-004, 1.1464414E-003, 4.6346202E+002
 8.8002239E+001, 1.5669601E-002, 1.6872690E-001, 1.4751190E-001, 8.7322559E-004, 3.8282937E-004, 1.1626436E-003, 4.6235268E+002
 8.9000209E+001, 1.4683670E-002, 1.6937841E-001, 1.4821466E-001, 9.5696726E-004, 4.0523299E-004, 1.1843780E-003, 4.6506408E+002
 9.0006860E+001, 1.4107209E-002, 1.6979689E-001, 1.4860841E-001, 9.8070731E-004, 4.1113148E-004, 1.1918957E-003, 4.6302248E+002
 9.1005592E+001, 1.2905208E-002, 1.7030917E-001, 1.4959940E-001, 1.2749961E-003, 4.7066692E-004, 1.2579649E-003, 4.6173839E+002
 9.2001305E+001, 1.2456190E-002, 1.7077481E-001, 1.4984140E-001, 1.1992047E-003, 4.5217557E-004, 1.2444161E-003, 4.6156277E+002
 9.3006301E+001, 1.1349272E-002, 1.7142273E-001, 1.5066834E-001, 1.3492311E-003, 4.9413765E-004, 1.2803416E-003, 4.5909302E+002
 9.4003063E+001, 1.0732029E-002, 1.7184592E-001, 1.5110525E-001, 1.3933746E-003, 4.8946316E-004, 1.2922612E-003, 4.6220078E+002
 9.5003228E+001, 9.3712408E-003, 1.7267568E-001, 1.5211368E-001, 1.5590509E-003, 5.0655886E-004, 1.3325970E-003, 4.6526441E+002
 9.6002871E+001, 9.0799240E-003, 1.7244133E-001, 1.5252438E-001, 1.8746470E-003, 5.6234245E-004, 1.3989031E-003, 4.5942863E+002
 9.7007611E+001, 8.6418260E-003, 1.7246751E-001, 1.5295682E-001, 2.0886854E-003, 6.2306976E-004, 1.4449461E-003, 4.6177155E+002
 9.8000407E+001, 8.1758966E-003, 1.7276443E-001, 1.5330015E-001, 2.1387898E-003, 6.1083230E-004, 1.4574113E-003, 4.5729282E+002
 9.9003921E+001, 8.1848464E-003, 1.7223400E-001, 1.5351714E-001, 2.4821155E-003, 7.7591192E-004, 1.5279455E-003, 4.4951114E+002
 1.0000634E+002, 8.1208696E-003, 1.7197638E-001, 1.5371730E-001, 2.6979562E-003, 7.6416972E-004, 1.5727283E-003, 4.5390614E+002
 1.0100481E+002, 6.9926029E-003, 1.7217757E-001, 1.5476860E-001, 3.1586619E-003, 9.0016974E-004, 1.6726737E-003, 4.5085431E+002
 1.0200094E+002, 7.0519149E-003, 1.7204636E-001, 1.5475912E-001, 3.2107317E-003, 9.5346720E-004, 1.6830768E-003, 4.5028917E+002
 1.0300810E+002, 6.8034683E-003, 1.7213216E-001, 1.5500216E-001, 3.2998465E-003, 8.5308851E-004, 1.7026808E-003, 4.4721896E+002
 1.0401046E+002, 6.5858004E-003, 1.7222668E-001, 1.5518487E-001, 3.3540271E-003, 8.4726149E-004, 1.7148458E-003, 4.4575451E+002
 1.0500144E+002, 6.0898826E-003, 1.7193897E-001, 1.5582236E-001, 3.8110241E-003, 9.6450903E-004, 1.8111597E-003, 4.4688868E+002
 1.0600058E+002, 5.9255669E-003, 1.7189161E-001, 1.5602051E-001, 3.9347256E-003, 9.5874211E-004, 1.8374071E-003, 4.4418120E+002
 1.0700395E+002, 5.7810734E-003, 1.7170226E-001, 1.5626092E-001, 4.1420603E-003, 9.8711229E-004, 1.8807624E-003, 4.4289468E+002
 1.0800183E+002, 6.1770168E-003, 1.7120481E-001, 1.5607448E-001, 4.2607537E-003, 1.0710220E-003, 1.9033253E-003, 4.3980880E+002
 1.0900571E+002, 5.8479102E-003, 1.7059721E-001, 1.5670170E-001, 4.8509789E-003, 1.1729580E-003, 2.0263482E-003, 4.4022155E+002
 1.1000573E+002, 5.6022714E-003, 1.7050908E-001, 1.5700003E-001, 5.0445835E-003, 1.1909207E-003, 2.0673468E-003, 4.3998968E+002
 1.1100776E+002, 5.8601246E-003, 1.6971334E-001, 1.5703208E-001, 5.4072041E-003, 1.5846787E-003, 2.1404796E-003, 4.4054694E+002
 1.1200541E+002, 5.7534183E-003, 1.7045383E-001, 1.5684073E-001, 4.9858852E-003, 1.3040604E-003, 2.0544415E-003, 4.3093966E+002
 1.1300897E+002, 5.2991618E-003, 1.6938447E-001, 1.5779087E-001, 5.9448474E-003, 1.5729923E-003, 2.2538452E-003, 4.3153314E+002
 1.1400545E+002, 5.1409963E-003, 1.6897344E-001, 1.5816785E-001, 6.3192398E-003, 1.5597374E-003, 2.3317324E-003, 4.3352647E+002
 1.1500525E+002, 5.0591263E-003, 1.6870691E-001, 1.5836946E-001, 6.5399491E-003, 1.6357161E-003, 2.3775076E-003, 4.3548184E+002
 1.1600264E+002, 5.0611968E-003, 1.6891292E-001, 1.5824927E-001, 6.3882449E-003, 1.6923258E-003, 2.3461768E-003, 4.3288598E+002
 1.1700880E+002, 4.9153417E-003, 1.6820785E-001, 1.5871599E-001, 6.9373113E-003, 1.8621298E-003, 2.4598098E-003, 4.3452381E+002
 1.1800121E+002, 5.0591214E-003, 1.6792082E-001, 1.5869630E-001, 7.0515821E-003, 1.9152787E-003, 2.4826451E-003, 4.3129887E+002
 1.1900703E+002, 4.8073732E-003, 1.6745935E-001, 1.5917141E-001, 7.4992330E-003, 2.0053291E-003, 2.5759469E-003, 4.2878286E+002
 1.2000813E+002, 4.8887388E-003, 1.6763075E-001, 1.5901229E-001, 7.3419478E-003, 1.9535242E-003, 2.5432183E-003, 4.3043841E+002
 1.2100191E+002, 5.2129063E-003, 1.6646964E-001, 1.5918789E-001, 7.9373136E-003, 2.2308929E-003, 2.6641328E-003, 4.2333994E+002
 1.2200703E+002, 5.0368503E-003, 1.6641085E-001, 1.5935727E-001, 8.0515223E-003, 2.4132395E-003, 2.6882793E-003, 4.2301672E+002
 1.2300789E+002, 4.5242418E-003, 1.6627505E-001, 1.6000807E-001, 8.4488022E-003, 2.2400262E-003, 2.7726699E-003, 4.2992011E+002
 1.2400600E+002, 4.7377419E-003, 1.6553648E-001, 1.6004398E-001, 8.7888166E-003, 2.6897722E-003, 2.8412876E-003, 4.2460461E+002
 1.2500984E+002, 4.9108169E-003, 1.6522116E-001, 1.6000113E-001, 8.9033629E-003, 2.7694751E-003, 2.8640179E-003, 4.2500998E+002
 1.2600678E+002, 4.6630622E-003, 1.6575328E-001, 1.6004640E-001, 8.6957566E-003, 2.5564180E-003, 2.8225923E-003, 4.3016353E+002
 1.2700087E+002, 4.7931471E-003, 1.6463557E-001, 1.6038977E-001, 9.3598541E-003, 2.8918526E-003, 2.9584953E-003, 4.2518553E+002
 1.2800730E+002, 4.6125417E-003, 1.6492332E-001, 1.6046121E-001, 9.2720712E-003, 2.7849850E-003, 2.9413431E-003, 4.1916473E+002
 1.2900094E+002, 4.7763789E-003, 1.6360877E-001, 1.6081131E-001, 1.0025618E-002, 3.3493921E-003, 3.0952833E-003, 4.2300818E+002
 1.3000072E+002, 4.6156148E-003, 1.6374042E-001, 1.6096067E-001, 1.0045828E-002, 3.1620423E-003, 3.1003795E-003, 4.2397384E+002
 1.3100474E+002, 4.7354593E-003, 1.6316087E-001, 1.6108394E-001, 1.0361646E-002, 3.3346633E-003, 3.1647310E-003, 4.2133118E+002
 1.3200071E+002, 4.6602997E-003, 1.6324885E-001, 1.6114353E-001, 1.0354275E-002, 3.2346527E-003, 3.1636607E-003, 4.1886879E+002
 1.3300947E+002, 4.4039592E-003, 1.6283221E-001, 1.6163952E-001, 1.0792931E-002, 3.1695592E-003, 3.2552935E-003, 4.2285228E+002
 1.3400851E+002, 4.5917845E-003, 1.6178527E-001, 1.6189791E-001, 1.1381983E-002, 3.4590135E-003, 3.3755168E-003, 4.2006643E+002
 1.3500514E+002, 4.7061521E-003, 1.6167888E-001, 1.6173338E-001, 1.1343510E-002, 3.8518987E-003, 3.3666521E-003, 4.1670457E+002
 1.3600741E+002, 4.4732535E-003, 1.6159462E-001, 1.6204892E-001, 1.1544029E-002, 3.7392106E-003, 3.4091552E-003, 4.1857072E+002
 1.3700001E+002, 4.5510232E-003, 1.6115469E-001, 1.6217257E-001, 1.1799245E-002, 3.8052502E-003, 3.4613229E-003, 4.1741103E+002
 1.3800455E+002, 4.5232528E-003, 1.6096510E-001, 1.6228092E-001, 1.1938012E-002, 3.8713899E-003, 3.4899756E-003, 4.1910335E+002
 1.3900567E+002, 4.5231387E-003, 1.6039099E-001, 1.6253753E-001, 1.2320805E-002, 4.0042028E-003, 3.5687182E-003, 4.1867005E+002
 1.4000349E+002, 4.4159860E-003, 1.5961585E-001, 1.6290808E-001, 1.2851182E-002, 4.5384313E-003, 3.6779389E-003, 4.1698542E+002
 1.4100717E+002, 4.5384690E-003, 1.6055063E-001, 1.6248211E-001, 1.2222294E-002, 3.8387654E-003, 3.5485225E-003, 4.2297529E+002
 1.4200924E+002, 4.5049625E-003, 1.5948823E-001, 1.6278775E-001, 1.2844853E-002, 4.9040880E-003, 3.6758428E-003, 4.1357310E+002
 1.4300935E+002, 4.4286051E-003, 1.5898190E-001, 1.6313224E-001, 1.3243563E-002, 4.8688261E-003, 3.7583909E-003, 4.1431628E+002
 1.4400812E+002, 4.2904648E-003, 1.5949505E-001, 1.6310483E-001, 1.3005949E-002, 4.5231620E-003, 3.7104208E-003, 4.1551733E+002
 1.4500890E+002, 4.4006689E-003, 1.5834321E-001, 1.6343999E-001, 1.3681088E-002, 5.0445398E-003, 3.8484939E-003, 4.1201229E+002
 1.4600696E+002, 4.5811275E-003, 1.5823296E-001, 1.6329088E-001, 1.3651376E-002, 5.1044273E-003, 3.8414840E-003, 4.1623081E+002
 1.4700356E+002, 4.8530994E-003, 1.5776607E-001, 1.6318983E-001, 1.3801637E-002, 5.3070780E-003, 3.8709929E-003, 4.1138466E+002
 1.4800621E+002, 4.6828623E-003, 1.5752276E-001, 1.6344002E-001, 1.4037955E-002, 5.5140987E-003, 3.9202499E-003, 4.1165531E+002
 1.4900308E+002, 4.5425187E-003, 1.5736696E-001, 1.6370766E-001, 1.4244381E-002, 5.3477493E-003, 3.9636043E-003, 4.1368818E+002
 1.5000805E+002, 4.7262927E-003, 1.5717064E-001, 1.6359420E-001, 1.4270579E-002, 5.4247982E-003, 3.9680826E-003, 4.1816270E+002
 1.5100200E+002, 4.6291277E-003, 1.5682520E-001, 1.6383021E-001, 1.4543636E-002, 5.5870237E-003, 4.0246241E-003, 4.0990083E+002
 1.5200373E+002, 4.5202719E-003, 1.5637985E-001, 1.6407441E-001, 1.4864876E-002, 5.9679293E-003, 4.0909172E-003, 4.1279462E+002
 1.5300978E+002, 4.7577278E-003, 1.5680741E-001, 1.6379806E-001, 1.4533528E-002, 5.2092788E-003, 4.0223523E-003, 4.1382608E+002
 1.5400240E+002, 4.5963856E-003, 1.5592830E-001, 1.6424791E-001, 1.5150601E-002, 5.8644564E-003, 4.1495583E-003, 4.1625029E+002
