s,,,,,,,
Time,"O2 EXHAUST","CO2 EXHAUST","H2O EXHAUST","CO EXHAUST","FUEL EXHAUST","SOOT EXHAUST","TEMP EXHAUST"
 0.0000000E+000, 2.3099739E-001, 5.9146498E-004, 5.9412091E-003, 0.0000000E+000, 0.0000000E+000, 0.0000000E+000, 2.0000000E+001
 1.0010579E+000, 2.3099739E-001, 5.9146498E-004, 5.9412091E-003, 1.1424523E-027, 5.4080717E-027, 4.4306227E-028, 2.1772259E+001
 2.0020079E+000, 2.2021861E-001, 9.2594554E-003, 1.0011111E-002, 1.4643111E-004, 8.3451139E-005, 3.1792925E-004, 1.2347372E+002
 3.0025214E+000, 2.1528451E-001, 1.3194951E-002, 1.1884068E-002, 2.3950779E-004, 1.1300403E-004, 4.6803158E-004, 1.6688576E+002
 4.0047795E+000, 2.0974384E-001, 1.7674738E-002, 1.3973418E-002, 3.0011743E-004, 1.2976435E-004, 6.2908249E-004, 2.1685564E+002
 5.0032116E+000, 2.0319476E-001, 2.2939565E-002, 1.6449497E-002, 3.9326136E-004, 1.6109765E-004, 8.2309785E-004, 2.6948680E+002
 6.0030361E+000, 1.9526572E-001, 2.9480263E-002, 1.9412060E-002, 3.8809482E-004, 1.3357077E-004, 1.0379726E-003, 3.2256389E+002
 7.0059260E+000, 1.8659368E-001, 3.6647159E-002, 2.2649943E-002, 3.7356219E-004, 9.4611365E-005, 1.2714994E-003, 3.7355225E+002
 8.0007003E+000, 1.7950122E-001, 4.2519122E-002, 2.5295686E-002, 3.5409356E-004, 5.9644515E-005, 1.4611957E-003, 4.0933601E+002
 9.0025272E+000, 1.7166757E-001, 4.9000729E-002, 2.8218682E-002, 3.3533666E-004, 2.3240183E-005, 1.6711782E-003, 4.4134916E+002
 1.0000871E+001, 1.6570739E-001, 5.3910157E-002, 3.0447123E-002, 3.3651533E-004, 5.3793227E-006, 1.8335568E-003, 4.6325092E+002
 1.1004200E+001, 1.6068775E-001, 5.8021468E-002, 3.2328716E-002, 3.5392786E-004, 5.3720895E-007, 1.9730921E-003, 4.7028500E+002
 1.2002380E+001, 1.5534223E-001, 6.2388952E-002, 3.4334668E-002, 3.8000662E-004, 6.0268075E-008, 2.1229623E-003, 4.8262125E+002
 1.3004640E+001, 1.5049969E-001, 6.6344468E-002, 3.6152083E-002, 4.0434541E-004, 6.6332663E-008, 2.2588516E-003, 4.8748356E+002
 1.4000230E+001, 1.4566373E-001, 7.0294644E-002, 3.7967022E-002, 4.2862642E-004, 5.3156208E-008, 2.3945521E-003, 4.9551214E+002
 1.5000292E+001, 1.4408591E-001, 7.1583499E-002, 3.8559166E-002, 4.3651728E-004, 4.6193228E-008, 2.4388213E-003, 4.9632023E+002
 1.6006183E+001, 1.4169480E-001, 7.3536735E-002, 3.9456534E-002, 4.4845828E-004, 1.5773174E-008, 2.5059068E-003, 4.9496347E+002
 1.7003305E+001, 1.3916413E-001, 7.5603854E-002, 4.0406298E-002, 4.6117540E-004, 1.7032774E-008, 2.5769209E-003, 4.9762107E+002
 1.8007498E+001, 1.3451679E-001, 7.9399877E-002, 4.2150466E-002, 4.8456955E-004, 4.4975012E-008, 2.7073389E-003, 5.0402793E+002
 1.9005429E+001, 1.3695913E-001, 7.7404937E-002, 4.1233845E-002, 4.7227426E-004, 2.8350417E-008, 2.6387996E-003, 4.9314867E+002
 2.0005772E+001, 1.3502193E-001, 7.8987334E-002, 4.1960871E-002, 4.8198159E-004, 1.9135032E-008, 2.6931555E-003, 4.9906345E+002
 2.1003043E+001, 1.3343774E-001, 8.0281395E-002, 4.2555405E-002, 4.8990202E-004, 7.3423861E-009, 2.7376031E-003, 4.9708887E+002
 2.2002696E+001, 1.3173313E-001, 8.1673740E-002, 4.3195156E-002, 4.9848994E-004, 1.8607637E-008, 2.7854407E-003, 4.9756977E+002
 2.3004797E+001, 1.2891949E-001, 8.3971936E-002, 4.4251135E-002, 5.1267511E-004, 3.2186456E-008, 2.8644034E-003, 4.9889435E+002
 2.4004378E+001, 1.2591345E-001, 8.6427287E-002, 4.5379324E-002, 5.2783149E-004, 4.7645224E-008, 2.9487659E-003, 5.0323539E+002
 2.5002692E+001, 1.2407173E-001, 8.7931738E-002, 4.6070501E-002, 5.3702173E-004, 4.1454940E-008, 3.0004359E-003, 5.0725778E+002
 2.6000336E+001, 1.2452725E-001, 8.7559732E-002, 4.5899531E-002, 5.3468322E-004, 2.1335348E-008, 2.9876451E-003, 5.0284711E+002
 2.7002000E+001, 1.2220300E-001, 8.9458151E-002, 4.6771845E-002, 5.4642729E-004, 4.7098569E-008, 3.0528777E-003, 5.0304860E+002
 2.8006203E+001, 1.2152662E-001, 9.0010702E-002, 4.7025679E-002, 5.4978125E-004, 2.8978335E-008, 3.0718504E-003, 5.0038472E+002
 2.9001852E+001, 1.2121462E-001, 9.0265553E-002, 4.7142769E-002, 5.5134452E-004, 3.3837179E-008, 3.0806046E-003, 5.0430617E+002
 3.0006140E+001, 1.2036095E-001, 9.0962937E-002, 4.7463135E-002, 5.5557608E-004, 1.1001596E-008, 3.1045499E-003, 4.9758109E+002
 3.1003670E+001, 1.1846345E-001, 9.2512787E-002, 4.8175291E-002, 5.6517269E-004, 4.2222501E-008, 3.1578070E-003, 5.0419007E+002
 3.2000865E+001, 1.1880915E-001, 9.2230430E-002, 4.8045543E-002, 5.6341875E-004, 3.3298557E-008, 3.1481033E-003, 5.0239648E+002
 3.3007416E+001, 1.1656303E-001, 9.4065060E-002, 4.8888532E-002, 5.7475370E-004, 3.8082877E-008, 3.2111408E-003, 5.0172865E+002
 3.4001870E+001, 1.1800214E-001, 9.2889677E-002, 4.8348404E-002, 5.6743395E-004, 1.7693002E-008, 3.1707423E-003, 5.0177524E+002
 3.5001869E+001, 1.1625411E-001, 9.4317453E-002, 4.9004452E-002, 5.7625905E-004, 6.2556147E-008, 3.2198013E-003, 5.0500070E+002
 3.6001241E+001, 1.1494156E-001, 9.5389618E-002, 4.9497048E-002, 5.8283013E-004, 2.6498279E-008, 3.2566292E-003, 5.0264928E+002
 3.7005653E+001, 1.1581709E-001, 9.4674406E-002, 4.9168471E-002, 5.7846810E-004, 4.1257310E-008, 3.2320670E-003, 5.0269640E+002
 3.8002519E+001, 1.1402066E-001, 9.6141849E-002, 4.9842658E-002, 5.8744506E-004, 2.9293378E-008, 3.2824687E-003, 4.9996374E+002
 3.9001608E+001, 1.1578818E-001, 9.4698110E-002, 4.9179301E-002, 5.7854843E-004, 1.5940417E-008, 3.2328671E-003, 4.9313153E+002
 4.0005618E+001, 1.1158802E-001, 9.8128855E-002, 5.0755645E-002, 5.9970332E-004, 4.7523462E-008, 3.3507380E-003, 5.0677079E+002
 4.1000774E+001, 1.1265445E-001, 9.7257793E-002, 5.0355406E-002, 5.9432469E-004, 2.8808297E-008, 3.3208091E-003, 5.0082730E+002
 4.2004735E+001, 1.1359065E-001, 9.6493120E-002, 5.0004038E-002, 5.8958878E-004, 1.5576033E-008, 3.2945326E-003, 4.9824861E+002
 4.3003904E+001, 1.1194738E-001, 9.7835392E-002, 5.0620761E-002, 5.9784665E-004, 1.8460712E-008, 3.3406452E-003, 5.0141338E+002
 4.4004193E+001, 1.1333273E-001, 9.6703840E-002, 5.0100827E-002, 5.9085539E-004, 5.2202905E-009, 3.3017652E-003, 4.9985306E+002
 4.5002091E+001, 1.1112919E-001, 9.8503554E-002, 5.0927864E-002, 6.0207143E-004, 6.2513118E-008, 3.3636241E-003, 5.1082304E+002
 4.6006249E+001, 1.1261714E-001, 9.7288305E-002, 5.0369400E-002, 5.9448511E-004, 1.7174858E-008, 3.3218514E-003, 5.0177600E+002
 4.7003432E+001, 1.0912803E-001, 1.0013814E-001, 5.1678907E-002, 6.1213987E-004, 7.1811699E-008, 3.4197816E-003, 5.0504138E+002
 4.8005655E+001, 1.0901538E-001, 1.0023024E-001, 5.1721166E-002, 6.1264490E-004, 5.0740113E-008, 3.4229323E-003, 5.0267828E+002
 4.9003019E+001, 1.0962315E-001, 9.9733925E-002, 5.1493039E-002, 6.0949809E-004, 1.1600478E-008, 3.4058616E-003, 4.9738330E+002
 5.0000790E+001, 1.0950366E-001, 9.9831499E-002, 5.1537891E-002, 6.1011954E-004, 1.9905609E-008, 3.4092182E-003, 5.0100202E+002
 5.1004291E+001, 1.0790450E-001, 1.0113773E-001, 5.2138059E-002, 6.1815990E-004, 2.5660147E-008, 3.4540936E-003, 4.9790459E+002
 5.2003875E+001, 1.1113298E-001, 9.8500654E-002, 5.0926396E-002, 6.0190947E-004, 8.3039957E-009, 3.3634933E-003, 4.9893345E+002
 5.3001635E+001, 1.0676060E-001, 1.0207135E-001, 5.2567529E-002, 6.2444473E-004, 3.1571999E-007, 3.4862843E-003, 5.0586024E+002
 5.4000292E+001, 1.0951513E-001, 9.9822102E-002, 5.1533594E-002, 6.1008329E-004, 3.1293071E-008, 3.4089001E-003, 4.9499169E+002
 5.5002311E+001, 1.0497937E-001, 1.0352645E-001, 5.3236006E-002, 6.3330383E-004, 2.0325679E-007, 3.5362529E-003, 5.1117192E+002
 5.6005115E+001, 1.1129444E-001, 9.8368617E-002, 5.0865836E-002, 6.0120959E-004, 5.5228201E-008, 3.3589816E-003, 5.0035785E+002
 5.7006058E+001, 1.0634359E-001, 1.0241273E-001, 5.2723872E-002, 6.2600108E-004, 2.6615864E-008, 3.4978946E-003, 5.0252195E+002
 5.8002513E+001, 1.0769855E-001, 1.0130596E-001, 5.2215355E-002, 6.1919681E-004, 2.6529181E-008, 3.4598734E-003, 5.0608978E+002
 5.9006805E+001, 1.0757142E-001, 1.0140986E-001, 5.2263051E-002, 6.1979248E-004, 8.5780449E-009, 3.4634333E-003, 4.9418987E+002
 6.0005273E+001, 1.0564478E-001, 1.0298352E-001, 5.2986138E-002, 6.2952432E-004, 3.1271857E-008, 3.5175060E-003, 5.0303216E+002
 6.1002247E+001, 1.0744121E-001, 1.0151619E-001, 5.2311929E-002, 6.2047103E-004, 2.1845562E-008, 3.4670914E-003, 5.0042602E+002
 6.2006086E+001, 1.0623856E-001, 1.0249858E-001, 5.2763272E-002, 6.2648173E-004, 8.2627056E-009, 3.5008337E-003, 4.9546545E+002
 6.3000494E+001, 1.0668777E-001, 1.0213156E-001, 5.2594708E-002, 6.2429891E-004, 3.2193218E-008, 3.4882411E-003, 5.0943968E+002
 6.4006560E+001, 1.0508569E-001, 1.0344020E-001, 5.3195966E-002, 6.3233504E-004, 3.0141455E-008, 3.5331952E-003, 4.9617204E+002
 6.5002178E+001, 1.0568103E-001, 1.0295393E-001, 5.2972529E-002, 6.2932921E-004, 2.8172299E-008, 3.5164866E-003, 5.0048048E+002
 6.6001321E+001, 1.0851793E-001, 1.0063664E-001, 5.1907841E-002, 6.1508998E-004, 3.3161886E-008, 3.4368820E-003, 5.0351633E+002
 6.7000846E+001, 1.0374781E-001, 1.0453302E-001, 5.3698078E-002, 6.3906065E-004, 3.0486938E-008, 3.5707386E-003, 5.0605302E+002
 6.8004563E+001, 1.0621190E-001, 1.0252034E-001, 5.2773282E-002, 6.2662828E-004, 1.1642748E-008, 3.5015840E-003, 5.0322729E+002
 6.9005854E+001, 1.0454033E-001, 1.0388559E-001, 5.3400659E-002, 6.3513107E-004, 6.4110259E-008, 3.5485083E-003, 5.0558003E+002
 7.0003326E+001, 1.0576065E-001, 1.0288888E-001, 5.2942652E-002, 6.2893778E-004, 3.1688806E-008, 3.5142540E-003, 5.0340841E+002
 7.1001901E+001, 1.0487021E-001, 1.0361622E-001, 5.3276833E-002, 6.3340753E-004, 2.4917373E-008, 3.5392401E-003, 5.0316045E+002
 7.2003083E+001, 1.0399937E-001, 1.0432755E-001, 5.3603660E-002, 6.3778220E-004, 2.9451951E-008, 3.5636769E-003, 5.0005989E+002
 7.3003651E+001, 1.0188403E-001, 1.0605535E-001, 5.4397565E-002, 6.4846282E-004, 6.6922030E-008, 3.6230449E-003, 5.0388856E+002
 7.4000631E+001, 1.0246099E-001, 1.0558421E-001, 5.4181005E-002, 6.4546756E-004, 1.6322432E-008, 3.6068384E-003, 4.9971419E+002
 7.5005594E+001, 1.0149905E-001, 1.0636992E-001, 5.4542026E-002, 6.5032046E-004, 2.4593898E-008, 3.6338349E-003, 5.0662976E+002
 7.6006616E+001, 1.0470641E-001, 1.0375009E-001, 5.3338291E-002, 6.3417765E-004, 7.6675992E-009, 3.5438275E-003, 4.9812002E+002
 7.7002587E+001, 1.0328420E-001, 1.0491176E-001, 5.3872057E-002, 6.4135073E-004, 2.1045429E-008, 3.5837412E-003, 5.0270961E+002
 7.8005313E+001, 1.0353675E-001, 1.0470548E-001, 5.3777275E-002, 6.4007508E-004, 1.5099573E-008, 3.5766534E-003, 5.0646521E+002
 7.9006624E+001, 1.0432097E-001, 1.0406474E-001, 5.3482995E-002, 6.3625936E-004, 4.9957575E-008, 3.5546684E-003, 5.0831285E+002
 8.0006659E+001, 1.0450606E-001, 1.0391367E-001, 5.3413500E-002, 6.3523943E-004, 3.0128916E-008, 3.5494590E-003, 5.0458761E+002
 8.1001734E+001, 1.0610953E-001, 1.0260394E-001, 5.2811706E-002, 6.2715556E-004, 1.8261293E-008, 3.5044588E-003, 5.0624603E+002
 8.2003675E+001, 1.0454141E-001, 1.0388467E-001, 5.3400263E-002, 6.3515029E-004, 6.2034228E-008, 3.5484823E-003, 5.1529884E+002
 8.3002875E+001, 1.0398139E-001, 1.0434195E-001, 5.3610478E-002, 6.3808529E-004, 9.6127145E-008, 3.5642180E-003, 5.0909839E+002
 8.4002368E+001, 1.0648218E-001, 1.0229957E-001, 5.2671849E-002, 6.2527535E-004, 1.5415113E-008, 3.4940005E-003, 5.0133006E+002
 8.5004349E+001, 1.0548156E-001, 1.0311659E-001, 5.3047454E-002, 6.3052743E-004, 9.1240685E-008, 3.5221176E-003, 5.1024284E+002
 8.6001632E+001, 1.0405299E-001, 1.0428373E-001, 5.3583543E-002, 6.3753084E-004, 4.3855428E-008, 3.5621753E-003, 4.9862454E+002
 8.7006154E+001, 1.0373066E-001, 1.0454708E-001, 5.3704500E-002, 6.3910715E-004, 2.0231550E-008, 3.5712129E-003, 5.0210103E+002
 8.8002535E+001, 1.0421022E-001, 1.0415537E-001, 5.3524520E-002, 6.3669056E-004, 1.9994712E-008, 3.5577548E-003, 4.9712541E+002
 8.9006335E+001, 1.0576137E-001, 1.0288832E-001, 5.2942378E-002, 6.2891958E-004, 2.7707698E-008, 3.5142313E-003, 5.0699435E+002
 9.0005946E+001, 1.0486967E-001, 1.0361672E-001, 5.3277025E-002, 6.3336927E-004, 1.1894169E-008, 3.5392484E-003, 5.0126446E+002
 9.1003562E+001, 1.0529771E-001, 1.0326708E-001, 5.3116379E-002, 6.3122254E-004, 1.7967025E-008, 3.5272375E-003, 5.0186354E+002
 9.2003509E+001, 1.0310616E-001, 1.0505713E-001, 5.3938889E-002, 6.4228745E-004, 3.3686795E-008, 3.5887445E-003, 5.1062972E+002
 9.3003821E+001, 1.0388102E-001, 1.0442416E-001, 5.3648093E-002, 6.3842503E-004, 5.6547307E-008, 3.5670062E-003, 4.9981518E+002
 9.4001053E+001, 1.0459636E-001, 1.0383997E-001, 5.3379599E-002, 6.3474503E-004, 1.5555851E-008, 3.5469183E-003, 5.0336416E+002
 9.5004717E+001, 1.0446706E-001, 1.0394550E-001, 5.3428142E-002, 6.3545088E-004, 4.5951206E-008, 3.5505561E-003, 5.0474683E+002
 9.6005607E+001, 1.0178927E-001, 1.0613272E-001, 5.4433137E-002, 6.4896177E-004, 7.1518554E-008, 3.6257079E-003, 5.0622361E+002
 9.7001363E+001, 1.0318137E-001, 1.0499564E-001, 5.3910673E-002, 6.4194570E-004, 5.7183231E-008, 3.5866401E-003, 5.0471429E+002
 9.8004132E+001, 1.0363157E-001, 1.0462789E-001, 5.3741716E-002, 6.3969624E-004, 7.0156206E-008, 3.5740091E-003, 5.0622369E+002
 9.9002719E+001, 1.0445669E-001, 1.0395387E-001, 5.3432057E-002, 6.3558002E-004, 7.7336899E-008, 3.5508602E-003, 5.0556727E+002
 1.0000249E+002, 1.0423462E-001, 1.0413529E-001, 5.3515393E-002, 6.3667487E-004, 5.7563150E-008, 3.5570881E-003, 5.0840146E+002
 1.0100384E+002, 1.0302840E-001, 1.0512050E-001, 5.3968105E-002, 6.4278099E-004, 8.2615593E-008, 3.5909441E-003, 5.0941610E+002
 1.0200139E+002, 1.0361954E-001, 1.0463783E-001, 5.3746207E-002, 6.3967754E-004, 2.2568467E-008, 3.5743332E-003, 5.0336406E+002
 1.0300201E+002, 1.0482876E-001, 1.0364989E-001, 5.3292432E-002, 6.3375480E-004, 1.0417834E-007, 3.5404269E-003, 5.1088581E+002
 1.0400409E+002, 1.0389321E-001, 1.0441422E-001, 5.3643509E-002, 6.3834364E-004, 5.7614252E-008, 3.5666605E-003, 5.0781186E+002
 1.0500556E+002, 1.0458331E-001, 1.0385054E-001, 5.3384518E-002, 6.3487823E-004, 3.8095425E-008, 3.5472960E-003, 4.9859649E+002
 1.0600295E+002, 1.0363758E-001, 1.0462287E-001, 5.3739486E-002, 6.3974556E-004, 8.1528173E-008, 3.5738540E-003, 5.0079884E+002
 1.0700726E+002, 1.0250412E-001, 1.0554896E-001, 5.4164819E-002, 6.4526122E-004, 1.7930451E-008, 3.6056297E-003, 4.9946724E+002
 1.0800285E+002, 1.0228053E-001, 1.0573157E-001, 5.4248739E-002, 6.4640624E-004, 2.4377031E-008, 3.6119076E-003, 5.0082517E+002
 1.0900281E+002, 1.0482747E-001, 1.0365120E-001, 5.3292862E-002, 6.3358042E-004, 1.2770927E-008, 3.5404324E-003, 5.0077364E+002
 1.1000448E+002, 1.0241004E-001, 1.0562546E-001, 5.4200206E-002, 6.4598452E-004, 1.4462139E-007, 3.6083126E-003, 5.0757415E+002
 1.1100350E+002, 1.0346223E-001, 1.0476586E-001, 5.3805343E-002, 6.4079296E-004, 2.0191926E-007, 3.5788026E-003, 5.1010339E+002
 1.1200205E+002, 1.0212413E-001, 1.0585917E-001, 5.4307476E-002, 6.4730565E-004, 5.3649580E-008, 3.6163161E-003, 5.0560266E+002
 1.1300092E+002, 1.0390030E-001, 1.0440846E-001, 5.3640847E-002, 6.3829269E-004, 4.3126287E-008, 3.5664592E-003, 5.0732762E+002
 1.1400223E+002, 1.0449421E-001, 1.0392337E-001, 5.3417941E-002, 6.3528237E-004, 2.8121128E-008, 3.5497887E-003, 5.0587703E+002
 1.1500159E+002, 1.0558352E-001, 1.0303361E-001, 5.3009119E-002, 6.2979652E-004, 1.8713951E-008, 3.5192191E-003, 5.0310676E+002
 1.1600311E+002, 1.0289154E-001, 1.0523248E-001, 5.4019424E-002, 6.4333054E-004, 2.8123388E-008, 3.5947609E-003, 4.9989489E+002
 1.1700378E+002, 1.0684088E-001, 1.0200652E-001, 5.2537238E-002, 6.2350558E-004, 2.0088108E-008, 3.4839405E-003, 4.9928441E+002
 1.1800271E+002, 1.0525751E-001, 1.0329985E-001, 5.3131484E-002, 6.3147366E-004, 3.5617348E-008, 3.5283741E-003, 5.0321166E+002
 1.1900787E+002, 1.0293947E-001, 1.0519336E-001, 5.4001432E-002, 6.4307266E-004, 1.5498377E-008, 3.5934131E-003, 5.0350260E+002
 1.2000149E+002, 1.0367126E-001, 1.0459556E-001, 5.3726801E-002, 6.3943286E-004, 3.7946422E-008, 3.5728844E-003, 5.0324744E+002
 1.2100469E+002, 1.0425896E-001, 1.0411523E-001, 5.3506305E-002, 6.3668775E-004, 1.0195247E-007, 3.5564285E-003, 5.0563316E+002
 1.2200540E+002, 1.0184479E-001, 1.0608752E-001, 5.4412266E-002, 6.4857533E-004, 1.9231811E-008, 3.6241316E-003, 5.0336649E+002
 1.2300302E+002, 1.0198684E-001, 1.0597117E-001, 5.4359026E-002, 6.4808987E-004, 1.3137631E-007, 3.6201844E-003, 5.0757260E+002
 1.2400565E+002, 1.0298276E-001, 1.0515765E-001, 5.3985267E-002, 6.4310759E-004, 1.0904430E-007, 3.5922416E-003, 5.0511630E+002
 1.2500233E+002, 1.0472878E-001, 1.0373097E-001, 5.3330075E-002, 6.3466586E-004, 3.5136974E-007, 3.5433017E-003, 5.0086444E+002
 1.2600359E+002, 1.0453128E-001, 1.0389311E-001, 5.3404024E-002, 6.3507979E-004, 1.8555880E-008, 3.5487457E-003, 5.0300117E+002
 1.2700288E+002, 1.0214276E-001, 1.0584413E-001, 5.4300442E-002, 6.4708262E-004, 2.0642214E-008, 3.6157711E-003, 5.0211466E+002
 1.2800474E+002, 1.0453592E-001, 1.0388926E-001, 5.3402295E-002, 6.3509860E-004, 3.4146318E-008, 3.5486226E-003, 5.0733731E+002
 1.2900340E+002, 1.0436948E-001, 1.0402521E-001, 5.3464763E-002, 6.3594182E-004, 4.0455299E-008, 3.5532943E-003, 5.0727334E+002
 1.3000133E+002, 1.0363589E-001, 1.0462436E-001, 5.3740100E-002, 6.3968196E-004, 5.7978087E-008, 3.5738893E-003, 5.0340697E+002
 1.3100113E+002, 1.0118445E-001, 1.0662688E-001, 5.4660100E-002, 6.5190875E-004, 2.6330987E-008, 3.6426644E-003, 5.0533596E+002
 1.3200462E+002, 1.0165250E-001, 1.0624457E-001, 5.4484440E-002, 6.4955855E-004, 2.8280045E-008, 3.6295305E-003, 5.0564888E+002
 1.3300258E+002, 1.0225060E-001, 1.0575601E-001, 5.4259972E-002, 6.4655615E-004, 2.6188604E-008, 3.6127474E-003, 5.0427341E+002
 1.3400308E+002, 1.0145113E-001, 1.0640881E-001, 5.4560061E-002, 6.5073346E-004, 1.5177411E-007, 3.6352088E-003, 5.1169642E+002
 1.3500097E+002, 1.0311991E-001, 1.0504586E-001, 5.3933740E-002, 6.4224711E-004, 3.6941424E-008, 3.5883637E-003, 5.0589310E+002
 1.3600381E+002, 1.0290635E-001, 1.0522038E-001, 5.4013872E-002, 6.4326524E-004, 2.6911915E-008, 3.5943471E-003, 5.0844125E+002
 1.3700175E+002, 1.0407656E-001, 1.0426457E-001, 5.3574677E-002, 6.3734366E-004, 8.9248562E-009, 3.5615023E-003, 5.0053133E+002
 1.3800161E+002, 1.0486919E-001, 1.0361712E-001, 5.3277204E-002, 6.3336924E-004, 1.1601910E-008, 3.5392614E-003, 5.0058057E+002
 1.3900607E+002, 1.0419627E-001, 1.0416663E-001, 5.3529784E-002, 6.3685825E-004, 5.8886210E-008, 3.5581628E-003, 5.0827918E+002
 1.4000250E+002, 1.0254319E-001, 1.0551679E-001, 5.4150213E-002, 6.4524817E-004, 9.3048783E-008, 3.6045646E-003, 5.1576967E+002
 1.4100005E+002, 1.0239796E-001, 1.0563562E-001, 5.4204672E-002, 6.4583322E-004, 3.6327367E-008, 3.6086153E-003, 5.0553835E+002
 1.4200646E+002, 1.0270072E-001, 1.0538809E-001, 5.4091101E-002, 6.4448009E-004, 8.9739751E-008, 3.6001483E-003, 5.0553663E+002
 1.4300187E+002, 1.0315612E-001, 1.0501630E-001, 5.3920141E-002, 6.4204595E-004, 3.9685480E-008, 3.5873441E-003, 5.0728469E+002
 1.4400606E+002, 1.0354456E-001, 1.0469902E-001, 5.3774361E-002, 6.4009413E-004, 4.5917339E-008, 3.5764441E-003, 5.0675415E+002
 1.4500529E+002, 1.0399256E-001, 1.0433317E-001, 5.3606206E-002, 6.3777693E-004, 1.3375982E-008, 3.5638614E-003, 5.0013294E+002
 1.4600271E+002, 1.0403472E-001, 1.0429865E-001, 5.3590400E-002, 6.3762478E-004, 4.2309830E-008, 3.5626883E-003, 5.0217282E+002
 1.4700601E+002, 1.0568671E-001, 1.0294906E-001, 5.2970445E-002, 6.2945985E-004, 1.2475560E-007, 3.5163543E-003, 5.1169150E+002
 1.4800055E+002, 1.0013777E-001, 1.0748117E-001, 5.5053059E-002, 6.5764234E-004, 3.1145486E-007, 3.6721159E-003, 5.1121374E+002
 1.4900007E+002, 1.0415838E-001, 1.0419764E-001, 5.3543989E-002, 6.3700334E-004, 3.7918544E-008, 3.5592182E-003, 5.0401441E+002
 1.5000551E+002, 1.0419182E-001, 1.0417039E-001, 5.3531429E-002, 6.3679465E-004, 2.2488023E-008, 3.5582731E-003, 5.0208910E+002
 1.5100410E+002, 1.0642441E-001, 1.0234676E-001, 5.2693528E-002, 6.2555887E-004, 1.3075561E-008, 3.4956205E-003, 5.0381457E+002
 1.5200231E+002, 1.0364964E-001, 1.0461329E-001, 5.3734903E-002, 6.3949507E-004, 1.3814627E-008, 3.5734833E-003, 5.0013689E+002
 1.5300095E+002, 1.0375714E-001, 1.0452538E-001, 5.3694575E-002, 6.3901874E-004, 3.4088731E-008, 3.5704775E-003, 5.0643864E+002
 1.5400616E+002, 1.0170984E-001, 1.0619762E-001, 5.4462942E-002, 6.4934440E-004, 5.5556737E-008, 3.6279340E-003, 5.0638001E+002
