s,,,,,,,
Time,"O2 EXHAUST","CO2 EXHAUST","H2O EXHAUST","CO EXHAUST","FUEL EXHAUST","SOOT EXHAUST","TEMP EXHAUST"
 0.0000000E+000, 2.3099739E-001, 5.9146498E-004, 5.9412091E-003, 0.0000000E+000, 0.0000000E+000, 0.0000000E+000, 2.0000000E+001
 1.0023727E+000, 2.3099739E-001, 5.9146498E-004, 5.9412091E-003, 1.2687881E-031, 1.1556305E-030, 2.1596991E-031, 2.0482513E+001
 2.0059170E+000, 2.2471769E-001, 6.4039080E-003, 7.5883284E-003, 1.6403318E-005, 2.9066893E-004, 3.8575435E-004, 8.0972297E+001
 3.0019167E+000, 2.2122946E-001, 9.6216666E-003, 8.5190402E-003, 5.9738185E-005, 3.2383037E-004, 6.0671469E-004, 1.0952422E+002
 4.0013529E+000, 2.1747116E-001, 1.3113270E-002, 9.5090296E-003, 6.9943263E-005, 4.3622171E-004, 8.3851555E-004, 1.4513795E+002
 5.0016952E+000, 2.1402199E-001, 1.6313019E-002, 1.0425159E-002, 9.5410909E-005, 4.7678789E-004, 1.0544256E-003, 1.7271085E+002
 6.0005321E+000, 2.1041621E-001, 1.9642687E-002, 1.1380287E-002, 1.2587025E-004, 5.6988286E-004, 1.2799606E-003, 2.0127660E+002
 7.0010892E+000, 2.0510851E-001, 2.4595966E-002, 1.2787422E-002, 1.4412547E-004, 6.0633614E-004, 1.6096120E-003, 2.3984409E+002
 8.0007004E+000, 2.0192438E-001, 2.7565894E-002, 1.3631506E-002, 1.5583128E-004, 6.3151111E-004, 1.8074318E-003, 2.6062188E+002
 9.0041320E+000, 1.9698230E-001, 3.2186762E-002, 1.4944542E-002, 1.7303645E-004, 6.2389482E-004, 2.1149968E-003, 2.8930128E+002
 1.0007007E+001, 1.9390533E-001, 3.5075676E-002, 1.5761978E-002, 1.7704218E-004, 5.9924556E-004, 2.3058213E-003, 3.0654749E+002
 1.1001051E+001, 1.8955260E-001, 3.9168474E-002, 1.6919999E-002, 1.8231653E-004, 5.3836857E-004, 2.5760796E-003, 3.2564542E+002
 1.2002224E+001, 1.8302145E-001, 4.5307327E-002, 1.8656724E-002, 1.8996266E-004, 4.5893551E-004, 2.9813875E-003, 3.5202987E+002
 1.3000758E+001, 1.7945041E-001, 4.8667362E-002, 1.9606344E-002, 1.9226936E-004, 4.0920614E-004, 3.2028216E-003, 3.6502091E+002
 1.4006423E+001, 1.7370766E-001, 5.4078973E-002, 2.1132242E-002, 1.8926683E-004, 3.2660403E-004, 3.5580057E-003, 3.8188424E+002
 1.5004788E+001, 1.7103413E-001, 5.6594896E-002, 2.1843177E-002, 1.9076181E-004, 2.8889585E-004, 3.7237607E-003, 3.8865877E+002
 1.6002244E+001, 1.6549338E-001, 6.1813864E-002, 2.3314968E-002, 1.8835290E-004, 2.1718933E-004, 4.0664065E-003, 4.0201177E+002
 1.7002029E+001, 1.6184557E-001, 6.5248123E-002, 2.4283503E-002, 1.8692918E-004, 1.7695267E-004, 4.2919144E-003, 4.0933245E+002
 1.8002628E+001, 1.5917889E-001, 6.7753336E-002, 2.4991700E-002, 1.8913676E-004, 1.5526239E-004, 4.4571199E-003, 4.1013963E+002
 1.9006664E+001, 1.5512449E-001, 7.1568157E-002, 2.6068058E-002, 1.8854907E-004, 1.1560002E-004, 4.7078323E-003, 4.1785598E+002
 2.0002970E+001, 1.5283701E-001, 7.3716199E-002, 2.6675283E-002, 1.9047930E-004, 1.0102160E-004, 4.8494926E-003, 4.1822490E+002
 2.1004158E+001, 1.4868307E-001, 7.7617927E-002, 2.7777810E-002, 1.9314381E-004, 7.4418462E-005, 5.1066238E-003, 4.2343518E+002
 2.2000319E+001, 1.4675746E-001, 7.9425727E-002, 2.8288949E-002, 1.9496042E-004, 6.3160118E-005, 5.2258871E-003, 4.2474036E+002
 2.3006078E+001, 1.4288402E-001, 8.3059531E-002, 2.9316818E-002, 1.9953082E-004, 4.7932468E-005, 5.4658140E-003, 4.2893617E+002
 2.4004030E+001, 1.4175246E-001, 8.4119266E-002, 2.9617216E-002, 2.0209117E-004, 4.5439719E-005, 5.5360501E-003, 4.2510929E+002
 2.5008673E+001, 1.3915510E-001, 8.6555837E-002, 3.0306322E-002, 2.0496460E-004, 3.6715073E-005, 5.6968868E-003, 4.2815244E+002
 2.6006707E+001, 1.3764830E-001, 8.7969394E-002, 3.0706236E-002, 2.0686977E-004, 3.0250052E-005, 5.7902463E-003, 4.2918153E+002
 2.7002953E+001, 1.3592971E-001, 8.9579424E-002, 3.1162208E-002, 2.0999237E-004, 2.8058812E-005, 5.8967884E-003, 4.2761436E+002
 2.8003545E+001, 1.3330026E-001, 9.2042883E-002, 3.1859816E-002, 2.1465274E-004, 2.4856885E-005, 6.0597800E-003, 4.2703119E+002
 2.9006823E+001, 1.3134652E-001, 9.3874495E-002, 3.2378146E-002, 2.1743625E-004, 2.0458289E-005, 6.1808186E-003, 4.2932323E+002
 3.0009317E+001, 1.2951358E-001, 9.5590178E-002, 3.2864469E-002, 2.2159999E-004, 2.0578945E-005, 6.2945333E-003, 4.2825221E+002
 3.1002365E+001, 1.2812691E-001, 9.6889017E-002, 3.3232424E-002, 2.2433377E-004, 1.8810496E-005, 6.3805291E-003, 4.2653012E+002
 3.2005116E+001, 1.2656875E-001, 9.8347973E-002, 3.3645837E-002, 2.2760432E-004, 1.8136912E-005, 6.4771695E-003, 4.2588954E+002
 3.3006635E+001, 1.2552971E-001, 9.9320657E-002, 3.3921480E-002, 2.2983228E-004, 1.8354008E-005, 6.5416098E-003, 4.2608359E+002
 3.4006974E+001, 1.2231608E-001, 1.0233030E-001, 3.4774134E-002, 2.3625543E-004, 1.5806746E-005, 6.7408966E-003, 4.2870455E+002
 3.5008018E+001, 1.2148237E-001, 1.0311121E-001, 3.4995253E-002, 2.3770384E-004, 1.5709019E-005, 6.7925584E-003, 4.2857417E+002
 3.6008941E+001, 1.2020530E-001, 1.0430709E-001, 3.5334058E-002, 2.4026638E-004, 1.5233576E-005, 6.8717473E-003, 4.2738425E+002
 3.7002817E+001, 1.1841443E-001, 1.0598413E-001, 3.5809162E-002, 2.4382356E-004, 1.4586801E-005, 6.9827900E-003, 4.2785625E+002
 3.8003375E+001, 1.1604334E-001, 1.0820335E-001, 3.6438245E-002, 2.4927445E-004, 1.5308209E-005, 7.1298925E-003, 4.2823569E+002
 3.9004852E+001, 1.1508865E-001, 1.0909687E-001, 3.6691509E-002, 2.5142673E-004, 1.5882207E-005, 7.1891114E-003, 4.2715934E+002
 4.0000949E+001, 1.1444307E-001, 1.0970194E-001, 3.6862762E-002, 2.5239592E-004, 1.4891508E-005, 7.2291070E-003, 4.2563331E+002
 4.1002528E+001, 1.1249963E-001, 1.1152178E-001, 3.7378310E-002, 2.5623957E-004, 1.4610301E-005, 7.3496014E-003, 4.2646654E+002
 4.2001041E+001, 1.1082031E-001, 1.1309480E-001, 3.7823798E-002, 2.5929954E-004, 1.3483403E-005, 7.4536961E-003, 4.2751373E+002
 4.3001277E+001, 1.0912733E-001, 1.1467845E-001, 3.8272965E-002, 2.6367372E-004, 1.5555633E-005, 7.5587745E-003, 4.2996483E+002
 4.4007443E+001, 1.0846141E-001, 1.1530185E-001, 3.8449680E-002, 2.6519757E-004, 1.5198648E-005, 7.6000956E-003, 4.3024352E+002
 4.5007228E+001, 1.0662034E-001, 1.1702144E-001, 3.8938352E-002, 2.7176497E-004, 1.9871042E-005, 7.7145875E-003, 4.3099080E+002
 4.6004689E+001, 1.0581433E-001, 1.1777897E-001, 3.9151964E-002, 2.7146545E-004, 1.6896274E-005, 7.7643333E-003, 4.2980411E+002
 4.7003899E+001, 1.0451789E-001, 1.1899232E-001, 3.9495976E-002, 2.7455527E-004, 1.6894962E-005, 7.8447855E-003, 4.3003386E+002
 4.8010242E+001, 1.0364983E-001, 1.1980040E-001, 3.9726494E-002, 2.7934580E-004, 2.2740841E-005, 7.8989565E-003, 4.3160953E+002
 4.9005936E+001, 1.0179127E-001, 1.2154029E-001, 4.0219564E-002, 2.8335099E-004, 2.2943560E-005, 8.0142287E-003, 4.3275985E+002
 5.0005761E+001, 1.0056316E-001, 1.2268696E-001, 4.0545407E-002, 2.8771857E-004, 2.7963685E-005, 8.0905728E-003, 4.3321213E+002
 5.1009202E+001, 9.9972886E-002, 1.2323622E-001, 4.0702269E-002, 2.9130046E-004, 3.1315727E-005, 8.1274640E-003, 4.3213060E+002
 5.2002206E+001, 9.8379499E-002, 1.2472253E-001, 4.1125312E-002, 2.9825275E-004, 3.7657808E-005, 8.2267006E-003, 4.3074707E+002
 5.3006680E+001, 9.7239790E-002, 1.2578945E-001, 4.1427826E-002, 3.0099861E-004, 3.6398140E-005, 8.2974488E-003, 4.3342791E+002
 5.4002214E+001, 9.7267688E-002, 1.2575930E-001, 4.1420561E-002, 3.0340468E-004, 4.2056199E-005, 8.2959876E-003, 4.3133003E+002
 5.5000144E+001, 9.5212282E-002, 1.2763208E-001, 4.1968685E-002, 3.4125318E-004, 1.0431797E-004, 8.4273238E-003, 4.3502702E+002
 5.6005625E+001, 9.4623424E-002, 1.2815592E-001, 4.2126518E-002, 3.6053966E-004, 1.3656296E-004, 8.4659427E-003, 4.3321537E+002
 5.7003283E+001, 9.4864317E-002, 1.2796518E-001, 4.2060020E-002, 3.3620058E-004, 1.0082943E-004, 8.4481327E-003, 4.3200335E+002
 5.8004027E+001, 9.3477049E-002, 1.2921077E-001, 4.2430624E-002, 3.7307811E-004, 1.6843712E-004, 8.5380188E-003, 4.3203257E+002
 5.9010217E+001, 9.2014280E-002, 1.3046298E-001, 4.2824747E-002, 4.5171307E-004, 3.1379967E-004, 8.6373784E-003, 4.3062552E+002
 6.0008525E+001, 9.2963194E-002, 1.2965035E-001, 4.2569921E-002, 4.0238251E-004, 2.1214285E-004, 8.5732660E-003, 4.3136312E+002
 6.1003143E+001, 9.1181372E-002, 1.3123555E-001, 4.3047468E-002, 4.6059272E-004, 3.0985895E-004, 8.6900995E-003, 4.2814710E+002
 6.2002349E+001, 9.0956757E-002, 1.3142161E-001, 4.3106225E-002, 4.7294944E-004, 3.5931218E-004, 8.7050098E-003, 4.3049550E+002
 6.3007401E+001, 9.0217659E-002, 1.3209870E-001, 4.3303839E-002, 4.8545839E-004, 3.7059129E-004, 8.7522389E-003, 4.2844522E+002
 6.4006853E+001, 8.9664141E-002, 1.3253416E-001, 4.3454712E-002, 5.3949933E-004, 4.7547402E-004, 8.7925702E-003, 4.2964744E+002
 6.5004768E+001, 8.8956479E-002, 1.3308399E-001, 4.3646914E-002, 6.1116134E-004, 6.2782875E-004, 8.8442374E-003, 4.2855844E+002
 6.6001048E+001, 8.8313901E-002, 1.3368837E-001, 4.3818141E-002, 6.1233221E-004, 6.1600862E-004, 8.8842307E-003, 4.2789484E+002
 6.7004764E+001, 8.8346079E-002, 1.3368981E-001, 4.3807818E-002, 5.9165057E-004, 5.7832712E-004, 8.8798488E-003, 4.2821403E+002
 6.8003766E+001, 8.7825686E-002, 1.3406328E-001, 4.3955235E-002, 6.7224555E-004, 6.8682539E-004, 8.9218502E-003, 4.2437302E+002
 6.9009182E+001, 8.7355278E-002, 1.3443404E-001, 4.4082921E-002, 7.1683726E-004, 7.7974517E-004, 8.9558825E-003, 4.2456087E+002
 7.0007099E+001, 8.6938039E-002, 1.3479539E-001, 4.4193470E-002, 7.3362402E-004, 8.3147675E-004, 8.9832770E-003, 4.2482181E+002
 7.1008113E+001, 8.6615082E-002, 1.3512266E-001, 4.4278036E-002, 7.1856642E-004, 7.9896628E-004, 9.0015373E-003, 4.2455492E+002
 7.2001336E+001, 8.6360815E-002, 1.3531332E-001, 4.4343901E-002, 7.4241591E-004, 8.9537078E-004, 9.0192383E-003, 4.2598577E+002
 7.3004065E+001, 8.6290513E-002, 1.3536614E-001, 4.4363773E-002, 7.5191752E-004, 9.0634841E-004, 9.0247682E-003, 4.2393005E+002
 7.4004241E+001, 8.5566004E-002, 1.3586307E-001, 4.4563988E-002, 8.6785329E-004, 1.1438820E-003, 9.0825400E-003, 4.2346665E+002
 7.5007185E+001, 8.5075658E-002, 1.3625183E-001, 4.4699906E-002, 9.1811462E-004, 1.2105225E-003, 9.1189816E-003, 4.2309612E+002
 7.6005423E+001, 8.5198867E-002, 1.3623560E-001, 4.4660204E-002, 8.5061514E-004, 1.1053349E-003, 9.1033038E-003, 4.2273903E+002
 7.7001669E+001, 8.4927765E-002, 1.3641684E-001, 4.4736646E-002, 8.9931674E-004, 1.1880932E-003, 9.1257631E-003, 4.2242022E+002
 7.8008261E+001, 8.4230472E-002, 1.3685819E-001, 4.4933434E-002, 1.0385775E-003, 1.4420350E-003, 9.1849293E-003, 4.2249574E+002
 7.9009061E+001, 8.4459283E-002, 1.3659429E-001, 4.4868523E-002, 1.0579898E-003, 1.5667814E-003, 9.1717822E-003, 4.2193469E+002
 8.0007727E+001, 8.4018240E-002, 1.3698343E-001, 4.4994019E-002, 1.0872180E-003, 1.5285595E-003, 9.2036928E-003, 4.2131576E+002
 8.1008077E+001, 8.3172258E-002, 1.3763110E-001, 4.5222979E-002, 1.1767605E-003, 1.7348249E-003, 9.2656642E-003, 4.2062253E+002
 8.2007512E+001, 8.3748918E-002, 1.3734254E-001, 4.5058159E-002, 1.0156927E-003, 1.4126076E-003, 9.2118238E-003, 4.2060245E+002
 8.3005649E+001, 8.3105766E-002, 1.3762662E-001, 4.5240132E-002, 1.2128555E-003, 1.8542178E-003, 9.2731851E-003, 4.1850655E+002
 8.4009702E+001, 8.3381107E-002, 1.3752320E-001, 4.5161144E-002, 1.1164660E-003, 1.6439244E-003, 9.2455190E-003, 4.1903159E+002
 8.5004599E+001, 8.2979867E-002, 1.3768270E-001, 4.5272910E-002, 1.2461086E-003, 1.9663660E-003, 9.2840726E-003, 4.1945617E+002
 8.6004771E+001, 8.2965756E-002, 1.3784597E-001, 4.5275844E-002, 1.1618800E-003, 1.7156494E-003, 9.2765721E-003, 4.1918322E+002
 8.7002719E+001, 8.2439670E-002, 1.3805454E-001, 4.5428788E-002, 1.3436061E-003, 2.0796777E-003, 9.3296250E-003, 4.1775581E+002
 8.8006903E+001, 8.2315972E-002, 1.3815215E-001, 4.5457536E-002, 1.3466358E-003, 2.1489124E-003, 9.3367020E-003, 4.1712544E+002
 8.9008193E+001, 8.2238872E-002, 1.3823094E-001, 4.5476067E-002, 1.3397149E-003, 2.1554813E-003, 9.3403852E-003, 4.1757479E+002
 9.0001803E+001, 8.1786348E-002, 1.3860446E-001, 4.5601702E-002, 1.3783243E-003, 2.1897354E-003, 9.3733017E-003, 4.1946951E+002
 9.1008193E+001, 8.1830431E-002, 1.3858674E-001, 4.5591620E-002, 1.3681168E-003, 2.1341688E-003, 9.3699255E-003, 4.1820727E+002
 9.2007015E+001, 8.2040369E-002, 1.3841745E-001, 4.5527640E-002, 1.3378224E-003, 2.1644893E-003, 9.3522397E-003, 4.1753151E+002
 9.3007216E+001, 8.1802625E-002, 1.3855279E-001, 4.5594094E-002, 1.3925136E-003, 2.2831131E-003, 9.3729783E-003, 4.1630664E+002
 9.4005756E+001, 8.1440668E-002, 1.3880177E-001, 4.5694579E-002, 1.4508569E-003, 2.3962377E-003, 9.4019795E-003, 4.1531881E+002
 9.5007713E+001, 8.1463018E-002, 1.3880648E-001, 4.5681524E-002, 1.4239271E-003, 2.4185586E-003, 9.3964625E-003, 4.1777553E+002
 9.6005874E+001, 8.1094936E-002, 1.3903760E-001, 4.5787603E-002, 1.5023944E-003, 2.5352936E-003, 9.4286444E-003, 4.1785861E+002
 9.7001449E+001, 8.0940037E-002, 1.3909877E-001, 4.5828200E-002, 1.5481093E-003, 2.6842455E-003, 9.4425645E-003, 4.1617070E+002
 9.8004787E+001, 8.0778121E-002, 1.3918665E-001, 4.5875749E-002, 1.5918192E-003, 2.7510635E-003, 9.4578043E-003, 4.1523424E+002
 9.9008692E+001, 8.1008406E-002, 1.3904910E-001, 4.5808977E-002, 1.5381117E-003, 2.6696931E-003, 9.4371345E-003, 4.1501487E+002
 1.0000225E+002, 8.0985306E-002, 1.3901317E-001, 4.5819212E-002, 1.5772608E-003, 2.7304522E-003, 9.4432463E-003, 4.1472773E+002
 1.0100011E+002, 8.0361090E-002, 1.3950198E-001, 4.5986840E-002, 1.6349592E-003, 2.8760880E-003, 9.4878787E-003, 4.1548472E+002
 1.0200927E+002, 8.0284347E-002, 1.3949209E-001, 4.6009850E-002, 1.6849645E-003, 2.9920580E-003, 9.4980539E-003, 4.1484776E+002
 1.0300114E+002, 8.0310519E-002, 1.3955017E-001, 4.6000609E-002, 1.6352300E-003, 2.8713516E-003, 9.4911058E-003, 4.1445503E+002
 1.0401024E+002, 8.0094630E-002, 1.3968670E-001, 4.6058345E-002, 1.6727111E-003, 2.9799424E-003, 9.5081978E-003, 4.1433984E+002
 1.0500156E+002, 8.0163205E-002, 1.3955327E-001, 4.6046781E-002, 1.7226156E-003, 3.0372812E-003, 9.5102258E-003, 4.1520808E+002
 1.0600932E+002, 8.0259369E-002, 1.3955786E-001, 4.6011195E-002, 1.6521855E-003, 2.9683527E-003, 9.4952845E-003, 4.1460232E+002
 1.0700645E+002, 7.9907520E-002, 1.3971297E-001, 4.6107855E-002, 1.7550463E-003, 3.2374207E-003, 9.5277524E-003, 4.1423077E+002
 1.0800196E+002, 7.9879897E-002, 1.3969559E-001, 4.6114708E-002, 1.7781192E-003, 3.3162846E-003, 9.5316053E-003, 4.1388772E+002
 1.0900636E+002, 7.9783877E-002, 1.3977698E-001, 4.6144362E-002, 1.7904912E-003, 3.2919516E-003, 9.5396331E-003, 4.1493581E+002
 1.1000670E+002, 7.9852316E-002, 1.3971434E-001, 4.6124628E-002, 1.7867296E-003, 3.3041838E-003, 9.5347012E-003, 4.1397457E+002
 1.1100083E+002, 7.9695349E-002, 1.3980326E-001, 4.6167903E-002, 1.8220065E-003, 3.3888483E-003, 9.5481852E-003, 4.1350031E+002
 1.1200790E+002, 7.9619124E-002, 1.3979260E-001, 4.6190420E-002, 1.8715352E-003, 3.5086165E-003, 9.5582066E-003, 4.1384625E+002
 1.1300914E+002, 7.9350585E-002, 1.4007984E-001, 4.6260670E-002, 1.8505600E-003, 3.4562210E-003, 9.5725525E-003, 4.1342659E+002
 1.1400144E+002, 7.9263958E-002, 1.3996840E-001, 4.6296650E-002, 1.9802326E-003, 3.6664108E-003, 9.5932934E-003, 4.1378101E+002
 1.1500489E+002, 7.9444982E-002, 1.4004228E-001, 4.6231236E-002, 1.8144692E-003, 3.4096956E-003, 9.5622712E-003, 4.1400612E+002
 1.1600448E+002, 7.9531465E-002, 1.3978236E-001, 4.6219095E-002, 1.9323501E-003, 3.6169717E-003, 9.5706972E-003, 4.1244793E+002
 1.1700656E+002, 7.8945235E-002, 1.4017617E-001, 4.6384072E-002, 2.0360409E-003, 3.7956630E-003, 9.6190369E-003, 4.1398576E+002
 1.1800256E+002, 7.9219420E-002, 1.3997752E-001, 4.6303123E-002, 1.9887554E-003, 3.7723034E-003, 9.5957413E-003, 4.1221634E+002
 1.1900889E+002, 7.9434645E-002, 1.3988168E-001, 4.6239799E-002, 1.9188635E-003, 3.6484907E-003, 9.5743106E-003, 4.1334715E+002
 1.2000627E+002, 7.8984207E-002, 1.4017104E-001, 4.6368064E-002, 2.0085208E-003, 3.7945578E-003, 9.6127442E-003, 4.1321885E+002
 1.2100827E+002, 7.9009842E-002, 1.4013570E-001, 4.6357362E-002, 2.0077515E-003, 3.8504406E-003, 9.6102563E-003, 4.1185238E+002
 1.2200882E+002, 7.8917490E-002, 1.4009342E-001, 4.6388631E-002, 2.0910921E-003, 4.0089202E-003, 9.6255166E-003, 4.1014654E+002
 1.2300893E+002, 7.8789894E-002, 1.4024691E-001, 4.6418965E-002, 2.0662945E-003, 3.9831271E-003, 9.6302423E-003, 4.1190032E+002
 1.2400544E+002, 7.8781118E-002, 1.4013611E-001, 4.6421884E-002, 2.1330486E-003, 4.1824610E-003, 9.6374097E-003, 4.1206703E+002
 1.2500605E+002, 7.8866280E-002, 1.4020430E-001, 4.6399680E-002, 2.0519342E-003, 3.9242454E-003, 9.6243307E-003, 4.1231901E+002
 1.2600644E+002, 7.8437681E-002, 1.4047251E-001, 4.6517559E-002, 2.1337279E-003, 4.1143345E-003, 9.6596736E-003, 4.1246131E+002
 1.2700462E+002, 7.8436676E-002, 1.4048931E-001, 4.6518923E-002, 2.1269379E-003, 4.0768041E-003, 9.6593077E-003, 4.1092398E+002
 1.2800461E+002, 7.8427011E-002, 1.4049440E-001, 4.6520537E-002, 2.1274429E-003, 4.0924673E-003, 9.6597525E-003, 4.1278460E+002
 1.2900574E+002, 7.8196299E-002, 1.4064628E-001, 4.6577469E-002, 2.1556769E-003, 4.2427027E-003, 9.6758541E-003, 4.1278383E+002
 1.3000871E+002, 7.8284593E-002, 1.4054471E-001, 4.6556087E-002, 2.1695723E-003, 4.2561952E-003, 9.6721832E-003, 4.1283645E+002
 1.3101054E+002, 7.8395780E-002, 1.4047930E-001, 4.6527483E-002, 2.1495871E-003, 4.1812832E-003, 9.6635544E-003, 4.1145000E+002
 1.3200567E+002, 7.8137264E-002, 1.4066395E-001, 4.6594631E-002, 2.1792288E-003, 4.2934134E-003, 9.6821150E-003, 4.1371687E+002
 1.3300426E+002, 7.8085080E-002, 1.4077093E-001, 4.6604804E-002, 2.1407039E-003, 4.2276091E-003, 9.6808100E-003, 4.1340986E+002
 1.3400032E+002, 7.7996229E-002, 1.4080220E-001, 4.6625725E-002, 2.1648015E-003, 4.3416669E-003, 9.6880853E-003, 4.1313316E+002
 1.3501087E+002, 7.7662397E-002, 1.4094216E-001, 4.6721402E-002, 2.2734607E-003, 4.5723923E-003, 9.7208102E-003, 4.1194645E+002
 1.3600148E+002, 7.7959916E-002, 1.4071133E-001, 4.6644327E-002, 2.2498150E-003, 4.4729574E-003, 9.7005119E-003, 4.1212592E+002
 1.3700255E+002, 7.8388246E-002, 1.4037104E-001, 4.6526683E-002, 2.2082365E-003, 4.4058541E-003, 9.6691359E-003, 4.1173172E+002
 1.3800509E+002, 7.8091586E-002, 1.4048638E-001, 4.6615209E-002, 2.3160392E-003, 4.5937553E-003, 9.7000556E-003, 4.1201129E+002
 1.3900291E+002, 7.8042728E-002, 1.4056615E-001, 4.6622513E-002, 2.2872498E-003, 4.5879418E-003, 9.6990708E-003, 4.1163662E+002
 1.4000551E+002, 7.7895598E-002, 1.4074139E-001, 4.6656840E-002, 2.2584642E-003, 4.5672996E-003, 9.7043632E-003, 4.1203978E+002
 1.4100810E+002, 7.7846441E-002, 1.4073194E-001, 4.6677632E-002, 2.3030334E-003, 4.5905004E-003, 9.7133874E-003, 4.1131588E+002
 1.4200442E+002, 7.7751406E-002, 1.4080369E-001, 4.6700100E-002, 2.3078290E-003, 4.6457290E-003, 9.7191456E-003, 4.1269808E+002
 1.4300575E+002, 7.8073196E-002, 1.4052962E-001, 4.6617475E-002, 2.2970491E-003, 4.5733320E-003, 9.6987885E-003, 4.1244371E+002
 1.4400761E+002, 7.7881941E-002, 1.4066403E-001, 4.6665258E-002, 2.3168068E-003, 4.6777354E-003, 9.7119061E-003, 4.1264908E+002
 1.4500017E+002, 7.7722400E-002, 1.4079115E-001, 4.6703370E-002, 2.3218874E-003, 4.7553086E-003, 9.7213674E-003, 4.1241255E+002
 1.4600641E+002, 7.7633664E-002, 1.4089020E-001, 4.6730436E-002, 2.3195618E-003, 4.6949570E-003, 9.7273746E-003, 4.1215494E+002
 1.4700339E+002, 7.7428681E-002, 1.4101138E-001, 4.6787121E-002, 2.3631470E-003, 4.7952154E-003, 9.7447780E-003, 4.1325069E+002
 1.4800706E+002, 7.7366783E-002, 1.4105264E-001, 4.6805293E-002, 2.3756188E-003, 4.8076122E-003, 9.7501903E-003, 4.1321751E+002
 1.4900863E+002, 7.7471423E-002, 1.4094029E-001, 4.6766376E-002, 2.3633929E-003, 4.9363860E-003, 9.7401623E-003, 4.1285311E+002
 1.5000464E+002, 7.7522595E-002, 1.4093707E-001, 4.6756013E-002, 2.3443637E-003, 4.8295131E-003, 9.7358288E-003, 4.1361701E+002
 1.5100171E+002, 7.7269704E-002, 1.4111852E-001, 4.6823034E-002, 2.3752980E-003, 4.9253668E-003, 9.7544576E-003, 4.1209597E+002
 1.5200926E+002, 7.7121121E-002, 1.4126323E-001, 4.6868522E-002, 2.3833722E-003, 4.8591424E-003, 9.7657171E-003, 4.1089402E+002
 1.5300686E+002, 7.7370839E-002, 1.4103199E-001, 4.6798603E-002, 2.3748749E-003, 4.8889617E-003, 9.7486747E-003, 4.1256301E+002
 1.5400987E+002, 7.7167757E-002, 1.4116276E-001, 4.6847747E-002, 2.3995992E-003, 5.0352443E-003, 9.7626296E-003, 4.1125589E+002
