s,,,,,,,
Time,"O2 EXHAUST","CO2 EXHAUST","H2O EXHAUST","CO EXHAUST","FUEL EXHAUST","SOOT EXHAUST","TEMP EXHAUST"
 0.0000000E+000, 2.3099739E-001, 5.9146498E-004, 5.9412091E-003, 0.0000000E+000, 0.0000000E+000, 0.0000000E+000, 2.0000000E+001
 1.0000400E+000, 2.3099739E-001, 5.9146498E-004, 5.9412091E-003, 2.1461766E-026, 1.5911942E-025, 5.5394864E-027, 2.1051647E+001
 2.0001341E+000, 2.2005414E-001, 9.4187263E-003, 1.1511850E-002, 7.0119315E-005, 2.7915390E-004, 5.1730729E-005, 1.2418421E+002
 3.0015718E+000, 2.1361252E-001, 1.4619840E-002, 1.4803106E-002, 1.1746689E-004, 3.7243003E-004, 8.3516094E-005, 1.8164608E+002
 4.0002157E+000, 2.0516264E-001, 2.1508283E-002, 1.9108779E-002, 1.4239132E-004, 4.2106018E-004, 1.1743780E-004, 2.5132824E+002
 5.0006712E+000, 1.9294779E-001, 3.1570143E-002, 2.5323599E-002, 1.2583479E-004, 3.2871313E-004, 1.5552677E-004, 3.3505577E+002
 6.0017765E+000, 1.8037792E-001, 4.1979083E-002, 3.1710921E-002, 7.8995911E-005, 1.6465301E-004, 1.8850084E-004, 4.0703349E+002
 7.0021972E+000, 1.7195950E-001, 4.8956984E-002, 3.5986625E-002, 4.3224578E-005, 5.1668397E-005, 2.0965995E-004, 4.5129635E+002
 8.0004952E+000, 1.6072073E-001, 5.8203454E-002, 4.1702420E-002, 3.1387155E-005, 1.5526948E-006, 2.4539313E-004, 4.8411433E+002
 9.0054928E+000, 1.4724502E-001, 6.9251486E-002, 4.8559677E-002, 3.7024869E-005, 4.2460589E-007, 2.9236873E-004, 5.1532022E+002
 1.0007454E+001, 1.3592047E-001, 7.8533465E-002, 5.4322619E-002, 4.3062924E-005, 2.7200913E-006, 3.3211680E-004, 5.3906783E+002
 1.1001664E+001, 1.2558101E-001, 8.7011438E-002, 5.9583718E-002, 4.6693532E-005, 7.0172749E-007, 3.6801415E-004, 5.5166740E+002
 1.2001643E+001, 1.1681401E-001, 9.4198265E-002, 6.4044956E-002, 5.0746336E-005, 1.2508287E-006, 3.9865553E-004, 5.5806597E+002
 1.3003999E+001, 1.1310433E-001, 9.7240270E-002, 6.5932467E-002, 5.1882007E-005, 6.6276912E-007, 4.1149981E-004, 5.5801680E+002
 1.4005285E+001, 1.0336053E-001, 1.0522482E-001, 7.0891343E-002, 5.8119133E-005, 4.4416605E-006, 4.4591762E-004, 5.6375976E+002
 1.5001308E+001, 9.5513024E-002, 1.1165901E-001, 7.4884542E-002, 6.1150904E-005, 3.3461525E-006, 4.7322102E-004, 5.7065742E+002
 1.6004419E+001, 8.6799118E-002, 1.1856998E-001, 7.9358992E-002, 1.9577465E-004, 2.6911966E-004, 5.3097206E-004, 5.8177366E+002
 1.7007278E+001, 8.3871120E-002, 1.2094794E-001, 8.0858205E-002, 2.1334303E-004, 2.6774907E-004, 5.4462172E-004, 5.7139955E+002
 1.8005718E+001, 8.0953337E-002, 1.2302129E-001, 8.2403681E-002, 3.9752973E-004, 6.0371871E-004, 5.9306172E-004, 5.6937679E+002
 1.9007512E+001, 7.8124116E-002, 1.2509975E-001, 8.3891679E-002, 5.3870996E-004, 8.4573769E-004, 6.3221738E-004, 5.5656113E+002
 2.0007142E+001, 7.4945594E-002, 1.2737351E-001, 8.5560876E-002, 7.2280879E-004, 1.2533711E-003, 6.8146856E-004, 5.6189555E+002
 2.1007792E+001, 7.3292735E-002, 1.2823104E-001, 8.6481969E-002, 9.9898357E-004, 1.8519831E-003, 7.4477718E-004, 5.4640587E+002
 2.2001206E+001, 7.0380470E-002, 1.3010159E-001, 8.8069843E-002, 1.3020451E-003, 2.3598263E-003, 8.1809858E-004, 5.4896903E+002
 2.3003469E+001, 6.9961190E-002, 1.3068406E-001, 8.8238457E-002, 1.1657119E-003, 2.1043346E-003, 7.9101194E-004, 5.4316561E+002
 2.4001378E+001, 6.8300447E-002, 1.3167845E-001, 8.9141825E-002, 1.3691686E-003, 2.5498622E-003, 8.3915308E-004, 5.3712867E+002
 2.5003524E+001, 6.6716977E-002, 1.3253992E-001, 9.0007739E-002, 1.6047377E-003, 3.1257855E-003, 8.9369218E-004, 5.3319364E+002
 2.6005566E+001, 6.6350105E-002, 1.3220673E-001, 9.0280295E-002, 1.9448953E-003, 3.9691719E-003, 9.6591399E-004, 5.2305543E+002
 2.7004648E+001, 6.5618230E-002, 1.3276694E-001, 9.0649597E-002, 1.9607408E-003, 4.0647328E-003, 9.7166280E-004, 5.2518479E+002
 2.8002062E+001, 6.4606754E-002, 1.3313325E-001, 9.1229642E-002, 2.2112534E-003, 4.6673294E-003, 1.0273846E-003, 5.2734908E+002
 2.9006644E+001, 6.3984036E-002, 1.3296245E-001, 9.1601461E-002, 2.5514001E-003, 5.7607232E-003, 1.1002771E-003, 5.1270260E+002
 3.0004448E+001, 6.3404347E-002, 1.3312191E-001, 9.1940685E-002, 2.7220161E-003, 6.1734592E-003, 1.1378546E-003, 5.0554466E+002
 3.1001809E+001, 6.2162947E-002, 1.3346256E-001, 9.2644666E-002, 3.0723989E-003, 7.1714948E-003, 1.2150799E-003, 5.0976080E+002
 3.2002269E+001, 6.2301287E-002, 1.3350874E-001, 9.2551205E-002, 2.9857550E-003, 6.9664220E-003, 1.1965236E-003, 5.0344355E+002
 3.3003928E+001, 6.0956621E-002, 1.3371937E-001, 9.3297533E-002, 3.4244738E-003, 8.4467639E-003, 1.2923248E-003, 5.0348233E+002
 3.4000206E+001, 6.1031830E-002, 1.3348575E-001, 9.3209411E-002, 3.4666799E-003, 9.0418547E-003, 1.3004908E-003, 4.9403626E+002
 3.5004311E+001, 6.0468358E-002, 1.3348052E-001, 9.3557447E-002, 3.7161280E-003, 9.6732260E-003, 1.3544436E-003, 4.8923743E+002
 3.6005230E+001, 6.0248801E-002, 1.3366523E-001, 9.3697192E-002, 3.7332813E-003, 9.5234255E-003, 1.3589196E-003, 4.8750943E+002
 3.7002372E+001, 5.9713861E-002, 1.3308946E-001, 9.4039978E-002, 4.2318497E-003, 1.1207466E-002, 1.4644140E-003, 4.9333203E+002
 3.8004546E+001, 6.0229165E-002, 1.3258720E-001, 9.3812920E-002, 4.2910686E-003, 1.1191693E-002, 1.4751470E-003, 4.7857033E+002
 3.9003747E+001, 6.0102194E-002, 1.3263984E-001, 9.3798853E-002, 4.2601853E-003, 1.1689065E-002, 1.4686840E-003, 4.7767701E+002
 4.0005694E+001, 5.9808897E-002, 1.3243775E-001, 9.4029896E-002, 4.5125895E-003, 1.2168367E-002, 1.5224607E-003, 4.7604546E+002
 4.1008089E+001, 5.9439880E-002, 1.3212593E-001, 9.4292207E-002, 4.8362996E-003, 1.3029143E-002, 1.5912123E-003, 4.7156038E+002
 4.2005563E+001, 5.9226529E-002, 1.3198997E-001, 9.4384069E-002, 4.9629215E-003, 1.3737234E-002, 1.6180480E-003, 4.7572733E+002
 4.3002648E+001, 5.9353947E-002, 1.3160032E-001, 9.4346024E-002, 5.1077310E-003, 1.4175930E-002, 1.6477677E-003, 4.6913266E+002
 4.4007161E+001, 5.8845986E-002, 1.3162110E-001, 9.4619694E-002, 5.2939030E-003, 1.4894621E-002, 1.6881373E-003, 4.6660680E+002
 4.5003944E+001, 5.8963825E-002, 1.3114175E-001, 9.4580624E-002, 5.4779699E-003, 1.5558808E-002, 1.7259801E-003, 4.6207500E+002
 4.6003513E+001, 5.8847131E-002, 1.3110531E-001, 9.4601161E-002, 5.5100945E-003, 1.6018699E-002, 1.7327811E-003, 4.6127333E+002
 4.7008981E+001, 5.9084912E-002, 1.3066205E-001, 9.4493137E-002, 5.6290507E-003, 1.6452542E-002, 1.7566849E-003, 4.6137078E+002
 4.8007695E+001, 5.8798088E-002, 1.3062063E-001, 9.4636885E-002, 5.7503917E-003, 1.7019121E-002, 1.7827692E-003, 4.5951430E+002
 4.9000088E+001, 5.8725191E-002, 1.3040743E-001, 9.4682992E-002, 5.8777074E-003, 1.7522282E-002, 1.8094346E-003, 4.5890454E+002
 5.0002359E+001, 5.8460484E-002, 1.3033905E-001, 9.4775962E-002, 5.9759416E-003, 1.8304523E-002, 1.8304082E-003, 4.5815331E+002
 5.1010625E+001, 5.8505276E-002, 1.3013409E-001, 9.4764637E-002, 6.0584185E-003, 1.8585049E-002, 1.8474055E-003, 4.5530038E+002
 5.2003949E+001, 5.8446630E-002, 1.2985944E-001, 9.4777732E-002, 6.1902037E-003, 1.9317173E-002, 1.8747841E-003, 4.5317839E+002
 5.3005954E+001, 5.8217507E-002, 1.2982504E-001, 9.4869359E-002, 6.2718607E-003, 1.9888617E-002, 1.8923110E-003, 4.5589434E+002
 5.4009077E+001, 5.8111734E-002, 1.2917571E-001, 9.4945910E-002, 6.6140532E-003, 2.1253297E-002, 1.9636651E-003, 4.5334101E+002
 5.5002751E+001, 5.8032423E-002, 1.2952414E-001, 9.4960054E-002, 6.4704104E-003, 2.0815290E-002, 1.9340272E-003, 4.5385407E+002
 5.6001182E+001, 5.7774344E-002, 1.2932678E-001, 9.5089846E-002, 6.6509387E-003, 2.1644409E-002, 1.9722726E-003, 4.5162871E+002
 5.7000459E+001, 5.8014115E-002, 1.2914552E-001, 9.4907190E-002, 6.6025912E-003, 2.1917362E-002, 1.9610617E-003, 4.5353734E+002
 5.8001315E+001, 5.7838199E-002, 1.2899467E-001, 9.4959900E-002, 6.7084489E-003, 2.2694410E-002, 1.9833431E-003, 4.4777927E+002
 5.9006031E+001, 5.8258371E-002, 1.2838950E-001, 9.4702896E-002, 6.7944318E-003, 2.3434415E-002, 1.9994427E-003, 4.4317728E+002
 6.0002155E+001, 5.7987020E-002, 1.2858660E-001, 9.4853267E-002, 6.8142043E-003, 2.3423802E-002, 2.0045371E-003, 4.4516955E+002
 6.1007768E+001, 5.8092780E-002, 1.2839389E-001, 9.4766485E-002, 6.8386662E-003, 2.3801819E-002, 2.0090327E-003, 4.4267292E+002
 6.2004399E+001, 5.8259370E-002, 1.2799292E-001, 9.4641326E-002, 6.9283164E-003, 2.4535184E-002, 2.0267714E-003, 4.4225308E+002
 6.3006345E+001, 5.8436157E-002, 1.2801418E-001, 9.4469521E-002, 6.7985575E-003, 2.4611236E-002, 1.9987838E-003, 4.4716204E+002
 6.4009211E+001, 5.8064231E-002, 1.2757546E-001, 9.4646320E-002, 7.1201843E-003, 2.6167357E-002, 2.0665608E-003, 4.4511904E+002
 6.5001409E+001, 5.8409629E-002, 1.2737182E-001, 9.4455902E-002, 7.0747276E-003, 2.6081032E-002, 2.0558818E-003, 4.4303641E+002
 6.6003659E+001, 5.8700160E-002, 1.2691951E-001, 9.4315263E-002, 7.1745404E-003, 2.6475094E-002, 2.0756059E-003, 4.4315336E+002
 6.7008727E+001, 5.8281909E-002, 1.2710149E-001, 9.4470144E-002, 7.2065180E-003, 2.7088526E-002, 2.0832800E-003, 4.3949712E+002
 6.8000954E+001, 5.8495877E-002, 1.2710051E-001, 9.4270111E-002, 7.0667226E-003, 2.7194629E-002, 2.0530288E-003, 4.3961802E+002
 6.9008623E+001, 5.8607471E-002, 1.2676558E-001, 9.4139411E-002, 7.1241857E-003, 2.8053803E-002, 2.0640770E-003, 4.3608247E+002
 7.0010225E+001, 5.8624745E-002, 1.2664094E-001, 9.4107867E-002, 7.1576521E-003, 2.8389678E-002, 2.0708028E-003, 4.4079082E+002
 7.1006725E+001, 5.8941803E-002, 1.2627323E-001, 9.3868298E-002, 7.1518736E-003, 2.8997947E-002, 2.0680311E-003, 4.3714241E+002
 7.2009789E+001, 5.8696791E-002, 1.2642276E-001, 9.3975705E-002, 7.1629573E-003, 2.9187554E-002, 2.0710490E-003, 4.3782255E+002
 7.3007592E+001, 5.8928682E-002, 1.2602670E-001, 9.3759282E-002, 7.1869810E-003, 3.0094157E-002, 2.0746089E-003, 4.3741134E+002
 7.4009159E+001, 5.9267825E-002, 1.2557139E-001, 9.3507416E-002, 7.2113072E-003, 3.0847332E-002, 2.0779885E-003, 4.3864062E+002
 7.5006868E+001, 5.9232995E-002, 1.2570913E-001, 9.3498079E-002, 7.1443793E-003, 3.0763537E-002, 2.0640776E-003, 4.3236348E+002
 7.6006372E+001, 5.9280770E-002, 1.2559812E-001, 9.3386211E-002, 7.1163956E-003, 3.1346322E-002, 2.0575645E-003, 4.3383446E+002
 7.7010759E+001, 5.9412864E-002, 1.2539786E-001, 9.3282703E-002, 7.1323469E-003, 3.1712805E-002, 2.0601874E-003, 4.3286178E+002
 7.8009022E+001, 5.9402988E-002, 1.2520599E-001, 9.3283871E-002, 7.2184466E-003, 3.2133789E-002, 2.0780231E-003, 4.3281180E+002
 7.9009110E+001, 5.9910486E-002, 1.2499959E-001, 9.2946158E-002, 7.0708835E-003, 3.2110636E-002, 2.0452401E-003, 4.3517307E+002
 8.0006530E+001, 6.0038012E-002, 1.2450747E-001, 9.2721720E-002, 7.1337694E-003, 3.3688149E-002, 2.0568125E-003, 4.2981040E+002
 8.1000191E+001, 6.0023540E-002, 1.2446696E-001, 9.2769042E-002, 7.1843257E-003, 3.3593249E-002, 2.0675833E-003, 4.3286139E+002
 8.2006687E+001, 5.9907019E-002, 1.2471566E-001, 9.2779866E-002, 7.0832796E-003, 3.3528295E-002, 2.0467499E-003, 4.3386710E+002
 8.3002745E+001, 6.0117744E-002, 1.2421103E-001, 9.2625225E-002, 7.1980564E-003, 3.4432391E-002, 2.0694962E-003, 4.3160093E+002
 8.4001070E+001, 6.0209281E-002, 1.2427531E-001, 9.2600337E-002, 7.1510169E-003, 3.4043895E-002, 2.0595836E-003, 4.3189469E+002
 8.5001414E+001, 6.0648150E-002, 1.2363399E-001, 9.2158079E-002, 7.1261223E-003, 3.5705822E-002, 2.0515452E-003, 4.2741919E+002
 8.6005949E+001, 6.0771904E-002, 1.2340218E-001, 9.2047008E-002, 7.1510392E-003, 3.6208540E-002, 2.0559777E-003, 4.2878765E+002
 8.7001546E+001, 6.0649499E-002, 1.2360054E-001, 9.2161342E-002, 7.1431714E-003, 3.5751008E-002, 2.0550957E-003, 4.2600650E+002
 8.8007567E+001, 6.0925628E-002, 1.2345354E-001, 9.1965264E-002, 7.0698540E-003, 3.5869855E-002, 2.0386236E-003, 4.2699043E+002
 8.9002119E+001, 6.1094379E-002, 1.2316909E-001, 9.1778956E-002, 7.0659716E-003, 3.6666328E-002, 2.0366074E-003, 4.2776270E+002
 9.0003671E+001, 6.1140667E-002, 1.2323878E-001, 9.1617698E-002, 6.9240735E-003, 3.7139727E-002, 2.0061948E-003, 4.2717018E+002
 9.1002124E+001, 6.1437697E-002, 1.2297907E-001, 9.1496278E-002, 6.9514528E-003, 3.7023416E-002, 2.0110430E-003, 4.2466020E+002
 9.2002602E+001, 6.1799653E-002, 1.2245783E-001, 9.1170199E-002, 6.9539401E-003, 3.8184973E-002, 2.0094253E-003, 4.2460677E+002
 9.3003774E+001, 6.1271591E-002, 1.2286927E-001, 9.1457293E-002, 6.9762608E-003, 3.8136023E-002, 2.0159587E-003, 4.2917824E+002
 9.4006890E+001, 6.1528514E-002, 1.2275190E-001, 9.1347140E-002, 6.9488348E-003, 3.7845612E-002, 2.0095377E-003, 4.2801362E+002
 9.5009243E+001, 6.1781632E-002, 1.2253205E-001, 9.1095082E-002, 6.8699617E-003, 3.8487666E-002, 1.9915631E-003, 4.2537778E+002
 9.6010218E+001, 6.1929072E-002, 1.2248780E-001, 9.0976106E-002, 6.8058594E-003, 3.8553853E-002, 1.9775102E-003, 4.2324201E+002
 9.7003362E+001, 6.2235076E-002, 1.2196525E-001, 9.0729068E-002, 6.8638718E-003, 3.9556946E-002, 1.9879006E-003, 4.2571804E+002
 9.8001370E+001, 6.1991909E-002, 1.2242307E-001, 9.0897284E-002, 6.7796812E-003, 3.8815008E-002, 1.9715786E-003, 4.2733799E+002
 9.9002967E+001, 6.2130345E-002, 1.2214240E-001, 9.0804918E-002, 6.8388246E-003, 3.9260609E-002, 1.9832141E-003, 4.2325890E+002
 1.0001100E+002, 6.1953732E-002, 1.2207676E-001, 9.0873169E-002, 6.9174987E-003, 3.9791561E-002, 1.9999662E-003, 4.2828774E+002
 1.0101111E+002, 6.2381391E-002, 1.2177153E-001, 9.0596775E-002, 6.8570136E-003, 3.9994795E-002, 1.9856154E-003, 4.2229322E+002
 1.0200367E+002, 6.2606988E-002, 1.2134306E-001, 9.0256957E-002, 6.8111868E-003, 4.1610844E-002, 1.9739294E-003, 4.2347201E+002
 1.0301174E+002, 6.2368036E-002, 1.2169677E-001, 9.0486720E-002, 6.8151878E-003, 4.0752128E-002, 1.9762579E-003, 4.2508086E+002
 1.0400246E+002, 6.2535584E-002, 1.2152822E-001, 9.0382198E-002, 6.8157907E-003, 4.0911252E-002, 1.9756907E-003, 4.2720900E+002
 1.0500711E+002, 6.2489736E-002, 1.2145907E-001, 9.0372342E-002, 6.8404968E-003, 4.1291864E-002, 1.9807508E-003, 4.2502179E+002
 1.0600629E+002, 6.2739184E-002, 1.2119476E-001, 9.0185674E-002, 6.8261021E-003, 4.1711147E-002, 1.9765427E-003, 4.2385996E+002
 1.0700996E+002, 6.2895778E-002, 1.2101526E-001, 9.0101478E-002, 6.8456360E-003, 4.1836432E-002, 1.9800261E-003, 4.1951554E+002
 1.0800879E+002, 6.2925450E-002, 1.2093971E-001, 9.0016549E-002, 6.8206296E-003, 4.2289039E-002, 1.9743037E-003, 4.2202760E+002
 1.0900811E+002, 6.2961985E-002, 1.2113566E-001, 8.9994009E-002, 6.7176689E-003, 4.1855030E-002, 1.9528367E-003, 4.2054304E+002
 1.1000290E+002, 6.3118241E-002, 1.2063610E-001, 8.9839292E-002, 6.8310353E-003, 4.2977802E-002, 1.9752995E-003, 4.2156856E+002
 1.1100064E+002, 6.2915514E-002, 1.2067463E-001, 8.9979475E-002, 6.9130820E-003, 4.3048851E-002, 1.9932116E-003, 4.2105872E+002
 1.1200144E+002, 6.2768575E-002, 1.2097652E-001, 9.0121379E-002, 6.8785178E-003, 4.2348207E-002, 1.9869815E-003, 4.2591232E+002
 1.1300227E+002, 6.3342373E-002, 1.2032745E-001, 8.9696392E-002, 6.8666484E-003, 4.3373175E-002, 1.9817277E-003, 4.2208509E+002
 1.1400948E+002, 6.2927993E-002, 1.2079051E-001, 8.9909970E-002, 6.8139504E-003, 4.3111802E-002, 1.9722426E-003, 4.2650374E+002
 1.1500437E+002, 6.2983997E-002, 1.2053121E-001, 8.9916908E-002, 6.9328367E-003, 4.3362986E-002, 1.9968927E-003, 4.2243513E+002
 1.1600195E+002, 6.3117523E-002, 1.2037111E-001, 8.9789866E-002, 6.9148584E-003, 4.3760638E-002, 1.9923406E-003, 4.2117916E+002
 1.1700401E+002, 6.3391504E-002, 1.2019670E-001, 8.9630597E-002, 6.8788920E-003, 4.3759203E-002, 1.9838363E-003, 4.2036666E+002
 1.1800677E+002, 6.3103271E-002, 1.2044114E-001, 8.9885478E-002, 6.9493599E-003, 4.3200926E-002, 2.0000944E-003, 4.2008815E+002
 1.1900348E+002, 6.3191924E-002, 1.2034419E-001, 8.9852473E-002, 6.9683695E-003, 4.3189061E-002, 2.0038059E-003, 4.2165013E+002
 1.2000660E+002, 6.3001380E-002, 1.2018749E-001, 8.9863078E-002, 7.0482837E-003, 4.4250068E-002, 2.0204505E-003, 4.2363580E+002
 1.2100371E+002, 6.3052021E-002, 1.2052487E-001, 8.9907453E-002, 6.9280663E-003, 4.3137688E-002, 1.9958337E-003, 4.2772913E+002
 1.2200759E+002, 6.3180321E-002, 1.2005505E-001, 8.9774646E-002, 7.0436709E-003, 4.4208286E-002, 2.0189038E-003, 4.2007528E+002
 1.2300278E+002, 6.2989246E-002, 1.2010077E-001, 8.9878620E-002, 7.0975882E-003, 4.4397337E-002, 2.0307597E-003, 4.2147522E+002
 1.2400717E+002, 6.3031002E-002, 1.1991699E-001, 8.9842587E-002, 7.1538264E-003, 4.4771778E-002, 2.0421677E-003, 4.2085962E+002
 1.2500392E+002, 6.3028059E-002, 1.2005776E-001, 8.9869976E-002, 7.1101251E-003, 4.4364184E-002, 2.0332941E-003, 4.2060017E+002
 1.2601047E+002, 6.2929938E-002, 1.1980911E-001, 8.9907902E-002, 7.2479967E-003, 4.5085351E-002, 2.0620972E-003, 4.2164719E+002
 1.2700082E+002, 6.2773450E-002, 1.2020797E-001, 8.9989637E-002, 7.1294381E-003, 4.4531306E-002, 2.0380953E-003, 4.2479801E+002
 1.2800977E+002, 6.3167404E-002, 1.1967086E-001, 8.9806671E-002, 7.2362561E-003, 4.4873829E-002, 2.0589838E-003, 4.2409163E+002
 1.2900126E+002, 6.3196384E-002, 1.1947258E-001, 8.9725179E-002, 7.2680685E-003, 4.5558650E-002, 2.0650475E-003, 4.2115262E+002
 1.3001145E+002, 6.3080109E-002, 1.1946111E-001, 8.9765550E-002, 7.3026605E-003, 4.5867298E-002, 2.0724854E-003, 4.2257806E+002
 1.3100187E+002, 6.3114483E-002, 1.1968031E-001, 8.9833510E-002, 7.2512738E-003, 4.4942444E-002, 2.0622725E-003, 4.1892251E+002
 1.3200641E+002, 6.3108858E-002, 1.1935793E-001, 8.9766025E-002, 7.3482964E-003, 4.5951565E-002, 2.0819325E-003, 4.2150462E+002
 1.3300363E+002, 6.2997123E-002, 1.1966225E-001, 8.9867502E-002, 7.2844476E-003, 4.5300820E-002, 2.0693764E-003, 4.2300240E+002
 1.3400660E+002, 6.3012752E-002, 1.1968360E-001, 8.9823607E-002, 7.2447170E-003, 4.5412195E-002, 2.0608686E-003, 4.2243114E+002
 1.3500896E+002, 6.3096500E-002, 1.1938405E-001, 8.9757351E-002, 7.3309848E-003, 4.5994391E-002, 2.0782951E-003, 4.2332856E+002
 1.3600790E+002, 6.2815160E-002, 1.1969978E-001, 8.9853014E-002, 7.2608869E-003, 4.6061358E-002, 2.0644358E-003, 4.2683391E+002
 1.3701237E+002, 6.2982028E-002, 1.1941221E-001, 8.9795589E-002, 7.3465010E-003, 4.6226540E-002, 2.0817695E-003, 4.2008964E+002
 1.3800641E+002, 6.2688819E-002, 1.1931090E-001, 8.9991247E-002, 7.5300001E-003, 4.6680238E-002, 2.1210546E-003, 4.2134182E+002
 1.3900288E+002, 6.2649472E-002, 1.1958687E-001, 9.0049551E-002, 7.4480370E-003, 4.5998989E-002, 2.1044616E-003, 4.2339092E+002
 1.4001148E+002, 6.2965029E-002, 1.1913921E-001, 8.9815360E-002, 7.4814378E-003, 4.6747233E-002, 2.1098363E-003, 4.1950186E+002
 1.4100271E+002, 6.2925621E-002, 1.1906090E-001, 8.9843199E-002, 7.5358627E-003, 4.6930440E-002, 2.1212883E-003, 4.2274333E+002
 1.4200630E+002, 6.2722485E-002, 1.1926602E-001, 8.9972549E-002, 7.5365826E-003, 4.6722795E-002, 2.1222931E-003, 4.2256355E+002
 1.4300147E+002, 6.2682413E-002, 1.1950406E-001, 9.0033438E-002, 7.4732295E-003, 4.6107831E-002, 2.1095698E-003, 4.2259558E+002
 1.4400669E+002, 6.2721514E-002, 1.1930455E-001, 9.0041800E-002, 7.5668334E-003, 4.6302689E-002, 2.1289970E-003, 4.2437489E+002
 1.4500022E+002, 6.2832631E-002, 1.1928427E-001, 8.9966857E-002, 7.5227835E-003, 4.6252572E-002, 2.1193818E-003, 4.1928738E+002
 1.4600666E+002, 6.2820357E-002, 1.1891448E-001, 8.9899453E-002, 7.6410114E-003, 4.7384422E-002, 2.1434340E-003, 4.2018538E+002
 1.4700396E+002, 6.2468587E-002, 1.1936348E-001, 9.0190483E-002, 7.6464560E-003, 4.6500758E-002, 2.1464694E-003, 4.2487805E+002
 1.4800464E+002, 6.2716823E-002, 1.1893677E-001, 9.0009558E-002, 7.7080719E-003, 4.7222583E-002, 2.1580357E-003, 4.2113630E+002
 1.4901052E+002, 6.2524048E-002, 1.1906556E-001, 9.0047985E-002, 7.6803567E-003, 4.7580158E-002, 2.1525732E-003, 4.2277815E+002
 1.5000109E+002, 6.2735785E-002, 1.1905959E-001, 9.0048564E-002, 7.6799203E-003, 4.6700991E-002, 2.1524520E-003, 4.2221674E+002
 1.5100202E+002, 6.2551041E-002, 1.1901580E-001, 9.0140289E-002, 7.7650789E-003, 4.7104620E-002, 2.1706973E-003, 4.2189174E+002
 1.5200770E+002, 6.2364953E-002, 1.1933963E-001, 9.0187795E-002, 7.6569071E-003, 4.6996881E-002, 2.1486331E-003, 4.3058066E+002
 1.5300417E+002, 6.2697382E-002, 1.1898399E-001, 9.0044254E-002, 7.7111535E-003, 4.7035539E-002, 2.1588976E-003, 4.2298273E+002
 1.5401310E+002, 6.2493501E-002, 1.1911137E-001, 9.0111561E-002, 7.7039796E-003, 4.7297894E-002, 2.1578736E-003, 4.2260346E+002
