s,,,,,,,
Time,"O2 EXHAUST","CO2 EXHAUST","H2O EXHAUST","CO EXHAUST","FUEL EXHAUST","SOOT EXHAUST","TEMP EXHAUST"
 0.0000000E+000, 2.3099745E-001, 5.9146511E-004, 5.9409840E-003, 0.0000000E+000, 0.0000000E+000, 0.0000000E+000, 2.0000000E+001
 1.0034313E+000, 2.3099745E-001, 5.9146511E-004, 5.9409840E-003, 4.3521255E-030, 2.3736409E-029, 1.1540546E-030, 2.0432695E+001
 2.0036550E+000, 2.2402508E-001, 6.0039808E-003, 1.0523167E-002, 4.3465540E-005, 8.2307147E-005, 4.0790820E-005, 9.5904203E+001
 3.0034633E+000, 2.2025233E-001, 8.9208920E-003, 1.3012089E-002, 7.7097135E-005, 1.1254995E-004, 6.4982290E-005, 1.2703999E+002
 4.0029698E+000, 2.1641397E-001, 1.1919328E-002, 1.5529256E-002, 8.9941329E-005, 1.4142470E-004, 8.5148686E-005, 1.6201979E+002
 5.0032863E+000, 2.1208173E-001, 1.5294054E-002, 1.8376819E-002, 1.1200288E-004, 1.6711733E-004, 1.0949146E-004, 1.9736296E+002
 6.0061729E+000, 2.0769009E-001, 1.8719571E-002, 2.1259619E-002, 1.3040754E-004, 1.9929708E-004, 1.3333753E-004, 2.3403155E+002
 7.0056009E+000, 2.0401138E-001, 2.1626439E-002, 2.3665833E-002, 1.2482106E-004, 1.8505674E-004, 1.4898492E-004, 2.5999990E+002
 8.0020511E+000, 1.9690662E-001, 2.7268251E-002, 2.8305514E-002, 9.7905913E-005, 1.3152422E-004, 1.7587649E-004, 3.0667395E+002
 9.0005143E+000, 1.9182603E-001, 3.1308041E-002, 3.1621855E-002, 7.5529335E-005, 8.8381657E-005, 1.9446039E-004, 3.3377668E+002
 1.0000167E+001, 1.8851452E-001, 3.3952407E-002, 3.3780518E-002, 5.4464534E-005, 4.9226140E-005, 2.0523644E-004, 3.5411553E+002
 1.1000719E+001, 1.8234973E-001, 3.8841062E-002, 3.7807811E-002, 3.4838518E-005, 1.0617156E-005, 2.2933786E-004, 3.8335430E+002
 1.2003132E+001, 1.7640842E-001, 4.3524445E-002, 4.1696544E-002, 3.2170026E-005, 2.8022666E-007, 2.5591819E-004, 4.0346488E+002
 1.3007305E+001, 1.7219529E-001, 4.6838262E-002, 4.4456051E-002, 3.4486981E-005, 2.5121146E-008, 2.7563550E-004, 4.1403107E+002
 1.4004099E+001, 1.6871907E-001, 4.9572272E-002, 4.6732940E-002, 3.6505672E-005, 1.4986968E-008, 2.9192612E-004, 4.2125448E+002
 1.5003534E+001, 1.6188808E-001, 5.4944704E-002, 5.1207207E-002, 4.0522407E-005, 2.5105669E-008, 3.2394860E-004, 4.3705003E+002
 1.6004741E+001, 1.5796653E-001, 5.8028945E-002, 5.3775787E-002, 4.2809284E-005, 1.8342551E-008, 3.4232815E-004, 4.4376644E+002
 1.7001733E+001, 1.5066133E-001, 6.3774182E-002, 5.8560711E-002, 4.7199083E-005, 9.8747790E-008, 3.7659316E-004, 4.5959027E+002
 1.8008477E+001, 1.5033200E-001, 6.4033318E-002, 5.8776381E-002, 4.7317297E-005, 3.8730642E-008, 3.7812140E-004, 4.5585696E+002
 1.9000395E+001, 1.4897488E-001, 6.5100736E-002, 5.9665253E-002, 4.8065293E-005, 5.6400585E-009, 3.8447294E-004, 4.4864723E+002
 2.0001537E+001, 1.4674014E-001, 6.6858277E-002, 6.1129015E-002, 4.9404098E-005, 3.0968678E-008, 3.9495415E-004, 4.5415060E+002
 2.1000060E+001, 1.4398701E-001, 6.9023609E-002, 6.2932280E-002, 5.0988416E-005, 5.9490222E-009, 4.0785317E-004, 4.5079976E+002
 2.2003733E+001, 1.4203621E-001, 7.0557819E-002, 6.4210060E-002, 5.2167029E-005, 3.7392627E-008, 4.1700468E-004, 4.5762559E+002
 2.3005425E+001, 1.3900950E-001, 7.2938237E-002, 6.6192549E-002, 5.3963090E-005, 5.3731925E-008, 4.3119674E-004, 4.6158619E+002
 2.4002990E+001, 1.3550112E-001, 7.5697538E-002, 6.8490509E-002, 5.6005243E-005, 4.4462071E-008, 4.4763909E-004, 4.6639457E+002
 2.5007721E+001, 1.3475251E-001, 7.6286292E-002, 6.8980855E-002, 5.6455805E-005, 5.3086431E-008, 4.5115062E-004, 4.6460681E+002
 2.6006973E+001, 1.3458886E-001, 7.6415029E-002, 6.9088031E-002, 5.6531527E-005, 3.5925602E-008, 4.5191351E-004, 4.5601249E+002
 2.7007593E+001, 1.3191340E-001, 7.8519188E-002, 7.0840458E-002, 5.8126930E-005, 5.0567287E-008, 4.6446020E-004, 4.6589514E+002
 2.8001697E+001, 1.2815455E-001, 8.1475394E-002, 7.3302508E-002, 6.0370706E-005, 7.3693534E-008, 4.8208798E-004, 4.6725272E+002
 2.9003663E+001, 1.2906165E-001, 8.0762071E-002, 7.2708323E-002, 5.9776411E-005, 3.7352616E-008, 4.7782302E-004, 4.5709597E+002
 3.0000438E+001, 1.2734958E-001, 8.2108576E-002, 7.3829726E-002, 6.0786867E-005, 3.3419452E-008, 4.8584969E-004, 4.5617050E+002
 3.1008243E+001, 1.2612062E-001, 8.3075076E-002, 7.4634699E-002, 6.1537804E-005, 7.6681087E-008, 4.9161666E-004, 4.6509403E+002
 3.2000548E+001, 1.2376267E-001, 8.4929636E-002, 7.6179116E-002, 6.2872820E-005, 3.9522731E-008, 5.0265965E-004, 4.6097731E+002
 3.3002328E+001, 1.2292332E-001, 8.5589647E-002, 7.6728936E-002, 6.3445821E-005, 8.7795516E-008, 5.0661086E-004, 4.6125912E+002
 3.4005194E+001, 1.1988084E-001, 8.7982531E-002, 7.8721733E-002, 6.5211281E-005, 7.7161344E-008, 5.2086859E-004, 4.6823187E+002
 3.5000513E+001, 1.1869150E-001, 8.8918019E-002, 7.9500704E-002, 6.5846833E-005, 3.3156138E-008, 5.2643076E-004, 4.6354204E+002
 3.6006260E+001, 1.1889707E-001, 8.8756337E-002, 7.9366056E-002, 6.5728104E-005, 3.8064960E-008, 5.2546752E-004, 4.5948562E+002
 3.7008330E+001, 1.1787216E-001, 8.9562424E-002, 8.0037364E-002, 6.6321685E-005, 3.0609485E-008, 5.3027025E-004, 4.6339624E+002
 3.8000832E+001, 1.1594341E-001, 9.1079284E-002, 8.1300706E-002, 6.7493270E-005, 6.9924053E-008, 5.3931964E-004, 4.6106952E+002
 3.9003230E+001, 1.1509234E-001, 9.1748570E-002, 8.1858184E-002, 6.8037686E-005, 7.6767613E-008, 5.4331845E-004, 4.5883416E+002
 4.0001619E+001, 1.1246993E-001, 9.3811152E-002, 8.3575801E-002, 6.9505481E-005, 4.5198977E-008, 5.5559643E-004, 4.6132777E+002
 4.1006949E+001, 1.1072101E-001, 9.5186563E-002, 8.4721361E-002, 7.0581807E-005, 9.0203936E-008, 5.6380498E-004, 4.6459983E+002
 4.2003791E+001, 1.1177440E-001, 9.4358225E-002, 8.4031344E-002, 6.9877287E-005, 1.6773727E-008, 5.5884922E-004, 4.5333080E+002
 4.3007009E+001, 1.0948774E-001, 9.6156500E-002, 8.5529149E-002, 7.1309580E-005, 8.1472218E-008, 5.6958687E-004, 4.6468550E+002
 4.4001820E+001, 1.1044283E-001, 9.5405492E-002, 8.4903518E-002, 7.0654834E-005, 1.4692521E-008, 5.6509029E-004, 4.4935927E+002
 4.5006160E+001, 1.0930492E-001, 9.6300403E-002, 8.5648849E-002, 7.1340900E-005, 3.2060154E-008, 5.7042810E-004, 4.5336281E+002
 4.6002299E+001, 1.0792937E-001, 9.7382251E-002, 8.6549822E-002, 7.2143691E-005, 3.1146338E-008, 5.7687517E-004, 4.5553260E+002
 4.7008112E+001, 1.0694363E-001, 9.8157548E-002, 8.7195472E-002, 7.2706389E-005, 1.8361208E-008, 5.8149267E-004, 4.5710362E+002
 4.8007958E+001, 1.0526321E-001, 9.9479109E-002, 8.8296158E-002, 7.3727706E-005, 3.9318654E-008, 5.8937705E-004, 4.6040341E+002
 4.9008286E+001, 1.0580847E-001, 9.9050312E-002, 8.7938996E-002, 7.3380056E-005, 2.5808183E-008, 5.8681535E-004, 4.4969475E+002
 5.0000975E+001, 1.0436617E-001, 1.0018463E-001, 8.8883701E-002, 7.4239404E-005, 3.2978514E-008, 5.9357892E-004, 4.5469300E+002
 5.1004823E+001, 1.0260464E-001, 1.0157006E-001, 9.0037486E-002, 7.5260880E-005, 3.0905372E-008, 6.0183369E-004, 4.5415573E+002
 5.2001691E+001, 1.0288040E-001, 1.0135320E-001, 8.9856857E-002, 7.5086411E-005, 2.2369163E-008, 6.0053842E-004, 4.5565750E+002
 5.3005455E+001, 1.0173025E-001, 1.0225780E-001, 9.0610189E-002, 7.5745678E-005, 3.9808622E-009, 6.0592659E-004, 4.4684410E+002
 5.4002226E+001, 1.0151187E-001, 1.0242953E-001, 9.0753241E-002, 7.5890485E-005, 1.8055819E-008, 6.0695374E-004, 4.5033055E+002
 5.5004622E+001, 1.0040111E-001, 1.0330308E-001, 9.1480790E-002, 7.6562111E-005, 3.5813505E-008, 6.1216459E-004, 4.5674400E+002
 5.6006956E+001, 9.8714994E-002, 1.0462908E-001, 9.2585236E-002, 7.7622979E-005, 6.4396564E-008, 6.2008324E-004, 4.5649540E+002
 5.7002511E+001, 9.8141292E-002, 1.0508035E-001, 9.2960978E-002, 7.7916040E-005, 5.1641720E-008, 6.2276345E-004, 4.5740397E+002
 5.8006471E+001, 9.7174483E-002, 1.0584080E-001, 9.3594202E-002, 7.8434078E-005, 1.6881273E-008, 6.2728521E-004, 4.5195775E+002
 5.9008204E+001, 9.7421765E-002, 1.0564629E-001, 9.3432243E-002, 7.8305010E-005, 3.3058770E-008, 6.2612938E-004, 4.6140876E+002
 6.0007496E+001, 9.6842322E-002, 1.0610193E-001, 9.3811813E-002, 7.8702295E-005, 4.9210771E-008, 6.2885746E-004, 4.6125260E+002
 6.1007420E+001, 9.6966931E-002, 1.0600402E-001, 9.3730154E-002, 7.8565916E-005, 2.6309912E-008, 6.2826021E-004, 4.5311574E+002
 6.2000293E+001, 9.4744735E-002, 1.0775167E-001, 9.5185703E-002, 7.9911242E-005, 6.5819572E-008, 6.3868547E-004, 4.5580150E+002
 6.3005147E+001, 9.4366093E-002, 1.0804956E-001, 9.5433677E-002, 8.0074240E-005, 1.7013298E-008, 6.4044812E-004, 4.5562509E+002
 6.4004529E+001, 9.4358834E-002, 1.0805520E-001, 9.5438459E-002, 8.0119401E-005, 2.9353059E-008, 6.4049064E-004, 4.5351103E+002
 6.5003849E+001, 9.2639367E-002, 1.0940756E-001, 9.6564685E-002, 8.1108290E-005, 3.3451766E-008, 6.4854658E-004, 4.5936871E+002
 6.6008450E+001, 9.2236942E-002, 1.0972392E-001, 9.6828328E-002, 8.1435998E-005, 8.3165019E-008, 6.5045198E-004, 4.5833978E+002
 6.7001978E+001, 9.2707964E-002, 1.0935363E-001, 9.6519749E-002, 8.1058054E-005, 2.1737260E-008, 6.4822296E-004, 4.5643082E+002
 6.8002766E+001, 9.1797556E-002, 1.1006965E-001, 9.7116060E-002, 8.1591119E-005, 2.3458431E-008, 6.5249032E-004, 4.5350936E+002
 6.9008019E+001, 9.1094576E-002, 1.1062253E-001, 9.7576507E-002, 8.2002021E-005, 2.4909774E-008, 6.5578525E-004, 4.5842627E+002
 7.0004715E+001, 9.1160230E-002, 1.1057090E-001, 9.7533503E-002, 8.1961598E-005, 1.8680417E-008, 6.5547710E-004, 4.5116783E+002
 7.1001558E+001, 9.1221857E-002, 1.1052245E-001, 9.7493129E-002, 8.1912584E-005, 1.3619728E-008, 6.5518556E-004, 4.5423988E+002
 7.2008452E+001, 9.0669665E-002, 1.1095669E-001, 9.7854829E-002, 8.2266148E-005, 3.7762345E-008, 6.5778012E-004, 4.5804383E+002
 7.3004314E+001, 9.0598484E-002, 1.1101270E-001, 9.7901442E-002, 8.2289838E-005, 2.0312003E-008, 6.5811004E-004, 4.5031139E+002
 7.4002707E+001, 8.9079279E-002, 1.1220752E-001, 9.8896515E-002, 8.3185497E-005, 2.7632160E-008, 6.6523229E-004, 4.5461349E+002
 7.5000678E+001, 8.9353211E-002, 1.1199204E-001, 9.8717105E-002, 8.3046769E-005, 3.8814135E-008, 6.6395278E-004, 4.5879699E+002
 7.6007530E+001, 8.8891523E-002, 1.1235508E-001, 9.9019540E-002, 8.3367391E-005, 6.4262236E-008, 6.6612729E-004, 4.5841571E+002
 7.7006308E+001, 8.7336024E-002, 1.1357851E-001, 1.0003836E-001, 8.4237746E-005, 3.4579823E-008, 6.7341001E-004, 4.6014458E+002
 7.8006557E+001, 8.8457224E-002, 1.1269673E-001, 9.9303965E-002, 8.3563138E-005, 3.7075803E-008, 6.6815083E-004, 4.6045204E+002
 7.9007285E+001, 8.6900681E-002, 1.1392092E-001, 1.0032350E-001, 8.4482625E-005, 3.2847413E-008, 6.7544851E-004, 4.6035816E+002
 8.0000213E+001, 8.7765967E-002, 1.1324041E-001, 9.9756729E-002, 8.3960459E-005, 3.3434397E-008, 6.7138942E-004, 4.5281772E+002
 8.1007740E+001, 8.6354938E-002, 1.1435014E-001, 1.0068095E-001, 8.4797225E-005, 3.6128489E-008, 6.7800554E-004, 4.5290042E+002
 8.2008284E+001, 8.4888222E-002, 1.1550368E-001, 1.0164164E-001, 8.5660806E-005, 3.9330037E-008, 6.8488148E-004, 4.6041241E+002
 8.3004226E+001, 8.7000122E-002, 1.1384274E-001, 1.0025835E-001, 8.4405800E-005, 2.3363797E-008, 6.7497854E-004, 4.5649043E+002
 8.4003858E+001, 8.6652359E-002, 1.1411627E-001, 1.0048612E-001, 8.4594825E-005, 1.4362555E-008, 6.7660558E-004, 4.5050885E+002
 8.5007365E+001, 8.5360463E-002, 1.1513232E-001, 1.0133231E-001, 8.5354074E-005, 1.8586717E-008, 6.8266167E-004, 4.5506569E+002
 8.6000505E+001, 8.5348675E-002, 1.1514151E-001, 1.0134006E-001, 8.5413589E-005, 5.6483101E-008, 6.8272783E-004, 4.5292812E+002
 8.7003105E+001, 8.5309012E-002, 1.1517279E-001, 1.0136601E-001, 8.5378155E-005, 1.2887577E-008, 6.8290159E-004, 4.5219184E+002
 8.8003421E+001, 8.5676727E-002, 1.1488353E-001, 1.0112518E-001, 8.5199167E-005, 3.8402643E-008, 6.8118552E-004, 4.5829369E+002
 8.9003987E+001, 8.3266558E-002, 1.1677900E-001, 1.0270386E-001, 8.6672095E-005, 7.6476010E-008, 6.9249553E-004, 4.5431483E+002
 9.0003111E+001, 8.3430407E-002, 1.1664999E-001, 1.0259661E-001, 8.6673429E-005, 8.3992562E-008, 6.9174775E-004, 4.5596541E+002
 9.1001164E+001, 8.3985736E-002, 1.1621339E-001, 1.0223280E-001, 8.6239345E-005, 6.5395366E-008, 6.8912211E-004, 4.6077364E+002
 9.2000052E+001, 8.2295780E-002, 1.1754229E-001, 1.0333980E-001, 8.7373657E-005, 1.6271916E-007, 6.9707348E-004, 4.5548157E+002
 9.3001170E+001, 8.3090451E-002, 1.1691762E-001, 1.0281916E-001, 8.6700035E-005, 2.3218567E-008, 6.9330540E-004, 4.5454332E+002
 9.4000270E+001, 8.2966294E-002, 1.1701524E-001, 1.0290049E-001, 8.6785996E-005, 4.2220328E-008, 6.9389011E-004, 4.5602865E+002
 9.5006340E+001, 8.2690201E-002, 1.1723234E-001, 1.0308135E-001, 8.6980565E-005, 5.5120263E-008, 6.9519107E-004, 4.5421040E+002
 9.6001336E+001, 8.1712832E-002, 1.1800094E-001, 1.0372156E-001, 8.7607096E-005, 8.5696528E-008, 6.9978356E-004, 4.5682653E+002
 9.7003685E+001, 8.2263787E-002, 1.1756775E-001, 1.0336063E-001, 8.7198447E-005, 3.5584260E-008, 6.9718321E-004, 4.6041493E+002
 9.8000463E+001, 8.0819339E-002, 1.1870207E-001, 1.0430742E-001, 8.9156140E-005, 7.5158725E-007, 7.0418443E-004, 4.5776345E+002
 9.9004039E+001, 8.0973201E-002, 1.1858224E-001, 1.0420617E-001, 8.8301628E-005, 2.6702733E-007, 7.0330466E-004, 4.5558294E+002
 1.0000320E+002, 8.2655779E-002, 1.1725925E-001, 1.0310397E-001, 8.7103589E-005, 9.4196104E-008, 6.9537379E-004, 4.5704678E+002
 1.0100087E+002, 8.2515870E-002, 1.1736946E-001, 1.0319553E-001, 8.7072953E-005, 5.3370713E-008, 6.9600620E-004, 4.5242965E+002
 1.0200342E+002, 8.1129735E-002, 1.1845797E-001, 1.0410415E-001, 8.8985967E-005, 5.4348726E-007, 7.0273214E-004, 4.6118871E+002
 1.0300313E+002, 8.1831416E-002, 1.1790662E-001, 1.0364433E-001, 8.8232695E-005, 4.5256408E-007, 6.9937198E-004, 4.6182353E+002
 1.0400288E+002, 8.1285188E-002, 1.1833723E-001, 1.0400168E-001, 8.7883294E-005, 1.1619767E-007, 7.0179340E-004, 4.5935126E+002
 1.0500428E+002, 8.3681669E-002, 1.1645256E-001, 1.0243195E-001, 8.6402866E-005, 5.7431858E-008, 6.9054435E-004, 4.4924179E+002
 1.0600357E+002, 8.1247831E-002, 1.1836587E-001, 1.0402645E-001, 8.8390277E-005, 3.9139772E-007, 7.0206917E-004, 4.5426750E+002
 1.0700354E+002, 8.0522740E-002, 1.1893580E-001, 1.0450151E-001, 8.9031301E-005, 5.4352773E-007, 7.0551278E-004, 4.6072039E+002
 1.0800005E+002, 8.1297922E-002, 1.1832674E-001, 1.0399353E-001, 8.8187879E-005, 2.8651190E-007, 7.0179847E-004, 4.5634605E+002
 1.0900535E+002, 7.9914130E-002, 1.1941265E-001, 1.0490085E-001, 9.0553457E-005, 1.3771905E-006, 7.0860725E-004, 4.5747435E+002
 1.1000583E+002, 8.0314709E-002, 1.1909771E-001, 1.0463852E-001, 9.0298977E-005, 9.7208522E-007, 7.0672590E-004, 4.5084965E+002
 1.1100045E+002, 7.9783256E-002, 1.1951514E-001, 1.0498678E-001, 9.0935572E-005, 1.4383546E-006, 7.0928421E-004, 4.5126689E+002
 1.1200661E+002, 7.8614363E-002, 1.2043211E-001, 1.0575335E-001, 9.3144822E-005, 2.3599972E-006, 7.1507953E-004, 4.5683183E+002
 1.1300075E+002, 7.9847122E-002, 1.1946467E-001, 1.0494507E-001, 9.1061392E-005, 1.4371898E-006, 7.0901882E-004, 4.6244697E+002
 1.1400560E+002, 7.8714885E-002, 1.2034849E-001, 1.0568956E-001, 9.6158646E-005, 3.3590654E-006, 7.1524676E-004, 4.6422190E+002
 1.1500143E+002, 8.0133630E-002, 1.1924125E-001, 1.0475659E-001, 8.9623692E-005, 8.6769416E-007, 7.0741218E-004, 4.5751315E+002
 1.1600750E+002, 7.8826167E-002, 1.2026529E-001, 1.0561474E-001, 9.3188418E-005, 2.3477399E-006, 7.1412163E-004, 4.6264141E+002
 1.1700074E+002, 7.9383126E-002, 1.1982414E-001, 1.0525124E-001, 9.4914629E-005, 3.4076627E-006, 7.1193699E-004, 4.5575299E+002
 1.1800330E+002, 8.0332089E-002, 1.1908392E-001, 1.0462713E-001, 9.0339092E-005, 1.2456241E-006, 7.0665461E-004, 4.5793163E+002
 1.1900468E+002, 7.9293224E-002, 1.1990132E-001, 1.0530744E-001, 9.0716695E-005, 1.1214524E-006, 7.1147621E-004, 4.5474879E+002
 1.2000668E+002, 7.8607222E-002, 1.2043865E-001, 1.0575762E-001, 9.2529745E-005, 2.1028437E-006, 7.1498440E-004, 4.5870370E+002
 1.2100318E+002, 7.9789987E-002, 1.1951151E-001, 1.0498168E-001, 8.9833747E-005, 8.4093966E-007, 7.0902481E-004, 4.4554984E+002
 1.2200380E+002, 7.8754805E-002, 1.2032324E-001, 1.0566064E-001, 9.1987494E-005, 2.0670997E-006, 7.1419781E-004, 4.5156129E+002
 1.2300038E+002, 8.0148365E-002, 1.1922827E-001, 1.0474755E-001, 9.0549440E-005, 1.2393278E-006, 7.0753717E-004, 4.5222810E+002
 1.2400459E+002, 7.8322792E-002, 1.2066231E-001, 1.0594391E-001, 9.2713704E-005, 2.2310561E-006, 7.1632110E-004, 4.5888062E+002
 1.2500444E+002, 7.9664163E-002, 1.1960992E-001, 1.0506431E-001, 9.0262257E-005, 1.0918123E-006, 7.0968817E-004, 4.5337694E+002
 1.2600205E+002, 8.0147312E-002, 1.1922992E-001, 1.0474789E-001, 9.0007859E-005, 9.4230239E-007, 7.0742959E-004, 4.5412522E+002
 1.2700050E+002, 7.7930076E-002, 1.2096736E-001, 1.0620275E-001, 9.5460475E-005, 3.4718794E-006, 7.1868435E-004, 4.5675589E+002
 1.2800568E+002, 7.7445162E-002, 1.2134839E-001, 1.0652052E-001, 9.5977477E-005, 3.5381464E-006, 7.2100572E-004, 4.5581847E+002
 1.2900066E+002, 7.9929236E-002, 1.1940147E-001, 1.0489070E-001, 9.0103980E-005, 9.9785938E-007, 7.0844515E-004, 4.5103426E+002
 1.3000401E+002, 7.8711210E-002, 1.2035829E-001, 1.0568895E-001, 9.1548221E-005, 1.4926428E-006, 7.1430603E-004, 4.5254782E+002
 1.3100573E+002, 7.9060320E-002, 1.2008316E-001, 1.0546052E-001, 9.1715146E-005, 1.6586975E-006, 7.1274674E-004, 4.5817200E+002
 1.3200081E+002, 7.9311217E-002, 1.1988653E-001, 1.0529591E-001, 9.1117771E-005, 1.3841098E-006, 7.1147726E-004, 4.5498690E+002
 1.3300864E+002, 7.8056652E-002, 1.2087154E-001, 1.0611827E-001, 9.2923578E-005, 2.2368028E-006, 7.1757982E-004, 4.6285790E+002
 1.3400376E+002, 7.8260456E-002, 1.2071274E-001, 1.0598418E-001, 9.1839500E-005, 1.6329905E-006, 7.1642439E-004, 4.5442368E+002
 1.3500814E+002, 7.8788658E-002, 1.2029618E-001, 1.0563869E-001, 9.2278149E-005, 2.0124037E-006, 7.1410380E-004, 4.5348414E+002
 1.3600222E+002, 7.7987521E-002, 1.2092516E-001, 1.0616385E-001, 9.3453676E-005, 2.5627279E-006, 7.1800541E-004, 4.5218216E+002
 1.3700773E+002, 7.7446908E-002, 1.2134362E-001, 1.0652096E-001, 9.8292029E-005, 4.0635314E-006, 7.2147888E-004, 4.5821815E+002
 1.3800297E+002, 7.8391500E-002, 1.2060947E-001, 1.0589850E-001, 9.1931289E-005, 1.4646270E-006, 7.1584540E-004, 4.5733489E+002
 1.3900605E+002, 7.7895718E-002, 1.2099793E-001, 1.0622381E-001, 9.3163429E-005, 2.0998635E-006, 7.1836462E-004, 4.5414199E+002
 1.4000630E+002, 7.7026619E-002, 1.2167608E-001, 1.0679531E-001, 9.7211185E-005, 3.9841218E-006, 7.2317284E-004, 4.5776995E+002
 1.4100001E+002, 7.6385327E-002, 1.2217091E-001, 1.0721945E-001, 1.0391665E-004, 6.7764996E-006, 7.2749315E-004, 4.5560331E+002
 1.4200673E+002, 7.9181662E-002, 1.1998567E-001, 1.0538195E-001, 9.3022691E-005, 2.1618763E-006, 7.1246435E-004, 4.5169701E+002
 1.4300065E+002, 7.8011631E-002, 1.2090471E-001, 1.0614875E-001, 9.4452730E-005, 2.7787073E-006, 7.1810302E-004, 4.5448693E+002
 1.4400629E+002, 7.7737987E-002, 1.2111911E-001, 1.0632830E-001, 9.5129700E-005, 3.1933844E-006, 7.1949278E-004, 4.5395236E+002
 1.4500090E+002, 7.7487575E-002, 1.2131394E-001, 1.0649324E-001, 9.6693635E-005, 3.7513815E-006, 7.2096090E-004, 4.5809394E+002
 1.4600699E+002, 7.7213364E-002, 1.2153252E-001, 1.0667151E-001, 9.4875310E-005, 3.2242131E-006, 7.2183494E-004, 4.6055355E+002
 1.4700750E+002, 7.7071385E-002, 1.2163699E-001, 1.0676747E-001, 9.9667882E-005, 5.8805957E-006, 7.2347772E-004, 4.5552412E+002
 1.4800517E+002, 7.7469986E-002, 1.2132884E-001, 1.0650427E-001, 9.5976921E-005, 3.5654808E-006, 7.2089225E-004, 4.5723971E+002
 1.4900205E+002, 7.7676460E-002, 1.2116816E-001, 1.0636832E-001, 9.4731338E-005, 2.9828406E-006, 7.1969100E-004, 4.5520097E+002
 1.5000068E+002, 7.7961749E-002, 1.2094632E-001, 1.0618039E-001, 9.2896755E-005, 2.1313027E-006, 7.1800762E-004, 4.5394985E+002
 1.5100267E+002, 7.9374194E-002, 1.1983790E-001, 1.0525427E-001, 9.0482057E-005, 1.1221523E-006, 7.1105772E-004, 4.5113584E+002
 1.5200459E+002, 7.7284503E-002, 1.2147361E-001, 1.0662597E-001, 9.6686822E-005, 4.9672747E-006, 7.2188532E-004, 4.5422354E+002
 1.5300711E+002, 7.6946305E-002, 1.2173990E-001, 1.0684741E-001, 9.6710900E-005, 4.6512989E-006, 7.2343469E-004, 4.4817020E+002
 1.5400758E+002, 7.8592831E-002, 1.2044938E-001, 1.0576728E-001, 9.2921643E-005, 2.3660785E-006, 7.1513138E-004, 4.5580663E+002
