s,,,,,,,
Time,O2 EXHAUST,CO2 EXHAUST,H2O EXHAUST,CO EXHAUST,FUEL EXHAUST,SOOT EXHAUST,TEMP EXHAUST
 0.0000000E+000, 2.3099739E-001, 5.9146498E-004, 5.9412092E-003, 0.0000000E+000, 0.0000000E+000, 0.0000000E+000, 2.0000000E+001
 1.0000818E+000, 2.3099739E-001, 5.9146498E-004, 5.9412092E-003, 2.9560835E-021, 1.2710833E-020, 1.0014865E-020, 2.1625914E+001
 2.0047968E+000, 2.2121997E-001, 8.4645987E-003, 9.6272816E-003, 9.3399340E-005, 1.8301174E-004, 2.8042192E-004, 1.2303865E+002
 3.0019394E+000, 2.1409858E-001, 1.4184122E-002, 1.2324254E-002, 1.8089316E-004, 2.5983469E-004, 4.8834809E-004, 1.9118221E+002
 4.0030722E+000, 2.0572029E-001, 2.0987509E-002, 1.5487479E-002, 2.3785710E-004, 2.7727808E-004, 7.2557419E-004, 2.6519713E+002
 5.0059813E+000, 1.9740043E-001, 2.7781664E-002, 1.8625214E-002, 2.7238663E-004, 2.4614346E-004, 9.5768381E-004, 3.2876573E+002
 6.0012721E+000, 1.8686132E-001, 3.6434749E-002, 2.2595079E-002, 2.8858101E-004, 1.5204940E-004, 1.2473422E-003, 3.9289136E+002
 7.0063595E+000, 1.7705199E-001, 4.4497070E-002, 2.6288412E-002, 2.9791714E-004, 5.9947041E-005, 1.5159915E-003, 4.3695173E+002
 8.0061495E+000, 1.6687675E-001, 5.2825506E-002, 3.0122150E-002, 3.2709468E-004, 1.1509346E-005, 1.7976973E-003, 4.6847612E+002
 9.0004410E+000, 1.5720392E-001, 6.0715671E-002, 3.3768959E-002, 3.7036739E-004, 2.2053994E-007, 2.0679308E-003, 4.9331477E+002
 1.0003705E+001, 1.4655292E-001, 6.9393583E-002, 3.7785530E-002, 4.2393290E-004, 2.0579116E-007, 2.3664251E-003, 5.1437729E+002
 1.1000186E+001, 1.4075589E-001, 7.4116863E-002, 3.9971595E-002, 4.5297951E-004, 1.7674854E-007, 2.5288685E-003, 5.1818977E+002
 1.2003605E+001, 1.3408621E-001, 7.9551216E-002, 4.2486717E-002, 4.8634984E-004, 1.4832042E-007, 2.7157568E-003, 5.2237008E+002
 1.3007807E+001, 1.2697093E-001, 8.5348155E-002, 4.5169997E-002, 5.2230692E-004, 2.1484325E-007, 2.9151916E-003, 5.2994493E+002
 1.4005686E+001, 1.2278100E-001, 8.8762134E-002, 4.6749987E-002, 5.4320321E-004, 1.9275339E-007, 3.0325844E-003, 5.3365279E+002
 1.5001015E+001, 1.1794804E-001, 9.2700170E-002, 4.8572437E-002, 5.6723091E-004, 1.2594552E-007, 3.1679809E-003, 5.3584054E+002
 1.6002953E+001, 1.1260358E-001, 9.7054377E-002, 5.0587913E-002, 5.9424506E-004, 1.7929534E-007, 3.3177821E-003, 5.3614629E+002
 1.7007537E+001, 1.0784742E-001, 1.0092961E-001, 5.2381454E-002, 6.1805138E-004, 2.0268580E-007, 3.4510540E-003, 5.3894606E+002
 1.8000452E+001, 1.0429101E-001, 1.0382710E-001, 5.3722625E-002, 6.3600548E-004, 2.0508508E-007, 3.5507340E-003, 5.4025836E+002
 1.9001353E+001, 1.0128012E-001, 1.0628039E-001, 5.4858009E-002, 6.5102263E-004, 1.7708764E-007, 3.6350928E-003, 5.4123576E+002
 2.0002956E+001, 9.5912609E-002, 1.1064727E-001, 5.6883682E-002, 6.8263567E-004, 1.4087170E-006, 3.7862989E-003, 5.4473836E+002
 2.1007945E+001, 9.2873404E-002, 1.1311620E-001, 5.8031530E-002, 7.0319744E-004, 3.0672877E-006, 3.8723640E-003, 5.4282250E+002
 2.2004366E+001, 8.9645149E-002, 1.1572657E-001, 5.9253715E-002, 7.3388488E-004, 7.4367834E-006, 3.9652781E-003, 5.4015698E+002
 2.3001618E+001, 8.5971184E-002, 1.1870800E-001, 6.0642106E-002, 7.6108612E-004, 9.8182404E-006, 4.0697169E-003, 5.4282232E+002
 2.4001978E+001, 8.2733807E-002, 1.2133901E-001, 6.1864533E-002, 7.8219232E-004, 1.1380762E-005, 4.1612591E-003, 5.4142046E+002
 2.5000930E+001, 7.8994512E-002, 1.2436931E-001, 6.3278708E-002, 8.1299472E-004, 1.4071313E-005, 4.2680860E-003, 5.4202105E+002
 2.6008392E+001, 7.6270579E-002, 1.2658198E-001, 6.4307689E-002, 8.3169685E-004, 1.4401491E-005, 4.3452771E-003, 5.4451345E+002
 2.7007266E+001, 7.2889519E-002, 1.2934262E-001, 6.5581210E-002, 8.4431710E-004, 1.3602142E-005, 4.4392871E-003, 5.4446412E+002
 2.8008184E+001, 6.9301221E-002, 1.3224579E-001, 6.6939651E-002, 8.7756818E-004, 1.5697201E-005, 4.5424344E-003, 5.4456055E+002
 2.9000409E+001, 6.7107770E-002, 1.3403304E-001, 6.7766698E-002, 8.8841448E-004, 1.6260454E-005, 4.6038707E-003, 5.4495594E+002
 3.0007655E+001, 6.5171105E-002, 1.3561666E-001, 6.8495485E-002, 8.9382418E-004, 1.6127984E-005, 4.6574066E-003, 5.4279047E+002
 3.1003208E+001, 6.2444237E-002, 1.3782767E-001, 6.9526650E-002, 9.1559464E-004, 1.6675481E-005, 4.7352004E-003, 5.4385069E+002
 3.2006408E+001, 5.9641821E-002, 1.4011541E-001, 7.0582315E-002, 9.2636719E-004, 1.6155537E-005, 4.8131737E-003, 5.4558125E+002
 3.3006230E+001, 5.6579600E-002, 1.4260825E-001, 7.1737688E-002, 9.4337659E-004, 1.6057947E-005, 4.8992680E-003, 5.4718881E+002
 3.4001510E+001, 5.5496206E-002, 1.4349883E-001, 7.2144112E-002, 9.4285933E-004, 1.5923598E-005, 4.9286114E-003, 5.4521582E+002
 3.5001838E+001, 5.1469979E-002, 1.4674923E-001, 7.3670420E-002, 9.8569002E-004, 1.7253546E-005, 5.0452971E-003, 5.4877626E+002
 3.6008420E+001, 5.0155739E-002, 1.4783086E-001, 7.4163042E-002, 9.8402374E-004, 1.7414187E-005, 5.0807134E-003, 5.4851231E+002
 3.7008256E+001, 4.6961605E-002, 1.5042250E-001, 7.5370524E-002, 1.0082904E-003, 1.7367065E-005, 5.1716310E-003, 5.4984377E+002
 3.8001677E+001, 4.4788239E-002, 1.5217488E-001, 7.6194970E-002, 1.0330229E-003, 1.8489372E-005, 5.2348913E-003, 5.4944838E+002
 3.9000821E+001, 4.2957261E-002, 1.5365620E-001, 7.6888074E-002, 1.0499577E-003, 2.0061073E-005, 5.2875149E-003, 5.4875890E+002
 4.0007176E+001, 4.1113351E-002, 1.5515936E-001, 7.7583406E-002, 1.0588026E-003, 1.8614408E-005, 5.3391263E-003, 5.5166164E+002
 4.1002268E+001, 3.9217115E-002, 1.5671424E-001, 7.8295883E-002, 1.0609060E-003, 1.7926595E-005, 5.3910023E-003, 5.4986222E+002
 4.2001444E+001, 3.6728914E-002, 1.5871707E-001, 7.9240678E-002, 1.0917895E-003, 1.9259387E-005, 5.4638651E-003, 5.5107807E+002
 4.3007490E+001, 3.5358109E-002, 1.5983692E-001, 7.9756804E-002, 1.0964189E-003, 1.9266277E-005, 5.5018948E-003, 5.5067721E+002
 4.4005330E+001, 3.3881057E-002, 1.6101994E-001, 8.0319186E-002, 1.1191593E-003, 2.0613985E-005, 5.5458974E-003, 5.5184189E+002
 4.5008512E+001, 3.2522041E-002, 1.6213730E-001, 8.0829063E-002, 1.1184586E-003, 1.9651814E-005, 5.5827021E-003, 5.5079618E+002
 4.6007738E+001, 3.1606358E-002, 1.6289747E-001, 8.1170807E-002, 1.1126191E-003, 1.7641662E-005, 5.6065918E-003, 5.5187666E+002
 4.7003438E+001, 2.9371502E-002, 1.6470160E-001, 8.2018133E-002, 1.1365499E-003, 1.7792455E-005, 5.6713915E-003, 5.5382189E+002
 4.8000487E+001, 2.7321995E-002, 1.6635034E-001, 8.2796622E-002, 1.1627335E-003, 1.8846775E-005, 5.7315355E-003, 5.5399968E+002
 4.9002924E+001, 2.6705787E-002, 1.6688654E-001, 8.3019934E-002, 1.1401423E-003, 1.7065961E-005, 5.7444256E-003, 5.5256038E+002
 5.0001932E+001, 2.5106838E-002, 1.6820010E-001, 8.3620250E-002, 1.1402603E-003, 1.5047517E-005, 5.7878947E-003, 5.5764032E+002
 5.1001619E+001, 2.3637597E-002, 1.6937604E-001, 8.4179907E-002, 1.1635303E-003, 1.6230424E-005, 5.8317767E-003, 5.5327183E+002
 5.2001237E+001, 2.2010072E-002, 1.7066555E-001, 8.4803443E-002, 1.1992820E-003, 1.7500321E-005, 5.8820910E-003, 5.5611757E+002
 5.3003211E+001, 2.1201749E-002, 1.7133957E-001, 8.5104239E-002, 1.1918018E-003, 1.6214836E-005, 5.9027793E-003, 5.5582152E+002
 5.4002721E+001, 2.0424515E-002, 1.7197491E-001, 8.5396791E-002, 1.1941406E-003, 1.6052239E-005, 5.9242940E-003, 5.5555384E+002
 5.5000318E+001, 1.8539268E-002, 1.7348170E-001, 8.6115467E-002, 1.2255857E-003, 1.7718795E-005, 5.9808710E-003, 5.5772966E+002
 5.6005778E+001, 1.7460649E-002, 1.7436870E-001, 8.6520089E-002, 1.2248880E-003, 1.6996075E-005, 6.0100576E-003, 5.6034842E+002
 5.7008867E+001, 1.5953497E-002, 1.7556211E-001, 8.7097446E-002, 1.2582879E-003, 1.9978968E-005, 6.0566893E-003, 5.6225652E+002
 5.8002521E+001, 1.5963054E-002, 1.7555237E-001, 8.7094462E-002, 1.2598113E-003, 1.9385041E-005, 6.0566937E-003, 5.5578090E+002
 5.9001370E+001, 1.4359119E-002, 1.7683411E-001, 8.7706037E-002, 1.2868034E-003, 2.0236835E-005, 6.1048729E-003, 5.5805891E+002
 6.0007589E+001, 1.3039075E-002, 1.7790891E-001, 8.8203953E-002, 1.2939044E-003, 2.0750535E-005, 6.1419429E-003, 5.6093218E+002
 6.1006574E+001, 1.3372830E-002, 1.7762485E-001, 8.8081423E-002, 1.3014636E-003, 2.0611422E-005, 6.1341689E-003, 5.5740156E+002
 6.2009262E+001, 1.2862265E-002, 1.7806381E-001, 8.8268032E-002, 1.2869143E-003, 1.8235755E-005, 6.1455672E-003, 5.5701630E+002
 6.3007029E+001, 1.1358136E-002, 1.7930089E-001, 8.8832514E-002, 1.2861017E-003, 1.5278456E-005, 6.1863074E-003, 5.5953051E+002
 6.4001885E+001, 1.0166623E-002, 1.8021801E-001, 8.9296121E-002, 1.3325005E-003, 1.7838913E-005, 6.2265886E-003, 5.6150347E+002
 6.5004123E+001, 9.4581134E-003, 1.8076970E-001, 8.9570166E-002, 1.3553800E-003, 1.8680455E-005, 6.2497404E-003, 5.6199412E+002
 6.6002723E+001, 9.3302628E-003, 1.8092089E-001, 8.9605960E-002, 1.3207026E-003, 1.5775028E-005, 6.2473056E-003, 5.6037395E+002
 6.7005410E+001, 8.0560778E-003, 1.8189075E-001, 9.0104798E-002, 1.3786971E-003, 1.7918486E-005, 6.2918169E-003, 5.6018898E+002
 6.8004622E+001, 6.4891472E-003, 1.8303092E-001, 9.0732384E-002, 1.4897218E-003, 2.1892882E-005, 6.3533319E-003, 5.6482497E+002
 6.9001844E+001, 6.3350000E-003, 1.8312485E-001, 9.0799100E-002, 1.5145019E-003, 2.2304197E-005, 6.3617515E-003, 5.6391059E+002
 7.0008549E+001, 5.5606783E-003, 1.8373995E-001, 9.1095305E-002, 1.5302826E-003, 2.3024422E-005, 6.3854787E-003, 5.6432491E+002
 7.1001462E+001, 5.7788619E-003, 1.8358668E-001, 9.1006573E-002, 1.5108024E-003, 2.1400147E-005, 6.3762328E-003, 5.6218031E+002
 7.2009392E+001, 4.8953802E-003, 1.8416399E-001, 9.1378651E-002, 1.6235487E-003, 2.1367663E-005, 6.4195008E-003, 5.6319781E+002
 7.3002725E+001, 4.5904819E-003, 1.8437832E-001, 9.1502846E-002, 1.6508934E-003, 2.1981629E-005, 6.4324527E-003, 5.6160811E+002
 7.4003391E+001, 4.7833869E-003, 1.8434537E-001, 9.1396536E-002, 1.5558719E-003, 1.9569696E-005, 6.4109889E-003, 5.6100904E+002
 7.5001308E+001, 3.3392032E-003, 1.8467933E-001, 9.2168593E-002, 2.2009226E-003, 3.7655723E-005, 6.5603423E-003, 5.6200309E+002
 7.6001122E+001, 3.0516288E-003, 1.8495241E-001, 9.2267063E-002, 2.1735087E-003, 3.3432522E-005, 6.5634961E-003, 5.6300836E+002
 7.7003411E+001, 2.7141805E-003, 1.8530808E-001, 9.2372754E-002, 2.1143297E-003, 3.0129894E-005, 6.5625705E-003, 5.6316411E+002
 7.8005391E+001, 2.5045839E-003, 1.8491695E-001, 9.2604438E-002, 2.5416399E-003, 3.5378465E-005, 6.6412559E-003, 5.6044125E+002
 7.9004843E+001, 2.4784453E-003, 1.8538445E-001, 9.2493815E-002, 2.2040165E-003, 2.6136286E-005, 6.5843263E-003, 5.6259768E+002
 8.0004404E+001, 2.4377300E-003, 1.8504053E-001, 9.2611663E-002, 2.4903374E-003, 2.9276663E-005, 6.6343430E-003, 5.6187740E+002
 8.1005857E+001, 1.9022941E-003, 1.8498253E-001, 9.2947636E-002, 2.8677547E-003, 3.5337561E-005, 6.7133485E-003, 5.5778390E+002
 8.2006090E+001, 2.0106724E-003, 1.8444651E-001, 9.3026776E-002, 3.2052338E-003, 5.0691490E-005, 6.7679809E-003, 5.5572499E+002
 8.3008671E+001, 1.5435996E-003, 1.8445621E-001, 9.3304942E-002, 3.4901924E-003, 4.5251920E-005, 6.8294009E-003, 5.5705785E+002
 8.4004864E+001, 1.8312079E-003, 1.8498594E-001, 9.2989962E-002, 2.9101752E-003, 3.0929539E-005, 6.7225566E-003, 5.5998110E+002
 8.5001583E+001, 1.4419213E-003, 1.8506984E-001, 9.3200313E-002, 3.0892675E-003, 3.1861175E-005, 6.7637316E-003, 5.5742773E+002
 8.6005181E+001, 1.3010887E-003, 1.8447377E-001, 9.3446239E-002, 3.6289187E-003, 4.0440286E-005, 6.8597264E-003, 5.5605256E+002
 8.7006138E+001, 1.3365393E-003, 1.8401885E-001, 9.3547971E-002, 3.9512983E-003, 4.8815567E-005, 6.9138034E-003, 5.5614703E+002
 8.8004996E+001, 1.4328349E-003, 1.8439469E-001, 9.3389021E-002, 3.6069576E-003, 3.9192538E-005, 6.8524023E-003, 5.5813334E+002
 8.9005266E+001, 9.3216172E-004, 1.8381919E-001, 9.3844349E-002, 4.3548681E-003, 5.2754099E-005, 6.9937312E-003, 5.5557619E+002
 9.0010089E+001, 1.1448866E-003, 1.8410180E-001, 9.3640155E-002, 4.0078127E-003, 4.9308855E-005, 6.9286646E-003, 5.5564733E+002
 9.1008024E+001, 1.0762642E-003, 1.8422372E-001, 9.3647777E-002, 3.9577622E-003, 5.0945733E-005, 6.9219652E-003, 5.5662335E+002
 9.2002176E+001, 1.0412739E-003, 1.8361577E-001, 9.3834218E-002, 4.4411017E-003, 5.4481521E-005, 7.0054930E-003, 5.5386708E+002
 9.3001855E+001, 8.5542611E-004, 1.8363544E-001, 9.3940320E-002, 4.5422093E-003, 5.4148678E-005, 7.0278224E-003, 5.5426027E+002
 9.4004249E+001, 9.3510415E-004, 1.8366801E-001, 9.3883640E-002, 4.4677013E-003, 5.4266499E-005, 7.0129242E-003, 5.5344956E+002
 9.5007117E+001, 1.0051135E-003, 1.8271749E-001, 9.4097790E-002, 5.1429738E-003, 7.7614372E-005, 7.1262755E-003, 5.5090331E+002
 9.6001125E+001, 1.1029740E-003, 1.8244351E-001, 9.4108914E-002, 5.2850927E-003, 1.1220289E-004, 7.1476872E-003, 5.4928130E+002
 9.7004519E+001, 8.3548604E-004, 1.8246772E-001, 9.4265969E-002, 5.4369576E-003, 8.9420421E-005, 7.1810493E-003, 5.5092122E+002
 9.8008975E+001, 7.5838301E-004, 1.8258652E-001, 9.4278692E-002, 5.3937324E-003, 9.6820587E-005, 7.1757105E-003, 5.5010426E+002
 9.9002656E+001, 7.8339285E-004, 1.8237771E-001, 9.4322503E-002, 5.5386078E-003, 8.4381235E-005, 7.1998674E-003, 5.5204726E+002
 1.0001075E+002, 6.4823185E-004, 1.8170383E-001, 9.4581800E-002, 6.1293760E-003, 1.2388583E-004, 7.3042496E-003, 5.5154011E+002
 1.0100944E+002, 6.6305291E-004, 1.8181729E-001, 9.4541986E-002, 6.0339452E-003, 1.2354228E-004, 7.2875406E-003, 5.5043153E+002
 1.0200355E+002, 7.7749985E-004, 1.8159006E-001, 9.4533996E-002, 6.1337830E-003, 1.3330679E-004, 7.3014320E-003, 5.5122413E+002
 1.0300813E+002, 6.3689629E-004, 1.8166430E-001, 9.4600270E-002, 6.1673712E-003, 1.1777390E-004, 7.3110890E-003, 5.5039807E+002
 1.0400224E+002, 5.3899872E-004, 1.8078594E-001, 9.4891919E-002, 6.8891421E-003, 1.6509195E-004, 7.4367974E-003, 5.4934463E+002
 1.0500681E+002, 5.2958000E-004, 1.8145370E-001, 9.4717727E-002, 6.3900271E-003, 1.4806159E-004, 7.3518647E-003, 5.5042974E+002
 1.0600861E+002, 4.9996788E-004, 1.8012384E-001, 9.5091846E-002, 7.4124352E-003, 1.9435133E-004, 7.5271014E-003, 5.4835255E+002
 1.0700851E+002, 5.9219709E-004, 1.8160035E-001, 9.4644592E-002, 6.2439342E-003, 1.1732261E-004, 7.3253902E-003, 5.5057057E+002
 1.0800002E+002, 4.8162207E-004, 1.8097297E-001, 9.4880582E-002, 6.7881507E-003, 1.2828221E-004, 7.4213283E-003, 5.4918638E+002
 1.0901098E+002, 5.3273169E-004, 1.8145658E-001, 9.4722346E-002, 6.3931661E-003, 9.7609232E-005, 7.3526321E-003, 5.5017779E+002
 1.1000792E+002, 4.5530336E-004, 1.8081058E-001, 9.4942133E-002, 6.9294253E-003, 1.1832977E-004, 7.4462486E-003, 5.4878797E+002
 1.1100545E+002, 4.4705597E-004, 1.8052234E-001, 9.5023807E-002, 7.1516594E-003, 1.3190488E-004, 7.4843658E-003, 5.4990743E+002
 1.1200810E+002, 4.2388869E-004, 1.8006971E-001, 9.5156948E-002, 7.5057739E-003, 1.6177102E-004, 7.5453236E-003, 5.4855245E+002
 1.1300236E+002, 4.3122490E-004, 1.8041981E-001, 9.5055723E-002, 7.2338904E-003, 1.7040061E-004, 7.4986070E-003, 5.4924440E+002
 1.1400818E+002, 3.8299831E-004, 1.8039106E-001, 9.5095978E-002, 7.2893348E-003, 1.4624899E-004, 7.5095438E-003, 5.4892043E+002
 1.1500079E+002, 4.0728046E-004, 1.7985858E-001, 9.5215206E-002, 7.6672479E-003, 2.2637069E-004, 7.5729642E-003, 5.4657195E+002
 1.1600683E+002, 3.8895160E-004, 1.7945012E-001, 9.5340508E-002, 7.9918954E-003, 2.0698581E-004, 7.6290639E-003, 5.4853594E+002
 1.1700991E+002, 3.6907829E-004, 1.7952675E-001, 9.5329671E-002, 7.9442328E-003, 2.1964997E-004, 7.6213791E-003, 5.4816790E+002
 1.1800288E+002, 4.3180081E-004, 1.8008419E-001, 9.5145294E-002, 7.4868725E-003, 1.8221834E-004, 7.5417502E-003, 5.4835507E+002
 1.1900109E+002, 3.9714459E-004, 1.7930425E-001, 9.5369675E-002, 8.0918907E-003, 2.4671937E-004, 7.6456805E-003, 5.4453101E+002
 1.2000176E+002, 3.7933521E-004, 1.7962685E-001, 9.5293330E-002, 7.8588991E-003, 2.3946830E-004, 7.6063931E-003, 5.4922604E+002
 1.2100412E+002, 3.6564372E-004, 1.7919260E-001, 9.5413433E-002, 8.1907920E-003, 2.8551515E-004, 7.6631944E-003, 5.4674152E+002
 1.2200212E+002, 3.9605652E-004, 1.7940370E-001, 9.5347859E-002, 8.0216762E-003, 2.1433911E-004, 7.6339141E-003, 5.4907790E+002
 1.2300507E+002, 3.7282077E-004, 1.7869825E-001, 9.5547545E-002, 8.5654450E-003, 2.6161228E-004, 7.7271751E-003, 5.4608768E+002
 1.2400954E+002, 3.7579787E-004, 1.7867937E-001, 9.5552610E-002, 8.5796312E-003, 2.4988946E-004, 7.7295921E-003, 5.4670400E+002
 1.2500568E+002, 4.3681041E-004, 1.7926905E-001, 9.5360280E-002, 8.0986573E-003, 2.1367180E-004, 7.6459667E-003, 5.4893856E+002
 1.2600720E+002, 3.9885748E-004, 1.7878847E-001, 9.5512444E-002, 8.4857720E-003, 2.2607475E-004, 7.7130752E-003, 5.4678234E+002
 1.2700497E+002, 3.8943287E-004, 1.7841103E-001, 9.5613425E-002, 8.7707754E-003, 2.7941748E-004, 7.7617017E-003, 5.4626605E+002
 1.2800879E+002, 3.9752592E-004, 1.7854718E-001, 9.5574516E-002, 8.6653681E-003, 2.5788192E-004, 7.7436036E-003, 5.4888792E+002
 1.2900276E+002, 4.0897092E-004, 1.7825861E-001, 9.5646262E-002, 8.8773521E-003, 2.5909883E-004, 7.7795117E-003, 5.4760842E+002
 1.3000128E+002, 4.3329969E-004, 1.7823928E-001, 9.5632785E-002, 8.8726845E-003, 2.8790765E-004, 7.7778724E-003, 5.4793611E+002
 1.3101054E+002, 4.2433953E-004, 1.7830042E-001, 9.5616455E-002, 8.8268017E-003, 3.2256021E-004, 7.7700573E-003, 5.4712113E+002
 1.3200319E+002, 4.0377449E-004, 1.7794979E-001, 9.5724366E-002, 9.1059556E-003, 3.2355206E-004, 7.8183153E-003, 5.4778951E+002
 1.3300724E+002, 3.8926643E-004, 1.7888919E-001, 9.5489566E-002, 8.4140883E-003, 2.3390541E-004, 7.7010364E-003, 5.4931989E+002
 1.3400769E+002, 3.7045800E-004, 1.7789634E-001, 9.5763298E-002, 9.1717393E-003, 2.9336681E-004, 7.8306517E-003, 5.4736177E+002
 1.3500945E+002, 3.3154051E-004, 1.7843895E-001, 9.5647971E-002, 8.7931575E-003, 2.2783345E-004, 7.7674231E-003, 5.4995805E+002
 1.3600057E+002, 3.3596102E-004, 1.7797048E-001, 9.5763839E-002, 9.1370303E-003, 2.9267967E-004, 7.8256616E-003, 5.4700870E+002
 1.3700921E+002, 3.4401706E-004, 1.7788107E-001, 9.5775211E-002, 9.1917361E-003, 3.4943488E-004, 7.8344355E-003, 5.4735266E+002
 1.3801021E+002, 3.6436923E-004, 1.7788142E-001, 9.5771148E-002, 9.1870021E-003, 2.9248498E-004, 7.8334310E-003, 5.4834110E+002
 1.3900937E+002, 3.7756783E-004, 1.7810477E-001, 9.5703768E-002, 9.0105433E-003, 2.8206235E-004, 7.8029822E-003, 5.4940373E+002
 1.4000812E+002, 3.7242276E-004, 1.7810232E-001, 9.5708628E-002, 9.0167231E-003, 2.7440441E-004, 7.8042261E-003, 5.4775586E+002
 1.4100045E+002, 3.3827425E-004, 1.7804980E-001, 9.5740910E-002, 9.0754193E-003, 2.9189484E-004, 7.8150748E-003, 5.4858126E+002
 1.4200816E+002, 3.6546073E-004, 1.7785298E-001, 9.5777932E-002, 9.2076096E-003, 2.9474483E-004, 7.8369088E-003, 5.4738725E+002
 1.4300719E+002, 3.5546822E-004, 1.7743041E-001, 9.5894029E-002, 9.5297195E-003, 3.3111611E-004, 7.8919985E-003, 5.4710733E+002
 1.4400254E+002, 3.6648926E-004, 1.7818218E-001, 9.5689898E-002, 8.9592514E-003, 2.7775866E-004, 7.7945447E-003, 5.4837476E+002
 1.4500702E+002, 3.5780146E-004, 1.7744852E-001, 9.5894890E-002, 9.5217047E-003, 2.8128214E-004, 7.8908782E-003, 5.4860316E+002
 1.4600134E+002, 3.3920865E-004, 1.7742393E-001, 9.5899826E-002, 9.5390735E-003, 3.7067912E-004, 7.8937905E-003, 5.4788913E+002
 1.4700421E+002, 3.5853391E-004, 1.7807040E-001, 9.5726779E-002, 9.0507572E-003, 2.6672182E-004, 7.8104678E-003, 5.4949842E+002
 1.4800950E+002, 3.2089337E-004, 1.7791207E-001, 9.5794496E-002, 9.1965034E-003, 2.5341801E-004, 7.8364809E-003, 5.4710694E+002
 1.4900596E+002, 3.1964876E-004, 1.7812573E-001, 9.5733512E-002, 9.0315069E-003, 2.7692709E-004, 7.8081704E-003, 5.4698283E+002
 1.5000269E+002, 2.9409219E-004, 1.7747388E-001, 9.5924980E-002, 9.5410205E-003, 2.8947623E-004, 7.8958584E-003, 5.4909292E+002
 1.5100981E+002, 2.9440888E-004, 1.7738323E-001, 9.5941286E-002, 9.6014565E-003, 3.4654151E-004, 7.9058198E-003, 5.4845282E+002
 1.5200608E+002, 3.1760279E-004, 1.7754762E-001, 9.5887460E-002, 9.4670103E-003, 3.1224599E-004, 7.8824290E-003, 5.4858492E+002
 1.5300231E+002, 3.1764630E-004, 1.7755386E-001, 9.5879779E-002, 9.4562863E-003, 3.5339886E-004, 7.8803369E-003, 5.4807350E+002
 1.5400434E+002, 3.3008341E-004, 1.7797628E-001, 9.5766925E-002, 9.1374368E-003, 2.8476085E-004, 7.8259405E-003, 5.4998706E+002
