s,,,,,,,
Time,"O2 EXHAUST","CO2 EXHAUST","H2O EXHAUST","CO EXHAUST","FUEL EXHAUST","SOOT EXHAUST","TEMP EXHAUST"
 0.0000000E+000, 2.3099745E-001, 5.9146511E-004, 5.9409840E-003, 0.0000000E+000, 0.0000000E+000, 0.0000000E+000, 2.0000000E+001
 1.0056918E+000, 2.3099745E-001, 5.9146511E-004, 5.9409840E-003, 4.5694962E-031, 3.1258947E-030, 5.2959381E-031, 2.0401655E+001
 2.0032770E+000, 2.2414593E-001, 6.9111654E-003, 7.7488960E-003, 4.9364733E-005, 2.5424016E-004, 4.2623995E-004, 9.0438765E+001
 3.0040956E+000, 2.2091523E-001, 9.8559079E-003, 8.6137038E-003, 1.1408645E-004, 3.1980534E-004, 6.3387752E-004, 1.1374485E+002
 4.0047135E+000, 2.1830100E-001, 1.2260456E-002, 9.3051391E-003, 1.3954600E-004, 4.1335596E-004, 7.9749999E-004, 1.4081708E+002
 5.0028450E+000, 2.1346139E-001, 1.6713642E-002, 1.0594182E-002, 2.0183446E-004, 4.9947644E-004, 1.1037985E-003, 1.7780750E+002
 6.0074101E+000, 2.0876182E-001, 2.1064626E-002, 1.1841324E-002, 2.3938376E-004, 5.8011156E-004, 1.3980233E-003, 2.1412175E+002
 7.0081157E+000, 2.0522476E-001, 2.4368283E-002, 1.2779814E-002, 2.5139461E-004, 5.9237624E-004, 1.6178527E-003, 2.3847439E+002
 8.0080999E+000, 2.0091435E-001, 2.8379293E-002, 1.3922444E-002, 2.7240671E-004, 6.4291311E-004, 1.8861429E-003, 2.6816152E+002
 9.0064008E+000, 1.9632871E-001, 3.2663786E-002, 1.5141448E-002, 2.9127814E-004, 6.3498336E-004, 2.1719503E-003, 2.9845643E+002
 1.0000326E+001, 1.9101800E-001, 3.7669618E-002, 1.6550943E-002, 2.8488396E-004, 5.7123825E-004, 2.4997195E-003, 3.2346299E+002
 1.1005665E+001, 1.8666321E-001, 4.1781299E-002, 1.7707400E-002, 2.7703368E-004, 5.0085530E-004, 2.7683790E-003, 3.4125794E+002
 1.2005909E+001, 1.7854959E-001, 4.9447805E-002, 1.9860071E-002, 2.5565028E-004, 3.7817915E-004, 3.2678532E-003, 3.6593879E+002
 1.3005266E+001, 1.7240689E-001, 5.5243511E-002, 2.1489774E-002, 2.4405217E-004, 3.0041366E-004, 3.6464334E-003, 3.8671728E+002
 1.4006094E+001, 1.6718669E-001, 6.0166727E-002, 2.2874578E-002, 2.3508364E-004, 2.3937285E-004, 3.9682132E-003, 3.9527914E+002
 1.5009348E+001, 1.6271318E-001, 6.4391953E-002, 2.4060510E-002, 2.2254866E-004, 1.8375800E-004, 4.2433255E-003, 4.0172453E+002
 1.6007674E+001, 1.5770443E-001, 6.9109726E-002, 2.5388914E-002, 2.1671799E-004, 1.3839682E-004, 4.5522762E-003, 4.1028219E+002
 1.7007257E+001, 1.5687525E-001, 6.9900221E-002, 2.5608354E-002, 2.0967287E-004, 1.1894657E-004, 4.6027295E-003, 4.0942184E+002
 1.8010122E+001, 1.5051246E-001, 7.5883131E-002, 2.7295618E-002, 2.0746356E-004, 8.1356377E-005, 4.9956523E-003, 4.2087726E+002
 1.9001057E+001, 1.4707078E-001, 7.9116009E-002, 2.8208546E-002, 2.0859249E-004, 6.4160199E-005, 5.2084718E-003, 4.2364181E+002
 2.0003792E+001, 1.4208655E-001, 8.3793508E-002, 2.9530568E-002, 2.1248514E-004, 4.7445251E-005, 5.5168794E-003, 4.2764785E+002
 2.1001703E+001, 1.4106607E-001, 8.4753014E-002, 2.9801202E-002, 2.1220429E-004, 4.1280528E-005, 5.5799101E-003, 4.2561781E+002
 2.2007633E+001, 1.3666443E-001, 8.8881865E-002, 3.0968620E-002, 2.1655826E-004, 3.0527787E-005, 5.8523418E-003, 4.3182582E+002
 2.3004536E+001, 1.3397369E-001, 9.1404249E-002, 3.1682350E-002, 2.2025222E-004, 2.5937806E-005, 6.0189987E-003, 4.3312403E+002
 2.4002260E+001, 1.3054540E-001, 9.4619374E-002, 3.2591508E-002, 2.2384125E-004, 1.9770576E-005, 6.2311836E-003, 4.3670231E+002
 2.5006590E+001, 1.2734863E-001, 9.7614105E-002, 3.3439527E-002, 2.2945591E-004, 1.7245792E-005, 6.4293151E-003, 4.3786851E+002
 2.6003388E+001, 1.2701592E-001, 9.7927524E-002, 3.3527679E-002, 2.2888969E-004, 1.5002533E-005, 6.4498012E-003, 4.3383029E+002
 2.7010366E+001, 1.2339223E-001, 1.0131960E-001, 3.4489177E-002, 2.3709322E-004, 1.4446057E-005, 6.6746200E-003, 4.3449182E+002
 2.8005383E+001, 1.2009392E-001, 1.0440949E-001, 3.5364073E-002, 2.4276028E-004, 1.2314072E-005, 6.8790199E-003, 4.3929742E+002
 2.9001232E+001, 1.2031178E-001, 1.0420549E-001, 3.5306309E-002, 2.4237883E-004, 1.2032494E-005, 6.8655236E-003, 4.3184026E+002
 3.0008102E+001, 1.1697765E-001, 1.0732813E-001, 3.6190820E-002, 2.4875337E-004, 1.0205969E-005, 7.0722303E-003, 4.3706946E+002
 3.1000363E+001, 1.1322383E-001, 1.1084009E-001, 3.7186977E-002, 2.5855178E-004, 1.1735985E-005, 7.3052770E-003, 4.3996624E+002
 3.2001470E+001, 1.1045548E-001, 1.1343305E-001, 3.7921205E-002, 2.6339327E-004, 1.1598667E-005, 7.4768232E-003, 4.4130021E+002
 3.3011397E+001, 1.0806626E-001, 1.1566644E-001, 3.8555103E-002, 2.7043443E-004, 1.7093634E-005, 7.6252021E-003, 4.4146748E+002
 3.4010569E+001, 1.0564398E-001, 1.1793515E-001, 3.9197812E-002, 2.7520747E-004, 1.4659665E-005, 7.7754125E-003, 4.4013851E+002
 3.5007907E+001, 1.0300445E-001, 1.2036730E-001, 3.9901607E-002, 3.0865238E-004, 4.8813605E-005, 7.9425757E-003, 4.4521275E+002
 3.6002940E+001, 1.0232085E-001, 1.2102417E-001, 4.0081358E-002, 2.9792284E-004, 3.4765610E-005, 7.9834452E-003, 4.4182300E+002
 3.7003700E+001, 1.0145309E-001, 1.2171893E-001, 4.0323409E-002, 3.8584404E-004, 1.2686451E-004, 8.0481581E-003, 4.3959518E+002
 3.8007702E+001, 9.9543691E-002, 1.2354572E-001, 4.0823974E-002, 3.5755547E-004, 1.1528824E-004, 8.1621558E-003, 4.3832957E+002
 3.9005795E+001, 9.7216532E-002, 1.2573654E-001, 4.1440559E-002, 3.5437748E-004, 1.0195314E-004, 8.3055233E-003, 4.4374469E+002
 4.0002924E+001, 9.6224549E-002, 1.2663978E-001, 4.1705763E-002, 3.7417095E-004, 1.2681658E-004, 8.3691995E-003, 4.3934594E+002
 4.1005356E+001, 9.3485083E-002, 1.2903425E-001, 4.2446299E-002, 4.9853652E-004, 2.9149701E-004, 8.5535649E-003, 4.4072834E+002
 4.2004594E+001, 9.2753482E-002, 1.2965025E-001, 4.2639029E-002, 5.3570144E-004, 4.2283631E-004, 8.6021165E-003, 4.3804928E+002
 4.3005198E+001, 9.0842305E-002, 1.3148155E-001, 4.3149424E-002, 5.2257201E-004, 3.1909927E-004, 8.7196878E-003, 4.4140373E+002
 4.4003804E+001, 8.8863314E-002, 1.3310593E-001, 4.3695143E-002, 6.8979872E-004, 5.1917446E-004, 8.8626924E-003, 4.3817604E+002
 4.5010998E+001, 8.9697258E-002, 1.3247167E-001, 4.3460779E-002, 5.8373563E-004, 3.8938701E-004, 8.7980306E-003, 4.3472536E+002
 4.6000978E+001, 8.8436851E-002, 1.3348317E-001, 4.3806802E-002, 7.0021278E-004, 5.7088356E-004, 8.8897527E-003, 4.3405642E+002
 4.7008520E+001, 8.6648056E-002, 1.3469964E-001, 4.4317278E-002, 1.0210735E-003, 1.0246893E-003, 9.0391908E-003, 4.3283954E+002
 4.8001344E+001, 8.6247837E-002, 1.3477491E-001, 4.4436897E-002, 1.2111856E-003, 1.4147121E-003, 9.0852943E-003, 4.2765367E+002
 4.9004780E+001, 8.5863643E-002, 1.3512563E-001, 4.4540768E-002, 1.2204227E-003, 1.4119950E-003, 9.1103548E-003, 4.2628972E+002
 5.0000561E+001, 8.5070067E-002, 1.3586116E-001, 4.4746234E-002, 1.2171504E-003, 1.4720280E-003, 9.1580129E-003, 4.2343774E+002
 5.1009097E+001, 8.3583766E-002, 1.3671181E-001, 4.5169123E-002, 1.5698510E-003, 2.1364328E-003, 9.2902950E-003, 4.2672596E+002
 5.2009372E+001, 8.3674720E-002, 1.3698482E-001, 4.5132792E-002, 1.3501930E-003, 1.6337448E-003, 9.2606947E-003, 4.2299073E+002
 5.3009166E+001, 8.2971545E-002, 1.3743788E-001, 4.5329525E-002, 1.4831638E-003, 1.8920904E-003, 9.3192691E-003, 4.2032767E+002
 5.4001459E+001, 8.1430213E-002, 1.3827896E-001, 4.5783913E-002, 1.8999009E-003, 2.5040861E-003, 9.4647769E-003, 4.2258189E+002
 5.5011434E+001, 8.1450370E-002, 1.3838689E-001, 4.5760420E-002, 1.7974489E-003, 2.4550318E-003, 9.4497017E-003, 4.1956536E+002
 5.6005263E+001, 8.0364071E-002, 1.3896347E-001, 4.6058630E-002, 2.0607072E-003, 3.1196393E-003, 9.5446081E-003, 4.1914174E+002
 5.7001669E+001, 8.0001483E-002, 1.3902503E-001, 4.6157339E-002, 2.2193325E-003, 3.5744887E-003, 9.5829991E-003, 4.1676843E+002
 5.8003446E+001, 7.9332321E-002, 1.3960047E-001, 4.6335743E-002, 2.2504880E-003, 3.6541638E-003, 9.6275814E-003, 4.1765060E+002
 5.9004575E+001, 7.9307210E-002, 1.3963764E-001, 4.6335473E-002, 2.2306123E-003, 3.6952784E-003, 9.6257261E-003, 4.1369013E+002
 6.0007190E+001, 7.9297494E-002, 1.3971575E-001, 4.6337707E-002, 2.1919306E-003, 3.5796935E-003, 9.6224875E-003, 4.1152884E+002
 6.1000106E+001, 7.8794928E-002, 1.4007229E-001, 4.6495198E-002, 2.2990809E-003, 3.5505715E-003, 9.6691170E-003, 4.1267680E+002
 6.2007932E+001, 7.8280936E-002, 1.4037243E-001, 4.6639337E-002, 2.4139976E-003, 3.7896884E-003, 9.7137289E-003, 4.1215014E+002
 6.3004998E+001, 7.7289638E-002, 1.4056272E-001, 4.6900062E-002, 2.8191965E-003, 5.0805891E-003, 9.8139742E-003, 4.1121561E+002
 6.4002781E+001, 7.7722768E-002, 1.4037707E-001, 4.6749763E-002, 2.6336935E-003, 5.0321824E-003, 9.7616229E-003, 4.0617362E+002
 6.5003150E+001, 7.7789502E-002, 1.4056359E-001, 4.6741933E-002, 2.5137911E-003, 4.5115563E-003, 9.7479213E-003, 4.0973780E+002
 6.6005005E+001, 7.7421327E-002, 1.4055343E-001, 4.6869188E-002, 2.7632674E-003, 4.8465045E-003, 9.8012516E-003, 4.0500273E+002
 6.7008306E+001, 7.7673007E-002, 1.4017557E-001, 4.6746686E-002, 2.7416067E-003, 5.6109307E-003, 9.7717481E-003, 3.9967351E+002
 6.8008516E+001, 7.7171274E-002, 1.4087909E-001, 4.6905112E-002, 2.6589096E-003, 4.9724985E-003, 9.8000873E-003, 4.0123428E+002
 6.9006744E+001, 7.6755457E-002, 1.4097575E-001, 4.7020082E-002, 2.8296022E-003, 5.4327624E-003, 9.8433978E-003, 4.0606791E+002
 7.0012306E+001, 7.6353539E-002, 1.4118300E-001, 4.7134310E-002, 2.9373177E-003, 5.6528115E-003, 9.8803432E-003, 4.0448247E+002
 7.1001230E+001, 7.6711765E-002, 1.4100278E-001, 4.7017242E-002, 2.8115573E-003, 5.5911935E-003, 9.8412764E-003, 3.9961792E+002
 7.2010994E+001, 7.6607733E-002, 1.4095050E-001, 4.7045135E-002, 2.8948977E-003, 5.8460594E-003, 9.8558835E-003, 3.9542830E+002
 7.3011734E+001, 7.5993813E-002, 1.4119354E-001, 4.7228754E-002, 3.1163470E-003, 6.2235395E-003, 9.9197994E-003, 4.0086210E+002
 7.4013053E+001, 7.5676410E-002, 1.4131124E-001, 4.7296280E-002, 3.1862398E-003, 6.6879292E-003, 9.9426809E-003, 3.9971085E+002
 7.5011378E+001, 7.5444660E-002, 1.4123100E-001, 4.7385446E-002, 3.4002321E-003, 6.9413582E-003, 9.9837209E-003, 3.9906740E+002
 7.6005191E+001, 7.5792268E-002, 1.4119657E-001, 4.7256517E-002, 3.1732821E-003, 6.7827687E-003, 9.9323405E-003, 3.9717884E+002
 7.7010423E+001, 7.5256275E-002, 1.4100897E-001, 4.7378835E-002, 3.5193359E-003, 8.1546675E-003, 9.9949421E-003, 3.9825846E+002
 7.8001514E+001, 7.4978796E-002, 1.4113413E-001, 4.7447190E-002, 3.5848123E-003, 8.4353913E-003, 1.0017352E-002, 3.9794405E+002
 7.9006508E+001, 7.5005260E-002, 1.4146736E-001, 4.7461154E-002, 3.4247018E-003, 7.6235764E-003, 1.0004584E-002, 3.9626731E+002
 8.0008597E+001, 7.5092506E-002, 1.4148514E-001, 4.7424869E-002, 3.3461420E-003, 7.5748927E-003, 9.9887517E-003, 3.9548389E+002
 8.1002560E+001, 7.5077207E-002, 1.4108300E-001, 4.7413968E-002, 3.5492619E-003, 8.4311600E-003, 1.0006296E-002, 3.9508632E+002
 8.2006811E+001, 7.4896466E-002, 1.4117189E-001, 4.7475293E-002, 3.6178793E-003, 8.4446986E-003, 1.0026990E-002, 3.9196116E+002
 8.3007905E+001, 7.5120098E-002, 1.4124615E-001, 4.7389801E-002, 3.4141191E-003, 8.2004784E-003, 9.9877709E-003, 3.9173111E+002
 8.4002201E+001, 7.4310859E-002, 1.4152450E-001, 4.7601932E-002, 3.6757472E-003, 9.0492015E-003, 1.0062722E-002, 3.9535573E+002
 8.5006837E+001, 7.4499087E-002, 1.4152177E-001, 4.7543104E-002, 3.5637128E-003, 8.8335011E-003, 1.0038290E-002, 3.9324354E+002
 8.6009751E+001, 7.4652598E-002, 1.4107661E-001, 4.7482619E-002, 3.6944176E-003, 9.5365432E-003, 1.0037330E-002, 3.9230642E+002
 8.7000642E+001, 7.4266187E-002, 1.4146559E-001, 4.7571831E-002, 3.6564414E-003, 9.6137240E-003, 1.0054692E-002, 3.9183647E+002
 8.8008326E+001, 7.4305947E-002, 1.4145927E-001, 4.7592456E-002, 3.6950273E-003, 9.2698974E-003, 1.0062613E-002, 3.9052942E+002
 8.9003986E+001, 7.4025982E-002, 1.4075587E-001, 4.7632648E-002, 4.1675178E-003, 1.1249424E-002, 1.0118682E-002, 3.9309398E+002
 9.0000405E+001, 7.4040119E-002, 1.4126371E-001, 4.7640530E-002, 3.9007231E-003, 1.0244121E-002, 1.0094303E-002, 3.8936331E+002
 9.1010331E+001, 7.3977066E-002, 1.4125577E-001, 4.7645703E-002, 3.9171601E-003, 1.0467119E-002, 1.0097347E-002, 3.8820975E+002
 9.2012818E+001, 7.3677283E-002, 1.4122804E-001, 4.7694157E-002, 4.0324348E-003, 1.1287655E-002, 1.0120500E-002, 3.9034639E+002
 9.3001849E+001, 7.3861324E-002, 1.4124351E-001, 4.7616131E-002, 3.8762220E-003, 1.1236710E-002, 1.0087712E-002, 3.8791205E+002
 9.4011831E+001, 7.3959250E-002, 1.4097381E-001, 4.7618843E-002, 4.0255429E-003, 1.1275620E-002, 1.0102291E-002, 3.8431345E+002
 9.5010869E+001, 7.3903869E-002, 1.4121975E-001, 4.7627055E-002, 3.9069681E-003, 1.1001976E-002, 1.0092793E-002, 3.8649643E+002
 9.6010249E+001, 7.3901513E-002, 1.4131765E-001, 4.7612062E-002, 3.8262442E-003, 1.0982887E-002, 1.0081762E-002, 3.9077734E+002
 9.7003382E+001, 7.3968702E-002, 1.4108737E-001, 4.7593662E-002, 3.9174436E-003, 1.1276336E-002, 1.0086366E-002, 3.8521586E+002
 9.8009033E+001, 7.3410386E-002, 1.4149229E-001, 4.7724564E-002, 3.9528492E-003, 1.1639568E-002, 1.0120668E-002, 3.8649200E+002
 9.9005842E+001, 7.3635211E-002, 1.4126261E-001, 4.7670248E-002, 3.9724917E-003, 1.1622930E-002, 1.0109815E-002, 3.8703676E+002
 1.0001303E+002, 7.3322874E-002, 1.4130899E-001, 4.7729138E-002, 4.0660803E-003, 1.2269894E-002, 1.0133141E-002, 3.8713013E+002
 1.0100270E+002, 7.3831946E-002, 1.4100676E-001, 4.7597191E-002, 3.9743296E-003, 1.1940799E-002, 1.0093402E-002, 3.8319985E+002
 1.0200912E+002, 7.3762459E-002, 1.4089642E-001, 4.7598352E-002, 4.0403936E-003, 1.2403729E-002, 1.0100460E-002, 3.8138960E+002
 1.0301156E+002, 7.3646093E-002, 1.4118659E-001, 4.7621342E-002, 3.9265397E-003, 1.2165293E-002, 1.0094894E-002, 3.8757613E+002
 1.0401434E+002, 7.3289038E-002, 1.4182416E-001, 4.7737151E-002, 3.7976143E-003, 1.1446725E-002, 1.0108890E-002, 3.9241988E+002
 1.0501149E+002, 7.3153451E-002, 1.4135478E-001, 4.7757334E-002, 4.0987577E-003, 1.2620255E-002, 1.0143238E-002, 3.8778917E+002
 1.0600531E+002, 7.3620699E-002, 1.4095955E-001, 4.7580469E-002, 3.9799025E-003, 1.3040870E-002, 1.0091546E-002, 3.8282253E+002
 1.0700131E+002, 7.3542445E-002, 1.4085499E-001, 4.7565555E-002, 4.0144359E-003, 1.3679539E-002, 1.0092168E-002, 3.8503173E+002
 1.0800393E+002, 7.3448689E-002, 1.4114332E-001, 4.7613230E-002, 3.9447128E-003, 1.3121752E-002, 1.0096018E-002, 3.8470762E+002
 1.0900424E+002, 7.3375634E-002, 1.4119294E-001, 4.7625521E-002, 3.9425565E-003, 1.3220178E-002, 1.0098818E-002, 3.8330297E+002
 1.1000282E+002, 7.3400353E-002, 1.4077466E-001, 4.7559745E-002, 4.0547107E-003, 1.4452387E-002, 1.0095632E-002, 3.8618137E+002
 1.1100371E+002, 7.3608427E-002, 1.4087471E-001, 4.7520649E-002, 3.9203424E-003, 1.3794759E-002, 1.0073108E-002, 3.8272401E+002
 1.1200589E+002, 7.3467228E-002, 1.4070446E-001, 4.7526765E-002, 4.0315210E-003, 1.4607532E-002, 1.0086004E-002, 3.7941912E+002
 1.1301004E+002, 7.3316683E-002, 1.4079950E-001, 4.7617738E-002, 4.1483939E-003, 1.4210723E-002, 1.0117528E-002, 3.8611966E+002
 1.1400305E+002, 7.3145637E-002, 1.4118418E-001, 4.7656782E-002, 4.0135197E-003, 1.3883307E-002, 1.0113624E-002, 3.8611572E+002
 1.1500396E+002, 7.3249179E-002, 1.4094918E-001, 4.7650010E-002, 4.1264867E-003, 1.3927966E-002, 1.0122618E-002, 3.8161498E+002
 1.1600834E+002, 7.3428324E-002, 1.4041258E-001, 4.7502403E-002, 4.1507793E-003, 1.5495947E-002, 1.0092653E-002, 3.8135557E+002
 1.1700458E+002, 7.3460884E-002, 1.4055126E-001, 4.7487786E-002, 4.0466735E-003, 1.5260549E-002, 1.0079234E-002, 3.7916297E+002
 1.1800846E+002, 7.3809399E-002, 1.4027764E-001, 4.7418607E-002, 4.0584842E-003, 1.4952853E-002, 1.0063786E-002, 3.7534778E+002
 1.1900943E+002, 7.3825701E-002, 1.4040049E-001, 4.7436312E-002, 4.0216079E-003, 1.4509734E-002, 1.0063868E-002, 3.8224339E+002
 1.2000693E+002, 7.3544948E-002, 1.4061081E-001, 4.7478231E-002, 3.9929828E-003, 1.4903755E-002, 1.0071518E-002, 3.8062238E+002
 1.2100899E+002, 7.3414533E-002, 1.4049928E-001, 4.7490527E-002, 4.0823254E-003, 1.5513797E-002, 1.0083541E-002, 3.7917838E+002
 1.2200447E+002, 7.3333549E-002, 1.4089138E-001, 4.7556633E-002, 3.9877141E-003, 1.4553407E-002, 1.0088813E-002, 3.8502623E+002
 1.2300400E+002, 7.3846629E-002, 1.4007549E-001, 4.7340497E-002, 4.0287618E-003, 1.5876959E-002, 1.0044099E-002, 3.7655938E+002
 1.2401142E+002, 7.4004189E-002, 1.3994239E-001, 4.7268087E-002, 3.9657633E-003, 1.6137556E-002, 1.0021724E-002, 3.7449726E+002
 1.2500484E+002, 7.3702674E-002, 1.3996818E-001, 4.7354757E-002, 4.1198856E-003, 1.6516728E-002, 1.0056786E-002, 3.8018137E+002
 1.2600310E+002, 7.4005187E-002, 1.3958216E-001, 4.7245373E-002, 4.1239100E-003, 1.6965253E-002, 1.0032292E-002, 3.7484094E+002
 1.2700102E+002, 7.3754054E-002, 1.4009442E-001, 4.7361401E-002, 4.0598074E-003, 1.6027637E-002, 1.0052067E-002, 3.7837982E+002
 1.2801136E+002, 7.3820553E-002, 1.3983789E-001, 4.7330575E-002, 4.1433089E-003, 1.6484926E-002, 1.0053286E-002, 3.7820146E+002
 1.2901254E+002, 7.3793180E-002, 1.3986665E-001, 4.7314130E-002, 4.0992600E-003, 1.6700561E-002, 1.0045654E-002, 3.7722026E+002
 1.3000358E+002, 7.3933453E-002, 1.3936091E-001, 4.7268784E-002, 4.2910476E-003, 1.7420792E-002, 1.0053929E-002, 3.7908120E+002
 1.3100547E+002, 7.3703923E-002, 1.3996003E-001, 4.7338705E-002, 4.0956350E-003, 1.6675317E-002, 1.0051009E-002, 3.7954620E+002
 1.3200391E+002, 7.3579051E-002, 1.4011073E-001, 4.7390050E-002, 4.1098132E-003, 1.6447311E-002, 1.0063977E-002, 3.8035249E+002
 1.3300296E+002, 7.3962421E-002, 1.3955947E-001, 4.7216982E-002, 4.0875881E-003, 1.7443699E-002, 1.0022959E-002, 3.7708304E+002
 1.3400773E+002, 7.4102505E-002, 1.3958999E-001, 4.7196975E-002, 4.0287424E-003, 1.7005480E-002, 1.0012215E-002, 3.8003194E+002
 1.3500061E+002, 7.4169914E-002, 1.3958090E-001, 4.7164535E-002, 3.9727700E-003, 1.7048228E-002, 9.9995063E-003, 3.7644613E+002
 1.3600011E+002, 7.4198696E-002, 1.3937907E-001, 4.7163751E-002, 4.0814638E-003, 1.7285340E-002, 1.0009765E-002, 3.7860503E+002
 1.3701183E+002, 7.4087633E-002, 1.3950856E-001, 4.7145289E-002, 3.9819524E-003, 1.7688280E-002, 9.9967618E-003, 3.7922028E+002
 1.3800668E+002, 7.4005277E-002, 1.3958381E-001, 4.7160227E-002, 3.9707970E-003, 1.7755895E-002, 9.9992985E-003, 3.8147099E+002
 1.3900199E+002, 7.4176404E-002, 1.3953830E-001, 4.7137292E-002, 3.9472907E-003, 1.7349040E-002, 9.9912035E-003, 3.7473580E+002
 1.4000728E+002, 7.4461744E-002, 1.3896543E-001, 4.7022524E-002, 4.0455716E-003, 1.8239503E-002, 9.9748366E-003, 3.7668424E+002
 1.4100381E+002, 7.4370258E-002, 1.3922967E-001, 4.7059487E-002, 3.9698999E-003, 1.7813794E-002, 9.9758199E-003, 3.7409914E+002
 1.4200022E+002, 7.4333012E-002, 1.3946524E-001, 4.7075023E-002, 3.8693268E-003, 1.7415629E-002, 9.9695312E-003, 3.7420760E+002
 1.4300259E+002, 7.4354837E-002, 1.3918275E-001, 4.7053604E-002, 3.9859634E-003, 1.8012393E-002, 9.9762185E-003, 3.7294366E+002
 1.4400043E+002, 7.4449710E-002, 1.3910205E-001, 4.7002797E-002, 3.9354516E-003, 1.8237434E-002, 9.9599908E-003, 3.7411850E+002
 1.4501123E+002, 7.4284971E-002, 1.3893551E-001, 4.7064552E-002, 4.1450821E-003, 1.8621231E-002, 9.9944178E-003, 3.7763162E+002
 1.4600194E+002, 7.4409456E-002, 1.3883500E-001, 4.7004188E-002, 4.0871047E-003, 1.8848540E-002, 9.9752713E-003, 3.7644891E+002
 1.4700489E+002, 7.4804709E-002, 1.3843081E-001, 4.6885615E-002, 4.0805980E-003, 1.9035176E-002, 9.9472935E-003, 3.7547336E+002
 1.4800903E+002, 7.4669372E-002, 1.3884068E-001, 4.6984383E-002, 4.0369890E-003, 1.7961699E-002, 9.9647655E-003, 3.7095983E+002
 1.4900743E+002, 7.4911487E-002, 1.3802734E-001, 4.6858660E-002, 4.2503118E-003, 1.9544738E-002, 9.9575086E-003, 3.7190387E+002
 1.5000998E+002, 7.4462317E-002, 1.3844890E-001, 4.7013468E-002, 4.3144094E-003, 1.9210621E-002, 9.9990848E-003, 3.7547053E+002
 1.5100520E+002, 7.4666489E-002, 1.3854686E-001, 4.6939963E-002, 4.1198589E-003, 1.8893315E-002, 9.9634149E-003, 3.7728464E+002
 1.5200920E+002, 7.4257390E-002, 1.3906037E-001, 4.7070077E-002, 4.0872851E-003, 1.8467491E-002, 9.9901147E-003, 3.7519284E+002
 1.5301298E+002, 7.4670060E-002, 1.3839677E-001, 4.6893451E-002, 4.1193922E-003, 1.9570723E-002, 9.9534706E-003, 3.7562927E+002
 1.5400676E+002, 7.4947931E-002, 1.3794512E-001, 4.6781168E-002, 4.1555505E-003, 2.0259883E-002, 9.9316240E-003, 3.7499528E+002
