s,,,,,,,
Time,O2 EXHAUST,CO2 EXHAUST,H2O EXHAUST,CO EXHAUST,FUEL EXHAUST,SOOT EXHAUST,TEMP EXHAUST
 0.0000000E+000, 2.3099739E-001, 5.9146498E-004, 5.9412092E-003, 0.0000000E+000, 0.0000000E+000, 0.0000000E+000, 2.0000000E+001
 1.0055594E+000, 2.3099739E-001, 5.9146498E-004, 5.9412092E-003, 1.6191054E-025, 3.0964906E-023, 7.5484992E-025, 2.0251843E+001
 2.0004990E+000, 2.2415165E-001, 6.8162902E-003, 8.5403352E-003, 1.3972708E-005, 4.7564475E-004, 4.0506236E-005, 9.5509397E+001
 3.0045965E+000, 2.1928718E-001, 1.1273777E-002, 1.0403843E-002, 2.5382059E-005, 6.4532304E-004, 6.9812392E-005, 1.4405353E+002
 4.0025950E+000, 2.1271126E-001, 1.7315315E-002, 1.2931552E-002, 4.2402991E-005, 7.9162866E-004, 1.0986657E-004, 2.0743654E+002
 5.0000056E+000, 2.0756837E-001, 2.2045457E-002, 1.4909365E-002, 5.4357752E-005, 8.9002748E-004, 1.4093234E-004, 2.4875215E+002
 6.0044207E+000, 2.0097699E-001, 2.8154560E-002, 1.7456538E-002, 6.1263070E-005, 8.4875158E-004, 1.7922416E-004, 3.0196586E+002
 7.0071157E+000, 1.9404149E-001, 3.4611117E-002, 2.0147735E-002, 6.6947050E-005, 6.8195284E-004, 2.1934731E-004, 3.5119161E+002
 8.0034593E+000, 1.8695176E-001, 4.1230104E-002, 2.2904011E-002, 6.9629055E-005, 4.4232118E-004, 2.5980532E-004, 3.9222677E+002
 9.0024229E+000, 1.7824504E-001, 4.9346787E-002, 2.6284270E-002, 7.3549830E-005, 1.9983962E-004, 3.0955355E-004, 4.3234827E+002
 1.0002301E+001, 1.6946587E-001, 5.7511503E-002, 2.9685265E-002, 7.8749255E-005, 3.8782172E-005, 3.5986564E-004, 4.6386410E+002
 1.1005860E+001, 1.6157918E-001, 6.4818159E-002, 3.2731831E-002, 8.7164381E-005, 2.3492603E-006, 4.0569724E-004, 4.8265561E+002
 1.2002632E+001, 1.5459321E-001, 7.1282341E-002, 3.5428102E-002, 9.5811608E-005, 2.3551548E-007, 4.4650226E-004, 4.9241643E+002
 1.3000475E+001, 1.4741021E-001, 7.7928257E-002, 3.8200267E-002, 1.0480908E-004, 1.3099241E-007, 4.8847745E-004, 5.0255976E+002
 1.4001355E+001, 1.4043602E-001, 8.4380778E-002, 4.0891886E-002, 1.1367416E-004, 1.6459534E-007, 5.2925892E-004, 5.1103882E+002
 1.5003411E+001, 1.3473322E-001, 8.9657232E-002, 4.3092764E-002, 1.2076328E-004, 1.2810195E-007, 5.6257302E-004, 5.1323617E+002
 1.6006849E+001, 1.2903601E-001, 9.4928405E-002, 4.5291509E-002, 1.2791781E-004, 1.3645829E-007, 5.9586933E-004, 5.1609409E+002
 1.7005125E+001, 1.2336071E-001, 1.0017927E-001, 4.7481810E-002, 1.3507084E-004, 1.5547249E-007, 6.2904297E-004, 5.1968201E+002
 1.8003685E+001, 1.1848280E-001, 1.0469232E-001, 4.9364391E-002, 1.4126901E-004, 1.6623906E-007, 6.5756603E-004, 5.1960564E+002
 1.9003058E+001, 1.1496856E-001, 1.0794402E-001, 5.0720586E-002, 1.4550106E-004, 1.0408469E-007, 6.7806706E-004, 5.1616323E+002
 2.0000472E+001, 1.1026751E-001, 1.1229349E-001, 5.2534889E-002, 1.5143021E-004, 1.0571587E-007, 7.0554676E-004, 5.1631181E+002
 2.1004735E+001, 1.0589160E-001, 1.1634212E-001, 5.4223715E-002, 1.5696174E-004, 1.4031666E-007, 7.3112846E-004, 5.1902878E+002
 2.2000472E+001, 1.0249452E-001, 1.1948524E-001, 5.5534743E-002, 1.6117839E-004, 1.1786163E-007, 7.5097189E-004, 5.1670002E+002
 2.3008950E+001, 9.8498875E-002, 1.2318204E-001, 5.7076816E-002, 1.6623604E-004, 1.2673913E-007, 7.7433200E-004, 5.1455598E+002
 2.4006584E+001, 9.4764418E-002, 1.2663480E-001, 5.8518770E-002, 1.7271705E-004, 7.9543255E-007, 7.9652675E-004, 5.1848402E+002
 2.5005346E+001, 9.1611283E-002, 1.2953855E-001, 5.9739532E-002, 1.8662148E-004, 4.7587683E-006, 8.1700497E-004, 5.1728414E+002
 2.6005429E+001, 8.7676644E-002, 1.3315209E-001, 6.1265842E-002, 2.1138928E-004, 1.1583883E-005, 8.4408929E-004, 5.1646289E+002
 2.7004480E+001, 8.4161324E-002, 1.3637786E-001, 6.2630389E-002, 2.3561538E-004, 1.7627063E-005, 8.6872085E-004, 5.1535446E+002
 2.8008262E+001, 8.0841156E-002, 1.3944031E-001, 6.3914415E-002, 2.4666833E-004, 2.0503186E-005, 8.8954397E-004, 5.1622259E+002
 2.9006416E+001, 7.7516539E-002, 1.4249650E-001, 6.5203456E-002, 2.6567521E-004, 2.4292093E-005, 9.1203470E-004, 5.1613421E+002
 3.0004612E+001, 7.3772192E-002, 1.4594531E-001, 6.6653157E-002, 2.8196238E-004, 2.7509135E-005, 9.3630813E-004, 5.1721541E+002
 3.1010452E+001, 7.0901125E-002, 1.4859586E-001, 6.7762651E-002, 2.8962183E-004, 3.0403422E-005, 9.5392173E-004, 5.1401727E+002
 3.2001711E+001, 6.8088336E-002, 1.5119051E-001, 6.8850633E-002, 2.9907822E-004, 3.1386783E-005, 9.7158371E-004, 5.1373137E+002
 3.3002578E+001, 6.4731436E-002, 1.5428348E-001, 7.0149995E-002, 3.1289059E-004, 3.4209788E-005, 9.9318236E-004, 5.1442835E+002
 3.4006744E+001, 6.2655539E-002, 1.5620727E-001, 7.0949874E-002, 3.1281772E-004, 3.5669438E-005, 1.0047588E-003, 5.1061481E+002
 3.5007635E+001, 5.9191340E-002, 1.5938844E-001, 7.2294265E-002, 3.3534137E-004, 3.8867043E-005, 1.0287567E-003, 5.1373596E+002
 3.6003385E+001, 5.6303488E-002, 1.6204437E-001, 7.3413703E-002, 3.5104091E-004, 4.1239258E-005, 1.0481265E-003, 5.1463887E+002
 3.7009147E+001, 5.3372433E-002, 1.6475433E-001, 7.4545399E-002, 3.5607566E-004, 4.2028075E-005, 1.0655353E-003, 5.1434488E+002
 3.8000776E+001, 5.0891239E-002, 1.6702022E-001, 7.5512018E-002, 3.8155963E-004, 4.7159089E-005, 1.0846527E-003, 5.1128963E+002
 3.9010696E+001, 4.7876750E-002, 1.6980119E-001, 7.6678184E-002, 3.9174626E-004, 4.6679114E-005, 1.1035939E-003, 5.1207101E+002
 4.0000931E+001, 4.4518227E-002, 1.7287980E-001, 7.7983620E-002, 4.1811516E-004, 4.8464054E-005, 1.1277982E-003, 5.1482832E+002
 4.1010988E+001, 4.1742777E-002, 1.7542702E-001, 7.9060912E-002, 4.3701207E-004, 5.2819325E-005, 1.1471985E-003, 5.1635803E+002
 4.2004342E+001, 3.9695835E-002, 1.7730883E-001, 7.9854625E-002, 4.4871393E-004, 5.4525874E-005, 1.1610465E-003, 5.0977378E+002
 4.3006135E+001, 3.7094184E-002, 1.7972681E-001, 8.0855489E-002, 4.4391105E-004, 5.2033133E-005, 1.1745867E-003, 5.1367629E+002
 4.4009534E+001, 3.3913711E-002, 1.8264116E-001, 8.2092275E-002, 4.6990856E-004, 5.2461303E-005, 1.1977216E-003, 5.1482774E+002
 4.5004852E+001, 3.1918139E-002, 1.8447281E-001, 8.2866690E-002, 4.8324747E-004, 5.6242580E-005, 1.2116185E-003, 5.1412447E+002
 4.6010575E+001, 2.9175384E-002, 1.8701252E-001, 8.3925361E-002, 4.8592530E-004, 5.1240154E-005, 1.2274960E-003, 5.1307583E+002
 4.7008572E+001, 2.6424237E-002, 1.8950691E-001, 8.5002943E-002, 5.2805236E-004, 5.8131196E-005, 1.2515586E-003, 5.1732188E+002
 4.8011446E+001, 2.3865010E-002, 1.9183865E-001, 8.6002302E-002, 5.5910570E-004, 6.0176965E-005, 1.2722668E-003, 5.1457445E+002
 4.9005291E+001, 2.0711701E-002, 1.9468492E-001, 8.7242027E-002, 6.1772543E-004, 6.5754519E-005, 1.3019858E-003, 5.2060303E+002
 5.0005150E+001, 1.8788473E-002, 1.9644598E-001, 8.7990602E-002, 6.3469583E-004, 6.4329411E-005, 1.3162359E-003, 5.1753119E+002
 5.1006225E+001, 1.7100280E-002, 1.9795162E-001, 8.8660091E-002, 6.7999137E-004, 6.8917923E-005, 1.3350199E-003, 5.1705221E+002
 5.2003851E+001, 1.3641534E-002, 2.0106960E-001, 9.0022694E-002, 7.4888288E-004, 6.6221025E-005, 1.3685783E-003, 5.1946951E+002
 5.3006963E+001, 1.1145556E-002, 2.0315921E-001, 9.1058901E-002, 9.2336168E-004, 6.6975143E-005, 1.4185784E-003, 5.2052342E+002
 5.4007869E+001, 9.6276192E-003, 2.0446994E-001, 9.1675360E-002, 9.9786795E-004, 7.0062377E-005, 1.4424509E-003, 5.1762402E+002
 5.5003735E+001, 7.6413692E-003, 2.0599019E-001, 9.2545782E-002, 1.2464169E-003, 8.0206042E-005, 1.5049011E-003, 5.1960480E+002
 5.6007940E+001, 5.8721252E-003, 2.0670585E-001, 9.3529906E-002, 1.9625951E-003, 1.1016435E-004, 1.6627644E-003, 5.1544565E+002
 5.7007517E+001, 4.7663458E-003, 2.0677784E-001, 9.4269627E-002, 2.7029539E-003, 1.2966557E-004, 1.8219335E-003, 5.1199756E+002
 5.8004139E+001, 4.1023863E-003, 2.0616983E-001, 9.4925533E-002, 3.6509237E-003, 1.7005086E-004, 2.0215177E-003, 5.0461315E+002
 5.9004344E+001, 3.6497796E-003, 2.0594600E-001, 9.5312641E-002, 4.1517547E-003, 1.7730409E-004, 2.1275487E-003, 5.0258043E+002
 6.0005647E+001, 3.1050857E-003, 2.0584817E-001, 9.5716765E-002, 4.6158698E-003, 2.1438784E-004, 2.2264671E-003, 4.9978374E+002
 6.1001904E+001, 2.8451807E-003, 2.0469178E-001, 9.6268034E-002, 5.6927643E-003, 2.9520067E-004, 2.4503889E-003, 4.9374874E+002
 6.2004036E+001, 2.7040872E-003, 2.0436367E-001, 9.6458629E-002, 6.0344160E-003, 3.9346592E-004, 2.5216634E-003, 4.8999955E+002
 6.3002621E+001, 2.4515152E-003, 2.0541489E-001, 9.6304759E-002, 5.4173301E-003, 2.7048415E-004, 2.3956921E-003, 4.9168102E+002
 6.4000989E+001, 2.4298293E-003, 2.0336035E-001, 9.6967366E-002, 7.0006313E-003, 4.8388419E-004, 2.7227776E-003, 4.8081998E+002
 6.5008525E+001, 2.2481626E-003, 2.0318589E-001, 9.7160334E-002, 7.2772190E-003, 4.2993704E-004, 2.7810275E-003, 4.8110756E+002
 6.6006930E+001, 2.1746866E-003, 2.0238590E-001, 9.7457841E-002, 7.9351163E-003, 5.4668589E-004, 2.9172627E-003, 4.7777348E+002
 6.7005711E+001, 2.0295134E-003, 2.0174951E-001, 9.7750492E-002, 8.5170070E-003, 6.6456206E-004, 3.0381876E-003, 4.7641630E+002
 6.8007932E+001, 2.0003468E-003, 2.0075097E-001, 9.8082479E-002, 9.2970037E-003, 7.8613656E-004, 3.1994049E-003, 4.6763573E+002
 6.9000789E+001, 1.9742121E-003, 1.9983360E-001, 9.8387234E-002, 1.0013325E-002, 8.9652407E-004, 3.3474591E-003, 4.6778028E+002
 7.0000365E+001, 1.8775899E-003, 1.9952841E-001, 9.8560297E-002, 1.0326002E-002, 8.6894570E-004, 3.4126589E-003, 4.6511772E+002
 7.1009940E+001, 1.8456020E-003, 1.9822880E-001, 9.8968938E-002, 1.1317411E-002, 1.1431944E-003, 3.6173901E-003, 4.6133766E+002
 7.2000178E+001, 1.7517047E-003, 1.9811870E-001, 9.9082831E-002, 1.1483503E-002, 1.0700484E-003, 3.6523371E-003, 4.6490482E+002
 7.3012212E+001, 1.7630222E-003, 1.9659816E-001, 9.9532451E-002, 1.2613547E-002, 1.3589578E-003, 3.8854609E-003, 4.5956446E+002
 7.4008735E+001, 1.7658802E-003, 1.9603944E-001, 9.9694240E-002, 1.3025363E-002, 1.4911130E-003, 3.9703892E-003, 4.5476262E+002
 7.5012378E+001, 1.7996548E-003, 1.9477816E-001, 1.0005024E-001, 1.3945046E-002, 1.7310143E-003, 4.1599730E-003, 4.5511636E+002
 7.6011506E+001, 1.8372413E-003, 1.9421110E-001, 1.0020082E-001, 1.4348425E-002, 1.8024671E-003, 4.2430422E-003, 4.5122237E+002
 7.7005014E+001, 1.8566902E-003, 1.9326775E-001, 1.0046184E-001, 1.5031155E-002, 2.0376314E-003, 4.3837379E-003, 4.4646584E+002
 7.8010436E+001, 1.9041764E-003, 1.9275312E-001, 1.0059877E-001, 1.5397175E-002, 2.0450931E-003, 4.4591130E-003, 4.4801405E+002
 7.9009562E+001, 2.0239387E-003, 1.9142922E-001, 1.0090983E-001, 1.6297372E-002, 2.3217703E-003, 4.6441415E-003, 4.4610898E+002
 8.0001749E+001, 2.0160229E-003, 1.9046516E-001, 1.0121322E-001, 1.7032666E-002, 2.4577591E-003, 4.7959822E-003, 4.4359089E+002
 8.1000070E+001, 2.1099587E-003, 1.8979812E-001, 1.0134732E-001, 1.7462603E-002, 2.5931281E-003, 4.8841433E-003, 4.3981264E+002
 8.2001627E+001, 2.1592272E-003, 1.8849196E-001, 1.0169231E-001, 1.8390811E-002, 2.9243151E-003, 5.0752846E-003, 4.3885092E+002
 8.3008588E+001, 2.1428598E-003, 1.8802729E-001, 1.0189871E-001, 1.8806127E-002, 2.6805076E-003, 5.1615289E-003, 4.3960522E+002
 8.4001138E+001, 2.2024801E-003, 1.8701004E-001, 1.0218193E-001, 1.9543140E-002, 2.7624250E-003, 5.3134175E-003, 4.3729054E+002
 8.5005825E+001, 2.1962584E-003, 1.8586834E-001, 1.0251391E-001, 2.0386347E-002, 3.0744829E-003, 5.4873254E-003, 4.3299665E+002
 8.6008160E+001, 2.3486178E-003, 1.8445432E-001, 1.0293090E-001, 2.1432560E-002, 2.7586505E-003, 5.7031152E-003, 4.2365592E+002
 8.7001406E+001, 2.7769843E-003, 1.8341807E-001, 1.0302260E-001, 2.1976007E-002, 2.4924927E-003, 5.8133869E-003, 4.3222961E+002
 8.8006062E+001, 3.7066945E-003, 1.8332864E-001, 1.0232810E-001, 2.1293326E-002, 2.9700551E-003, 5.6664806E-003, 4.1241681E+002
 8.9000197E+001, 5.4331648E-003, 1.8367465E-001, 1.0093025E-001, 1.9688484E-002, 3.4837312E-003, 5.3244842E-003, 4.3507826E+002
 9.0008773E+001, 6.8220448E-003, 1.8060404E-001, 1.0080994E-001, 2.0900994E-002, 4.5534412E-003, 5.5659515E-003, 4.1092596E+002
 9.1001244E+001, 9.5917539E-003, 1.8002603E-001, 9.8882501E-002, 1.9148607E-002, 5.7480059E-003, 5.1867557E-003, 3.9304702E+002
 9.2000090E+001, 9.5092861E-003, 1.8199876E-001, 9.8370171E-002, 1.7755691E-002, 5.2289418E-003, 4.8999952E-003, 4.0256801E+002
 9.3003103E+001, 9.1617905E-003, 1.8392011E-001, 9.8049524E-002, 1.6585301E-002, 4.7652597E-003, 4.6606358E-003, 4.2829239E+002
 9.4005919E+001, 9.9597670E-003, 1.8290350E-001, 9.7789793E-002, 1.6756877E-002, 5.0315128E-003, 4.6912973E-003, 4.0779658E+002
 9.5006867E+001, 1.1597863E-002, 1.8002382E-001, 9.7478931E-002, 1.7686222E-002, 5.8260992E-003, 4.8732028E-003, 3.9487232E+002
 9.6010944E+001, 1.1757742E-002, 1.7915037E-001, 9.7642922E-002, 1.8236598E-002, 5.9194049E-003, 4.9859421E-003, 4.0260697E+002
 9.7005518E+001, 1.2691142E-002, 1.7727159E-001, 9.7559130E-002, 1.8966156E-002, 6.2865373E-003, 5.1310421E-003, 4.0118230E+002
 9.8007614E+001, 1.3770318E-002, 1.7578481E-001, 9.7199396E-002, 1.9239527E-002, 6.9212944E-003, 5.1806973E-003, 3.9693700E+002
 9.9003754E+001, 1.4061022E-002, 1.7470023E-001, 9.7316155E-002, 1.9833155E-002, 7.1750628E-003, 5.3014385E-003, 3.9679247E+002
 1.0001104E+002, 1.5385631E-002, 1.7288962E-001, 9.6890769E-002, 2.0178603E-002, 7.8284466E-003, 5.3645957E-003, 3.9315796E+002
 1.0101325E+002, 1.6390859E-002, 1.7125573E-001, 9.6658747E-002, 2.0647980E-002, 8.2977810E-003, 5.4553880E-003, 3.8975739E+002
 1.0201012E+002, 1.7147900E-002, 1.6946214E-001, 9.6663151E-002, 2.1432782E-002, 8.6997360E-003, 5.6128460E-003, 3.9094594E+002
 1.0300544E+002, 1.7477579E-002, 1.6882794E-001, 9.6611383E-002, 2.1655043E-002, 8.9039856E-003, 5.6566786E-003, 3.9265578E+002
 1.0400863E+002, 1.8046265E-002, 1.6776819E-001, 9.6519129E-002, 2.2020201E-002, 9.2056419E-003, 5.7285851E-003, 3.9596308E+002
 1.0501212E+002, 1.8109436E-002, 1.6674618E-001, 9.6806274E-002, 2.2763197E-002, 9.2586958E-003, 5.8817277E-003, 3.9328124E+002
 1.0600704E+002, 1.8610238E-002, 1.6529240E-001, 9.6889811E-002, 2.3482655E-002, 9.5741341E-003, 6.0272228E-003, 3.8960087E+002
 1.0700333E+002, 1.9606956E-002, 1.6371868E-001, 9.6606576E-002, 2.3873852E-002, 1.0266558E-002, 6.1016165E-003, 3.8864273E+002
 1.0800623E+002, 1.9660855E-002, 1.6295567E-001, 9.6815447E-002, 2.4422845E-002, 1.0311174E-002, 6.2147247E-003, 3.9403399E+002
 1.0900189E+002, 1.9427750E-002, 1.6233741E-001, 9.7216632E-002, 2.5108155E-002, 1.0106977E-002, 6.3579311E-003, 3.9887578E+002
 1.1000817E+002, 2.0109040E-002, 1.6099363E-001, 9.7121001E-002, 2.5593674E-002, 1.0527142E-002, 6.4539323E-003, 3.9146281E+002
 1.1100454E+002, 2.1306190E-002, 1.5933786E-001, 9.6709896E-002, 2.5887673E-002, 1.1316602E-002, 6.5069924E-003, 3.8673704E+002
 1.1200522E+002, 2.2295339E-002, 1.5762747E-001, 9.6478298E-002, 2.6391955E-002, 1.2003306E-002, 6.6048083E-003, 3.8091608E+002
 1.1300659E+002, 2.3785965E-002, 1.5555798E-001, 9.5992015E-002, 2.6787300E-002, 1.2848027E-002, 6.6771043E-003, 3.7670690E+002
 1.1401124E+002, 2.4870932E-002, 1.5385708E-001, 9.5724238E-002, 2.7248544E-002, 1.3333768E-002, 6.7657492E-003, 3.7646591E+002
 1.1500262E+002, 2.5485993E-002, 1.5299282E-001, 9.5553172E-002, 2.7446078E-002, 1.3525152E-002, 6.8028939E-003, 3.8350890E+002
 1.1600657E+002, 2.4559071E-002, 1.5314064E-001, 9.6243099E-002, 2.8098073E-002, 1.2946739E-002, 6.9435724E-003, 3.9377318E+002
 1.1700606E+002, 2.4001212E-002, 1.5320990E-001, 9.6632504E-002, 2.8473239E-002, 1.2793227E-002, 7.0244260E-003, 3.9505372E+002
 1.1800689E+002, 2.4319457E-002, 1.5173309E-001, 9.6855421E-002, 2.9347859E-002, 1.3077904E-002, 7.2030495E-003, 3.9036070E+002
 1.1900364E+002, 2.4873178E-002, 1.4979367E-001, 9.7024128E-002, 3.0368164E-002, 1.3631335E-002, 7.4101218E-003, 3.8765927E+002
 1.2000575E+002, 2.4596943E-002, 1.4933792E-001, 9.7397166E-002, 3.0953784E-002, 1.3451344E-002, 7.5329338E-003, 3.8768100E+002
 1.2100065E+002, 2.5462751E-002, 1.4837091E-001, 9.7042120E-002, 3.1005583E-002, 1.3908673E-002, 7.5382144E-003, 3.8707688E+002
 1.2200545E+002, 2.5522675E-002, 1.4798986E-001, 9.7108020E-002, 3.1240247E-002, 1.4024264E-002, 7.5862314E-003, 3.8996545E+002
 1.2300144E+002, 2.5081702E-002, 1.4773875E-001, 9.7541771E-002, 3.1799923E-002, 1.3757133E-002, 7.7047135E-003, 3.9617988E+002
 1.2400565E+002, 2.5441543E-002, 1.4670454E-001, 9.7593034E-002, 3.2303427E-002, 1.4015704E-002, 7.8064356E-003, 3.9548236E+002
 1.2501196E+002, 2.4397749E-002, 1.4658028E-001, 9.8443557E-002, 3.3241292E-002, 1.3502913E-002, 8.0067662E-003, 3.9789543E+002
 1.2600796E+002, 2.4279556E-002, 1.4563118E-001, 9.8838430E-002, 3.4064799E-002, 1.3518783E-002, 8.1776097E-003, 3.9408236E+002
 1.2700302E+002, 2.4988307E-002, 1.4403390E-001, 9.8784558E-002, 3.4704641E-002, 1.4080079E-002, 8.3051713E-003, 3.9437060E+002
 1.2801406E+002, 2.5657993E-002, 1.4314796E-001, 9.8540463E-002, 3.4836927E-002, 1.4526068E-002, 8.3281969E-003, 3.8889198E+002
 1.2900492E+002, 2.6220185E-002, 1.4154767E-001, 9.8618697E-002, 3.5614796E-002, 1.4910240E-002, 8.4853331E-003, 3.8670709E+002
 1.3000917E+002, 2.6514161E-002, 1.4085953E-001, 9.8631310E-002, 3.5926814E-002, 1.4984101E-002, 8.5480844E-003, 3.9084085E+002
 1.3100972E+002, 2.6254059E-002, 1.4030090E-001, 9.9016228E-002, 3.6569840E-002, 1.4871066E-002, 8.6825848E-003, 3.9212309E+002
 1.3200617E+002, 2.5559664E-002, 1.3999706E-001, 9.9661216E-002, 3.7372048E-002, 1.4496052E-002, 8.8527485E-003, 3.9223526E+002
 1.3301053E+002, 2.5573585E-002, 1.3918938E-001, 9.9897437E-002, 3.7969479E-002, 1.4632211E-002, 8.9759733E-003, 3.9235134E+002
 1.3401098E+002, 2.5750824E-002, 1.3864816E-001, 9.9941371E-002, 3.8250477E-002, 1.4710848E-002, 9.0329591E-003, 3.9417324E+002
 1.3500490E+002, 2.5521401E-002, 1.3804207E-001, 1.0031792E-001, 3.8905459E-002, 1.4615101E-002, 9.1697369E-003, 3.9715429E+002
 1.3600535E+002, 2.5926352E-002, 1.3704642E-001, 1.0032303E-001, 3.9344181E-002, 1.4885966E-002, 9.2578018E-003, 3.9282357E+002
 1.3700723E+002, 2.5571824E-002, 1.3705169E-001, 1.0059453E-001, 3.9624068E-002, 1.4721433E-002, 9.3178416E-003, 3.9750005E+002
 1.3800560E+002, 2.5549155E-002, 1.3656157E-001, 1.0076041E-001, 4.0010072E-002, 1.4798300E-002, 9.3976491E-003, 3.9822993E+002
 1.3901014E+002, 2.5216785E-002, 1.3677716E-001, 1.0095375E-001, 4.0116985E-002, 1.4590854E-002, 9.4218699E-003, 4.0145890E+002
 1.4001245E+002, 2.5513146E-002, 1.3613526E-001, 1.0095387E-001, 4.0395763E-002, 1.4637456E-002, 9.4777731E-003, 3.9907185E+002
 1.4101404E+002, 2.5828093E-002, 1.3499949E-001, 1.0105993E-001, 4.1000815E-002, 1.4956792E-002, 9.6006555E-003, 3.9800487E+002
 1.4200991E+002, 2.5554985E-002, 1.3430864E-001, 1.0150378E-001, 4.1762430E-002, 1.4807953E-002, 9.7597847E-003, 3.9996543E+002
 1.4300511E+002, 2.5272816E-002, 1.3386584E-001, 1.0188758E-001, 4.2353269E-002, 1.4562142E-002, 9.8837935E-003, 4.0114829E+002
 1.4400977E+002, 2.5437283E-002, 1.3333255E-001, 1.0194088E-001, 4.2640488E-002, 1.4621861E-002, 9.9421610E-003, 4.0249064E+002
 1.4500327E+002, 2.4769452E-002, 1.3258717E-001, 1.0269787E-001, 4.3751567E-002, 1.4345261E-002, 1.0175887E-002, 4.0280889E+002
 1.4600049E+002, 2.4340334E-002, 1.3175330E-001, 1.0332128E-001, 4.4761614E-002, 1.4053336E-002, 1.0387419E-002, 4.0465787E+002
 1.4700130E+002, 2.4430131E-002, 1.3116273E-001, 1.0344399E-001, 4.5146113E-002, 1.4121571E-002, 1.0466298E-002, 4.0387554E+002
 1.4800473E+002, 2.3521515E-002, 1.3139496E-001, 1.0407958E-001, 4.5705316E-002, 1.3624777E-002, 1.0587591E-002, 4.0538150E+002
 1.4900360E+002, 2.3898875E-002, 1.3102243E-001, 1.0390168E-001, 4.5682773E-002, 1.3865469E-002, 1.0580514E-002, 4.0566275E+002
 1.5000499E+002, 2.3984150E-002, 1.3044282E-001, 1.0401801E-001, 4.6056057E-002, 1.3969086E-002, 1.0657055E-002, 4.0292793E+002
 1.5100138E+002, 2.3761167E-002, 1.2967590E-001, 1.0443134E-001, 4.6819583E-002, 1.3946791E-002, 1.0816136E-002, 4.0171223E+002
 1.5200973E+002, 2.4279376E-002, 1.2857393E-001, 1.0437289E-001, 4.7238854E-002, 1.4340054E-002, 1.0899390E-002, 4.0196542E+002
 1.5301038E+002, 2.4330927E-002, 1.2823085E-001, 1.0444322E-001, 4.7461268E-002, 1.4388031E-002, 1.0945009E-002, 4.0324898E+002
 1.5400775E+002, 2.4354593E-002, 1.2736408E-001, 1.0471932E-001, 4.8124962E-002, 1.4361906E-002, 1.1082084E-002, 4.0251724E+002
