s,,,,,,,
Time,"O2 EXHAUST","CO2 EXHAUST","H2O EXHAUST","CO EXHAUST","FUEL EXHAUST","SOOT EXHAUST","TEMP EXHAUST"
 0.0000000E+000, 2.3099739E-001, 5.9146498E-004, 5.9412092E-003, 0.0000000E+000, 0.0000000E+000, 0.0000000E+000, 2.0000000E+001
 1.0042048E+000, 2.3099739E-001, 5.9146498E-004, 5.9412092E-003, 1.7058895E-028, 1.0189669E-027, 5.1796122E-029, 2.1047257E+001
 2.0048198E+000, 2.2049769E-001, 1.0149906E-002, 9.9973918E-003, 8.6755114E-005, 2.8802422E-004, 7.6197617E-005, 1.2052797E+002
 3.0011556E+000, 2.1368870E-001, 1.6393223E-002, 1.2635114E-002, 1.3045295E-004, 3.4143149E-004, 1.2318694E-004, 1.7952083E+002
 4.0039758E+000, 2.0431945E-001, 2.5003941E-002, 1.6259859E-002, 1.7691571E-004, 4.0407692E-004, 1.8503427E-004, 2.5721813E+002
 5.0006011E+000, 1.9555860E-001, 3.3094419E-002, 1.9647733E-002, 2.0152187E-004, 3.9385816E-004, 2.3906043E-004, 3.2096081E+002
 6.0004921E+000, 1.8849324E-001, 3.9700958E-002, 2.2366504E-002, 1.7137177E-004, 3.0296632E-004, 2.7240466E-004, 3.6540350E+002
 7.0072998E+000, 1.7924174E-001, 4.8360825E-002, 2.5927174E-002, 1.2848441E-004, 1.6161777E-004, 3.1539048E-004, 4.1656989E+002
 8.0008073E+000, 1.6859601E-001, 5.8291382E-002, 3.0027555E-002, 9.7579414E-005, 4.9019954E-005, 3.6860221E-004, 4.5783590E+002
 9.0056010E+000, 1.5764386E-001, 6.8458292E-002, 3.4250936E-002, 9.2844098E-005, 2.1856500E-006, 4.2884924E-004, 4.9429832E+002
 1.0000727E+001, 1.4464815E-001, 8.0483401E-002, 3.9266356E-002, 1.0856039E-004, 1.7802580E-007, 5.0467820E-004, 5.2304480E+002
 1.1007638E+001, 1.3674052E-001, 8.7799686E-002, 4.2318181E-002, 1.1850111E-004, 1.8945265E-007, 5.5089504E-004, 5.3477081E+002
 1.2004658E+001, 1.2703722E-001, 9.6776937E-002, 4.6063156E-002, 1.3102756E-004, 2.2018497E-007, 6.0767471E-004, 5.4557343E+002
 1.3009357E+001, 1.2418897E-001, 9.9413060E-002, 4.7162129E-002, 1.3395522E-004, 8.6879464E-008, 6.2418682E-004, 5.4346721E+002
 1.4004570E+001, 1.1344950E-001, 1.0934659E-001, 5.1307736E-002, 1.4959878E-004, 5.2291524E-007, 6.8739705E-004, 5.5102794E+002
 1.5004666E+001, 1.0560998E-001, 1.1660075E-001, 5.4332995E-002, 1.5877626E-004, 4.3112267E-007, 7.3307587E-004, 5.6429769E+002
 1.6005321E+001, 9.8491277E-002, 1.2318727E-001, 5.7080310E-002, 1.6761593E-004, 3.6625270E-007, 7.7465933E-004, 5.6470251E+002
 1.7003008E+001, 9.5799914E-002, 1.2567740E-001, 5.8118998E-002, 1.7098153E-004, 3.0999715E-007, 7.9038566E-004, 5.5770469E+002
 1.8001242E+001, 9.0639346E-002, 1.3044758E-001, 6.0112015E-002, 1.8084805E-004, 9.8164524E-007, 8.2124463E-004, 5.6082766E+002
 1.9001522E+001, 8.6644531E-002, 1.3413503E-001, 6.1656396E-002, 1.9237887E-004, 2.3411706E-006, 8.4593622E-004, 5.6222290E+002
 2.0009905E+001, 8.1473791E-002, 1.3889009E-001, 6.3660673E-002, 2.2057711E-004, 7.9597953E-006, 8.8063445E-004, 5.5998681E+002
 2.1008038E+001, 7.6967092E-002, 1.4304127E-001, 6.5405915E-002, 2.4048155E-004, 9.1740126E-006, 9.0991566E-004, 5.5959152E+002
 2.2000630E+001, 7.5023075E-002, 1.4485445E-001, 6.6151411E-002, 2.3164492E-004, 8.7697010E-006, 9.1894670E-004, 5.5845518E+002
 2.3004515E+001, 7.0692003E-002, 1.4884717E-001, 6.7827413E-002, 2.4806178E-004, 1.0696208E-005, 9.4652534E-004, 5.5325573E+002
 2.4006147E+001, 6.7027303E-002, 1.5222099E-001, 6.9246847E-002, 2.6530217E-004, 1.3667489E-005, 9.7055131E-004, 5.5897417E+002
 2.5004810E+001, 6.3564393E-002, 1.5541291E-001, 7.0587093E-002, 2.7883451E-004, 1.4948568E-005, 9.9268611E-004, 5.5648719E+002
 2.6001600E+001, 6.0781719E-002, 1.5798634E-001, 7.1661452E-002, 2.8327854E-004, 1.4671717E-005, 1.0091456E-003, 5.5596551E+002
 2.7001569E+001, 5.6269558E-002, 1.6215240E-001, 7.3405448E-002, 2.9543398E-004, 1.6409258E-005, 1.0368550E-003, 5.5779445E+002
 2.8007767E+001, 5.3725222E-002, 1.6449865E-001, 7.4389996E-002, 3.0473316E-004, 1.6390889E-005, 1.0529866E-003, 5.5604491E+002
 2.9010200E+001, 5.1097790E-002, 1.6692961E-001, 7.5404282E-002, 3.0830269E-004, 1.4757349E-005, 1.0684000E-003, 5.5668674E+002
 3.0004206E+001, 4.9267642E-002, 1.6861540E-001, 7.6112779E-002, 3.1613972E-004, 1.6635609E-005, 1.0802384E-003, 5.5226612E+002
 3.1005113E+001, 4.3548646E-002, 1.7389571E-001, 7.8323198E-002, 3.3152184E-004, 1.9050267E-005, 1.1153537E-003, 5.6101933E+002
 3.2003792E+001, 4.2216439E-002, 1.7509833E-001, 7.8846918E-002, 3.5618948E-004, 2.1376472E-005, 1.1278892E-003, 5.5755214E+002
 3.3003817E+001, 3.7479587E-002, 1.7951029E-001, 8.0666246E-002, 3.4022608E-004, 1.5571896E-005, 1.1510516E-003, 5.6383503E+002
 3.4006408E+001, 3.7324694E-002, 1.7963730E-001, 8.0731177E-002, 3.5287319E-004, 1.7178222E-005, 1.1545285E-003, 5.5118949E+002
 3.5005413E+001, 3.3015719E-002, 1.8364885E-001, 8.2386182E-002, 3.3920659E-004, 1.5579144E-005, 1.1757705E-003, 5.6091579E+002
 3.6005177E+001, 3.1718529E-002, 1.8480332E-001, 8.2901239E-002, 3.7573213E-004, 2.0199175E-005, 1.1905582E-003, 5.5818834E+002
 3.7004634E+001, 2.9004303E-002, 1.8732089E-001, 8.3946964E-002, 3.7453013E-004, 1.8334657E-005, 1.2054706E-003, 5.5958534E+002
 3.8008838E+001, 2.5831562E-002, 1.9023978E-001, 8.5176746E-002, 3.9126074E-004, 1.9571029E-005, 1.2266459E-003, 5.6471698E+002
 3.9010204E+001, 2.4784096E-002, 1.9117987E-001, 8.5590164E-002, 4.1474730E-004, 2.2521659E-005, 1.2373462E-003, 5.5499702E+002
 4.0009353E+001, 2.1120329E-002, 1.9456121E-001, 8.7007363E-002, 4.2636542E-004, 2.0016221E-005, 1.2602120E-003, 5.6540064E+002
 4.1004898E+001, 1.8795141E-002, 1.9666652E-001, 8.7919638E-002, 4.6479490E-004, 2.2352110E-005, 1.2811373E-003, 5.6488860E+002
 4.2006463E+001, 1.7707473E-002, 1.9763849E-001, 8.8350711E-002, 4.9285750E-004, 2.3077779E-005, 1.2930108E-003, 5.6065007E+002
 4.3001009E+001, 1.6254333E-002, 1.9906613E-001, 8.8884546E-002, 4.3045479E-004, 1.9062780E-005, 1.2882339E-003, 5.6465353E+002
 4.4002286E+001, 1.3276389E-002, 2.0160678E-001, 9.0105310E-002, 6.0180032E-004, 1.8311381E-005, 1.3402801E-003, 5.6560254E+002
 4.5003163E+001, 1.3516397E-002, 2.0148255E-001, 8.9979220E-002, 5.2420799E-004, 2.3949406E-005, 1.3228955E-003, 5.5760373E+002
 4.6002464E+001, 1.0876090E-002, 2.0333056E-001, 9.1193984E-002, 9.8974416E-004, 3.5902104E-005, 1.4338435E-003, 5.5582844E+002
 4.7003832E+001, 9.0034026E-003, 2.0457020E-001, 9.2076891E-002, 1.3730802E-003, 5.8362325E-005, 1.5235016E-003, 5.5716156E+002
 4.8006027E+001, 8.4854721E-003, 2.0574327E-001, 9.2048846E-002, 8.3500872E-004, 4.1789217E-005, 1.4152059E-003, 5.5687160E+002
 4.9000522E+001, 7.0369025E-003, 2.0682234E-001, 9.2693264E-002, 1.0391773E-003, 5.0621154E-005, 1.4654824E-003, 5.6153037E+002
 5.0002158E+001, 5.8611247E-003, 2.0567459E-001, 9.3864169E-002, 2.7590066E-003, 2.0769380E-004, 1.8273038E-003, 5.5123722E+002
 5.1003661E+001, 4.1735853E-003, 2.0809625E-001, 9.4252266E-002, 2.1127429E-003, 7.0377563E-005, 1.7033345E-003, 5.6234872E+002
 5.2005437E+001, 4.5506889E-003, 2.0684441E-001, 9.4387856E-002, 2.7977172E-003, 1.8500439E-004, 1.8426524E-003, 5.4676804E+002
 5.3003815E+001, 3.3904390E-003, 2.0835432E-001, 9.4702861E-002, 2.4709966E-003, 1.1093430E-004, 1.7817004E-003, 5.5428458E+002
 5.4008159E+001, 3.8756833E-003, 2.0759466E-001, 9.4619019E-002, 2.7129929E-003, 1.1013251E-004, 1.8290077E-003, 5.4879997E+002
 5.5006989E+001, 2.0718833E-003, 2.0776833E-001, 9.5803605E-002, 3.8734111E-003, 1.6231661E-004, 2.0788517E-003, 5.4759789E+002
 5.6000432E+001, 2.2899296E-003, 2.0635531E-001, 9.6088399E-002, 4.7844169E-003, 3.6528708E-004, 2.2656605E-003, 5.3605149E+002
 5.7003046E+001, 1.8891270E-003, 2.0643045E-001, 9.6349142E-002, 5.0234831E-003, 3.1866631E-004, 2.3173697E-003, 5.3540860E+002
 5.8003776E+001, 1.7622260E-003, 2.0603349E-001, 9.6552963E-002, 5.4087793E-003, 4.1584654E-004, 2.3975868E-003, 5.3755956E+002
 5.9000234E+001, 1.9597154E-003, 2.0531072E-001, 9.6649618E-002, 5.8232657E-003, 4.5598131E-004, 2.4820989E-003, 5.2481784E+002
 6.0000449E+001, 1.4591511E-003, 2.0471979E-001, 9.7167059E-002, 6.6201120E-003, 6.1337698E-004, 2.6493851E-003, 5.2265401E+002
 6.1004972E+001, 1.4247190E-003, 2.0546642E-001, 9.6959101E-002, 6.0788534E-003, 5.1483981E-004, 2.5378362E-003, 5.2591285E+002
 6.2000217E+001, 1.2202061E-003, 2.0385202E-001, 9.7597764E-002, 7.4464689E-003, 7.5475277E-004, 2.8213302E-003, 5.1999062E+002
 6.3007504E+001, 1.3498980E-003, 2.0398599E-001, 9.7473357E-002, 7.2582625E-003, 6.9415646E-004, 2.7817852E-003, 5.2378347E+002
 6.4008534E+001, 1.0725534E-003, 2.0317963E-001, 9.7888392E-002, 8.0424258E-003, 9.6709958E-004, 2.9450544E-003, 5.2233453E+002
 6.5009105E+001, 9.5858562E-004, 2.0179262E-001, 9.8398777E-002, 9.1772788E-003, 1.1461675E-003, 3.1800134E-003, 5.1640376E+002
 6.6001866E+001, 1.0044459E-003, 2.0214694E-001, 9.8265511E-002, 8.8840547E-003, 1.0479533E-003, 3.1192799E-003, 5.1895301E+002
 6.7003923E+001, 9.2438877E-004, 2.0033293E-001, 9.8865794E-002, 1.0298860E-002, 1.3986279E-003, 3.4116892E-003, 5.1517009E+002
 6.8002694E+001, 8.4770295E-004, 1.9944101E-001, 9.9168660E-002, 1.1003193E-002, 1.6802790E-003, 3.5573272E-003, 5.1455673E+002
 6.9008385E+001, 9.2029563E-004, 2.0046964E-001, 9.8838885E-002, 1.0210949E-002, 1.3042355E-003, 3.3936644E-003, 5.1213980E+002
 7.0009374E+001, 8.3961033E-004, 1.9991298E-001, 9.9066219E-002, 1.0689934E-002, 1.3865539E-003, 3.4930063E-003, 5.1239216E+002
 7.1008356E+001, 9.2721723E-004, 1.9915428E-001, 9.9213000E-002, 1.1173635E-002, 1.6552859E-003, 3.5921426E-003, 5.0989473E+002
 7.2001027E+001, 8.1924692E-004, 1.9821331E-001, 9.9539905E-002, 1.1924813E-002, 2.0209022E-003, 3.7475287E-003, 5.0454552E+002
 7.3003829E+001, 7.7930092E-004, 1.9735373E-001, 9.9806297E-002, 1.2577090E-002, 2.3039964E-003, 3.8822005E-003, 5.0930825E+002
 7.4008387E+001, 8.1911903E-004, 1.9736190E-001, 9.9827401E-002, 1.2593722E-002, 1.9947914E-003, 3.8858146E-003, 5.0079369E+002
 7.5004000E+001, 7.3864616E-004, 1.9695543E-001, 9.9983119E-002, 1.2933653E-002, 2.2065826E-003, 3.9562484E-003, 5.0757736E+002
 7.6007793E+001, 8.0311224E-004, 1.9633671E-001, 1.0010212E-001, 1.3327587E-002, 2.4590072E-003, 4.0369816E-003, 5.0092417E+002
 7.7006073E+001, 7.8649378E-004, 1.9626921E-001, 1.0013717E-001, 1.3393369E-002, 2.4525236E-003, 4.0506788E-003, 4.9983183E+002
 7.8009022E+001, 7.4479947E-004, 1.9613731E-001, 1.0020232E-001, 1.3518782E-002, 2.4983382E-003, 4.0767732E-003, 5.0405941E+002
 7.9010168E+001, 8.0754851E-004, 1.9548334E-001, 1.0033353E-001, 1.3940763E-002, 2.7549598E-003, 4.1633075E-003, 4.9625786E+002
 8.0000016E+001, 7.8085247E-004, 1.9472164E-001, 1.0061098E-001, 1.4560238E-002, 2.7207212E-003, 4.2915351E-003, 4.9824324E+002
 8.1007525E+001, 8.0903399E-004, 1.9463059E-001, 1.0061926E-001, 1.4608446E-002, 2.7354252E-003, 4.3013224E-003, 4.9582621E+002
 8.2004000E+001, 8.0670067E-004, 1.9364843E-001, 1.0093395E-001, 1.5363054E-002, 2.8163665E-003, 4.4571949E-003, 4.9969906E+002
 8.3008483E+001, 7.6010778E-004, 1.9377528E-001, 1.0091459E-001, 1.5288187E-002, 2.8734978E-003, 4.4419076E-003, 4.9507163E+002
 8.4002851E+001, 7.6061365E-004, 1.9297135E-001, 1.0113039E-001, 1.5863721E-002, 3.1808173E-003, 4.5604610E-003, 4.9827929E+002
 8.5003052E+001, 7.4166701E-004, 1.9288637E-001, 1.0111903E-001, 1.5890608E-002, 3.4980082E-003, 4.5657145E-003, 4.9916148E+002
 8.6010501E+001, 7.5887165E-004, 1.9202029E-001, 1.0136857E-001, 1.6527395E-002, 3.6571309E-003, 4.6970255E-003, 4.9757337E+002
 8.7004780E+001, 7.5322549E-004, 1.9209692E-001, 1.0139968E-001, 1.6524731E-002, 3.3404594E-003, 4.6969150E-003, 4.9746728E+002
 8.8002497E+001, 7.5443423E-004, 1.9184714E-001, 1.0143926E-001, 1.6675857E-002, 3.5966900E-003, 4.7278127E-003, 4.9528472E+002
 8.9003815E+001, 8.0340699E-004, 1.9104927E-001, 1.0157036E-001, 1.7162161E-002, 4.1990927E-003, 4.8272723E-003, 4.9720223E+002
 9.0006391E+001, 7.6697510E-004, 1.9037760E-001, 1.0182256E-001, 1.7716339E-002, 4.1773120E-003, 4.9420424E-003, 4.9518346E+002
 9.1004916E+001, 7.9363456E-004, 1.9068670E-001, 1.0169097E-001, 1.7445422E-002, 4.2394234E-003, 4.8858199E-003, 4.9347362E+002
 9.2004858E+001, 8.0934213E-004, 1.9048671E-001, 1.0177735E-001, 1.7621147E-002, 4.0543419E-003, 4.9222900E-003, 4.9752305E+002
 9.3011447E+001, 7.9521292E-004, 1.8996645E-001, 1.0191468E-001, 1.7991615E-002, 4.3274787E-003, 4.9985857E-003, 4.9328336E+002
 9.4005008E+001, 7.8788874E-004, 1.8972658E-001, 1.0193344E-001, 1.8117559E-002, 4.7247122E-003, 5.0241444E-003, 4.9252755E+002
 9.5006515E+001, 9.1840763E-004, 1.8981114E-001, 1.0187025E-001, 1.8013007E-002, 4.3913695E-003, 5.0022364E-003, 4.9183705E+002
 9.6000735E+001, 9.1240784E-004, 1.8891800E-001, 1.0203453E-001, 1.8576550E-002, 5.2138978E-003, 5.1176831E-003, 4.9245223E+002
 9.7011729E+001, 9.4646707E-004, 1.8888668E-001, 1.0205180E-001, 1.8607052E-002, 5.0306769E-003, 5.1240334E-003, 4.9304376E+002
 9.8004513E+001, 8.9605868E-004, 1.8928506E-001, 1.0193165E-001, 1.8309797E-002, 5.1669032E-003, 5.0627020E-003, 4.9424796E+002
 9.9009165E+001, 9.3169011E-004, 1.8933394E-001, 1.0194141E-001, 1.8296962E-002, 4.8619677E-003, 5.0602435E-003, 4.9626823E+002
 1.0000702E+002, 9.4597847E-004, 1.8917401E-001, 1.0194814E-001, 1.8374647E-002, 5.0815968E-003, 5.0759364E-003, 4.9805307E+002
 1.0100347E+002, 1.0273224E-003, 1.8852873E-001, 1.0202058E-001, 1.8733091E-002, 5.5966707E-003, 5.1489016E-003, 4.9016957E+002
 1.0200841E+002, 1.0241513E-003, 1.8971025E-001, 1.0165843E-001, 1.7841988E-002, 5.4255658E-003, 4.9649651E-003, 4.9496494E+002
 1.0300376E+002, 1.0804452E-003, 1.8840333E-001, 1.0199930E-001, 1.8766214E-002, 5.7537325E-003, 5.1552482E-003, 4.9348018E+002
 1.0400889E+002, 1.1338497E-003, 1.8841214E-001, 1.0199826E-001, 1.8759911E-002, 5.5197331E-003, 5.1539491E-003, 4.9076043E+002
 1.0500304E+002, 1.0983142E-003, 1.8905728E-001, 1.0173930E-001, 1.8212538E-002, 5.9352056E-003, 5.0404796E-003, 4.9559308E+002
 1.0600576E+002, 1.0892258E-003, 1.8906284E-001, 1.0182716E-001, 1.8298769E-002, 5.4338584E-003, 5.0589995E-003, 4.9457190E+002
 1.0700948E+002, 1.2789593E-003, 1.8832864E-001, 1.0179167E-001, 1.8585444E-002, 6.3235508E-003, 5.1160426E-003, 4.9334024E+002
 1.0800732E+002, 1.3213679E-003, 1.8825458E-001, 1.0188206E-001, 1.8708433E-002, 5.7513930E-003, 5.1419635E-003, 4.9401499E+002
 1.0900600E+002, 1.4214984E-003, 1.8844276E-001, 1.0171381E-001, 1.8452654E-002, 5.9692210E-003, 5.0882584E-003, 4.9686381E+002
 1.1000645E+002, 1.5741735E-003, 1.8777975E-001, 1.0176407E-001, 1.8794896E-002, 6.3556600E-003, 5.1576424E-003, 4.9291987E+002
 1.1100861E+002, 1.5158515E-003, 1.8576966E-001, 1.0243297E-001, 2.0365628E-002, 6.5951611E-003, 5.4823011E-003, 4.9389890E+002
 1.1200293E+002, 1.7911392E-003, 1.8597845E-001, 1.0223084E-001, 2.0062207E-002, 6.2452094E-003, 5.4185035E-003, 4.8388901E+002
 1.1301045E+002, 1.6819378E-003, 1.8685524E-001, 1.0205625E-001, 1.9498415E-002, 5.9976762E-003, 5.3029070E-003, 4.9587414E+002
 1.1400902E+002, 1.6856973E-003, 1.8602270E-001, 1.0215613E-001, 1.9969851E-002, 7.0455494E-003, 5.3989715E-003, 4.9771946E+002
 1.1500764E+002, 1.8307849E-003, 1.8578213E-001, 1.0229803E-001, 2.0216366E-002, 6.0683948E-003, 5.4503720E-003, 4.9089907E+002
 1.1600279E+002, 1.6974593E-003, 1.8605006E-001, 1.0225623E-001, 2.0058192E-002, 6.3400496E-003, 5.4180745E-003, 4.9924969E+002
 1.1700831E+002, 1.9329320E-003, 1.8491149E-001, 1.0247680E-001, 2.0781795E-002, 6.3079281E-003, 5.5663566E-003, 4.9214148E+002
 1.1800792E+002, 2.0477759E-003, 1.8409682E-001, 1.0253982E-001, 2.1205396E-002, 7.0784943E-003, 5.6522717E-003, 4.8842870E+002
 1.1900962E+002, 1.8198027E-003, 1.8446930E-001, 1.0257150E-001, 2.1076998E-002, 7.0940698E-003, 5.6269873E-003, 4.9775092E+002
 1.2000219E+002, 1.9931006E-003, 1.8446019E-001, 1.0250392E-001, 2.1008703E-002, 6.7959921E-003, 5.6122886E-003, 4.8917184E+002
 1.2100904E+002, 1.8261155E-003, 1.8412128E-001, 1.0258229E-001, 2.1242771E-002, 7.6984471E-003, 5.6604346E-003, 4.9684250E+002
 1.2200786E+002, 2.0538485E-003, 1.8403782E-001, 1.0239633E-001, 2.1087009E-002, 8.0337143E-003, 5.6265370E-003, 4.9024674E+002
 1.2300257E+002, 2.1181665E-003, 1.8305472E-001, 1.0283742E-001, 2.1967694E-002, 7.0787806E-003, 5.8094315E-003, 4.9056684E+002
 1.2400140E+002, 1.8813833E-003, 1.8474486E-001, 1.0240412E-001, 2.0784115E-002, 7.2927748E-003, 5.5658534E-003, 5.0113768E+002
 1.2500575E+002, 1.9956393E-003, 1.8366474E-001, 1.0272161E-001, 2.1582304E-002, 7.0665832E-003, 5.7304783E-003, 4.9243344E+002
 1.2600130E+002, 1.8912958E-003, 1.8439037E-001, 1.0249201E-001, 2.1030329E-002, 7.4316496E-003, 5.6165068E-003, 4.9729988E+002
 1.2700505E+002, 1.9798397E-003, 1.8436951E-001, 1.0253389E-001, 2.1079616E-002, 6.8523734E-003, 5.6269463E-003, 4.9505825E+002
 1.2800946E+002, 2.3141037E-003, 1.8158065E-001, 1.0311394E-001, 2.2898118E-002, 7.5456833E-003, 6.0000367E-003, 4.9086264E+002
 1.2900813E+002, 2.2760804E-003, 1.8228121E-001, 1.0293603E-001, 2.2407743E-002, 7.3735184E-003, 5.8991193E-003, 4.9289381E+002
 1.3000895E+002, 2.3179381E-003, 1.8133065E-001, 1.0316473E-001, 2.3060566E-002, 7.7240275E-003, 6.0333602E-003, 4.9194371E+002
 1.3100934E+002, 2.5914523E-003, 1.7987159E-001, 1.0335909E-001, 2.3899622E-002, 8.3314235E-003, 6.2044668E-003, 4.8616694E+002
 1.3200904E+002, 2.5199489E-003, 1.8032264E-001, 1.0333315E-001, 2.3674308E-002, 7.8839534E-003, 6.1588751E-003, 4.9224863E+002
 1.3300743E+002, 2.1855424E-003, 1.8195298E-001, 1.0314113E-001, 2.2762802E-002, 7.1740669E-003, 5.9732666E-003, 4.9997571E+002
 1.3400787E+002, 1.9815355E-003, 1.8295675E-001, 1.0296354E-001, 2.2141760E-002, 7.0860353E-003, 5.8461613E-003, 5.0507151E+002
 1.3500350E+002, 2.2448856E-003, 1.8075398E-001, 1.0334119E-001, 2.3497039E-002, 8.1203198E-003, 6.1234681E-003, 4.9892325E+002
 1.3600404E+002, 2.6211746E-003, 1.8052477E-001, 1.0316577E-001, 2.3413154E-002, 8.0641568E-003, 6.1041015E-003, 4.9461331E+002
 1.3700023E+002, 2.7635920E-003, 1.7932639E-001, 1.0347005E-001, 2.4250035E-002, 8.0363018E-003, 6.2763102E-003, 4.9170656E+002
 1.3800479E+002, 2.6350525E-003, 1.8035212E-001, 1.0336428E-001, 2.3689678E-002, 7.1579642E-003, 6.1623454E-003, 4.9467745E+002
 1.3900201E+002, 2.4840825E-003, 1.8099552E-001, 1.0319299E-001, 2.3234231E-002, 7.5312066E-003, 6.0685745E-003, 5.0144589E+002
 1.4000542E+002, 2.5903769E-003, 1.7981241E-001, 1.0341976E-001, 2.3987127E-002, 8.0894385E-003, 6.2228707E-003, 4.9394994E+002
 1.4100752E+002, 2.5879425E-003, 1.7888257E-001, 1.0362447E-001, 2.4607650E-002, 8.7274104E-003, 6.3503122E-003, 4.9033655E+002
 1.4200768E+002, 2.6268472E-003, 1.7917387E-001, 1.0350786E-001, 2.4359447E-002, 8.6839969E-003, 6.2988518E-003, 4.9230337E+002
 1.4300775E+002, 2.4498176E-003, 1.8073280E-001, 1.0311708E-001, 2.3275671E-002, 8.6555295E-003, 6.0758803E-003, 4.9950650E+002
 1.4401069E+002, 2.6950028E-003, 1.7978563E-001, 1.0328811E-001, 2.3863863E-002, 8.4981798E-003, 6.1962825E-003, 4.9956450E+002
 1.4500796E+002, 2.8074918E-003, 1.7796893E-001, 1.0416393E-001, 2.5552623E-002, 6.3950365E-003, 6.5474037E-003, 4.9869513E+002
 1.4600432E+002, 3.3414014E-003, 1.7469567E-001, 1.0482599E-001, 2.7664603E-002, 6.7310980E-003, 6.9804964E-003, 4.8887953E+002
 1.4700567E+002, 3.1891525E-003, 1.7227723E-001, 1.0565736E-001, 2.9583253E-002, 7.2015817E-003, 7.3772901E-003, 4.9057393E+002
 1.4800305E+002, 3.2911729E-003, 1.7341363E-001, 1.0534890E-001, 2.8763730E-002, 6.3593024E-003, 7.2084262E-003, 4.9124272E+002
 1.4900838E+002, 3.3532780E-003, 1.7214970E-001, 1.0566144E-001, 2.9640123E-002, 6.7476416E-003, 7.3887130E-003, 4.8654932E+002
 1.5000422E+002, 3.2341712E-003, 1.7061498E-001, 1.0629110E-001, 3.0961044E-002, 6.5263579E-003, 7.6626741E-003, 4.8345975E+002
 1.5100114E+002, 3.2689286E-003, 1.6807336E-001, 1.0707406E-001, 3.2881181E-002, 6.7544252E-003, 8.0590434E-003, 4.8411995E+002
 1.5200060E+002, 3.2381777E-003, 1.6782407E-001, 1.0680459E-001, 3.2721602E-002, 9.0008277E-003, 8.0233351E-003, 4.8363774E+002
 1.5300685E+002, 3.1645816E-003, 1.7059970E-001, 1.0611867E-001, 3.0795907E-002, 7.8836157E-003, 7.6271810E-003, 4.8578226E+002
 1.5400127E+002, 2.8615413E-003, 1.7116691E-001, 1.0609943E-001, 3.0531321E-002, 8.1290625E-003, 7.5738716E-003, 4.9102043E+002
