s,,,,,,,
Time,"O2 EXHAUST","CO2 EXHAUST","H2O EXHAUST","CO EXHAUST","FUEL EXHAUST","SOOT EXHAUST","TEMP EXHAUST"
 0.0000000E+000, 2.3099739E-001, 5.9146498E-004, 5.9412091E-003, 0.0000000E+000, 0.0000000E+000, 0.0000000E+000, 2.0000000E+001
 1.0036856E+000, 2.3099739E-001, 5.9146498E-004, 5.9412091E-003, 5.8670957E-030, 8.2511531E-029, 1.7374337E-030, 2.0404399E+001
 2.0036103E+000, 2.2288498E-001, 7.2006771E-003, 9.6646879E-003, 4.0293530E-005, 2.9316598E-004, 5.3098348E-005, 9.7897459E+001
 3.0003558E+000, 2.1759957E-001, 1.1520174E-002, 1.2113051E-002, 7.7726463E-005, 3.3395723E-004, 9.0202000E-005, 1.4452410E+002
 4.0014639E+000, 2.1214586E-001, 1.5988147E-002, 1.4624746E-002, 1.0020862E-004, 4.3481246E-004, 1.2506796E-004, 1.9384730E+002
 5.0006173E+000, 2.0702145E-001, 2.0193849E-002, 1.6990937E-002, 1.2268461E-004, 4.8072038E-004, 1.5817130E-004, 2.3406930E+002
 6.0003242E+000, 2.0264803E-001, 2.3816266E-002, 1.9008935E-002, 1.2591967E-004, 4.6197171E-004, 1.8319462E-004, 2.6666500E+002
 7.0052864E+000, 1.9574471E-001, 2.9539791E-002, 2.2191981E-002, 1.2671946E-004, 4.3384120E-004, 2.2179930E-004, 3.1307966E+002
 8.0040846E+000, 1.8632488E-001, 3.7377250E-002, 2.6539842E-002, 1.1889556E-004, 3.1609693E-004, 2.7273213E-004, 3.6551410E+002
 9.0027870E+000, 1.8036947E-001, 4.2343024E-002, 2.9287854E-002, 1.0850006E-004, 2.2457030E-004, 3.0382616E-004, 3.9444951E+002
 1.0002601E+001, 1.7274104E-001, 4.8699025E-002, 3.2806068E-002, 9.5963972E-005, 1.2671139E-004, 3.4379195E-004, 4.2149088E+002
 1.1004309E+001, 1.6490033E-001, 5.5224502E-002, 3.6421977E-002, 8.6241769E-005, 4.1942556E-005, 3.8550462E-004, 4.4802104E+002
 1.2000817E+001, 1.5938060E-001, 5.9800585E-002, 3.8967414E-002, 8.7289485E-005, 1.8107122E-005, 4.1645823E-004, 4.5531425E+002
 1.3002061E+001, 1.5075586E-001, 6.6940347E-002, 4.2944711E-002, 9.3626327E-005, 1.9509818E-006, 4.6577061E-004, 4.7680238E+002
 1.4003765E+001, 1.4460864E-001, 7.2024170E-002, 4.5779505E-002, 1.0038874E-004, 3.4433685E-007, 5.0137012E-004, 4.8070295E+002
 1.5000282E+001, 1.3883800E-001, 7.6795884E-002, 4.8440644E-002, 1.0704206E-004, 1.4965446E-007, 5.3485031E-004, 4.8976291E+002
 1.6009815E+001, 1.3407191E-001, 8.0736872E-002, 5.0638529E-002, 1.1256563E-004, 1.2450951E-007, 5.6250799E-004, 4.8882307E+002
 1.7007332E+001, 1.2705309E-001, 8.6540574E-002, 5.3875268E-002, 1.2071507E-004, 1.1436610E-007, 6.0324139E-004, 4.9834120E+002
 1.8001552E+001, 1.2210578E-001, 9.0631425E-002, 5.6156716E-002, 1.2643649E-004, 1.0832660E-007, 6.3194816E-004, 4.9889837E+002
 1.9005272E+001, 1.1877036E-001, 9.3389387E-002, 5.7694855E-002, 1.3032222E-004, 1.1864605E-007, 6.5130780E-004, 4.9783779E+002
 2.0001393E+001, 1.1325972E-001, 9.7945283E-002, 6.0236205E-002, 1.3713191E-004, 9.5168971E-007, 6.8337267E-004, 5.0203870E+002
 2.1001261E+001, 1.1047628E-001, 1.0024745E-001, 6.1519702E-002, 1.4002294E-004, 2.5674565E-007, 6.9945657E-004, 5.0455367E+002
 2.2000072E+001, 1.0633331E-001, 1.0367320E-001, 6.3430226E-002, 1.4481454E-004, 2.8782356E-007, 7.2349619E-004, 5.0386772E+002
 2.3004956E+001, 1.0415056E-001, 1.0547806E-001, 6.4436809E-002, 1.4735701E-004, 2.9380008E-007, 7.3616537E-004, 5.0105960E+002
 2.4005193E+001, 9.9850135E-002, 1.0903317E-001, 6.6420038E-002, 1.5277518E-004, 1.4352427E-006, 7.6120923E-004, 5.0148036E+002
 2.5000586E+001, 9.7487441E-002, 1.1097423E-001, 6.7511402E-002, 1.6256399E-004, 1.6576497E-005, 7.7636091E-004, 4.9912905E+002
 2.6006128E+001, 9.4176153E-002, 1.1366525E-001, 6.9044706E-002, 1.9236240E-004, 7.5450704E-005, 8.0087802E-004, 5.0413599E+002
 2.7003250E+001, 9.3195434E-002, 1.1445670E-001, 6.9498609E-002, 2.0351203E-004, 1.0516864E-004, 8.0860498E-004, 5.0060670E+002
 2.8005196E+001, 9.0772370E-002, 1.1635687E-001, 7.0626248E-002, 2.6064047E-004, 2.5458929E-004, 8.3372551E-004, 4.9861919E+002
 2.9007522E+001, 8.7761566E-002, 1.1855767E-001, 7.2035098E-002, 4.0952987E-004, 7.1683635E-004, 8.8072028E-004, 4.9521720E+002
 3.0002068E+001, 8.6918859E-002, 1.1928347E-001, 7.2429698E-002, 4.0208116E-004, 6.2622957E-004, 8.8398178E-004, 4.9139054E+002
 3.1009679E+001, 8.4939791E-002, 1.2085243E-001, 7.3339828E-002, 4.3275909E-004, 7.7436590E-004, 9.0115528E-004, 4.9087134E+002
 3.2007918E+001, 8.3669853E-002, 1.2189992E-001, 7.3926487E-002, 4.3618727E-004, 7.7389306E-004, 9.0893059E-004, 4.8579817E+002
 3.3010971E+001, 8.2175225E-002, 1.2288147E-001, 7.4652844E-002, 5.8065615E-004, 1.0757587E-003, 9.4678140E-004, 4.8497465E+002
 3.4007975E+001, 8.0157332E-002, 1.2421971E-001, 7.5594244E-002, 7.3970936E-004, 1.6733077E-003, 9.9018404E-004, 4.7883519E+002
 3.5009225E+001, 7.8858685E-002, 1.2514466E-001, 7.6198999E-002, 8.1260689E-004, 1.9371344E-003, 1.0121688E-003, 4.7996080E+002
 3.6007497E+001, 7.8036992E-002, 1.2570714E-001, 7.6593297E-002, 8.7790379E-004, 2.0852739E-003, 1.0300745E-003, 4.7421143E+002
 3.7000929E+001, 7.7025226E-002, 1.2638944E-001, 7.7074427E-002, 9.5957101E-004, 2.3122372E-003, 1.0523272E-003, 4.7407962E+002
 3.8009351E+001, 7.6161689E-002, 1.2689680E-001, 7.7484888E-002, 1.0628156E-003, 2.6561249E-003, 1.0780744E-003, 4.7079624E+002
 3.9008115E+001, 7.5957683E-002, 1.2682519E-001, 7.7592523E-002, 1.1814052E-003, 3.0596448E-003, 1.1032545E-003, 4.6559576E+002
 4.0005836E+001, 7.4666607E-002, 1.2753687E-001, 7.8196301E-002, 1.3492206E-003, 3.7215473E-003, 1.1443461E-003, 4.6218996E+002
 4.1009270E+001, 7.4211280E-002, 1.2780408E-001, 7.8420610E-002, 1.4098484E-003, 3.8601376E-003, 1.1592590E-003, 4.6023161E+002
 4.2006570E+001, 7.4033621E-002, 1.2777527E-001, 7.8521992E-002, 1.5039236E-003, 4.1027117E-003, 1.1794216E-003, 4.5537701E+002
 4.3003112E+001, 7.3591713E-002, 1.2798956E-001, 7.8740204E-002, 1.5833945E-003, 4.3240180E-003, 1.1980565E-003, 4.5935774E+002
 4.4002227E+001, 7.2746544E-002, 1.2838781E-001, 7.9133125E-002, 1.7218466E-003, 4.9046803E-003, 1.2306899E-003, 4.5563901E+002
 4.5006505E+001, 7.2433267E-002, 1.2859167E-001, 7.9233387E-002, 1.7130630E-003, 5.2576947E-003, 1.2301596E-003, 4.5234017E+002
 4.6008707E+001, 7.2147835E-002, 1.2851067E-001, 7.9378208E-002, 1.8659331E-003, 5.8158671E-003, 1.2626945E-003, 4.5141904E+002
 4.7004203E+001, 7.1621319E-002, 1.2897484E-001, 7.9611599E-002, 1.8463817E-003, 5.8103491E-003, 1.2615809E-003, 4.4730551E+002
 4.8009921E+001, 7.1175532E-002, 1.2911036E-001, 7.9842072E-002, 1.9707185E-003, 6.1371313E-003, 1.2893950E-003, 4.4810728E+002
 4.9007273E+001, 7.0958715E-002, 1.2914310E-001, 7.9920987E-002, 2.0206258E-003, 6.5446282E-003, 1.3004149E-003, 4.3824696E+002
 5.0001448E+001, 7.0668647E-002, 1.2907460E-001, 8.0033365E-002, 2.1430623E-003, 7.2758268E-003, 1.3264495E-003, 4.4101563E+002
 5.1007556E+001, 7.1016315E-002, 1.2876403E-001, 7.9847409E-002, 2.1333599E-003, 7.4627930E-003, 1.3222655E-003, 4.3332589E+002
 5.2000443E+001, 7.0306237E-002, 1.2905786E-001, 8.0150108E-002, 2.2469455E-003, 8.1826030E-003, 1.3488179E-003, 4.3379931E+002
 5.3008824E+001, 6.9988104E-002, 1.2923795E-001, 8.0304783E-002, 2.2907015E-003, 8.3038433E-003, 1.3594951E-003, 4.3401194E+002
 5.4004863E+001, 7.0102524E-002, 1.2902429E-001, 8.0250162E-002, 2.3426222E-003, 8.5509176E-003, 1.3692956E-003, 4.3068102E+002
 5.5003290E+001, 6.9723063E-002, 1.2918525E-001, 8.0402692E-002, 2.3944656E-003, 8.9785240E-003, 1.3815955E-003, 4.2929811E+002
 5.6004444E+001, 6.9466200E-002, 1.2916412E-001, 8.0514209E-002, 2.4943428E-003, 9.4813153E-003, 1.4030661E-003, 4.2684603E+002
 5.7000707E+001, 6.9804488E-002, 1.2872442E-001, 8.0334207E-002, 2.5473945E-003, 9.9316868E-003, 1.4115942E-003, 4.2532166E+002
 5.8006301E+001, 6.9671958E-002, 1.2869563E-001, 8.0392743E-002, 2.6077264E-003, 1.0221202E-002, 1.4244561E-003, 4.2167945E+002
 5.9008809E+001, 6.9059793E-002, 1.2898013E-001, 8.0646326E-002, 2.6859794E-003, 1.0820299E-002, 1.4433004E-003, 4.2736949E+002
 6.0002220E+001, 6.9227010E-002, 1.2850997E-001, 8.0554041E-002, 2.8232295E-003, 1.1564132E-002, 1.4698432E-003, 4.2290589E+002
 6.1002530E+001, 6.9052128E-002, 1.2884351E-001, 8.0611487E-002, 2.7207496E-003, 1.1315874E-002, 1.4499082E-003, 4.2601720E+002
 6.2000459E+001, 6.9060221E-002, 1.2859748E-001, 8.0571809E-002, 2.8006595E-003, 1.1989849E-002, 1.4655491E-003, 4.2008240E+002
 6.3007225E+001, 6.8863758E-002, 1.2862436E-001, 8.0627822E-002, 2.8352366E-003, 1.2449877E-002, 1.4732129E-003, 4.2161451E+002
 6.4009765E+001, 6.8867920E-002, 1.2860586E-001, 8.0616101E-002, 2.8344723E-003, 1.2533771E-002, 1.4729236E-003, 4.1746019E+002
 6.5000329E+001, 6.8661941E-002, 1.2862872E-001, 8.0685936E-002, 2.8816438E-003, 1.2965546E-002, 1.4832853E-003, 4.1880966E+002
 6.6006104E+001, 6.8480768E-002, 1.2851091E-001, 8.0777588E-002, 3.0082987E-003, 1.3453455E-002, 1.5099005E-003, 4.1604991E+002
 6.7006756E+001, 6.8600237E-002, 1.2844031E-001, 8.0671063E-002, 2.9560133E-003, 1.3680341E-002, 1.4981144E-003, 4.0996252E+002
 6.8007991E+001, 6.8512896E-002, 1.2834560E-001, 8.0732498E-002, 3.0473442E-003, 1.3896071E-002, 1.5172406E-003, 4.1462452E+002
 6.9004615E+001, 6.8531155E-002, 1.2820736E-001, 8.0653155E-002, 3.0481964E-003, 1.4531295E-002, 1.5164993E-003, 4.1498622E+002
 7.0009290E+001, 6.8684393E-002, 1.2811172E-001, 8.0542478E-002, 3.0033455E-003, 1.4689614E-002, 1.5061533E-003, 4.0978401E+002
 7.1008870E+001, 6.8706458E-002, 1.2793574E-001, 8.0511573E-002, 3.0582635E-003, 1.5117519E-002, 1.5168560E-003, 4.1015314E+002
 7.2006624E+001, 6.8388583E-002, 1.2806328E-001, 8.0639835E-002, 3.1053480E-003, 1.5487572E-002, 1.5279015E-003, 4.1036274E+002
 7.3001200E+001, 6.8607218E-002, 1.2776653E-001, 8.0472188E-002, 3.1058866E-003, 1.6085952E-002, 1.5260279E-003, 4.0749378E+002
 7.4006168E+001, 6.8142735E-002, 1.2796982E-001, 8.0680732E-002, 3.1832981E-003, 1.6476755E-002, 1.5441440E-003, 4.0697704E+002
 7.5008508E+001, 6.8600177E-002, 1.2759600E-001, 8.0475202E-002, 3.1849395E-003, 1.6438127E-002, 1.5419889E-003, 4.0504381E+002
 7.6000230E+001, 6.8482007E-002, 1.2744297E-001, 8.0445822E-002, 3.2333240E-003, 1.7398487E-002, 1.5514342E-003, 4.0839532E+002
 7.7004052E+001, 6.8930277E-002, 1.2723294E-001, 8.0233184E-002, 3.1561034E-003, 1.7111442E-002, 1.5333144E-003, 4.0152472E+002
 7.8010486E+001, 6.9009866E-002, 1.2694744E-001, 8.0137959E-002, 3.2097735E-003, 1.7870545E-002, 1.5430130E-003, 4.0171906E+002
 7.9001761E+001, 6.9220391E-002, 1.2673779E-001, 8.0021610E-002, 3.2107164E-003, 1.8047303E-002, 1.5418101E-003, 4.0214080E+002
 8.0002320E+001, 6.9534452E-002, 1.2650628E-001, 7.9857516E-002, 3.1829073E-003, 1.8097241E-002, 1.5342386E-003, 3.9860088E+002
 8.1009685E+001, 6.9381821E-002, 1.2655110E-001, 7.9906002E-002, 3.2028300E-003, 1.8379659E-002, 1.5388514E-003, 3.9803222E+002
 8.2004403E+001, 6.9726717E-002, 1.2616065E-001, 7.9690487E-002, 3.2063695E-003, 1.8899771E-002, 1.5369976E-003, 3.9595357E+002
 8.3001662E+001, 7.0230250E-002, 1.2555904E-001, 7.9347208E-002, 3.2037331E-003, 1.9879485E-002, 1.5323914E-003, 3.9247970E+002
 8.4004687E+001, 7.0237239E-002, 1.2554366E-001, 7.9331064E-002, 3.1981186E-003, 1.9969671E-002, 1.5310737E-003, 3.9238004E+002
 8.5003116E+001, 7.0299872E-002, 1.2534491E-001, 7.9262718E-002, 3.2337683E-003, 2.0479203E-002, 1.5374547E-003, 3.9924498E+002
 8.6009113E+001, 7.0287436E-002, 1.2551272E-001, 7.9276514E-002, 3.1692060E-003, 2.0121411E-002, 1.5246107E-003, 3.9459599E+002
 8.7010899E+001, 7.0507465E-002, 1.2510672E-001, 7.9095413E-002, 3.2084717E-003, 2.1005373E-002, 1.5303840E-003, 3.9067502E+002
 8.8003008E+001, 7.1125087E-002, 1.2441216E-001, 7.8710563E-002, 3.2135552E-003, 2.1921577E-002, 1.5268238E-003, 3.9116953E+002
 8.9002960E+001, 7.1083476E-002, 1.2444718E-001, 7.8706083E-002, 3.1951619E-003, 2.2050601E-002, 1.5230796E-003, 3.9115716E+002
 9.0003362E+001, 7.1091472E-002, 1.2441797E-001, 7.8727960E-002, 3.2249282E-003, 2.1954902E-002, 1.5293237E-003, 3.9038658E+002
 9.1010247E+001, 7.1183970E-002, 1.2422007E-001, 7.8608883E-002, 3.2206956E-003, 2.2616945E-002, 1.5270817E-003, 3.8794597E+002
 9.2005654E+001, 7.1893123E-002, 1.2350084E-001, 7.8203463E-002, 3.2193669E-003, 2.3312573E-002, 1.5219676E-003, 3.8459195E+002
 9.3003055E+001, 7.2392552E-002, 1.2302794E-001, 7.7928603E-002, 3.2115154E-003, 2.3676936E-002, 1.5170947E-003, 3.8492916E+002
 9.4004792E+001, 7.1789590E-002, 1.2355637E-001, 7.8258697E-002, 3.2387511E-003, 2.3331222E-002, 1.5265346E-003, 3.8949807E+002
 9.5011674E+001, 7.2790078E-002, 1.2263255E-001, 7.7689705E-002, 3.1983400E-003, 2.4115390E-002, 1.5115908E-003, 3.8318413E+002
 9.6006462E+001, 7.3203004E-002, 1.2213299E-001, 7.7388857E-002, 3.1841225E-003, 2.5037571E-002, 1.5051638E-003, 3.7923863E+002
 9.7007268E+001, 7.2781213E-002, 1.2250624E-001, 7.7650121E-002, 3.2248582E-003, 2.4621575E-002, 1.5164825E-003, 3.8481189E+002
 9.8008783E+001, 7.3227295E-002, 1.2213764E-001, 7.7442083E-002, 3.2224431E-003, 2.4633887E-002, 1.5134849E-003, 3.8210935E+002
 9.9006902E+001, 7.3812481E-002, 1.2156165E-001, 7.7024707E-002, 3.1498946E-003, 2.5628771E-002, 1.4939239E-003, 3.7995656E+002
 1.0000448E+002, 7.3948711E-002, 1.2140413E-001, 7.6946596E-002, 3.1581610E-003, 2.5802186E-002, 1.4946555E-003, 3.7984170E+002
 1.0100586E+002, 7.3734927E-002, 1.2142798E-001, 7.7079655E-002, 3.2535679E-003, 2.5916783E-002, 1.5154593E-003, 3.8256818E+002
 1.0200089E+002, 7.3879285E-002, 1.2129341E-001, 7.6951772E-002, 3.2131629E-003, 2.6284376E-002, 1.5058147E-003, 3.8014689E+002
 1.0300020E+002, 7.4581334E-002, 1.2073212E-001, 7.6573728E-002, 3.1620331E-003, 2.6544844E-002, 1.4909839E-003, 3.7900942E+002
 1.0400158E+002, 7.4800870E-002, 1.2037680E-001, 7.6412074E-002, 3.1934712E-003, 2.7223044E-002, 1.4954030E-003, 3.7524686E+002
 1.0501125E+002, 7.4513708E-002, 1.2074009E-001, 7.6610300E-002, 3.1877857E-003, 2.6610621E-002, 1.4966098E-003, 3.8487004E+002
 1.0601013E+002, 7.5011957E-002, 1.2017893E-001, 7.6287681E-002, 3.1829355E-003, 2.7418265E-002, 1.4917956E-003, 3.7620281E+002
 1.0701110E+002, 7.5171747E-002, 1.2002108E-001, 7.6138500E-002, 3.1363506E-003, 2.7884812E-002, 1.4806579E-003, 3.7882826E+002
 1.0800165E+002, 7.5189879E-002, 1.2000640E-001, 7.6116042E-002, 3.1253693E-003, 2.7961759E-002, 1.4781836E-003, 3.7664855E+002
 1.0900941E+002, 7.5734801E-002, 1.1955925E-001, 7.5766339E-002, 3.0476457E-003, 2.8496374E-002, 1.4583661E-003, 3.7641849E+002
 1.1000399E+002, 7.5346494E-002, 1.1977320E-001, 7.5940931E-002, 3.0927855E-003, 2.8734162E-002, 1.4695706E-003, 3.7850885E+002
 1.1101157E+002, 7.6028113E-002, 1.1923255E-001, 7.5566381E-002, 3.0354452E-003, 2.9019785E-002, 1.4535347E-003, 3.7456062E+002
 1.1200599E+002, 7.5886767E-002, 1.1934965E-001, 7.5651402E-002, 3.0507413E-003, 2.8910196E-002, 1.4576302E-003, 3.7665545E+002
 1.1300024E+002, 7.6006541E-002, 1.1918917E-001, 7.5516449E-002, 3.0170025E-003, 2.9471047E-002, 1.4492548E-003, 3.7674952E+002
 1.1400676E+002, 7.6094670E-002, 1.1902596E-001, 7.5448623E-002, 3.0366131E-003, 2.9800366E-002, 1.4524033E-003, 3.7436718E+002
 1.1500951E+002, 7.6171680E-002, 1.1905008E-001, 7.5404398E-002, 2.9903971E-003, 2.9673615E-002, 1.4425650E-003, 3.7637623E+002
 1.1600905E+002, 7.6068726E-002, 1.1892385E-001, 7.5363161E-002, 3.0173568E-003, 3.0582240E-002, 1.4475543E-003, 3.7747960E+002
 1.1700528E+002, 7.6293404E-002, 1.1877144E-001, 7.5262054E-002, 3.0040283E-003, 3.0502078E-002, 1.4436467E-003, 3.7330304E+002
 1.1800259E+002, 7.6879894E-002, 1.1830980E-001, 7.4898977E-002, 2.9217753E-003, 3.0965262E-002, 1.4227516E-003, 3.7348288E+002
 1.1900113E+002, 7.6267152E-002, 1.1868357E-001, 7.5196335E-002, 2.9935403E-003, 3.1148297E-002, 1.4407899E-003, 3.7676804E+002
 1.2000618E+002, 7.6272709E-002, 1.1862894E-001, 7.5157666E-002, 2.9882895E-003, 3.1446493E-002, 1.4392882E-003, 3.7910266E+002
 1.2100337E+002, 7.6324773E-002, 1.1856292E-001, 7.5175585E-002, 3.0307357E-003, 3.1261514E-002, 1.4480283E-003, 3.7593412E+002
 1.2200567E+002, 7.6206207E-002, 1.1860253E-001, 7.5152929E-002, 2.9977552E-003, 3.1803256E-002, 1.4411604E-003, 3.7583815E+002
 1.2300306E+002, 7.6316659E-002, 1.1858776E-001, 7.5084125E-002, 2.9495138E-003, 3.1749226E-002, 1.4306230E-003, 3.7945691E+002
 1.2400290E+002, 7.6744182E-002, 1.1813404E-001, 7.4832668E-002, 2.9523504E-003, 3.2247411E-002, 1.4281921E-003, 3.7656532E+002
 1.2500892E+002, 7.6695811E-002, 1.1817094E-001, 7.4873100E-002, 2.9677127E-003, 3.2153845E-002, 1.4317634E-003, 3.7515990E+002
 1.2601130E+002, 7.6892667E-002, 1.1796751E-001, 7.4716127E-002, 2.9349295E-003, 3.2598915E-002, 1.4233059E-003, 3.7565375E+002
 1.2700768E+002, 7.6762825E-002, 1.1796399E-001, 7.4750488E-002, 2.9653057E-003, 3.2959929E-002, 1.4298562E-003, 3.7744433E+002
 1.2800253E+002, 7.6644346E-002, 1.1808735E-001, 7.4815907E-002, 2.9623122E-003, 3.2850075E-002, 1.4300364E-003, 3.7726021E+002
 1.2900731E+002, 7.6819677E-002, 1.1800834E-001, 7.4747332E-002, 2.9419022E-003, 3.2651273E-002, 1.4250890E-003, 3.7311750E+002
 1.3000796E+002, 7.7089697E-002, 1.1749502E-001, 7.4499232E-002, 2.9770112E-003, 3.3908286E-002, 1.4292438E-003, 3.7516412E+002
 1.3100408E+002, 7.6917733E-002, 1.1775028E-001, 7.4592927E-002, 2.9374696E-003, 3.3604133E-002, 1.4224009E-003, 3.7547934E+002
 1.3200536E+002, 7.6744777E-002, 1.1784608E-001, 7.4709811E-002, 2.9873776E-003, 3.3493802E-002, 1.4338424E-003, 3.7496909E+002
 1.3300167E+002, 7.6714336E-002, 1.1776007E-001, 7.4698009E-002, 3.0175252E-003, 3.3857209E-002, 1.4397893E-003, 3.7203196E+002
 1.3400471E+002, 7.6708088E-002, 1.1776956E-001, 7.4628158E-002, 2.9597537E-003, 3.4248764E-002, 1.4273545E-003, 3.8465048E+002
 1.3500591E+002, 7.6536663E-002, 1.1795431E-001, 7.4763702E-002, 2.9840035E-003, 3.3852399E-002, 1.4338404E-003, 3.7309990E+002
 1.3600444E+002, 7.6498759E-002, 1.1796160E-001, 7.4799365E-002, 3.0088086E-003, 3.3800195E-002, 1.4392563E-003, 3.7279481E+002
 1.3700422E+002, 7.6844914E-002, 1.1768379E-001, 7.4590419E-002, 2.9667664E-003, 3.4054782E-002, 1.4282952E-003, 3.7597391E+002
 1.3800991E+002, 7.7171543E-002, 1.1727083E-001, 7.4350888E-002, 2.9623189E-003, 3.4828221E-002, 1.4245631E-003, 3.7300892E+002
 1.3900103E+002, 7.6981983E-002, 1.1745381E-001, 7.4482510E-002, 2.9846924E-003, 3.4532809E-002, 1.4306315E-003, 3.7217473E+002
 1.4000485E+002, 7.7234786E-002, 1.1724891E-001, 7.4252711E-002, 2.8956225E-003, 3.5147485E-002, 1.4099860E-003, 3.7832475E+002
 1.4100485E+002, 7.6592001E-002, 1.1773360E-001, 7.4636904E-002, 2.9847817E-003, 3.4757727E-002, 1.4325304E-003, 3.8038708E+002
 1.4200852E+002, 7.6917313E-002, 1.1737158E-001, 7.4394858E-002, 2.9555438E-003, 3.5449142E-002, 1.4237761E-003, 3.7625052E+002
 1.4300129E+002, 7.7269611E-002, 1.1708387E-001, 7.4253707E-002, 2.9698789E-003, 3.5324732E-002, 1.4249454E-003, 3.7100946E+002
 1.4400813E+002, 7.6995985E-002, 1.1734001E-001, 7.4402069E-002, 2.9737995E-003, 3.5143250E-002, 1.4275129E-003, 3.7666683E+002
 1.4500272E+002, 7.6664952E-002, 1.1758412E-001, 7.4502371E-002, 2.9472933E-003, 3.5490212E-002, 1.4234182E-003, 3.8163981E+002
 1.4601005E+002, 7.7237481E-002, 1.1699318E-001, 7.4189529E-002, 2.9619460E-003, 3.5992653E-002, 1.4226227E-003, 3.7561123E+002
 1.4701007E+002, 7.7124984E-002, 1.1709414E-001, 7.4249384E-002, 2.9646357E-003, 3.5932972E-002, 1.4238823E-003, 3.7286066E+002
 1.4800111E+002, 7.6933126E-002, 1.1715804E-001, 7.4312612E-002, 2.9880395E-003, 3.6260406E-002, 1.4293765E-003, 3.7947643E+002
 1.4901136E+002, 7.6894330E-002, 1.1728253E-001, 7.4401599E-002, 3.0011504E-003, 3.5685367E-002, 1.4330470E-003, 3.7706893E+002
 1.5001235E+002, 7.6955713E-002, 1.1716236E-001, 7.4231142E-002, 2.9231318E-003, 3.6605562E-002, 1.4153629E-003, 3.8451382E+002
 1.5100465E+002, 7.6888698E-002, 1.1726418E-001, 7.4298484E-002, 2.9303361E-003, 3.6312759E-002, 1.4176042E-003, 3.7988622E+002
 1.5200718E+002, 7.6291533E-002, 1.1753836E-001, 7.4610356E-002, 3.0576932E-003, 3.6548949E-002, 1.4470024E-003, 3.8116344E+002
 1.5300533E+002, 7.6752154E-002, 1.1727304E-001, 7.4416521E-002, 3.0195112E-003, 3.6216791E-002, 1.4369581E-003, 3.7057857E+002
 1.5400617E+002, 7.7044208E-002, 1.1700423E-001, 7.4206057E-002, 2.9732647E-003, 3.6688089E-002, 1.4251487E-003, 3.7698246E+002
