s,,,,,,,
Time,"O2 EXHAUST","CO2 EXHAUST","H2O EXHAUST","CO EXHAUST","FUEL EXHAUST","SOOT EXHAUST","TEMP EXHAUST"
 0.0000000E+000, 2.3099739E-001, 5.9146498E-004, 5.9412091E-003, 0.0000000E+000, 0.0000000E+000, 0.0000000E+000, 2.0000000E+001
 1.0062894E+000, 2.3099739E-001, 5.9146498E-004, 5.9412091E-003, 1.5759179E-029, 1.0466627E-028, 3.1893962E-029, 2.0344820E+001
 2.0006437E+000, 2.2512811E-001, 5.9433534E-003, 7.4549692E-003, 1.3896751E-005, 6.5023771E-004, 3.5494246E-004, 7.6887424E+001
 3.0001665E+000, 2.2261601E-001, 8.2825757E-003, 8.1320242E-003, 4.5151762E-005, 5.7312547E-004, 5.1551691E-004, 9.6652412E+001
 4.0027319E+000, 2.1775902E-001, 1.2761241E-002, 9.4112167E-003, 7.6546149E-005, 7.7818963E-004, 8.1681017E-004, 1.3835556E+002
 5.0056493E+000, 2.1472771E-001, 1.5549910E-002, 1.0210565E-002, 1.0150457E-004, 9.0824265E-004, 1.0055833E-003, 1.6374401E+002
 6.0056554E+000, 2.1017418E-001, 1.9746917E-002, 1.1413067E-002, 1.3772994E-004, 1.0735368E-003, 1.2894001E-003, 1.9856901E+002
 7.0024334E+000, 2.0708698E-001, 2.2627028E-002, 1.2227856E-002, 1.4231673E-004, 1.1304797E-003, 1.4797748E-003, 2.2188617E+002
 8.0044567E+000, 2.0167868E-001, 2.7653390E-002, 1.3660822E-002, 1.7089610E-004, 1.2112167E-003, 1.8164675E-003, 2.5741907E+002
 9.0051930E+000, 1.9651673E-001, 3.2497764E-002, 1.5034462E-002, 1.8288443E-004, 1.1520113E-003, 2.1375981E-003, 2.8738685E+002
 1.0007811E+001, 1.9066958E-001, 3.8013789E-002, 1.6593864E-002, 1.8680100E-004, 1.0037924E-003, 2.5011426E-003, 3.1584824E+002
 1.1004961E+001, 1.8539425E-001, 4.2969681E-002, 1.7999501E-002, 1.9949507E-004, 9.1746673E-004, 2.8297576E-003, 3.3959014E+002
 1.2004238E+001, 1.7944111E-001, 4.8604534E-002, 1.9587432E-002, 1.9355171E-004, 7.3168276E-004, 3.1989805E-003, 3.5950314E+002
 1.3001958E+001, 1.7556100E-001, 5.2265193E-002, 2.0620894E-002, 1.9359767E-004, 6.4534109E-004, 3.4396913E-003, 3.7089267E+002
 1.4003580E+001, 1.7011827E-001, 5.7404765E-002, 2.2070847E-002, 1.9159961E-004, 5.1349534E-004, 3.7772031E-003, 3.8385236E+002
 1.5008816E+001, 1.6396616E-001, 6.3209010E-002, 2.3708662E-002, 1.9021020E-004, 3.8382702E-004, 4.1585519E-003, 3.9705430E+002
 1.6003126E+001, 1.5936549E-001, 6.7547775E-002, 2.4933235E-002, 1.8975615E-004, 2.9191108E-004, 4.4437427E-003, 4.0386794E+002
 1.7007630E+001, 1.5217631E-001, 7.4311958E-002, 2.6844566E-002, 1.9373909E-004, 1.9620292E-004, 4.8893754E-003, 4.1518271E+002
 1.8002305E+001, 1.4802835E-001, 7.8210981E-002, 2.7946904E-002, 1.9729168E-004, 1.5155560E-004, 5.1465202E-003, 4.2007073E+002
 1.9008923E+001, 1.4462355E-001, 8.1410376E-002, 2.8851598E-002, 2.0053691E-004, 1.1812267E-004, 5.3575953E-003, 4.2422533E+002
 2.0005003E+001, 1.4019228E-001, 8.5569465E-002, 3.0028245E-002, 2.0602228E-004, 9.0342416E-005, 5.6322595E-003, 4.2627964E+002
 2.1002988E+001, 1.3675092E-001, 8.8797905E-002, 3.0942007E-002, 2.1107617E-004, 7.1706360E-005, 5.8456364E-003, 4.2827889E+002
 2.2005661E+001, 1.3421266E-001, 9.1180260E-002, 3.1616089E-002, 2.1438056E-004, 5.4938073E-005, 6.0030010E-003, 4.3078295E+002
 2.3008218E+001, 1.3060227E-001, 9.4566009E-002, 3.2574240E-002, 2.1950106E-004, 4.2130614E-005, 6.2267363E-003, 4.3359744E+002
 2.4008759E+001, 1.2709855E-001, 9.7848076E-002, 3.3504056E-002, 2.2643637E-004, 3.6251218E-005, 6.4440471E-003, 4.3476146E+002
 2.5005607E+001, 1.2565120E-001, 9.9205195E-002, 3.3888173E-002, 2.2860064E-004, 3.1373209E-005, 6.5337517E-003, 4.3406749E+002
 2.6000006E+001, 1.2250374E-001, 1.0215297E-001, 3.4723387E-002, 2.3504057E-004, 2.7597342E-005, 6.7289743E-003, 4.3564569E+002
 2.7008430E+001, 1.1989693E-001, 1.0459546E-001, 3.5415029E-002, 2.3960064E-004, 2.3596582E-005, 6.8905655E-003, 4.3532431E+002
 2.8001920E+001, 1.1824984E-001, 1.0613770E-001, 3.5852182E-002, 2.4331263E-004, 2.1528221E-005, 6.9927771E-003, 4.3427512E+002
 2.9009830E+001, 1.1616404E-001, 1.0809017E-001, 3.6405631E-002, 2.4805664E-004, 2.1125529E-005, 7.1221874E-003, 4.3556773E+002
 3.0000137E+001, 1.1522727E-001, 1.0896892E-001, 3.6654119E-002, 2.4902522E-004, 1.8444652E-005, 7.1801786E-003, 4.3259795E+002
 3.1007641E+001, 1.1268416E-001, 1.1135138E-001, 3.7328859E-002, 2.5366211E-004, 1.5192307E-005, 7.3378391E-003, 4.3450756E+002
 3.2004560E+001, 1.1055819E-001, 1.1334032E-001, 3.7892945E-002, 2.5908797E-004, 1.6964155E-005, 7.4697944E-003, 4.3499504E+002
 3.3004654E+001, 1.0757287E-001, 1.1613431E-001, 3.8684950E-002, 2.6593327E-004, 1.8409538E-005, 7.6549930E-003, 4.3647535E+002
 3.4009935E+001, 1.0500747E-001, 1.1852136E-001, 3.9366292E-002, 2.8083394E-004, 3.6746978E-005, 7.8151769E-003, 4.3767384E+002
 3.5002130E+001, 1.0252258E-001, 1.2084584E-001, 4.0025375E-002, 2.8688480E-004, 4.1384249E-005, 7.9693314E-003, 4.3863810E+002
 3.6001755E+001, 1.0162488E-001, 1.2169396E-001, 4.0263388E-002, 2.8429325E-004, 2.9511698E-005, 8.0245377E-003, 4.3660979E+002
 3.7009978E+001, 9.8249764E-002, 1.2481698E-001, 4.1160047E-002, 3.1400471E-004, 8.1194790E-005, 8.2363210E-003, 4.3985013E+002
 3.8004551E+001, 9.7931645E-002, 1.2511876E-001, 4.1244152E-002, 3.1197239E-004, 7.7097099E-005, 8.2557248E-003, 4.3724505E+002
 3.9005718E+001, 9.6421197E-002, 1.2646655E-001, 4.1646066E-002, 3.5391441E-004, 1.8006521E-004, 8.3534275E-003, 4.3514371E+002
 4.0010323E+001, 9.4151337E-002, 1.2848638E-001, 4.2251836E-002, 4.2321074E-004, 3.2778496E-004, 8.5012413E-003, 4.3544903E+002
 4.1005909E+001, 9.3205614E-002, 1.2930441E-001, 4.2503386E-002, 4.6356317E-004, 4.3765947E-004, 8.5637662E-003, 4.3373234E+002
 4.2000278E+001, 9.1782355E-002, 1.3051049E-001, 4.2884320E-002, 5.4231511E-004, 6.2397296E-004, 8.6601201E-003, 4.3317428E+002
 4.3000576E+001, 9.0278680E-002, 1.3168593E-001, 4.3284535E-002, 6.7602643E-004, 1.0117494E-003, 8.7663597E-003, 4.3064061E+002
 4.4000338E+001, 8.9916238E-002, 1.3206978E-001, 4.3384455E-002, 6.5894816E-004, 8.9999747E-004, 8.7879000E-003, 4.2815888E+002
 4.5008853E+001, 8.9068184E-002, 1.3283885E-001, 4.3605837E-002, 6.6804182E-004, 9.7644287E-004, 8.8404403E-003, 4.2672621E+002
 4.6009418E+001, 8.8293272E-002, 1.3354539E-001, 4.3813268E-002, 6.8344809E-004, 9.9180201E-004, 8.8902324E-003, 4.2511851E+002
 4.7002740E+001, 8.7166398E-002, 1.3442748E-001, 4.4110077E-002, 7.7741729E-004, 1.3094063E-003, 8.9685805E-003, 4.2303897E+002
 4.8011331E+001, 8.6407706E-002, 1.3509099E-001, 4.4310478E-002, 8.0327457E-004, 1.3981079E-003, 9.0178083E-003, 4.2434395E+002
 4.9000377E+001, 8.5724397E-002, 1.3540607E-001, 4.4500311E-002, 9.9916775E-004, 1.8771030E-003, 9.0809349E-003, 4.1931447E+002
 5.0007556E+001, 8.5154443E-002, 1.3586336E-001, 4.4645871E-002, 1.0323962E-003, 2.0610961E-003, 9.1182010E-003, 4.1858669E+002
 5.1011376E+001, 8.4549728E-002, 1.3633584E-001, 4.4812238E-002, 1.0959806E-003, 2.1669464E-003, 9.1630318E-003, 4.1512135E+002
 5.2006002E+001, 8.4064209E-002, 1.3660999E-001, 4.4941279E-002, 1.1969818E-003, 2.4752336E-003, 9.2029267E-003, 4.1400208E+002
 5.3006939E+001, 8.3497916E-002, 1.3700096E-001, 4.5091622E-002, 1.2751908E-003, 2.7138153E-003, 9.2455681E-003, 4.1226460E+002
 5.4005068E+001, 8.3126585E-002, 1.3730436E-001, 4.5197367E-002, 1.3133255E-003, 2.7225413E-003, 9.2737700E-003, 4.1403502E+002
 5.5007781E+001, 8.2603265E-002, 1.3761876E-001, 4.5325936E-002, 1.3929589E-003, 3.1203845E-003, 9.3116906E-003, 4.0948232E+002
 5.6011151E+001, 8.2264086E-002, 1.3773737E-001, 4.5415341E-002, 1.5024215E-003, 3.4681590E-003, 9.3431908E-003, 4.0902156E+002
 5.7002203E+001, 8.2017861E-002, 1.3801501E-001, 4.5475282E-002, 1.4673254E-003, 3.4372423E-003, 9.3538505E-003, 4.0645551E+002
 5.8002881E+001, 8.1680951E-002, 1.3811116E-001, 4.5564241E-002, 1.5882896E-003, 3.8185684E-003, 9.3863636E-003, 4.0613668E+002
 5.9002102E+001, 8.1336973E-002, 1.3842400E-001, 4.5654125E-002, 1.5916411E-003, 3.8471903E-003, 9.4076605E-003, 4.0449168E+002
 6.0006990E+001, 8.0831157E-002, 1.3883425E-001, 4.5777062E-002, 1.6075264E-003, 4.0610648E-003, 9.4380824E-003, 4.0344549E+002
 6.1003340E+001, 8.0416972E-002, 1.3901325E-001, 4.5886610E-002, 1.7230194E-003, 4.4234916E-003, 9.4748582E-003, 4.0270569E+002
 6.2002830E+001, 8.0038634E-002, 1.3926211E-001, 4.5975836E-002, 1.7620297E-003, 4.7087196E-003, 9.4996748E-003, 4.0158800E+002
 6.3008034E+001, 7.9925467E-002, 1.3933221E-001, 4.6000415E-002, 1.7723222E-003, 4.8211748E-003, 9.5065158E-003, 3.9951998E+002
 6.4002744E+001, 7.9763537E-002, 1.3931536E-001, 4.6031767E-002, 1.8448800E-003, 5.2193221E-003, 9.5211242E-003, 3.9843245E+002
 6.5004664E+001, 7.9548154E-002, 1.3935862E-001, 4.6079209E-002, 1.9154044E-003, 5.5823395E-003, 9.5392440E-003, 3.9724397E+002
 6.6010806E+001, 7.9313471E-002, 1.3958303E-001, 4.6145388E-002, 1.9203170E-003, 5.5377374E-003, 9.5550609E-003, 3.9648583E+002
 6.7002087E+001, 7.8973766E-002, 1.3972929E-001, 4.6225536E-002, 1.9980000E-003, 5.9263679E-003, 9.5815038E-003, 3.9456064E+002
 6.8004474E+001, 7.8899589E-002, 1.3972336E-001, 4.6234942E-002, 2.0213907E-003, 6.1518797E-003, 9.5861842E-003, 3.9302338E+002
 6.9001004E+001, 7.8836843E-002, 1.3984059E-001, 4.6252809E-002, 1.9914307E-003, 6.0398371E-003, 9.5874051E-003, 3.9387359E+002
 7.0000551E+001, 7.8211324E-002, 1.4011189E-001, 4.6396527E-002, 2.1264802E-003, 6.7880869E-003, 9.6344970E-003, 3.9264568E+002
 7.1002214E+001, 7.8437252E-002, 1.3992482E-001, 4.6334365E-002, 2.1085367E-003, 6.7667599E-003, 9.6183123E-003, 3.9154330E+002
 7.2003132E+001, 7.8195107E-002, 1.4015851E-001, 4.6390900E-002, 2.0914168E-003, 6.8265562E-003, 9.6299765E-003, 3.8973308E+002
 7.3010328E+001, 7.7726468E-002, 1.4038024E-001, 4.6511579E-002, 2.2056464E-003, 7.2340926E-003, 9.6692908E-003, 3.8918734E+002
 7.4011118E+001, 7.7546395E-002, 1.4046484E-001, 4.6547387E-002, 2.2309900E-003, 7.4901940E-003, 9.6803478E-003, 3.8890932E+002
 7.5011154E+001, 7.7112383E-002, 1.4078194E-001, 4.6653911E-002, 2.2657462E-003, 7.7241128E-003, 9.7087287E-003, 3.8899140E+002
 7.6005139E+001, 7.7161351E-002, 1.4072354E-001, 4.6642313E-002, 2.2750626E-003, 7.7327441E-003, 9.7069047E-003, 3.9025943E+002
 7.7003738E+001, 7.6962580E-002, 1.4081130E-001, 4.6671562E-002, 2.2877725E-003, 8.1209361E-003, 9.7154408E-003, 3.8703052E+002
 7.8008745E+001, 7.6847088E-002, 1.4083950E-001, 4.6698015E-002, 2.3246418E-003, 8.2975412E-003, 9.7252800E-003, 3.8692046E+002
 7.9009825E+001, 7.6597575E-002, 1.4097808E-001, 4.6744161E-002, 2.3417703E-003, 8.6480048E-003, 9.7381123E-003, 3.8579038E+002
 8.0005456E+001, 7.6485431E-002, 1.4098078E-001, 4.6770162E-002, 2.3917501E-003, 8.8590219E-003, 9.7491137E-003, 3.8623258E+002
 8.1010549E+001, 7.6510812E-002, 1.4090845E-001, 4.6751699E-002, 2.3975348E-003, 9.0519818E-003, 9.7456167E-003, 3.8475641E+002
 8.2003763E+001, 7.6152891E-002, 1.4118036E-001, 4.6856050E-002, 2.4499525E-003, 9.0731182E-003, 9.7748398E-003, 3.8484715E+002
 8.3010946E+001, 7.6282109E-002, 1.4098805E-001, 4.6797870E-002, 2.4463258E-003, 9.4187151E-003, 9.7614233E-003, 3.8498407E+002
 8.4006256E+001, 7.6245028E-002, 1.4097297E-001, 4.6789467E-002, 2.4412791E-003, 9.6744755E-003, 9.7593498E-003, 3.8266173E+002
 8.5006924E+001, 7.5924703E-002, 1.4118382E-001, 4.6870962E-002, 2.4848648E-003, 9.8602366E-003, 9.7826529E-003, 3.8379851E+002
 8.6008397E+001, 7.5822319E-002, 1.4123492E-001, 4.6892931E-002, 2.5004988E-003, 9.9856822E-003, 9.7894008E-003, 3.8387012E+002
 8.7001891E+001, 7.5873197E-002, 1.4119617E-001, 4.6875723E-002, 2.4888579E-003, 1.0004998E-002, 9.7843343E-003, 3.8217089E+002
 8.8005308E+001, 7.5574580E-002, 1.4127241E-001, 4.6942723E-002, 2.5798499E-003, 1.0468890E-002, 9.8090560E-003, 3.8291617E+002
 8.9001890E+001, 7.5608635E-002, 1.4127087E-001, 4.6919315E-002, 2.5373412E-003, 1.0550685E-002, 9.7997591E-003, 3.8053110E+002
 9.0008706E+001, 7.5404808E-002, 1.4134460E-001, 4.6971824E-002, 2.5995975E-003, 1.0766817E-002, 9.8180872E-003, 3.7999760E+002
 9.1002988E+001, 7.5570561E-002, 1.4124941E-001, 4.6919254E-002, 2.5507752E-003, 1.0743718E-002, 9.8012623E-003, 3.8035110E+002
 9.2001896E+001, 7.5069034E-002, 1.4138039E-001, 4.7029548E-002, 2.6979865E-003, 1.1538607E-002, 9.8417617E-003, 3.8107813E+002
 9.3011352E+001, 7.4896663E-002, 1.4151075E-001, 4.7085697E-002, 2.7340941E-003, 1.1494849E-002, 9.8581450E-003, 3.7954529E+002
 9.4010009E+001, 7.4987497E-002, 1.4149255E-001, 4.7061192E-002, 2.6962910E-003, 1.1383608E-002, 9.8487633E-003, 3.8063611E+002
 9.5009479E+001, 7.4927981E-002, 1.4148543E-001, 4.7060657E-002, 2.7019130E-003, 1.1643950E-002, 9.8495222E-003, 3.7860106E+002
 9.6003281E+001, 7.4835388E-002, 1.4154902E-001, 4.7072959E-002, 2.6929382E-003, 1.1798051E-002, 9.8517670E-003, 3.7958757E+002
 9.7009709E+001, 7.4660581E-002, 1.4149498E-001, 4.7121073E-002, 2.8165480E-003, 1.2156518E-002, 9.8749765E-003, 3.7905851E+002
 9.8009829E+001, 7.4642706E-002, 1.4155392E-001, 4.7114579E-002, 2.7732151E-003, 1.2188654E-002, 9.8694758E-003, 3.7627553E+002
 9.9002821E+001, 7.4608684E-002, 1.4137974E-001, 4.7116806E-002, 2.8748350E-003, 1.2606641E-002, 9.8800288E-003, 3.7943181E+002
 1.0000453E+002, 7.4225863E-002, 1.4172541E-001, 4.7199739E-002, 2.8493744E-003, 1.2802239E-002, 9.8972563E-003, 3.7789930E+002
 1.0100786E+002, 7.4201238E-002, 1.4172023E-001, 4.7198559E-002, 2.8512174E-003, 1.2922729E-002, 9.8973197E-003, 3.7922547E+002
 1.0200977E+002, 7.4244794E-002, 1.4158125E-001, 4.7152997E-002, 2.8445340E-003, 1.3408814E-002, 9.8867536E-003, 3.7795746E+002
 1.0300419E+002, 7.4212750E-002, 1.4161088E-001, 4.7181224E-002, 2.8800648E-003, 1.3225536E-002, 9.8963834E-003, 3.7688076E+002
 1.0400455E+002, 7.4211239E-002, 1.4167360E-001, 4.7183517E-002, 2.8496217E-003, 1.3102387E-002, 9.8939148E-003, 3.7667386E+002
 1.0500290E+002, 7.4132424E-002, 1.4157780E-001, 4.7174199E-002, 2.8893461E-003, 1.3676102E-002, 9.8962338E-003, 3.7466463E+002
 1.0600625E+002, 7.4084874E-002, 1.4162209E-001, 4.7193910E-002, 2.9022504E-003, 1.3610320E-002, 9.9019365E-003, 3.7556358E+002
 1.0700502E+002, 7.4189606E-002, 1.4150138E-001, 4.7151737E-002, 2.8888181E-003, 1.3783469E-002, 9.8910990E-003, 3.7476897E+002
 1.0800582E+002, 7.3974769E-002, 1.4160064E-001, 4.7200745E-002, 2.9312159E-003, 1.4033275E-002, 9.9068101E-003, 3.7427528E+002
 1.0901121E+002, 7.4199448E-002, 1.4141808E-001, 4.7142750E-002, 2.9182846E-003, 1.3970424E-002, 9.8920053E-003, 3.7491163E+002
 1.1000859E+002, 7.3863798E-002, 1.4157506E-001, 4.7212037E-002, 2.9704618E-003, 1.4425325E-002, 9.9136358E-003, 3.7556893E+002
 1.1100279E+002, 7.3802649E-002, 1.4159462E-001, 4.7209518E-002, 2.9578888E-003, 1.4664935E-002, 9.9122106E-003, 3.7573859E+002
 1.1201290E+002, 7.3709989E-002, 1.4161257E-001, 4.7239621E-002, 3.0059184E-003, 1.4731863E-002, 9.9237871E-003, 3.7445573E+002
 1.1300843E+002, 7.3958102E-002, 1.4140316E-001, 4.7182367E-002, 3.0080861E-003, 1.4612596E-002, 9.9104818E-003, 3.7370878E+002
 1.1400560E+002, 7.3914912E-002, 1.4142067E-001, 4.7186894E-002, 3.0084382E-003, 1.4716664E-002, 9.9117137E-003, 3.7345068E+002
 1.1500366E+002, 7.3946518E-002, 1.4133154E-001, 4.7166343E-002, 3.0194812E-003, 1.4932579E-002, 9.9082510E-003, 3.7436452E+002
 1.1600138E+002, 7.3702843E-002, 1.4148347E-001, 4.7219190E-002, 3.0409606E-003, 1.5173739E-002, 9.9228983E-003, 3.7297300E+002
 1.1700428E+002, 7.3792630E-002, 1.4133146E-001, 4.7186624E-002, 3.0626373E-003, 1.5372236E-002, 9.9176013E-003, 3.7322267E+002
 1.1800403E+002, 7.3904921E-002, 1.4123652E-001, 4.7155477E-002, 3.0543542E-003, 1.5367360E-002, 9.9095657E-003, 3.7147415E+002
 1.1900210E+002, 7.3601677E-002, 1.4134470E-001, 4.7214618E-002, 3.1138806E-003, 1.5868473E-002, 9.9295795E-003, 3.7081299E+002
 1.2000755E+002, 7.3709474E-002, 1.4128745E-001, 4.7184528E-002, 3.0868855E-003, 1.5807215E-002, 9.9199712E-003, 3.7297053E+002
 1.2100206E+002, 7.3675279E-002, 1.4131211E-001, 4.7190094E-002, 3.0847499E-003, 1.5852554E-002, 9.9211324E-003, 3.7260798E+002
 1.2200050E+002, 7.3798143E-002, 1.4111273E-001, 4.7140093E-002, 3.0999242E-003, 1.6160010E-002, 9.9113183E-003, 3.7086417E+002
 1.2300767E+002, 7.3747346E-002, 1.4106999E-001, 4.7143870E-002, 3.1325276E-003, 1.6405859E-002, 9.9155724E-003, 3.7301437E+002
 1.2400015E+002, 7.3788101E-002, 1.4101849E-001, 4.7146779E-002, 3.1643294E-003, 1.6300893E-002, 9.9190639E-003, 3.7174993E+002
 1.2500531E+002, 7.3918403E-002, 1.4081985E-001, 4.7091139E-002, 3.1686905E-003, 1.6629286E-002, 9.9069586E-003, 3.7118118E+002
 1.2600633E+002, 7.3878410E-002, 1.4077646E-001, 4.7090045E-002, 3.1924601E-003, 1.6877522E-002, 9.9092590E-003, 3.7088579E+002
 1.2700993E+002, 7.4074195E-002, 1.4060897E-001, 4.7040308E-002, 3.1872629E-003, 1.6829779E-002, 9.8971191E-003, 3.6998272E+002
 1.2800999E+002, 7.4159871E-002, 1.4045393E-001, 4.7017208E-002, 3.2277121E-003, 1.6962011E-002, 9.8956829E-003, 3.7031437E+002
 1.2900623E+002, 7.4110947E-002, 1.4048684E-001, 4.7015242E-002, 3.2082148E-003, 1.7123546E-002, 9.8936342E-003, 3.7061476E+002
 1.3000077E+002, 7.4030930E-002, 1.4056809E-001, 4.7041527E-002, 3.2139298E-003, 1.7065505E-002, 9.9002107E-003, 3.7100540E+002
 1.3101107E+002, 7.4259304E-002, 1.4031757E-001, 4.6960116E-002, 3.1964826E-003, 1.7322846E-002, 9.8799726E-003, 3.6677039E+002
 1.3200374E+002, 7.4405080E-002, 1.4009386E-001, 4.6899371E-002, 3.2048585E-003, 1.7678761E-002, 9.8670893E-003, 3.6524646E+002
 1.3300736E+002, 7.4166302E-002, 1.4026736E-001, 4.6972168E-002, 3.2498768E-003, 1.7676782E-002, 9.8882393E-003, 3.6650268E+002
 1.3400073E+002, 7.4285384E-002, 1.4005822E-001, 4.6939961E-002, 3.3024144E-003, 1.7850585E-002, 9.8858631E-003, 3.6950450E+002
 1.3500370E+002, 7.4391811E-002, 1.3995413E-001, 4.6910048E-002, 3.3016482E-003, 1.7873909E-002, 9.8788534E-003, 3.6737627E+002
 1.3600004E+002, 7.4257224E-002, 1.4003108E-001, 4.6956445E-002, 3.3481146E-003, 1.7858653E-002, 9.8939676E-003, 3.6853235E+002
 1.3700603E+002, 7.4494903E-002, 1.3983125E-001, 4.6868682E-002, 3.2909221E-003, 1.8049954E-002, 9.8684597E-003, 3.6399409E+002
 1.3800162E+002, 7.4576155E-002, 1.3958626E-001, 4.6821668E-002, 3.3384657E-003, 1.8578060E-002, 9.8626589E-003, 3.6435817E+002
 1.3901010E+002, 7.4370867E-002, 1.3980385E-001, 4.6873075E-002, 3.3194258E-003, 1.8562839E-002, 9.8728455E-003, 3.6507642E+002
 1.4000790E+002, 7.4696126E-002, 1.3945429E-001, 4.6785580E-002, 3.3414432E-003, 1.8651602E-002, 9.8546283E-003, 3.6636927E+002
 1.4100541E+002, 7.4690575E-002, 1.3940634E-001, 4.6770483E-002, 3.3411629E-003, 1.8897561E-002, 9.8514246E-003, 3.6667089E+002
 1.4200841E+002, 7.4687061E-002, 1.3941821E-001, 4.6775235E-002, 3.3432627E-003, 1.8847176E-002, 9.8526576E-003, 3.6461491E+002
 1.4300429E+002, 7.4736096E-002, 1.3927258E-001, 4.6761638E-002, 3.3971406E-003, 1.9024295E-002, 9.8547474E-003, 3.6442393E+002
 1.4401241E+002, 7.4456260E-002, 1.3951227E-001, 4.6839638E-002, 3.4167595E-003, 1.9027607E-002, 9.8747537E-003, 3.6635897E+002
 1.4500122E+002, 7.4658403E-002, 1.3928062E-001, 4.6771858E-002, 3.4144357E-003, 1.9232544E-002, 9.8590265E-003, 3.6486001E+002
 1.4600374E+002, 7.5013268E-002, 1.3898386E-001, 4.6660056E-002, 3.3625443E-003, 1.9336114E-002, 9.8282887E-003, 3.6504766E+002
 1.4700317E+002, 7.5116240E-002, 1.3873471E-001, 4.6611245E-002, 3.4082036E-003, 1.9799404E-002, 9.8218041E-003, 3.6309173E+002
 1.4801058E+002, 7.5138831E-002, 1.3875338E-001, 4.6601129E-002, 3.3788111E-003, 1.9769307E-002, 9.8166703E-003, 3.6254366E+002
 1.4900471E+002, 7.5039708E-002, 1.3884168E-001, 4.6632443E-002, 3.3904717E-003, 1.9730274E-002, 9.8249983E-003, 3.6517563E+002
 1.5001042E+002, 7.4893884E-002, 1.3890422E-001, 4.6671154E-002, 3.4316523E-003, 1.9857387E-002, 9.8380266E-003, 3.6560525E+002
 1.5101052E+002, 7.4970061E-002, 1.3895499E-001, 4.6667595E-002, 3.3938801E-003, 1.9492020E-002, 9.8331769E-003, 3.6662405E+002
 1.5200564E+002, 7.5345301E-002, 1.3851664E-001, 4.6542724E-002, 3.3958584E-003, 1.9877909E-002, 9.8047968E-003, 3.6470321E+002
 1.5300922E+002, 7.5273216E-002, 1.3838147E-001, 4.6519092E-002, 3.4314259E-003, 2.0625354E-002, 9.8036341E-003, 3.6313864E+002
 1.5401153E+002, 7.5466145E-002, 1.3820972E-001, 4.6483937E-002, 3.4547681E-003, 2.0460645E-002, 9.7973856E-003, 3.6505171E+002
