s,,,,,,,
Time,"O2 EXHAUST","CO2 EXHAUST","H2O EXHAUST","CO EXHAUST","FUEL EXHAUST","SOOT EXHAUST","TEMP EXHAUST"
 0.0000000E+000, 2.3099739E-001, 5.9146498E-004, 5.9412091E-003, 0.0000000E+000, 0.0000000E+000, 0.0000000E+000, 2.0000000E+001
 1.0030979E+000, 2.3099739E-001, 5.9146498E-004, 5.9412091E-003, 1.2042625E-026, 4.0904208E-026, 3.6344354E-027, 2.2024414E+001
 2.0005981E+000, 2.1973504E-001, 9.0162048E-003, 1.0809257E-002, 1.2687139E-004, 1.3562603E-004, 9.4063853E-005, 1.3017984E+002
 3.0055288E+000, 2.1033257E-001, 1.6106525E-002, 1.4868185E-002, 2.0318233E-004, 1.6897370E-004, 1.6663659E-004, 2.1129354E+002
 4.0045587E+000, 2.0105778E-001, 2.3185325E-002, 1.8850772E-002, 2.2402965E-004, 1.6621689E-004, 2.2711741E-004, 2.8321650E+002
 5.0045445E+000, 1.9219294E-001, 3.0009034E-002, 2.2643401E-002, 2.0726079E-004, 1.3590193E-004, 2.7744217E-004, 3.4489121E+002
 6.0006311E+000, 1.8226322E-001, 3.7731036E-002, 2.6872588E-002, 1.3850472E-004, 6.4795291E-005, 3.2362082E-004, 4.0460552E+002
 7.0068521E+000, 1.6754730E-001, 4.9074968E-002, 3.3163417E-002, 9.9431204E-005, 1.3491999E-005, 4.0485957E-004, 4.6933897E+002
 8.0055906E+000, 1.5494014E-001, 5.8738085E-002, 3.8565432E-002, 1.0053012E-004, 1.3471928E-007, 4.8150087E-004, 5.0570168E+002
 9.0068823E+000, 1.4153365E-001, 6.8987505E-002, 4.4316049E-002, 1.1824499E-004, 1.6418885E-007, 5.6637314E-004, 5.3885809E+002
 1.0008634E+001, 1.3527339E-001, 7.3771271E-002, 4.7001869E-002, 1.2794528E-004, 1.3735317E-006, 6.0629591E-004, 5.4283278E+002
 1.1007809E+001, 1.2216405E-001, 8.3795409E-002, 5.2624561E-002, 1.4405891E-004, 5.4299344E-007, 6.8904048E-004, 5.6012576E+002
 1.2006455E+001, 1.1363916E-001, 9.0311336E-002, 5.6281549E-002, 1.5620585E-004, 1.5924232E-006, 7.4318835E-004, 5.6619133E+002
 1.3005124E+001, 9.9485612E-002, 1.0112255E-001, 6.2354409E-002, 1.8049307E-004, 8.8913281E-006, 8.3392466E-004, 5.8262484E+002
 1.4008532E+001, 9.5089702E-002, 1.0449081E-001, 6.4238582E-002, 1.8181814E-004, 2.8428185E-006, 8.6084325E-004, 5.7494407E+002
 1.5005537E+001, 9.0169088E-002, 1.0808718E-001, 6.6379036E-002, 2.8569400E-004, 1.4463545E-004, 9.1175503E-004, 5.7520225E+002
 1.6005112E+001, 8.3255674E-002, 1.1207895E-001, 6.9571954E-002, 1.0518296E-003, 1.2864703E-003, 1.1090908E-003, 5.6410965E+002
 1.7001468E+001, 7.9503916E-002, 1.1450336E-001, 7.1291004E-002, 1.3407401E-003, 1.4817648E-003, 1.1907724E-003, 5.6014231E+002
 1.8002181E+001, 7.7823339E-002, 1.1526231E-001, 7.2092087E-002, 1.6413355E-003, 2.0218478E-003, 1.2618155E-003, 5.4941292E+002
 1.9008755E+001, 7.8222579E-002, 1.1565253E-001, 7.1817496E-002, 1.2483122E-003, 1.2906739E-003, 1.1798590E-003, 5.5215693E+002
 2.0000258E+001, 7.5596847E-002, 1.1705477E-001, 7.3072325E-002, 1.6228101E-003, 1.6877030E-003, 1.2719781E-003, 5.4444183E+002
 2.1000195E+001, 7.3647649E-002, 1.1753564E-001, 7.4063127E-002, 2.1986362E-003, 2.7195952E-003, 1.4003764E-003, 5.3153586E+002
 2.2001678E+001, 7.1600254E-002, 1.1870739E-001, 7.5017733E-002, 2.4371123E-003, 3.0223305E-003, 1.4612416E-003, 5.3390450E+002
 2.3005805E+001, 7.1188142E-002, 1.1896381E-001, 7.5228028E-002, 2.4896983E-003, 2.9303082E-003, 1.4746466E-003, 5.2767321E+002
 2.4004178E+001, 6.8751981E-002, 1.1984731E-001, 7.6455100E-002, 3.0734050E-003, 3.7326907E-003, 1.6079324E-003, 5.2712884E+002
 2.5000910E+001, 6.8629056E-002, 1.1915144E-001, 7.6648762E-002, 3.5373392E-003, 4.4171386E-003, 1.7028149E-003, 5.1819600E+002
 2.6005382E+001, 6.7338261E-002, 1.1980093E-001, 7.7239775E-002, 3.7196640E-003, 4.8510458E-003, 1.7474019E-003, 5.1393209E+002
 2.7008020E+001, 6.6690174E-002, 1.1976462E-001, 7.7600880E-002, 4.0237725E-003, 5.3847922E-003, 1.8129172E-003, 5.0419408E+002
 2.8004453E+001, 6.5707926E-002, 1.2071174E-001, 7.8043757E-002, 3.9530646E-003, 4.8644575E-003, 1.8051044E-003, 5.0709116E+002
 2.9008447E+001, 6.5642866E-002, 1.1970667E-001, 7.8237184E-002, 4.5551720E-003, 5.9190698E-003, 1.9274403E-003, 4.9575935E+002
 3.0003732E+001, 6.5237838E-002, 1.2002582E-001, 7.8353372E-002, 4.5074798E-003, 6.2568205E-003, 1.9196462E-003, 4.9454421E+002
 3.1003366E+001, 6.5105211E-002, 1.1946062E-001, 7.8544115E-002, 4.9104413E-003, 6.7420726E-003, 2.0023683E-003, 4.9037429E+002
 3.2004018E+001, 6.4603173E-002, 1.1994271E-001, 7.8735399E-002, 4.8484192E-003, 6.6973454E-003, 1.9927601E-003, 4.8988149E+002
 3.3009815E+001, 6.4639370E-002, 1.1918619E-001, 7.8760355E-002, 5.2079284E-003, 7.8837642E-003, 2.0645710E-003, 4.8477595E+002
 3.4003702E+001, 6.4195205E-002, 1.1940524E-001, 7.8985665E-002, 5.2894233E-003, 7.9059074E-003, 2.0839361E-003, 4.7701028E+002
 3.5006221E+001, 6.4535071E-002, 1.1821090E-001, 7.8958313E-002, 5.8007909E-003, 9.0150052E-003, 2.1851425E-003, 4.7191944E+002
 3.6001444E+001, 6.4127981E-002, 1.1830200E-001, 7.9209585E-002, 5.9591201E-003, 8.9742129E-003, 2.2201203E-003, 4.7641942E+002
 3.7001520E+001, 6.4144634E-002, 1.1817143E-001, 7.9155189E-002, 5.9761489E-003, 9.4992991E-003, 2.2227749E-003, 4.7140980E+002
 3.8000893E+001, 6.3985404E-002, 1.1768743E-001, 7.9295178E-002, 6.3042329E-003, 1.0249634E-002, 2.2899390E-003, 4.7124959E+002
 3.9002923E+001, 6.3696124E-002, 1.1786089E-001, 7.9430093E-002, 6.3343925E-003, 1.0276596E-002, 2.2978363E-003, 4.7082085E+002
 4.0004609E+001, 6.4061390E-002, 1.1711906E-001, 7.9286993E-002, 6.5528624E-003, 1.1104643E-002, 2.3392450E-003, 4.5952351E+002
 4.1003229E+001, 6.4906537E-002, 1.1649910E-001, 7.8872091E-002, 6.4999436E-003, 1.1377531E-002, 2.3228944E-003, 4.6313278E+002
 4.2007160E+001, 6.4123267E-002, 1.1631226E-001, 7.9328003E-002, 6.9468257E-003, 1.2183805E-002, 2.4181127E-003, 4.6242581E+002
 4.3007685E+001, 6.4816478E-002, 1.1583243E-001, 7.9009496E-002, 6.9071436E-003, 1.2216014E-002, 2.4057329E-003, 4.5152277E+002
 4.4000648E+001, 6.4600430E-002, 1.1571663E-001, 7.9113946E-002, 7.0431171E-003, 1.2697100E-002, 2.4342401E-003, 4.5469834E+002
 4.5002628E+001, 6.5241255E-002, 1.1484957E-001, 7.8825462E-002, 7.2019359E-003, 1.3525060E-002, 2.4617520E-003, 4.5154613E+002
 4.6000678E+001, 6.5446818E-002, 1.1469541E-001, 7.8683687E-002, 7.1593793E-003, 1.3851183E-002, 2.4513267E-003, 4.4900734E+002
 4.7008867E+001, 6.5853724E-002, 1.1438948E-001, 7.8461741E-002, 7.1203180E-003, 1.4134693E-002, 2.4404574E-003, 4.4472315E+002
 4.8004588E+001, 6.5794737E-002, 1.1408950E-001, 7.8553635E-002, 7.3268455E-003, 1.4402623E-002, 2.4827731E-003, 4.4129831E+002
 4.9003611E+001, 6.6140201E-002, 1.1340010E-001, 7.8417068E-002, 7.5270284E-003, 1.5169279E-002, 2.5206393E-003, 4.3973241E+002
 5.0007615E+001, 6.6187557E-002, 1.1316200E-001, 7.8405394E-002, 7.6245991E-003, 1.5513877E-002, 2.5398697E-003, 4.3708016E+002
 5.1008124E+001, 6.6440611E-002, 1.1265422E-001, 7.8339163E-002, 7.7983028E-003, 1.5871534E-002, 2.5734408E-003, 4.3763345E+002
 5.2005560E+001, 6.6583973E-002, 1.1250093E-001, 7.8244174E-002, 7.7922338E-003, 1.6165173E-002, 2.5709170E-003, 4.3535690E+002
 5.3002778E+001, 6.6816628E-002, 1.1201156E-001, 7.8149155E-002, 7.9360337E-003, 1.6749824E-002, 2.5981644E-003, 4.3340330E+002
 5.4002305E+001, 6.6792510E-002, 1.1147948E-001, 7.8177281E-002, 8.1978801E-003, 1.7725248E-002, 2.6506175E-003, 4.3272091E+002
 5.5003317E+001, 6.7105691E-002, 1.1144313E-001, 7.7982473E-002, 8.0597163E-003, 1.7699390E-002, 2.6204356E-003, 4.3041714E+002
 5.6001019E+001, 6.6863922E-002, 1.1122646E-001, 7.8111794E-002, 8.2606382E-003, 1.8332421E-002, 2.6621988E-003, 4.2973049E+002
 5.7003802E+001, 6.7023874E-002, 1.1101605E-001, 7.7980249E-002, 8.2521016E-003, 1.8896050E-002, 2.6586908E-003, 4.3129829E+002
 5.8009471E+001, 6.7088079E-002, 1.1113903E-001, 7.7887919E-002, 8.1249552E-003, 1.8958106E-002, 2.6321528E-003, 4.2932605E+002
 5.9005884E+001, 6.7013781E-002, 1.1091860E-001, 7.7925577E-002, 8.2544805E-003, 1.9468921E-002, 2.6584376E-003, 4.2721791E+002
 6.0006648E+001, 6.7300569E-002, 1.1054841E-001, 7.7743308E-002, 8.2769146E-003, 2.0133615E-002, 2.6603678E-003, 4.2721271E+002
 6.1001907E+001, 6.7392152E-002, 1.1060789E-001, 7.7601278E-002, 8.1399386E-003, 2.0514735E-002, 2.6312024E-003, 4.2741278E+002
 6.2004402E+001, 6.7695016E-002, 1.1046219E-001, 7.7475053E-002, 8.1036463E-003, 2.0322622E-002, 2.6221969E-003, 4.2372279E+002
 6.3005337E+001, 6.7738737E-002, 1.1035806E-001, 7.7388176E-002, 8.0834488E-003, 2.0884052E-002, 2.6170061E-003, 4.2463432E+002
 6.4007897E+001, 6.8058715E-002, 1.1007999E-001, 7.7187444E-002, 8.0496308E-003, 2.1343233E-002, 2.6074924E-003, 4.2446036E+002
 6.5003649E+001, 6.8059825E-002, 1.0975863E-001, 7.7213099E-002, 8.2141029E-003, 2.1813356E-002, 2.6405405E-003, 4.2063967E+002
 6.6005147E+001, 6.8486982E-002, 1.0976098E-001, 7.6914993E-002, 7.9775004E-003, 2.1876416E-002, 2.5893658E-003, 4.2164660E+002
 6.7004786E+001, 6.8817221E-002, 1.0949971E-001, 7.6645955E-002, 7.8837544E-003, 2.2682869E-002, 2.5670200E-003, 4.2151038E+002
 6.8008186E+001, 6.8837883E-002, 1.0948091E-001, 7.6607493E-002, 7.8624808E-003, 2.2872160E-002, 2.5622692E-003, 4.2038426E+002
 6.9009842E+001, 6.9314099E-002, 1.0943963E-001, 7.6246442E-002, 7.5965729E-003, 2.3206851E-002, 2.5044100E-003, 4.1995180E+002
 7.0007531E+001, 6.9406690E-002, 1.0927748E-001, 7.6128484E-002, 7.5779004E-003, 2.3871692E-002, 2.4990908E-003, 4.1978508E+002
 7.1003662E+001, 6.9668003E-002, 1.0897912E-001, 7.5916543E-002, 7.5457548E-003, 2.4684637E-002, 2.4897802E-003, 4.1981891E+002
 7.2003275E+001, 6.9879940E-002, 1.0915869E-001, 7.5734148E-002, 7.3215809E-003, 2.4577769E-002, 2.4426951E-003, 4.1670589E+002
 7.3003782E+001, 6.9894900E-002, 1.0898360E-001, 7.5733220E-002, 7.3995489E-003, 2.4866484E-002, 2.4581819E-003, 4.1688709E+002
 7.4008290E+001, 7.0364277E-002, 1.0894188E-001, 7.5332406E-002, 7.1036032E-003, 2.5476849E-002, 2.3938212E-003, 4.1896097E+002
 7.5003464E+001, 7.0663896E-002, 1.0875398E-001, 7.5107057E-002, 7.0107037E-003, 2.5995508E-002, 2.3722373E-003, 4.1651084E+002
 7.6001751E+001, 7.1137383E-002, 1.0864578E-001, 7.4799555E-002, 6.8159158E-003, 2.6141806E-002, 2.3292363E-003, 4.1570547E+002
 7.7002589E+001, 7.1193742E-002, 1.0865090E-001, 7.4731592E-002, 6.7606679E-003, 2.6318013E-002, 2.3173236E-003, 4.1428602E+002
 7.8002845E+001, 7.1325401E-002, 1.0874881E-001, 7.4576491E-002, 6.5956414E-003, 2.6537415E-002, 2.2823920E-003, 4.1258867E+002
 7.9003100E+001, 7.1816589E-002, 1.0845787E-001, 7.4238054E-002, 6.4593034E-003, 2.7161977E-002, 2.2505952E-003, 4.1259757E+002
 8.0003376E+001, 7.2001717E-002, 1.0852432E-001, 7.4057205E-002, 6.2878163E-003, 2.7380254E-002, 2.2140169E-003, 4.1168102E+002
 8.1010594E+001, 7.2077920E-002, 1.0819162E-001, 7.3962561E-002, 6.3641503E-003, 2.8305225E-002, 2.2279070E-003, 4.1406052E+002
 8.2004911E+001, 7.2258627E-002, 1.0846096E-001, 7.3785425E-002, 6.1040905E-003, 2.8118818E-002, 2.1737667E-003, 4.1020400E+002
 8.3010548E+001, 7.2478569E-002, 1.0848162E-001, 7.3614001E-002, 5.9598042E-003, 2.8224021E-002, 2.1427113E-003, 4.1442039E+002
 8.4002294E+001, 7.2634654E-002, 1.0848543E-001, 7.3359236E-002, 5.7606516E-003, 2.9144643E-002, 2.0996551E-003, 4.1254567E+002
 8.5001608E+001, 7.3027040E-002, 1.0828761E-001, 7.3143772E-002, 5.6780558E-003, 2.9235274E-002, 2.0802202E-003, 4.0930250E+002
 8.6004091E+001, 7.3086476E-002, 1.0815150E-001, 7.3106214E-002, 5.7096502E-003, 2.9488795E-002, 2.0859813E-003, 4.0998041E+002
 8.7009096E+001, 7.3391318E-002, 1.0817199E-001, 7.2959966E-002, 5.5830963E-003, 2.9084789E-002, 2.0587589E-003, 4.0879570E+002
 8.8004222E+001, 7.3473922E-002, 1.0810589E-001, 7.2795371E-002, 5.4856832E-003, 2.9890726E-002, 2.0371628E-003, 4.0794849E+002
 8.9003725E+001, 7.3483086E-002, 1.0815848E-001, 7.2719118E-002, 5.4035686E-003, 3.0221209E-002, 2.0198131E-003, 4.1012376E+002
 9.0007433E+001, 7.3529205E-002, 1.0826652E-001, 7.2629985E-002, 5.2859340E-003, 3.0368251E-002, 1.9952154E-003, 4.1013684E+002
 9.1011000E+001, 7.3649680E-002, 1.0823702E-001, 7.2461680E-002, 5.1684830E-003, 3.0967273E-002, 1.9695721E-003, 4.1218421E+002
 9.2004796E+001, 7.3779052E-002, 1.0811440E-001, 7.2351871E-002, 5.1375262E-003, 3.1350498E-002, 1.9619063E-003, 4.0971419E+002
 9.3008883E+001, 7.3757000E-002, 1.0814338E-001, 7.2387833E-002, 5.1523304E-003, 3.1162430E-002, 1.9653377E-003, 4.0896513E+002
 9.4000852E+001, 7.3667241E-002, 1.0827273E-001, 7.2361654E-002, 5.0756723E-003, 3.1443342E-002, 1.9497753E-003, 4.0851855E+002
 9.5004772E+001, 7.3836318E-002, 1.0824615E-001, 7.2200505E-002, 4.9614741E-003, 3.1789879E-002, 1.9248577E-003, 4.1078927E+002
 9.6008692E+001, 7.3887291E-002, 1.0817140E-001, 7.2133895E-002, 4.9433681E-003, 3.2137604E-002, 1.9203507E-003, 4.1005098E+002
 9.7006695E+001, 7.3818528E-002, 1.0826423E-001, 7.2155708E-002, 4.9194408E-003, 3.2105815E-002, 1.9159074E-003, 4.0800559E+002
 9.8002224E+001, 7.3792704E-002, 1.0834693E-001, 7.2148832E-002, 4.8773745E-003, 3.2092870E-002, 1.9074593E-003, 4.0993265E+002
 9.9010745E+001, 7.3905937E-002, 1.0825235E-001, 7.2001012E-002, 4.8050493E-003, 3.2723510E-002, 1.8910654E-003, 4.0961601E+002
 1.0000208E+002, 7.3989935E-002, 1.0809051E-001, 7.1934083E-002, 4.8253625E-003, 3.3107412E-002, 1.8941828E-003, 4.1470248E+002
 1.0100327E+002, 7.4045891E-002, 1.0804172E-001, 7.1934999E-002, 4.8470260E-003, 3.2964905E-002, 1.8984837E-003, 4.0907613E+002
 1.0201195E+002, 7.4210123E-002, 1.0798864E-001, 7.1791792E-002, 4.7585649E-003, 3.3272713E-002, 1.8789251E-003, 4.0751334E+002
 1.0300271E+002, 7.4164682E-002, 1.0789182E-001, 7.1875005E-002, 4.8666074E-003, 3.3137408E-002, 1.9015361E-003, 4.0653559E+002
 1.0400641E+002, 7.4100636E-002, 1.0801640E-001, 7.1831339E-002, 4.7782728E-003, 3.3428981E-002, 1.8834095E-003, 4.0821465E+002
 1.0500193E+002, 7.3916153E-002, 1.0806371E-001, 7.1850645E-002, 4.7750915E-003, 3.3984399E-002, 1.8830979E-003, 4.1188025E+002
 1.0600464E+002, 7.4160543E-002, 1.0772130E-001, 7.1674317E-002, 4.7903153E-003, 3.4734069E-002, 1.8836880E-003, 4.0995820E+002
 1.0700524E+002, 7.3807801E-002, 1.0804809E-001, 7.1881190E-002, 4.8074629E-003, 3.4277238E-002, 1.8899799E-003, 4.1181760E+002
 1.0800315E+002, 7.3929969E-002, 1.0805947E-001, 7.1836738E-002, 4.7661285E-003, 3.4021378E-002, 1.8811252E-003, 4.0993861E+002
 1.0900146E+002, 7.3932317E-002, 1.0813169E-001, 7.1766575E-002, 4.6799417E-003, 3.4303825E-002, 1.8630493E-003, 4.0995801E+002
 1.1000325E+002, 7.3994308E-002, 1.0800913E-001, 7.1749074E-002, 4.7206929E-003, 3.4395730E-002, 1.8708980E-003, 4.0933393E+002
 1.1100669E+002, 7.4035867E-002, 1.0797922E-001, 7.1732453E-002, 4.7207182E-003, 3.4384589E-002, 1.8706670E-003, 4.1035849E+002
 1.1200376E+002, 7.4111376E-002, 1.0761189E-001, 7.1660147E-002, 4.8297394E-003, 3.5242365E-002, 1.8913555E-003, 4.0993638E+002
 1.1300622E+002, 7.4138120E-002, 1.0770984E-001, 7.1611671E-002, 4.7480617E-003, 3.5238136E-002, 1.8744573E-003, 4.0993312E+002
 1.1401076E+002, 7.4334564E-002, 1.0745687E-001, 7.1540370E-002, 4.8040464E-003, 3.5360516E-002, 1.8845711E-003, 4.0847866E+002
 1.1500502E+002, 7.4030461E-002, 1.0784968E-001, 7.1730582E-002, 4.7777994E-003, 3.4674131E-002, 1.8819948E-003, 4.0697360E+002
 1.1601119E+002, 7.4181679E-002, 1.0754946E-001, 7.1646505E-002, 4.8461739E-003, 3.5157191E-002, 1.8944174E-003, 4.0783234E+002
 1.1701027E+002, 7.3824266E-002, 1.0772529E-001, 7.1782446E-002, 4.8773046E-003, 3.5456865E-002, 1.9025448E-003, 4.1061214E+002
 1.1800550E+002, 7.4066644E-002, 1.0749424E-001, 7.1641022E-002, 4.8690096E-003, 3.5779112E-002, 1.8989247E-003, 4.1059756E+002
 1.1900153E+002, 7.3988856E-002, 1.0763903E-001, 7.1715354E-002, 4.8619262E-003, 3.5357122E-002, 1.8985349E-003, 4.0818275E+002
 1.2000054E+002, 7.3677991E-002, 1.0791488E-001, 7.1827800E-002, 4.8291578E-003, 3.5411264E-002, 1.8936261E-003, 4.1191972E+002
 1.2100306E+002, 7.3897000E-002, 1.0757744E-001, 7.1690051E-002, 4.8720701E-003, 3.6017848E-002, 1.9002458E-003, 4.1002591E+002
 1.2200318E+002, 7.3814848E-002, 1.0773674E-001, 7.1731700E-002, 4.8335645E-003, 3.5787861E-002, 1.8931729E-003, 4.0818884E+002
 1.2300034E+002, 7.3997280E-002, 1.0733113E-001, 7.1630386E-002, 4.9357170E-003, 3.6455515E-002, 1.9120717E-003, 4.0787190E+002
 1.2400837E+002, 7.3782858E-002, 1.0755427E-001, 7.1742848E-002, 4.9249476E-003, 3.6211851E-002, 1.9115046E-003, 4.1099565E+002
 1.2500751E+002, 7.3898580E-002, 1.0745687E-001, 7.1675520E-002, 4.9153137E-003, 3.6339048E-002, 1.9086506E-003, 4.1304907E+002
 1.2601220E+002, 7.3905849E-002, 1.0748241E-001, 7.1640411E-002, 4.8768526E-003, 3.6475903E-002, 1.9005314E-003, 4.1015061E+002
 1.2700123E+002, 7.3819780E-002, 1.0748825E-001, 7.1686981E-002, 4.9113735E-003, 3.6534346E-002, 1.9080471E-003, 4.1023107E+002
 1.2800955E+002, 7.3856507E-002, 1.0732064E-001, 7.1661462E-002, 4.9667827E-003, 3.6869975E-002, 1.9187123E-003, 4.1136807E+002
 1.2900283E+002, 7.3877505E-002, 1.0740619E-001, 7.1593092E-002, 4.8756097E-003, 3.7037361E-002, 1.8996624E-003, 4.1296746E+002
 1.3000705E+002, 7.3754705E-002, 1.0758782E-001, 7.1704578E-002, 4.8811135E-003, 3.6500000E-002, 1.9022869E-003, 4.1085998E+002
 1.3100049E+002, 7.3782552E-002, 1.0741532E-001, 7.1727696E-002, 4.9760363E-003, 3.6580979E-002, 1.9214618E-003, 4.0953402E+002
 1.3201213E+002, 7.3805629E-002, 1.0740398E-001, 7.1680663E-002, 4.9448057E-003, 3.6798579E-002, 1.9146158E-003, 4.0768896E+002
 1.3300455E+002, 7.3668829E-002, 1.0752548E-001, 7.1766190E-002, 4.9578615E-003, 3.6598910E-002, 1.9184004E-003, 4.0951859E+002
 1.3400305E+002, 7.3907419E-002, 1.0728567E-001, 7.1588326E-002, 4.9257600E-003, 3.7179955E-002, 1.9095612E-003, 4.0505607E+002
 1.3500117E+002, 7.3652499E-002, 1.0745048E-001, 7.1781376E-002, 5.0035788E-003, 3.6720744E-002, 1.9276998E-003, 4.1340732E+002
 1.3600307E+002, 7.3788810E-002, 1.0728856E-001, 7.1701856E-002, 5.0133441E-003, 3.6964930E-002, 1.9285336E-003, 4.0645380E+002
 1.3700767E+002, 7.3556435E-002, 1.0751199E-001, 7.1796504E-002, 4.9891697E-003, 3.6905809E-002, 1.9250693E-003, 4.1095499E+002
 1.3800845E+002, 7.3587266E-002, 1.0733506E-001, 7.1755842E-002, 5.0373317E-003, 3.7378198E-002, 1.9340933E-003, 4.1393180E+002
 1.3900111E+002, 7.3760182E-002, 1.0726137E-001, 7.1703832E-002, 5.0276438E-003, 3.7125544E-002, 1.9314134E-003, 4.0858115E+002
 1.4000562E+002, 7.3679871E-002, 1.0720193E-001, 7.1716875E-002, 5.0658912E-003, 3.7496424E-002, 1.9392207E-003, 4.0966058E+002
 1.4101114E+002, 7.3693993E-002, 1.0728846E-001, 7.1668203E-002, 4.9894453E-003, 3.7568496E-002, 1.9233646E-003, 4.1088594E+002
 1.4200547E+002, 7.3638478E-002, 1.0731629E-001, 7.1715774E-002, 5.0142501E-003, 3.7450134E-002, 1.9289511E-003, 4.1032887E+002
 1.4301258E+002, 7.3655075E-002, 1.0727300E-001, 7.1695689E-002, 5.0181241E-003, 3.7590788E-002, 1.9294477E-003, 4.1132122E+002
 1.4400059E+002, 7.3607146E-002, 1.0745581E-001, 7.1755533E-002, 4.9822772E-003, 3.7059193E-002, 1.9231345E-003, 4.1294008E+002
 1.4500494E+002, 7.3849601E-002, 1.0711414E-001, 7.1592390E-002, 5.0072747E-003, 3.7733802E-002, 1.9258449E-003, 4.0868857E+002
 1.4600782E+002, 7.3753276E-002, 1.0722962E-001, 7.1686423E-002, 5.0287931E-003, 3.7324746E-002, 1.9314119E-003, 4.0618946E+002
 1.4700054E+002, 7.3757190E-002, 1.0720159E-001, 7.1697269E-002, 5.0496406E-003, 3.7296531E-002, 1.9357010E-003, 4.0338354E+002
 1.4801213E+002, 7.3650027E-002, 1.0719852E-001, 7.1701463E-002, 5.0562098E-003, 3.7722902E-002, 1.9371001E-003, 4.1024004E+002
 1.4901183E+002, 7.3625296E-002, 1.0718445E-001, 7.1753792E-002, 5.1029739E-003, 3.7529499E-002, 1.9471062E-003, 4.0667700E+002
 1.5000439E+002, 7.3695459E-002, 1.0705091E-001, 7.1688372E-002, 5.1119335E-003, 3.7905862E-002, 1.9479907E-003, 4.1353187E+002
 1.5100102E+002, 7.3517690E-002, 1.0728251E-001, 7.1841037E-002, 5.1273686E-003, 3.7243817E-002, 1.9531585E-003, 4.0905510E+002
 1.5200323E+002, 7.3917507E-002, 1.0688885E-001, 7.1623462E-002, 5.1313319E-003, 3.7702755E-002, 1.9509057E-003, 4.0338426E+002
 1.5300110E+002, 7.3930223E-002, 1.0680686E-001, 7.1595089E-002, 5.1464005E-003, 3.7987238E-002, 1.9535191E-003, 4.1052362E+002
 1.5400637E+002, 7.3739714E-002, 1.0701059E-001, 7.1647991E-002, 5.0984582E-003, 3.8051214E-002, 1.9447570E-003, 4.1267696E+002
