s,,,,,,,
Time,"O2 EXHAUST","CO2 EXHAUST","H2O EXHAUST","CO EXHAUST","FUEL EXHAUST","SOOT EXHAUST","TEMP EXHAUST"
 0.0000000E+000, 2.3099739E-001, 5.9146498E-004, 5.9412092E-003, 0.0000000E+000, 0.0000000E+000, 0.0000000E+000, 2.0000000E+001
 1.0018918E+000, 2.3099739E-001, 5.9146498E-004, 5.9412092E-003, 9.8468454E-024, 1.1451249E-023, 2.3960256E-023, 2.2443618E+001
 2.0011177E+000, 2.2087994E-001, 8.6832191E-003, 9.7814124E-003, 1.4946211E-004, 1.1415688E-004, 2.9967177E-004, 1.1828328E+002
 3.0003892E+000, 2.1248819E-001, 1.5318351E-002, 1.2990059E-002, 3.3410671E-004, 1.9092658E-004, 5.5871082E-004, 1.9299332E+002
 4.0023174E+000, 2.0458601E-001, 2.1782358E-002, 1.5966110E-002, 3.5741615E-004, 1.6948805E-004, 7.7749570E-004, 2.5850763E+002
 5.0013022E+000, 2.0014859E-001, 2.5390307E-002, 1.7641492E-002, 3.8535493E-004, 1.6973631E-004, 9.0281373E-004, 2.9224703E+002
 6.0031272E+000, 1.8662849E-001, 3.6497996E-002, 2.2722250E-002, 3.9069789E-004, 1.1854355E-004, 1.2713286E-003, 3.6946204E+002
 7.0051074E+000, 1.7802314E-001, 4.3622139E-002, 2.5944605E-002, 3.5620329E-004, 6.2879839E-005, 1.4995519E-003, 4.2052596E+002
 8.0032759E+000, 1.6800623E-001, 5.1859697E-002, 2.9706531E-002, 3.5391688E-004, 2.6227382E-005, 1.7715059E-003, 4.5185594E+002
 9.0044249E+000, 1.6029250E-001, 5.8192853E-002, 3.2605549E-002, 3.5926360E-004, 3.2067327E-006, 1.9821116E-003, 4.8067274E+002
 1.0004045E+001, 1.4956222E-001, 6.6941363E-002, 3.6650803E-002, 4.0909052E-004, 2.1306266E-007, 2.2821391E-003, 4.9665367E+002
 1.1005304E+001, 1.4277419E-001, 7.2472759E-002, 3.9210408E-002, 4.4260782E-004, 7.1574342E-008, 2.4722684E-003, 5.1120600E+002
 1.2002679E+001, 1.3290817E-001, 8.0509550E-002, 4.2931343E-002, 4.9337105E-004, 3.1106704E-007, 2.7489577E-003, 5.2697024E+002
 1.3003118E+001, 1.2513331E-001, 8.6845677E-002, 4.5862902E-002, 5.3131788E-004, 1.1260814E-007, 2.9666520E-003, 5.3099516E+002
 1.4003135E+001, 1.2075792E-001, 9.0409579E-002, 4.7513138E-002, 5.5402930E-004, 1.9467786E-007, 3.0893924E-003, 5.3183453E+002
 1.5000550E+001, 1.1327910E-001, 9.6503673E-002, 5.0333259E-002, 5.9109476E-004, 2.0514563E-007, 3.2988929E-003, 5.3979240E+002
 1.6001593E+001, 1.0853015E-001, 1.0037232E-001, 5.2124269E-002, 6.1539738E-004, 2.3812238E-007, 3.4320536E-003, 5.4125879E+002
 1.7006179E+001, 1.0227477E-001, 1.0546838E-001, 5.4483337E-002, 6.4722584E-004, 3.6464151E-007, 3.6074227E-003, 5.4539330E+002
 1.8006665E+001, 1.0339607E-001, 1.0455461E-001, 5.4060536E-002, 6.4172956E-004, 3.9647222E-007, 3.5760226E-003, 5.4385905E+002
 1.9003931E+001, 9.6888622E-002, 1.0985019E-001, 5.6516153E-002, 6.7917051E-004, 1.2646880E-006, 3.7591938E-003, 5.4255769E+002
 2.0004580E+001, 9.1619079E-002, 1.1413384E-001, 5.8505846E-002, 7.1291069E-004, 2.2219923E-006, 3.9081036E-003, 5.4376135E+002
 2.1003196E+001, 8.6639488E-002, 1.1816681E-001, 6.0389820E-002, 7.5585162E-004, 5.4062897E-006, 4.0506952E-003, 5.4560922E+002
 2.2004121E+001, 8.6360231E-002, 1.1838410E-001, 6.0497726E-002, 7.6483543E-004, 6.7736212E-006, 4.0598081E-003, 5.3989335E+002
 2.3002834E+001, 8.5908205E-002, 1.1875674E-001, 6.0667022E-002, 7.6382469E-004, 6.6298919E-006, 4.0719158E-003, 5.3702184E+002
 2.4003682E+001, 7.7699824E-002, 1.2541158E-001, 6.3771032E-002, 8.2971765E-004, 9.5377664E-006, 4.3061432E-003, 5.4168954E+002
 2.5002722E+001, 7.4556684E-002, 1.2797306E-001, 6.4956192E-002, 8.4508941E-004, 9.3708160E-006, 4.3941563E-003, 5.4426566E+002
 2.6002835E+001, 7.0562794E-002, 1.3122234E-001, 6.6463499E-002, 8.6866743E-004, 1.0137789E-005, 4.5066769E-003, 5.4591414E+002
 2.7007000E+001, 6.6504384E-002, 1.3449737E-001, 6.8002101E-002, 9.1259044E-004, 1.3375038E-005, 4.6244116E-003, 5.4839221E+002
 2.8004288E+001, 6.4659197E-002, 1.3599026E-001, 6.8700841E-002, 9.2987905E-004, 1.3058492E-005, 4.6774936E-003, 5.4732886E+002
 2.9004750E+001, 6.0800474E-002, 1.3912608E-001, 7.0157816E-002, 9.5504312E-004, 1.5706363E-005, 4.7866016E-003, 5.4510862E+002
 3.0005524E+001, 5.6491573E-002, 1.4264131E-001, 7.1781699E-002, 9.7346394E-004, 1.4267615E-005, 4.9068122E-003, 5.4912919E+002
 3.1005720E+001, 5.6549231E-002, 1.4258047E-001, 7.1763448E-002, 9.8341682E-004, 1.6286647E-005, 4.9069341E-003, 5.4674430E+002
 3.2002515E+001, 5.1893063E-002, 1.4636396E-001, 7.3522210E-002, 1.0146524E-003, 1.5431154E-005, 5.0387647E-003, 5.4631437E+002
 3.3005623E+001, 5.0813797E-002, 1.4729323E-001, 7.3916207E-002, 9.8276043E-004, 1.1060789E-005, 5.0626609E-003, 5.5060044E+002
 3.4000366E+001, 4.7524212E-002, 1.4991441E-001, 7.5172373E-002, 1.0436796E-003, 1.4311371E-005, 5.1624145E-003, 5.4814161E+002
 3.5000923E+001, 4.4203177E-002, 1.5261550E-001, 7.6425879E-002, 1.0638006E-003, 1.5480686E-005, 5.2560633E-003, 5.5232790E+002
 3.6008947E+001, 4.0890287E-002, 1.5529962E-001, 7.7679281E-002, 1.0918817E-003, 1.5644227E-005, 5.3508576E-003, 5.5015709E+002
 3.7008387E+001, 4.0354133E-002, 1.5575382E-001, 7.7876901E-002, 1.0815529E-003, 1.4434802E-005, 5.3636650E-003, 5.5312083E+002
 3.8003652E+001, 3.6876777E-002, 1.5853169E-001, 7.9202898E-002, 1.1406345E-003, 1.7464384E-005, 5.4682069E-003, 5.5085455E+002
 3.9001407E+001, 3.3406864E-002, 1.6141052E-001, 8.0497821E-002, 1.1192947E-003, 1.3906192E-005, 5.5588444E-003, 5.5830898E+002
 4.0002865E+001, 3.1335860E-002, 1.6303577E-001, 8.1295429E-002, 1.1765688E-003, 1.6244667E-005, 5.6248774E-003, 5.6017869E+002
 4.1008959E+001, 2.6893613E-002, 1.6659912E-001, 8.2985379E-002, 1.2409117E-003, 1.9926643E-005, 5.7565261E-003, 5.5994417E+002
 4.2006013E+001, 2.7271213E-002, 1.6628701E-001, 8.2844379E-002, 1.2425819E-003, 1.8700706E-005, 5.7465615E-003, 5.5613001E+002
 4.3008892E+001, 2.4805820E-002, 1.6837072E-001, 8.3754142E-002, 1.1984904E-003, 1.5040744E-005, 5.8060232E-003, 5.6139003E+002
 4.4003481E+001, 2.1603290E-002, 1.7086049E-001, 8.4994008E-002, 1.3049537E-003, 1.8176241E-005, 5.9111958E-003, 5.6547286E+002
 4.5004013E+001, 2.1613704E-002, 1.7091799E-001, 8.4972196E-002, 1.2548839E-003, 1.7270383E-005, 5.9023620E-003, 5.5936734E+002
 4.6002244E+001, 1.8508903E-002, 1.7343829E-001, 8.6145667E-002, 1.2776738E-003, 1.6723386E-005, 5.9906037E-003, 5.6295748E+002
 4.7000545E+001, 1.7338247E-002, 1.7433603E-001, 8.6602244E-002, 1.3259706E-003, 1.8036708E-005, 6.0306505E-003, 5.6494620E+002
 4.8007794E+001, 1.5430883E-002, 1.7586469E-001, 8.7328058E-002, 1.3544472E-003, 2.0733945E-005, 6.0873146E-003, 5.6441093E+002
 4.9002136E+001, 1.3884605E-002, 1.7704797E-001, 8.7931977E-002, 1.4203053E-003, 2.1370629E-005, 6.1405708E-003, 5.6053789E+002
 5.0008415E+001, 1.2374193E-002, 1.7830027E-001, 8.8496243E-002, 1.4120185E-003, 1.7220513E-005, 6.1802118E-003, 5.6641672E+002
 5.1000894E+001, 1.0923457E-002, 1.7896633E-001, 8.9183417E-002, 1.8106302E-003, 2.2471190E-005, 6.2877090E-003, 5.6673254E+002
 5.2006282E+001, 1.1311382E-002, 1.7919076E-001, 8.8890317E-002, 1.3986804E-003, 1.7303975E-005, 6.2068037E-003, 5.6602433E+002
 5.3003247E+001, 8.7527488E-003, 1.8018346E-001, 9.0149415E-002, 2.2374840E-003, 4.4206373E-005, 6.4194875E-003, 5.6295561E+002
 5.4000144E+001, 1.1259003E-002, 1.7901837E-001, 8.8967779E-002, 1.5613799E-003, 2.4255485E-005, 6.2359873E-003, 5.6019604E+002
 5.5003677E+001, 8.0896138E-003, 1.8120841E-001, 9.0269187E-002, 1.8745156E-003, 3.0272233E-005, 6.3755605E-003, 5.6304149E+002
 5.6001336E+001, 7.7620261E-003, 1.8176996E-001, 9.0313022E-002, 1.6529885E-003, 2.5161864E-005, 6.3466341E-003, 5.6471996E+002
 5.7005264E+001, 5.4474270E-003, 1.8243178E-001, 9.1515981E-002, 2.5907504E-003, 5.3177969E-005, 6.5695929E-003, 5.6636073E+002
 5.8000412E+001, 6.2461250E-003, 1.8202639E-001, 9.1149872E-002, 2.4023483E-003, 3.8885822E-005, 6.5157889E-003, 5.6608770E+002
 5.9008216E+001, 4.4406914E-003, 1.8324131E-001, 9.1897206E-002, 2.6026047E-003, 6.2482873E-005, 6.5989089E-003, 5.5959714E+002
 6.0007630E+001, 4.0964093E-003, 1.8087844E-001, 9.2732829E-002, 4.5972932E-003, 1.7221901E-004, 6.9484519E-003, 5.5085894E+002
 6.1003059E+001, 6.1483486E-003, 1.8230826E-001, 9.1130038E-002, 2.2476694E-003, 4.9265387E-005, 6.4919463E-003, 5.5957757E+002
 6.2002036E+001, 3.5450462E-003, 1.8128025E-001, 9.2941414E-002, 4.6238109E-003, 2.5716007E-004, 6.9674287E-003, 5.4968854E+002
 6.3009167E+001, 3.8499079E-003, 1.8226335E-001, 9.2502412E-002, 3.6985845E-003, 1.7301671E-004, 6.8015599E-003, 5.4890374E+002
 6.4005225E+001, 2.8851852E-003, 1.8180916E-001, 9.3197258E-002, 4.6383780E-003, 2.2514735E-004, 6.9880445E-003, 5.5120938E+002
 6.5007226E+001, 3.0118846E-003, 1.8057204E-001, 9.3439743E-002, 5.4801385E-003, 3.5860182E-004, 7.1276165E-003, 5.4595975E+002
 6.6008076E+001, 3.7111394E-003, 1.8096887E-001, 9.2904714E-002, 4.7346344E-003, 4.1021201E-004, 6.9808952E-003, 5.4953820E+002
 6.7000024E+001, 2.4495685E-003, 1.8066002E-001, 9.3738358E-002, 5.7497736E-003, 4.5885140E-004, 7.1883418E-003, 5.4425327E+002
 6.8004850E+001, 3.4225817E-003, 1.8074278E-001, 9.3166564E-002, 5.1136976E-003, 2.2260909E-004, 7.0546907E-003, 5.4997188E+002
 6.9002883E+001, 1.7679857E-003, 1.8046865E-001, 9.4213683E-002, 6.3350969E-003, 3.5895966E-004, 7.3075121E-003, 5.4490282E+002
 7.0009020E+001, 1.6716196E-003, 1.7959103E-001, 9.4492897E-002, 7.0440323E-003, 4.8454602E-004, 7.4304943E-003, 5.4384388E+002
 7.1004650E+001, 2.2447287E-003, 1.8153160E-001, 9.3656859E-002, 5.2489280E-003, 2.2621881E-004, 7.1097750E-003, 5.4616718E+002
 7.2004081E+001, 1.3242366E-003, 1.7966207E-001, 9.4695160E-002, 7.2202709E-003, 3.9195187E-004, 7.4706301E-003, 5.4215801E+002
 7.3001769E+001, 1.1396025E-003, 1.7750650E-001, 9.5318525E-002, 8.8978021E-003, 9.1627361E-004, 7.7590346E-003, 5.3845978E+002
 7.4006726E+001, 1.5184515E-003, 1.7891218E-001, 9.4758517E-002, 7.6439871E-003, 5.6435534E-004, 7.5366826E-003, 5.4271409E+002
 7.5000306E+001, 1.1332181E-003, 1.7743524E-001, 9.5359138E-002, 8.9732774E-003, 7.9640976E-004, 7.7728584E-003, 5.3416059E+002
 7.6005647E+001, 1.3545208E-003, 1.7853765E-001, 9.4948548E-002, 8.0204308E-003, 6.3698194E-004, 7.6050119E-003, 5.3994492E+002
 7.7001365E+001, 1.3928009E-003, 1.7887515E-001, 9.4846856E-002, 7.7534558E-003, 5.4431697E-004, 7.5589292E-003, 5.4364420E+002
 7.8007250E+001, 1.0440789E-003, 1.7722760E-001, 9.5487862E-002, 9.2053162E-003, 6.6782282E-004, 7.8157408E-003, 5.4018538E+002
 7.9000030E+001, 9.4506165E-004, 1.7680031E-001, 9.5584211E-002, 9.5121483E-003, 1.2188062E-003, 7.8674087E-003, 5.3772991E+002
 8.0006873E+001, 9.6355908E-004, 1.7898793E-001, 9.5089054E-002, 7.9513237E-003, 4.3614871E-004, 7.6050829E-003, 5.4876462E+002
 8.1006206E+001, 1.2126750E-003, 1.7676953E-001, 9.5444487E-002, 9.3808146E-003, 1.1336038E-003, 7.8382294E-003, 5.4004697E+002
 8.2004017E+001, 7.4378756E-004, 1.7565888E-001, 9.5994479E-002, 1.0483180E-002, 1.3710895E-003, 8.0378636E-003, 5.3300154E+002
 8.3001204E+001, 7.9772851E-004, 1.7704272E-001, 9.5617317E-002, 9.4308513E-003, 1.1430556E-003, 7.8579933E-003, 5.3954389E+002
 8.4006158E+001, 6.9024001E-004, 1.7475560E-001, 9.6302077E-002, 1.1231955E-002, 1.1712864E-003, 8.1685329E-003, 5.3107865E+002
 8.5002255E+001, 8.0629369E-004, 1.7619074E-001, 9.5858205E-002, 1.0086396E-002, 1.0501892E-003, 7.9703716E-003, 5.3379848E+002
 8.6004115E+001, 6.5645374E-004, 1.7350239E-001, 9.6610173E-002, 1.2151106E-002, 1.5467761E-003, 8.3241712E-003, 5.3230663E+002
 8.7001621E+001, 6.4855068E-004, 1.7442332E-001, 9.6401894E-002, 1.1494596E-002, 1.2811917E-003, 8.2138592E-003, 5.3213617E+002
 8.8000781E+001, 6.1309526E-004, 1.7462277E-001, 9.6366381E-002, 1.1362836E-002, 1.2972267E-003, 8.1922050E-003, 5.3501445E+002
 8.9008914E+001, 6.3455133E-004, 1.7401749E-001, 9.6493832E-002, 1.1784486E-002, 1.4696391E-003, 8.2625974E-003, 5.3327769E+002
 9.0006571E+001, 8.0341946E-004, 1.7429248E-001, 9.6326688E-002, 1.1479274E-002, 1.4061942E-003, 8.2062493E-003, 5.3644467E+002
 9.1001515E+001, 5.3106132E-004, 1.7388957E-001, 9.6560911E-002, 1.1916395E-002, 1.6763510E-003, 8.2866540E-003, 5.3297578E+002
 9.2000469E+001, 5.4131743E-004, 1.7398786E-001, 9.6560645E-002, 1.1868025E-002, 1.4500865E-003, 8.2795290E-003, 5.3627768E+002
 9.3005762E+001, 6.3670942E-004, 1.7402547E-001, 9.6459248E-002, 1.1745954E-002, 1.6848058E-003, 8.2546036E-003, 5.3497441E+002
 9.4009617E+001, 5.3740628E-004, 1.7315338E-001, 9.6748790E-002, 1.2462598E-002, 1.7406846E-003, 8.3794204E-003, 5.3001671E+002
 9.5004574E+001, 9.7501671E-004, 1.7289355E-001, 9.6555715E-002, 1.2385252E-002, 1.7520634E-003, 8.3542432E-003, 5.3613833E+002
 9.6000425E+001, 6.7290924E-004, 1.7246174E-001, 9.6825467E-002, 1.2872711E-002, 1.9544151E-003, 8.4444837E-003, 5.3537734E+002
 9.7002277E+001, 6.6732875E-004, 1.7311682E-001, 9.6690545E-002, 1.2418956E-002, 1.6738348E-003, 8.3688523E-003, 5.3475088E+002
 9.8008072E+001, 8.1043945E-004, 1.7396004E-001, 9.6361667E-002, 1.1675948E-002, 1.7628602E-003, 8.2374307E-003, 5.3748750E+002
 9.9004861E+001, 7.4937235E-004, 1.7299739E-001, 9.6666623E-002, 1.2451162E-002, 1.7245793E-003, 8.3718089E-003, 5.3537781E+002
 1.0000552E+002, 6.7673531E-004, 1.7341995E-001, 9.6586619E-002, 1.2167183E-002, 1.7812163E-003, 8.3248966E-003, 5.3766972E+002
 1.0100556E+002, 7.1220410E-004, 1.7241588E-001, 9.6828442E-002, 1.2897056E-002, 1.8575137E-003, 8.4481848E-003, 5.3473067E+002
 1.0200526E+002, 7.2095425E-004, 1.7172822E-001, 9.6986107E-002, 1.3389348E-002, 2.0291956E-003, 8.5309991E-003, 5.3282362E+002
 1.0300732E+002, 6.7169643E-004, 1.7225036E-001, 9.6899335E-002, 1.3049543E-002, 1.8476821E-003, 8.4754058E-003, 5.3735540E+002
 1.0400036E+002, 5.9447717E-004, 1.7101802E-001, 9.7227736E-002, 1.3979912E-002, 2.2234420E-003, 8.6341394E-003, 5.3452355E+002
 1.0500589E+002, 7.0181341E-004, 1.7155467E-001, 9.7057146E-002, 1.3545369E-002, 1.9449372E-003, 8.5587109E-003, 5.3488484E+002
 1.0600018E+002, 5.3253251E-004, 1.7043637E-001, 9.7448034E-002, 1.4484974E-002, 2.0549340E-003, 8.7231914E-003, 5.3212518E+002
 1.0700873E+002, 6.2496396E-004, 1.7229625E-001, 9.6974358E-002, 1.3103389E-002, 1.4359607E-003, 8.4884610E-003, 5.3777941E+002
 1.0800342E+002, 5.0895781E-004, 1.7016786E-001, 9.7537791E-002, 1.4706060E-002, 2.0388944E-003, 8.7617146E-003, 5.3466897E+002
 1.0900033E+002, 4.9444573E-004, 1.7025907E-001, 9.7544318E-002, 1.4668538E-002, 1.8817181E-003, 8.7566830E-003, 5.3465093E+002
 1.1000277E+002, 5.0020004E-004, 1.7031713E-001, 9.7538331E-002, 1.4634141E-002, 1.7896456E-003, 8.7512261E-003, 5.3752905E+002
 1.1100580E+002, 4.2998717E-004, 1.6873150E-001, 9.7967690E-002, 1.5837327E-002, 2.1051720E-003, 8.9567700E-003, 5.3251507E+002
 1.1200322E+002, 4.0894505E-004, 1.7000941E-001, 9.7637444E-002, 1.4885336E-002, 2.0635764E-003, 8.7949137E-003, 5.3469314E+002
 1.1300062E+002, 4.5977178E-004, 1.6982952E-001, 9.7630912E-002, 1.4965141E-002, 2.2376509E-003, 8.8060787E-003, 5.3522168E+002
 1.1400391E+002, 4.4321884E-004, 1.7023262E-001, 9.7601517E-002, 1.4739888E-002, 1.7484913E-003, 8.7711038E-003, 5.3755160E+002
 1.1500527E+002, 4.9422641E-004, 1.6905809E-001, 9.7830557E-002, 1.5539578E-002, 2.1705819E-003, 8.9037311E-003, 5.3415775E+002
 1.1600476E+002, 5.2365221E-004, 1.7042625E-001, 9.7482903E-002, 1.4524996E-002, 1.8697099E-003, 8.7314344E-003, 5.3538695E+002
 1.1700077E+002, 4.5395540E-004, 1.6967693E-001, 9.7759679E-002, 1.5168376E-002, 1.6593303E-003, 8.8445974E-003, 5.3818615E+002
 1.1800384E+002, 4.6196356E-004, 1.6912187E-001, 9.7845787E-002, 1.5524549E-002, 2.0785983E-003, 8.9026164E-003, 5.3074865E+002
 1.1900940E+002, 4.6877397E-004, 1.6981861E-001, 9.7660286E-002, 1.4999611E-002, 2.0177694E-003, 8.8131048E-003, 5.3934519E+002
 1.2000329E+002, 4.3317688E-004, 1.6935347E-001, 9.7802757E-002, 1.5369456E-002, 2.0582750E-003, 8.8770216E-003, 5.3622902E+002
 1.2100056E+002, 4.9574346E-004, 1.7024578E-001, 9.7575522E-002, 1.4706192E-002, 1.6856432E-003, 8.7643129E-003, 5.3675738E+002
 1.2200983E+002, 3.7263948E-004, 1.6844525E-001, 9.8050382E-002, 1.6060814E-002, 2.3115400E-003, 8.9952254E-003, 5.3645551E+002
 1.2300816E+002, 4.0055918E-004, 1.6882671E-001, 9.7968807E-002, 1.5792812E-002, 2.0397010E-003, 8.9503730E-003, 5.3488618E+002
 1.2400290E+002, 4.6842470E-004, 1.7215893E-001, 9.7136066E-002, 1.3335834E-002, 1.2259430E-003, 8.5337546E-003, 5.4100444E+002
 1.2500767E+002, 4.3994870E-004, 1.6865606E-001, 9.7982332E-002, 1.5888459E-002, 2.1050396E-003, 8.9652384E-003, 5.3254822E+002
 1.2600006E+002, 4.3483879E-004, 1.6905532E-001, 9.7868489E-002, 1.5580324E-002, 2.1597186E-003, 8.9123758E-003, 5.3461206E+002
 1.2700655E+002, 4.0609418E-004, 1.6867833E-001, 9.8022256E-002, 1.5918383E-002, 1.9272675E-003, 8.9723875E-003, 5.3826182E+002
 1.2800491E+002, 3.9574388E-004, 1.6715017E-001, 9.8339946E-002, 1.6980419E-002, 2.6583522E-003, 9.1495758E-003, 5.3376714E+002
 1.2900256E+002, 3.9018082E-004, 1.6795556E-001, 9.8180284E-002, 1.6428734E-002, 2.2649880E-003, 9.0579161E-003, 5.3480671E+002
 1.3000551E+002, 3.4860088E-004, 1.6785858E-001, 9.8260230E-002, 1.6556937E-002, 2.0675957E-003, 9.0821934E-003, 5.3487669E+002
 1.3100830E+002, 3.3775224E-004, 1.6856897E-001, 9.8072672E-002, 1.6023727E-002, 2.0684358E-003, 8.9913607E-003, 5.3860806E+002
 1.3200667E+002, 3.6168895E-004, 1.6770936E-001, 9.8219175E-002, 1.6588201E-002, 2.5790084E-003, 9.0839715E-003, 5.3276902E+002
 1.3300771E+002, 3.0764078E-004, 1.6864042E-001, 9.8056378E-002, 1.5973381E-002, 2.1710817E-003, 8.9829308E-003, 5.3696949E+002
 1.3400235E+002, 2.8931938E-004, 1.6875506E-001, 9.8080886E-002, 1.5942530E-002, 1.8610947E-003, 8.9801015E-003, 5.3872471E+002
 1.3500504E+002, 2.8653216E-004, 1.6705048E-001, 9.8444667E-002, 1.7136382E-002, 2.5751713E-003, 9.1797177E-003, 5.3030014E+002
 1.3600487E+002, 3.2076688E-004, 1.6913329E-001, 9.7935896E-002, 1.5612581E-002, 2.0193071E-003, 8.9218683E-003, 5.3611158E+002
 1.3700428E+002, 3.5085793E-004, 1.6977713E-001, 9.7775827E-002, 1.5138271E-002, 1.7859536E-003, 8.8414588E-003, 5.3989785E+002
 1.3800274E+002, 3.2021877E-004, 1.6893502E-001, 9.7970149E-002, 1.5743388E-002, 2.1590436E-003, 8.9433604E-003, 5.4073290E+002
 1.3900708E+002, 3.4789354E-004, 1.6826443E-001, 9.8102868E-002, 1.6201954E-002, 2.3925604E-003, 9.0195092E-003, 5.3598488E+002
 1.4000713E+002, 3.6273214E-004, 1.6860699E-001, 9.8037896E-002, 1.5969819E-002, 2.1335828E-003, 8.9810608E-003, 5.3432846E+002
 1.4100924E+002, 3.5510104E-004, 1.6912250E-001, 9.7953811E-002, 1.5634916E-002, 1.7734271E-003, 8.9262955E-003, 5.4183841E+002
 1.4200741E+002, 3.8261327E-004, 1.6772436E-001, 9.8252391E-002, 1.6613612E-002, 2.2342156E-003, 9.0899091E-003, 5.3589306E+002
 1.4300811E+002, 3.3966888E-004, 1.6817308E-001, 9.8144732E-002, 1.6288506E-002, 2.3096062E-003, 9.0350443E-003, 5.3706604E+002
 1.4400500E+002, 3.5278678E-004, 1.6780149E-001, 9.8182768E-002, 1.6507146E-002, 2.6937634E-003, 9.0696414E-003, 5.3378758E+002
 1.4500018E+002, 3.6364697E-004, 1.7028187E-001, 9.7608913E-002, 1.4725256E-002, 1.9342914E-003, 8.7695989E-003, 5.4085439E+002
 1.4600712E+002, 3.3627646E-004, 1.6759116E-001, 9.8308024E-002, 1.6735243E-002, 2.2930754E-003, 9.1115845E-003, 5.3425172E+002
 1.4700285E+002, 3.9790033E-004, 1.6856042E-001, 9.8024428E-002, 1.5978161E-002, 2.1688405E-003, 8.9813097E-003, 5.3691325E+002
 1.4800482E+002, 3.5774616E-004, 1.6930113E-001, 9.7816817E-002, 1.5410850E-002, 2.3726241E-003, 8.8841721E-003, 5.3874215E+002
 1.4900326E+002, 3.8240642E-004, 1.7074695E-001, 9.7481485E-002, 1.4370901E-002, 1.8596649E-003, 8.7090007E-003, 5.4542957E+002
 1.5000226E+002, 3.7195929E-004, 1.6815716E-001, 9.8098458E-002, 1.6249181E-002, 2.5258124E-003, 9.0260899E-003, 5.3577811E+002
 1.5100933E+002, 3.1754351E-004, 1.6850617E-001, 9.8072701E-002, 1.6054829E-002, 2.2706121E-003, 8.9959562E-003, 5.3828504E+002
 1.5200942E+002, 4.2748369E-004, 1.6945609E-001, 9.7787091E-002, 1.5303960E-002, 1.9964673E-003, 8.8663714E-003, 5.3812145E+002
 1.5300221E+002, 4.2353774E-004, 1.6915159E-001, 9.7883794E-002, 1.5549039E-002, 1.9189656E-003, 8.9088473E-003, 5.3795742E+002
 1.5400123E+002, 4.1884834E-004, 1.6849360E-001, 9.8059073E-002, 1.6044833E-002, 1.9685327E-003, 8.9933915E-003, 5.3736374E+002
