s,,,,,,,
Time,"O2 EXHAUST","CO2 EXHAUST","H2O EXHAUST","CO EXHAUST","FUEL EXHAUST","SOOT EXHAUST","TEMP EXHAUST"
 0.0000000E+000, 2.3099739E-001, 5.9146498E-004, 5.9412092E-003, 0.0000000E+000, 0.0000000E+000, 0.0000000E+000, 2.0000000E+001
 1.0040991E+000, 2.3099739E-001, 5.9146498E-004, 5.9412092E-003, 1.3674545E-032, 6.7613986E-032, 5.5085032E-033, 2.0214581E+001
 2.0015497E+000, 2.2608582E-001, 4.2743283E-003, 8.0243753E-003, 1.8376934E-005, 2.9637166E-004, 3.3081499E-005, 7.0245489E+001
 3.0039045E+000, 2.2390815E-001, 5.9100653E-003, 8.9700518E-003, 4.1865182E-005, 2.8628419E-004, 5.1059901E-005, 9.0740193E+001
 4.0014803E+000, 2.2071611E-001, 8.3217770E-003, 1.0332473E-002, 5.2150515E-005, 3.8985631E-004, 7.2347858E-005, 1.2299030E+002
 5.0062623E+000, 2.1713205E-001, 1.1036123E-002, 1.1865850E-002, 6.3565763E-005, 4.7093285E-004, 9.6272510E-005, 1.5625974E+002
 6.0019636E+000, 2.1421470E-001, 1.3232646E-002, 1.3118915E-002, 8.2312157E-005, 5.3226841E-004, 1.1767171E-004, 1.8212654E+002
 7.0019616E+000, 2.1053599E-001, 1.6026289E-002, 1.4702396E-002, 9.7874729E-005, 5.4114620E-004, 1.4311264E-004, 2.1233821E+002
 8.0024373E+000, 2.0708767E-001, 1.8651851E-002, 1.6183072E-002, 1.0666120E-004, 5.5815362E-004, 1.6577088E-004, 2.3973012E+002
 9.0073929E+000, 2.0255516E-001, 2.2116961E-002, 1.8132027E-002, 1.1402011E-004, 5.3574671E-004, 1.9476566E-004, 2.7356192E+002
 1.0004384E+001, 1.9701584E-001, 2.6377055E-002, 2.0515644E-002, 1.1306678E-004, 4.4731638E-004, 2.2826813E-004, 3.1084714E+002
 1.1003319E+001, 1.9418549E-001, 2.8553030E-002, 2.1732979E-002, 1.1246934E-004, 4.0723884E-004, 2.4535688E-004, 3.2411899E+002
 1.2000857E+001, 1.8889790E-001, 3.2630901E-002, 2.4007331E-002, 1.0578422E-004, 3.0602395E-004, 2.7618858E-004, 3.5390756E+002
 1.3003496E+001, 1.8455847E-001, 3.5978782E-002, 2.5872827E-002, 9.8971985E-005, 2.2675536E-004, 3.0121718E-004, 3.7049141E+002
 1.4002825E+001, 1.7866999E-001, 4.0510918E-002, 2.8403544E-002, 9.4023594E-005, 1.4516807E-004, 3.3601562E-004, 3.9405474E+002
 1.5002500E+001, 1.7600803E-001, 4.2561343E-002, 2.9547414E-002, 9.0937413E-005, 1.0610909E-004, 3.5157739E-004, 3.9758941E+002
 1.6000948E+001, 1.6993675E-001, 4.7223767E-002, 3.2155496E-002, 8.9567768E-005, 5.0049859E-005, 3.8817413E-004, 4.2001262E+002
 1.7005174E+001, 1.6670238E-001, 4.9701111E-002, 3.3544344E-002, 9.1300495E-005, 3.6581101E-005, 4.0814714E-004, 4.2082758E+002
 1.8008338E+001, 1.6267957E-001, 5.2781895E-002, 3.5271870E-002, 9.3751071E-005, 1.9958065E-005, 4.3304865E-004, 4.2882891E+002
 1.9003069E+001, 1.5820219E-001, 5.6207159E-002, 3.7194375E-002, 9.7928431E-005, 1.0133917E-005, 4.6104607E-004, 4.3194404E+002
 2.0002556E+001, 1.5510700E-001, 5.8573883E-002, 3.8523306E-002, 1.0126021E-004, 6.1479130E-006, 4.8048671E-004, 4.3404552E+002
 2.1002331E+001, 1.5051627E-001, 6.2082866E-002, 4.0494319E-002, 1.0675556E-004, 3.0124816E-006, 5.0942915E-004, 4.4183215E+002
 2.2004708E+001, 1.4728731E-001, 6.4550572E-002, 4.1880643E-002, 1.1078092E-004, 1.7391817E-006, 5.2981751E-004, 4.4271769E+002
 2.3005398E+001, 1.4402569E-001, 6.7042719E-002, 4.3280964E-002, 1.1505882E-004, 1.5791362E-006, 5.5045340E-004, 4.4255947E+002
 2.4006597E+001, 1.4204311E-001, 6.8557595E-002, 4.4132162E-002, 1.1765842E-004, 1.3848632E-006, 5.6299697E-004, 4.3767667E+002
 2.5001119E+001, 1.3898846E-001, 7.0891603E-002, 4.5443626E-002, 1.2166529E-004, 1.2778664E-006, 5.8232350E-004, 4.3869444E+002
 2.6000266E+001, 1.3552786E-001, 7.3535975E-002, 4.6929388E-002, 1.2612971E-004, 6.6898284E-007, 6.0420383E-004, 4.4208232E+002
 2.7007218E+001, 1.3378668E-001, 7.4866325E-002, 4.7676940E-002, 1.2844326E-004, 7.0569591E-007, 6.1522604E-004, 4.4068186E+002
 2.8007325E+001, 1.3071117E-001, 7.7216352E-002, 4.8997344E-002, 1.3242919E-004, 4.9741676E-007, 6.3467482E-004, 4.4461644E+002
 2.9006745E+001, 1.2877313E-001, 7.8697163E-002, 4.9829403E-002, 1.3497282E-004, 4.5464295E-007, 6.4693686E-004, 4.4096548E+002
 3.0008062E+001, 1.2614821E-001, 8.0702780E-002, 5.0956373E-002, 1.3843664E-004, 4.1395071E-007, 6.6354862E-004, 4.4187532E+002
 3.1005327E+001, 1.2399316E-001, 8.2349349E-002, 5.1881620E-002, 1.4130375E-004, 3.8443528E-007, 6.7719153E-004, 4.4195326E+002
 3.2001770E+001, 1.2404741E-001, 8.2307802E-002, 5.1858324E-002, 1.4127109E-004, 5.8718582E-007, 6.7685580E-004, 4.3089642E+002
 3.3005524E+001, 1.2083755E-001, 8.4760473E-002, 5.3236416E-002, 1.4544369E-004, 3.5726737E-007, 6.9715677E-004, 4.4083769E+002
 3.4000375E+001, 1.1959528E-001, 8.5709651E-002, 5.3769773E-002, 1.4708958E-004, 3.2089875E-007, 7.0501986E-004, 4.3655177E+002
 3.5006417E+001, 1.1743245E-001, 8.7362096E-002, 5.4698365E-002, 1.4999968E-004, 3.6314161E-007, 7.1871850E-004, 4.3517890E+002
 3.6004233E+001, 1.1471555E-001, 8.9438023E-002, 5.5864818E-002, 1.5356603E-004, 2.8258063E-007, 7.3590856E-004, 4.3809262E+002
 3.7006761E+001, 1.1368240E-001, 9.0227366E-002, 5.6308394E-002, 1.5495981E-004, 3.3277311E-007, 7.4245293E-004, 4.3583326E+002
 3.8001643E+001, 1.1219027E-001, 9.1367539E-002, 5.6948994E-002, 1.5687390E-004, 2.5414338E-007, 7.5188475E-004, 4.3447520E+002
 3.9002329E+001, 1.0967703E-001, 9.3287685E-002, 5.8028046E-002, 1.6027585E-004, 3.2766537E-007, 7.6780696E-004, 4.3179836E+002
 4.0007677E+001, 1.0809461E-001, 9.4496819E-002, 5.8707419E-002, 1.6232732E-004, 2.5638892E-007, 7.7781388E-004, 4.3978000E+002
 4.1004975E+001, 1.0704661E-001, 9.5297518E-002, 5.9157368E-002, 1.6373423E-004, 2.7262041E-007, 7.8445092E-004, 4.3264703E+002
 4.2009508E+001, 1.0541414E-001, 9.6544791E-002, 5.9858255E-002, 1.6591645E-004, 2.5192430E-007, 7.9478764E-004, 4.3669177E+002
 4.3000411E+001, 1.0310876E-001, 9.8306272E-002, 6.0848029E-002, 1.6894830E-004, 2.1860518E-007, 8.0937510E-004, 4.3642020E+002
 4.4002901E+001, 1.0206882E-001, 9.9100899E-002, 6.1294499E-002, 1.7029198E-004, 2.0999362E-007, 8.1595054E-004, 4.3534881E+002
 4.5001503E+001, 1.0007548E-001, 1.0062357E-001, 6.2150410E-002, 1.7316833E-004, 3.1296825E-007, 8.2861508E-004, 4.3359387E+002
 4.6002968E+001, 9.9058539E-002, 1.0139954E-001, 6.2587298E-002, 1.7518148E-004, 6.0641833E-007, 8.3518650E-004, 4.3276644E+002
 4.7006216E+001, 9.6495567E-002, 1.0335073E-001, 6.3689635E-002, 1.8320502E-004, 2.5894183E-006, 8.5234519E-004, 4.3688343E+002
 4.8008639E+001, 9.5534294E-002, 1.0408133E-001, 6.4103419E-002, 1.8701124E-004, 3.6540805E-006, 8.5894201E-004, 4.3525508E+002
 4.9000851E+001, 9.4124453E-002, 1.0514730E-001, 6.4711829E-002, 1.9622338E-004, 6.7898183E-006, 8.6935148E-004, 4.3535640E+002
 5.0004290E+001, 9.2341674E-002, 1.0649875E-001, 6.5480202E-002, 2.0557897E-004, 9.8132246E-006, 8.8205049E-004, 4.3736304E+002
 5.1002417E+001, 9.1784697E-002, 1.0691965E-001, 6.5720629E-002, 2.0936816E-004, 1.1085750E-005, 8.8619324E-004, 4.2941021E+002
 5.2000220E+001, 8.9848451E-002, 1.0837901E-001, 6.6557366E-002, 2.2495513E-004, 1.7465355E-005, 9.0108208E-004, 4.3489721E+002
 5.3002896E+001, 8.8685781E-002, 1.0925170E-001, 6.7060957E-002, 2.3679333E-004, 2.1413413E-005, 9.1052525E-004, 4.3580115E+002
 5.4004682E+001, 8.6696237E-002, 1.1075005E-001, 6.7921161E-002, 2.5366311E-004, 2.7639676E-005, 9.2599763E-004, 4.3573458E+002
 5.5002246E+001, 8.5614940E-002, 1.1155403E-001, 6.8391270E-002, 2.6939843E-004, 3.5627198E-005, 9.3573274E-004, 4.3148942E+002
 5.6005185E+001, 8.5658390E-002, 1.1152967E-001, 6.8369955E-002, 2.6340098E-004, 3.4429079E-005, 9.3425413E-004, 4.3329257E+002
 5.7010264E+001, 8.4025055E-002, 1.1275972E-001, 6.9075876E-002, 2.7705877E-004, 4.1276240E-005, 9.4691501E-004, 4.3111343E+002
 5.8007540E+001, 8.2679713E-002, 1.1375880E-001, 6.9661843E-002, 2.9798194E-004, 4.7120859E-005, 9.5930609E-004, 4.3118572E+002
 5.9004401E+001, 8.1935097E-002, 1.1432291E-001, 6.9982589E-002, 3.0191066E-004, 5.0202398E-005, 9.6461185E-004, 4.3173457E+002
 6.0003112E+001, 8.0714864E-002, 1.1524931E-001, 7.0507894E-002, 3.0723498E-004, 5.3285258E-005, 9.7308336E-004, 4.2905982E+002
 6.1001694E+001, 8.0967828E-002, 1.1505407E-001, 7.0399995E-002, 3.0830464E-004, 5.2823675E-005, 9.7176792E-004, 4.3153644E+002
 6.2002349E+001, 7.9097857E-002, 1.1646342E-001, 7.1207989E-002, 3.2330421E-004, 5.9712059E-005, 9.8613518E-004, 4.2678951E+002
 6.3000355E+001, 7.7490099E-002, 1.1767994E-001, 7.1901177E-002, 3.3293490E-004, 6.5401390E-005, 9.9782553E-004, 4.3084809E+002
 6.4001493E+001, 7.5354621E-002, 1.1928976E-001, 7.2823952E-002, 3.4994782E-004, 7.2200126E-005, 1.0142106E-003, 4.3080680E+002
 6.5000949E+001, 7.4793226E-002, 1.1971649E-001, 7.3065321E-002, 3.5193269E-004, 7.4487558E-005, 1.0180126E-003, 4.3120826E+002
 6.6003634E+001, 7.3030806E-002, 1.2105049E-001, 7.3825507E-002, 3.6251868E-004, 7.7851383E-005, 1.0308374E-003, 4.3119844E+002
 6.7005250E+001, 7.2968534E-002, 1.2110130E-001, 7.3851076E-002, 3.6028712E-004, 7.8624448E-005, 1.0307609E-003, 4.3018645E+002
 6.8006845E+001, 7.1882002E-002, 1.2190968E-001, 7.4323567E-002, 3.7595077E-004, 8.4985254E-005, 1.0405155E-003, 4.2930351E+002
 6.9003293E+001, 7.1182262E-002, 1.2243856E-001, 7.4625637E-002, 3.8068518E-004, 8.6297102E-005, 1.0457152E-003, 4.2705508E+002
 7.0007984E+001, 6.9045037E-002, 1.2403678E-001, 7.5552552E-002, 4.0601472E-004, 9.7962551E-005, 1.0637916E-003, 4.3135426E+002
 7.1005595E+001, 6.8566238E-002, 1.2438532E-001, 7.5763154E-002, 4.1813884E-004, 1.0131648E-004, 1.0691489E-003, 4.2879709E+002
 7.2000736E+001, 6.7939310E-002, 1.2487037E-001, 7.6030325E-002, 4.1477838E-004, 1.0156130E-004, 1.0722663E-003, 4.2650515E+002
 7.3005717E+001, 6.6915444E-002, 1.2565442E-001, 7.6469417E-002, 4.1498678E-004, 1.0109059E-004, 1.0785146E-003, 4.3136051E+002
 7.4006111E+001, 6.6236292E-002, 1.2615838E-001, 7.6764991E-002, 4.2554804E-004, 1.0625465E-004, 1.0847665E-003, 4.2721637E+002
 7.5007402E+001, 6.4315369E-002, 1.2760978E-001, 7.7594154E-002, 4.3869292E-004, 1.1129418E-004, 1.0990688E-003, 4.3205453E+002
 7.6007179E+001, 6.3738800E-002, 1.2800890E-001, 7.7853499E-002, 4.6678945E-004, 1.2097497E-004, 1.1082508E-003, 4.3100112E+002
 7.7007768E+001, 6.3790578E-002, 1.2799180E-001, 7.7824134E-002, 4.5134433E-004, 1.2023548E-004, 1.1048040E-003, 4.2953959E+002
 7.8006003E+001, 6.2563900E-002, 1.2893700E-001, 7.8348647E-002, 4.4781602E-004, 1.1762248E-004, 1.1115263E-003, 4.3019868E+002
 7.9009041E+001, 6.1146986E-002, 1.3000190E-001, 7.8961956E-002, 4.6132414E-004, 1.2216804E-004, 1.1228483E-003, 4.3178223E+002
 8.0004151E+001, 6.0355622E-002, 1.3060737E-001, 7.9301659E-002, 4.6196569E-004, 1.2090484E-004, 1.1277765E-003, 4.2973303E+002
 8.1006285E+001, 5.9365335E-002, 1.3134107E-001, 7.9733640E-002, 4.7862243E-004, 1.2453155E-004, 1.1371531E-003, 4.2671488E+002
 8.2001862E+001, 5.9643441E-002, 1.3113496E-001, 7.9612174E-002, 4.7385833E-004, 1.2457242E-004, 1.1345008E-003, 4.2776118E+002
 8.3000500E+001, 5.8175186E-002, 1.3225207E-001, 8.0243555E-002, 4.7866553E-004, 1.2776225E-004, 1.1443705E-003, 4.2903461E+002
 8.4003174E+001, 5.7563437E-002, 1.3270621E-001, 8.0510386E-002, 4.8853946E-004, 1.2837990E-004, 1.1500808E-003, 4.2518961E+002
 8.5005219E+001, 5.6259163E-002, 1.3368367E-001, 8.1075661E-002, 5.0275570E-004, 1.3365514E-004, 1.1608628E-003, 4.2794428E+002
 8.6005864E+001, 5.6317357E-002, 1.3364508E-001, 8.1049058E-002, 4.9884694E-004, 1.3194798E-004, 1.1597194E-003, 4.2967401E+002
 8.7005828E+001, 5.5840992E-002, 1.3399693E-001, 8.1257248E-002, 5.0763792E-004, 1.3345133E-004, 1.1643882E-003, 4.2872141E+002
 8.8008744E+001, 5.3690018E-002, 1.3563124E-001, 8.2183208E-002, 5.1642468E-004, 1.3644262E-004, 1.1792033E-003, 4.2835047E+002
 8.9005124E+001, 5.3456593E-002, 1.3578624E-001, 8.2289601E-002, 5.3178223E-004, 1.4485176E-004, 1.1837225E-003, 4.2587768E+002
 9.0002676E+001, 5.3250494E-002, 1.3596773E-001, 8.2371640E-002, 5.1650537E-004, 1.3677649E-004, 1.1818830E-003, 4.2817557E+002
 9.1008796E+001, 5.2323140E-002, 1.3665002E-001, 8.2777567E-002, 5.3528877E-004, 1.4109835E-004, 1.1913088E-003, 4.3010205E+002
 9.2008552E+001, 5.2701365E-002, 1.3635005E-001, 8.2617510E-002, 5.4143119E-004, 1.4859854E-004, 1.1902523E-003, 4.2502964E+002
 9.3001030E+001, 5.0736277E-002, 1.3785924E-001, 8.3459157E-002, 5.3905205E-004, 1.4571728E-004, 1.2016834E-003, 4.3180221E+002
 9.4008589E+001, 4.9937612E-002, 1.3848361E-001, 8.3798062E-002, 5.3080563E-004, 1.4214771E-004, 1.2048556E-003, 4.3154072E+002
 9.5006759E+001, 4.9511940E-002, 1.3877818E-001, 8.3989468E-002, 5.5154143E-004, 1.4987881E-004, 1.2116322E-003, 4.2737776E+002
 9.6000277E+001, 4.8555219E-002, 1.3953568E-001, 8.4392498E-002, 5.3518637E-004, 1.4471162E-004, 1.2141191E-003, 4.3316413E+002
 9.7009334E+001, 4.7557033E-002, 1.4029340E-001, 8.4822626E-002, 5.3989828E-004, 1.4488896E-004, 1.2211247E-003, 4.2753041E+002
 9.8002730E+001, 4.6977084E-002, 1.4072831E-001, 8.5073571E-002, 5.4579032E-004, 1.4917550E-004, 1.2258292E-003, 4.2905733E+002
 9.9006194E+001, 4.5447241E-002, 1.4185816E-001, 8.5742333E-002, 5.7419654E-004, 1.5325179E-004, 1.2408593E-003, 4.3166275E+002
 1.0000033E+002, 4.5544229E-002, 1.4177964E-001, 8.5701049E-002, 5.7630253E-004, 1.5983541E-004, 1.2406896E-003, 4.2914669E+002
 1.0100199E+002, 4.5347492E-002, 1.4191294E-001, 8.5790222E-002, 5.8768597E-004, 1.6469781E-004, 1.2441850E-003, 4.3220719E+002
 1.0200092E+002, 4.5935951E-002, 1.4149733E-001, 8.5527657E-002, 5.6429354E-004, 1.5814501E-004, 1.2358811E-003, 4.3326377E+002
 1.0300172E+002, 4.3979224E-002, 1.4296650E-001, 8.6375443E-002, 5.8420566E-004, 1.6224538E-004, 1.2517749E-003, 4.2686765E+002
 1.0400255E+002, 4.4297498E-002, 1.4274716E-001, 8.6232246E-002, 5.6823414E-004, 1.5515535E-004, 1.2466151E-003, 4.2720480E+002
 1.0500335E+002, 4.3480809E-002, 1.4334973E-001, 8.6589435E-002, 5.8379490E-004, 1.5740704E-004, 1.2547191E-003, 4.2952251E+002
 1.0600577E+002, 4.3383271E-002, 1.4342462E-001, 8.6631064E-002, 5.8357666E-004, 1.5821268E-004, 1.2552648E-003, 4.2630706E+002
 1.0700018E+002, 4.2636818E-002, 1.4398006E-001, 8.6956049E-002, 5.9459122E-004, 1.6007624E-004, 1.2620212E-003, 4.2939941E+002
 1.0800337E+002, 4.1229705E-002, 1.4501843E-001, 8.7571218E-002, 6.2113465E-004, 1.6513106E-004, 1.2759282E-003, 4.3142066E+002
 1.0900030E+002, 4.1864286E-002, 1.4457019E-001, 8.7287444E-002, 5.9545750E-004, 1.6204527E-004, 1.2668763E-003, 4.3134295E+002
 1.1000542E+002, 4.0530435E-002, 1.4556366E-001, 8.7867615E-002, 6.1430753E-004, 1.6691104E-004, 1.2787784E-003, 4.2914458E+002
 1.1101063E+002, 4.0143984E-002, 1.4586091E-001, 8.8032819E-002, 6.1340233E-004, 1.6736847E-004, 1.2809363E-003, 4.3127258E+002
 1.1200806E+002, 3.9109646E-002, 1.4664138E-001, 8.8480151E-002, 6.2159484E-004, 1.6685577E-004, 1.2888682E-003, 4.3149038E+002
 1.1300893E+002, 3.9697582E-002, 1.4618262E-001, 8.8229902E-002, 6.2670364E-004, 1.7246480E-004, 1.2863337E-003, 4.3260917E+002
 1.1400494E+002, 3.9446114E-002, 1.4637555E-001, 8.8337300E-002, 6.2625556E-004, 1.7437167E-004, 1.2877641E-003, 4.2788332E+002
 1.1500395E+002, 3.9681942E-002, 1.4620559E-001, 8.8233753E-002, 6.1966125E-004, 1.6818600E-004, 1.2850054E-003, 4.2711819E+002
 1.1600807E+002, 3.8122393E-002, 1.4737365E-001, 8.8910913E-002, 6.3791884E-004, 1.6822819E-004, 1.2981620E-003, 4.2787231E+002
 1.1700895E+002, 3.8697190E-002, 1.4693244E-001, 8.8664269E-002, 6.3816504E-004, 1.7143153E-004, 1.2947238E-003, 4.2276829E+002
 1.1800155E+002, 3.6954202E-002, 1.4824860E-001, 8.9418176E-002, 6.5161709E-004, 1.6804979E-004, 1.3080219E-003, 4.3061865E+002
 1.1900284E+002, 3.6788098E-002, 1.4836482E-001, 8.9492225E-002, 6.5865723E-004, 1.7247612E-004, 1.3104509E-003, 4.2797553E+002
 1.2000612E+002, 3.6044701E-002, 1.4889266E-001, 8.9823266E-002, 6.8646604E-004, 1.7921234E-004, 1.3205897E-003, 4.3152225E+002
 1.2100540E+002, 3.6608610E-002, 1.4849018E-001, 8.9571882E-002, 6.6609242E-004, 1.7990268E-004, 1.3130370E-003, 4.3133324E+002
 1.2200635E+002, 3.6105977E-002, 1.4885488E-001, 8.9793995E-002, 6.8012996E-004, 1.7949569E-004, 1.3189323E-003, 4.3027785E+002
 1.2300465E+002, 3.5528632E-002, 1.4930553E-001, 9.0038742E-002, 6.7429679E-004, 1.7980109E-004, 1.3212473E-003, 4.2773637E+002
 1.2400850E+002, 3.4952973E-002, 1.4974051E-001, 9.0287366E-002, 6.7833113E-004, 1.8038712E-004, 1.3255540E-003, 4.2748749E+002
 1.2500065E+002, 3.4370069E-002, 1.5015778E-001, 9.0545949E-002, 6.9788422E-004, 1.8502873E-004, 1.3330479E-003, 4.2938335E+002
 1.2600088E+002, 3.4396343E-002, 1.5018109E-001, 9.0522010E-002, 6.6899552E-004, 1.7668291E-004, 1.3270385E-003, 4.3186622E+002
 1.2700770E+002, 3.3624546E-002, 1.5075731E-001, 9.0857472E-002, 6.7911201E-004, 1.7824488E-004, 1.3337666E-003, 4.2571593E+002
 1.2800968E+002, 3.3862568E-002, 1.5055500E-001, 9.0760624E-002, 6.9192307E-004, 1.8599736E-004, 1.3349127E-003, 4.2698146E+002
 1.2900554E+002, 3.3439953E-002, 1.5091564E-001, 9.0931160E-002, 6.6746500E-004, 1.7811437E-004, 1.3325223E-003, 4.3094776E+002
 1.3000597E+002, 3.3125573E-002, 1.5113576E-001, 9.1072496E-002, 6.8161499E-004, 1.7887723E-004, 1.3372978E-003, 4.3181555E+002
 1.3100832E+002, 3.2096457E-002, 1.5188969E-001, 9.1524176E-002, 7.0481089E-004, 1.8265025E-004, 1.3482364E-003, 4.3104766E+002
 1.3200154E+002, 3.2239535E-002, 1.5179103E-001, 9.1459315E-002, 6.9728745E-004, 1.8258335E-004, 1.3458427E-003, 4.2596445E+002
 1.3300431E+002, 3.2440157E-002, 1.5167057E-001, 9.1363385E-002, 6.7502596E-004, 1.7761047E-004, 1.3401166E-003, 4.3097071E+002
 1.3400360E+002, 3.1277586E-002, 1.5251847E-001, 9.1874719E-002, 7.0373321E-004, 1.8277788E-004, 1.3529804E-003, 4.3421969E+002
 1.3500074E+002, 3.0884803E-002, 1.5280375E-001, 9.2047106E-002, 7.1368307E-004, 1.8917491E-004, 1.3573710E-003, 4.2990059E+002
 1.3600435E+002, 3.1109994E-002, 1.5264062E-001, 9.1947376E-002, 7.0711467E-004, 1.9018255E-004, 1.3546719E-003, 4.3063848E+002
 1.3700601E+002, 3.1019855E-002, 1.5271884E-001, 9.1983879E-002, 7.0141318E-004, 1.8510202E-004, 1.3540685E-003, 4.2732446E+002
 1.3800127E+002, 3.0153799E-002, 1.5335047E-001, 9.2364743E-002, 7.2276197E-004, 1.8929498E-004, 1.3636434E-003, 4.3054507E+002
 1.3900693E+002, 3.0266385E-002, 1.5323768E-001, 9.2324547E-002, 7.4066538E-004, 1.9240520E-004, 1.3665895E-003, 4.3064225E+002
 1.4000098E+002, 2.9479734E-002, 1.5380365E-001, 9.2672669E-002, 7.6515097E-004, 1.9822982E-004, 1.3763174E-003, 4.3158859E+002
 1.4100801E+002, 2.9127349E-002, 1.5410430E-001, 9.2814406E-002, 7.4443333E-004, 1.9458885E-004, 1.3742544E-003, 4.2990798E+002
 1.4200332E+002, 2.8945893E-002, 1.5420653E-001, 9.2903224E-002, 7.6910844E-004, 1.9981499E-004, 1.3803537E-003, 4.3054692E+002
 1.4300767E+002, 2.8764222E-002, 1.5434437E-001, 9.2981134E-002, 7.6971296E-004, 2.0227461E-004, 1.3815739E-003, 4.3043950E+002
 1.4400572E+002, 2.8509663E-002, 1.5453476E-001, 9.3091718E-002, 7.7285220E-004, 2.0248076E-004, 1.3837535E-003, 4.3268345E+002
 1.4500394E+002, 2.8410619E-002, 1.5464405E-001, 9.3124567E-002, 7.5073123E-004, 1.9519957E-004, 1.3798753E-003, 4.2835704E+002
 1.4600116E+002, 2.7816340E-002, 1.5507582E-001, 9.3385956E-002, 7.6614583E-004, 2.0107978E-004, 1.3865966E-003, 4.2713281E+002
 1.4700160E+002, 2.9571967E-002, 1.5374918E-001, 9.2627927E-002, 7.5402695E-004, 1.9806112E-004, 1.3735015E-003, 4.2767833E+002
 1.4800708E+002, 2.7775780E-002, 1.5511321E-001, 9.3403060E-002, 7.6311599E-004, 1.9025972E-004, 1.3862428E-003, 4.2838870E+002
 1.4900763E+002, 2.8051806E-002, 1.5489110E-001, 9.3287396E-002, 7.6988539E-004, 1.9505312E-004, 1.3859368E-003, 4.2980631E+002
 1.5000417E+002, 2.7362024E-002, 1.5540878E-001, 9.3586316E-002, 7.7705056E-004, 1.9657635E-004, 1.3915691E-003, 4.2943636E+002
 1.5100662E+002, 2.7347279E-002, 1.5542589E-001, 9.3590351E-002, 7.7273993E-004, 1.9909584E-004, 1.3907803E-003, 4.2915772E+002
 1.5200956E+002, 2.6607717E-002, 1.5598257E-001, 9.3911385E-002, 7.8010331E-004, 1.9414392E-004, 1.3967636E-003, 4.2942774E+002
 1.5300341E+002, 2.5840894E-002, 1.5654136E-001, 9.4248416E-002, 7.9906612E-004, 1.9996353E-004, 1.4052507E-003, 4.3006690E+002
 1.5400769E+002, 2.6724438E-002, 1.5587972E-001, 9.3864901E-002, 7.8876735E-004, 1.9898207E-004, 1.3978074E-003, 4.2301192E+002
