s,,,,,,,
Time,O2 EXHAUST,CO2 EXHAUST,H2O EXHAUST,CO EXHAUST,FUEL EXHAUST,SOOT EXHAUST,TEMP EXHAUST
 0.0000000E+000, 2.3099739E-001, 5.9146498E-004, 5.9412092E-003, 0.0000000E+000, 0.0000000E+000, 0.0000000E+000, 2.0000000E+001
 1.0012113E+000, 2.3099739E-001, 5.9146498E-004, 5.9412092E-003, 5.3689746E-023, 2.5316148E-021, 1.5927958E-021, 2.0260381E+001
 2.0072460E+000, 2.2606798E-001, 5.0909586E-003, 7.2412434E-003, 1.0069269E-005, 4.2386637E-004, 2.9872165E-004, 7.5419018E+001
 3.0014744E+000, 2.2262199E-001, 8.2638834E-003, 8.1598223E-003, 1.9037465E-005, 5.8292542E-004, 5.0976732E-004, 1.0896740E+002
 4.0028566E+000, 2.1869878E-001, 1.1875968E-002, 9.2064527E-003, 3.0838003E-005, 7.5677137E-004, 7.5036439E-004, 1.4530708E+002
 5.0047308E+000, 2.1532842E-001, 1.4983461E-002, 1.0108127E-002, 4.2951571E-005, 8.7520724E-004, 9.5777055E-004, 1.7451535E+002
 6.0025642E+000, 2.1156620E-001, 1.8450007E-002, 1.1110180E-002, 4.9985233E-005, 1.0521426E-003, 1.1877537E-003, 2.0690171E+002
 7.0050456E+000, 2.0805537E-001, 2.1699750E-002, 1.2051003E-002, 5.8378377E-005, 1.1389908E-003, 1.4037361E-003, 2.3539105E+002
 8.0036297E+000, 2.0406619E-001, 2.5409185E-002, 1.3126346E-002, 6.9653943E-005, 1.1502554E-003, 1.6506303E-003, 2.6319924E+002
 9.0046842E+000, 1.9926487E-001, 2.9891303E-002, 1.4425159E-002, 8.1557788E-005, 1.0917619E-003, 1.9485813E-003, 2.9527114E+002
 1.0004958E+001, 1.9421238E-001, 3.4619607E-002, 1.5795288E-002, 9.3534177E-005, 9.7894136E-004, 2.2627711E-003, 3.2261255E+002
 1.1007781E+001, 1.8787098E-001, 4.0553595E-002, 1.7515360E-002, 1.0957435E-004, 8.3446421E-004, 2.6572935E-003, 3.5167319E+002
 1.2000438E+001, 1.8257986E-001, 4.5513874E-002, 1.8952057E-002, 1.2061158E-004, 6.8424228E-004, 2.9865690E-003, 3.7189161E+002
 1.3006902E+001, 1.7820349E-001, 4.9616136E-002, 2.0139810E-002, 1.2902096E-004, 5.6594106E-004, 3.2587335E-003, 3.8448545E+002
 1.4006324E+001, 1.7263790E-001, 5.4833971E-002, 2.1649792E-002, 1.3834514E-004, 4.1886474E-004, 3.6046165E-003, 3.9849945E+002
 1.5005784E+001, 1.6709120E-001, 6.0025611E-002, 2.3152535E-002, 1.4860535E-004, 3.0640204E-004, 3.9489752E-003, 4.1024082E+002
 1.6009409E+001, 1.6282136E-001, 6.4018252E-002, 2.4308258E-002, 1.5673542E-004, 2.3653968E-004, 4.2138568E-003, 4.1673045E+002
 1.7005850E+001, 1.5806649E-001, 6.8461129E-002, 2.5594046E-002, 1.6548199E-004, 1.7563749E-004, 4.5085446E-003, 4.2127962E+002
 1.8009429E+001, 1.5362038E-001, 7.2614870E-002, 2.6795796E-002, 1.7306417E-004, 1.2476503E-004, 4.7839270E-003, 4.2887414E+002
 1.9005350E+001, 1.5008989E-001, 7.5909546E-002, 2.7749218E-002, 1.7961650E-004, 9.8474357E-005, 5.0024716E-003, 4.3041405E+002
 2.0001051E+001, 1.4632686E-001, 7.9420185E-002, 2.8765201E-002, 1.8676075E-004, 7.4429921E-005, 5.2353767E-003, 4.3273326E+002
 2.1006739E+001, 1.4318120E-001, 8.2353646E-002, 2.9614219E-002, 1.9291042E-004, 5.8983924E-005, 5.4300289E-003, 4.3369097E+002
 2.2004382E+001, 1.4003314E-001, 8.5289639E-002, 3.0463680E-002, 1.9854870E-004, 4.4920605E-005, 5.6247385E-003, 4.3614720E+002
 2.3008028E+001, 1.3716453E-001, 8.7962871E-002, 3.1237574E-002, 2.0457295E-004, 3.7329572E-005, 5.8022134E-003, 4.3551113E+002
 2.4006502E+001, 1.3463326E-001, 9.0322308E-002, 3.1920368E-002, 2.0941773E-004, 3.0451172E-005, 5.9587543E-003, 4.3613643E+002
 2.5004858E+001, 1.3227728E-001, 9.2517959E-002, 3.2555772E-002, 2.1395846E-004, 2.5704137E-005, 6.1044355E-003, 4.3624086E+002
 2.6003496E+001, 1.2932660E-001, 9.5267131E-002, 3.3351598E-002, 2.2008694E-004, 2.0736141E-005, 6.2869378E-003, 4.3870332E+002
 2.7003537E+001, 1.2713748E-001, 9.7306538E-002, 3.3941893E-002, 2.2452303E-004, 1.8589012E-005, 6.4222992E-003, 4.3824396E+002
 2.8003577E+001, 1.2492191E-001, 9.9370208E-002, 3.4539333E-002, 2.2924170E-004, 1.6982155E-005, 6.5593202E-003, 4.3704545E+002
 2.9000754E+001, 1.2262269E-001, 1.0151161E-001, 3.5159373E-002, 2.3431141E-004, 1.5218747E-005, 6.7015397E-003, 4.3792726E+002
 3.0004120E+001, 1.2038383E-001, 1.0359671E-001, 3.5763057E-002, 2.3916073E-004, 1.4382914E-005, 6.8400012E-003, 4.3839548E+002
 3.1005494E+001, 1.1824221E-001, 1.0559147E-001, 3.6340537E-002, 2.4370778E-004, 1.3067080E-005, 6.9724436E-003, 4.3747306E+002
 3.2010839E+001, 1.1626711E-001, 1.0743059E-001, 3.6873142E-002, 2.4823419E-004, 1.2538260E-005, 7.0946246E-003, 4.3717697E+002
 3.3002569E+001, 1.1420070E-001, 1.0935511E-001, 3.7430295E-002, 2.5264138E-004, 1.1992943E-005, 7.2224080E-003, 4.3760392E+002
 3.4003801E+001, 1.1233205E-001, 1.1109499E-001, 3.7934160E-002, 2.5693451E-004, 1.2023936E-005, 7.3379977E-003, 4.3670982E+002
 3.5001430E+001, 1.1004684E-001, 1.1322307E-001, 3.8550359E-002, 2.6201558E-004, 1.1339810E-005, 7.4793415E-003, 4.3786953E+002
 3.6007128E+001, 1.0798433E-001, 1.1514334E-001, 3.9106520E-002, 2.6685106E-004, 1.1322066E-005, 7.6069369E-003, 4.3845218E+002
 3.7001398E+001, 1.0636848E-001, 1.1664395E-001, 3.9542776E-002, 2.7364863E-004, 1.3054496E-005, 7.7072942E-003, 4.3785477E+002
 3.8001155E+001, 1.0450556E-001, 1.1837213E-001, 4.0045976E-002, 2.8291866E-004, 1.6121617E-005, 7.8231805E-003, 4.3744327E+002
 3.9004100E+001, 1.0228156E-001, 1.2042238E-001, 4.0648542E-002, 3.0418836E-004, 2.5495705E-005, 7.9628665E-003, 4.3800818E+002
 4.0002147E+001, 1.0038794E-001, 1.2216071E-001, 4.1162509E-002, 3.2788760E-004, 3.7901437E-005, 8.0825160E-003, 4.3780281E+002
 4.1006687E+001, 9.8845878E-002, 1.2357209E-001, 4.1581748E-002, 3.5068342E-004, 4.9060032E-005, 8.1804240E-003, 4.3752687E+002
 4.2011227E+001, 9.7028814E-002, 1.2523692E-001, 4.2075308E-002, 3.7582401E-004, 6.3191860E-005, 8.2955386E-003, 4.3806641E+002
 4.3004181E+001, 9.5169088E-002, 1.2694294E-001, 4.2580462E-002, 4.0042274E-004, 7.3956881E-005, 8.4132511E-003, 4.3846234E+002
 4.4006212E+001, 9.3583521E-002, 1.2839062E-001, 4.3012096E-002, 4.2676131E-004, 8.6353190E-005, 8.5143112E-003, 4.3831445E+002
 4.5008242E+001, 9.1808668E-002, 1.3001368E-001, 4.3494712E-002, 4.5390796E-004, 1.0078528E-004, 8.6271031E-003, 4.3860736E+002
 4.6010273E+001, 9.0317407E-002, 1.3136682E-001, 4.3901966E-002, 4.8551837E-004, 1.1532999E-004, 8.7230625E-003, 4.3796205E+002
 4.7006153E+001, 8.8880788E-002, 1.3268017E-001, 4.4292498E-002, 5.0751834E-004, 1.2874253E-004, 8.8143387E-003, 4.3798654E+002
 4.8003003E+001, 8.7324395E-002, 1.3409270E-001, 4.4717216E-002, 5.3979329E-004, 1.4637948E-004, 8.9143548E-003, 4.3800424E+002
 4.9004120E+001, 8.5647763E-002, 1.3561826E-001, 4.5174407E-002, 5.7184543E-004, 1.6166515E-004, 9.0217726E-003, 4.3820341E+002
 5.0011594E+001, 8.4149045E-002, 1.3697677E-001, 4.5583318E-002, 6.0372080E-004, 1.8219818E-004, 9.1181427E-003, 4.3925010E+002
 5.1002826E+001, 8.2631071E-002, 1.3835069E-001, 4.5998352E-002, 6.3862375E-004, 1.9859196E-004, 9.2161777E-003, 4.3859706E+002
 5.2010828E+001, 8.1004404E-002, 1.3983118E-001, 4.6441235E-002, 6.6832179E-004, 2.1898695E-004, 9.3201207E-003, 4.3967718E+002
 5.3004566E+001, 7.9791286E-002, 1.4092483E-001, 4.6772937E-002, 6.9861536E-004, 2.3948095E-004, 9.3986960E-003, 4.3951815E+002
 5.4011477E+001, 7.8092445E-002, 1.4246630E-001, 4.7236506E-002, 7.3399030E-004, 2.5949738E-004, 9.5078754E-003, 4.3972118E+002
 5.5008002E+001, 7.6896485E-002, 1.4354220E-001, 4.7563999E-002, 7.6593921E-004, 2.7928325E-004, 9.5856352E-003, 4.3964895E+002
 5.6012381E+001, 7.5556959E-002, 1.4476148E-001, 4.7928423E-002, 7.8984005E-004, 2.9841778E-004, 9.6711196E-003, 4.4035108E+002
 5.7011506E+001, 7.4156742E-002, 1.4602822E-001, 4.8310734E-002, 8.2144546E-004, 3.1940632E-004, 9.7613842E-003, 4.4102121E+002
 5.8012012E+001, 7.2826046E-002, 1.4723446E-001, 4.8673808E-002, 8.4973879E-004, 3.3751988E-004, 9.8469507E-003, 4.4107118E+002
 5.9000012E+001, 7.1775674E-002, 1.4816821E-001, 4.8963021E-002, 8.8663460E-004, 3.5984690E-004, 9.9164033E-003, 4.4106546E+002
 6.0010449E+001, 7.0456421E-002, 1.4936598E-001, 4.9322266E-002, 9.1242123E-004, 3.8094118E-004, 1.0000875E-002, 4.4178338E+002
 6.1012280E+001, 6.9310874E-002, 1.5041832E-001, 4.9632368E-002, 9.2493409E-004, 3.9469881E-004, 1.0072914E-002, 4.4077019E+002
 6.2000471E+001, 6.8193655E-002, 1.5142626E-001, 4.9937649E-002, 9.5208250E-004, 4.1410389E-004, 1.0145166E-002, 4.4172908E+002
 6.3008789E+001, 6.6886922E-002, 1.5260119E-001, 5.0296180E-002, 9.8854942E-004, 4.3035926E-004, 1.0230421E-002, 4.4204046E+002
 6.4006166E+001, 6.5503570E-002, 1.5384904E-001, 5.0674617E-002, 1.0230185E-003, 4.5073402E-004, 1.0320055E-002, 4.4318907E+002
 6.5001975E+001, 6.4358803E-002, 1.5489181E-001, 5.0986659E-002, 1.0440725E-003, 4.6023766E-004, 1.0393295E-002, 4.4317350E+002
 6.6004248E+001, 6.3075279E-002, 1.5604752E-001, 5.1338303E-002, 1.0780914E-003, 4.7806979E-004, 1.0476759E-002, 4.4332838E+002
 6.7010626E+001, 6.2127313E-002, 1.5691432E-001, 5.1594949E-002, 1.0906954E-003, 4.9621548E-004, 1.0536590E-002, 4.4354027E+002
 6.8010392E+001, 6.0942605E-002, 1.5800914E-001, 5.1915212E-002, 1.0993279E-003, 5.0314083E-004, 1.0610597E-002, 4.4342359E+002
 6.9010157E+001, 5.9853901E-002, 1.5898342E-001, 5.2214235E-002, 1.1327621E-003, 5.2184355E-004, 1.0681979E-002, 4.4408052E+002
 7.0004525E+001, 5.8849081E-002, 1.5991108E-001, 5.2485419E-002, 1.1398091E-003, 5.3343819E-004, 1.0744629E-002, 4.4549983E+002
 7.1004774E+001, 5.7836619E-002, 1.6082115E-001, 5.2763209E-002, 1.1682034E-003, 5.4650038E-004, 1.0810698E-002, 4.4576643E+002
 7.2003654E+001, 5.6919599E-002, 1.6162679E-001, 5.3018155E-002, 1.2098709E-003, 5.6024424E-004, 1.0872730E-002, 4.4534373E+002
 7.3008981E+001, 5.5921899E-002, 1.6255315E-001, 5.3286845E-002, 1.2130031E-003, 5.6780375E-004, 1.0934455E-002, 4.4592925E+002
 7.4000199E+001, 5.4896753E-002, 1.6348217E-001, 5.3566975E-002, 1.2356633E-003, 5.7830379E-004, 1.1000543E-002, 4.4637625E+002
 7.5008536E+001, 5.3643790E-002, 1.6464556E-001, 5.3905623E-002, 1.2416836E-003, 5.7665200E-004, 1.1078509E-002, 4.4777997E+002
 7.6010123E+001, 5.2775293E-002, 1.6542062E-001, 5.4144483E-002, 1.2700842E-003, 5.9241440E-004, 1.1135681E-002, 4.4760796E+002
 7.7005937E+001, 5.1870394E-002, 1.6624116E-001, 5.4391603E-002, 1.2895614E-003, 6.0222143E-004, 1.1193936E-002, 4.4736865E+002
 7.8011527E+001, 5.0948864E-002, 1.6711117E-001, 5.4637504E-002, 1.2806744E-003, 6.0494883E-004, 1.1249370E-002, 4.4788461E+002
 7.9006806E+001, 5.0069258E-002, 1.6790300E-001, 5.4878807E-002, 1.3046419E-003, 6.1457915E-004, 1.1306697E-002, 4.4807885E+002
 8.0010232E+001, 4.8896319E-002, 1.6897386E-001, 5.5199285E-002, 1.3262001E-003, 6.1316704E-004, 1.1381896E-002, 4.4914079E+002
 8.1009659E+001, 4.8247767E-002, 1.6958191E-001, 5.5372329E-002, 1.3222329E-003, 6.2262462E-004, 1.1421120E-002, 4.4844042E+002
 8.2008718E+001, 4.6963574E-002, 1.7075287E-001, 5.5723304E-002, 1.3468103E-003, 6.2273371E-004, 1.1503564E-002, 4.4954549E+002
 8.3000334E+001, 4.6342180E-002, 1.7130010E-001, 5.5895384E-002, 1.3731566E-003, 6.3595335E-004, 1.1545280E-002, 4.4929111E+002
 8.4008448E+001, 4.5303112E-002, 1.7228927E-001, 5.6172421E-002, 1.3582787E-003, 6.2685833E-004, 1.1607282E-002, 4.4922120E+002
 8.5002535E+001, 4.4355125E-002, 1.7315758E-001, 5.6430633E-002, 1.3727686E-003, 6.2812874E-004, 1.1667617E-002, 4.5012853E+002
 8.6008913E+001, 4.3603850E-002, 1.7383818E-001, 5.6637037E-002, 1.3914292E-003, 6.2605179E-004, 1.1716474E-002, 4.5100187E+002
 8.7007453E+001, 4.2645729E-002, 1.7470043E-001, 5.6901059E-002, 1.4197217E-003, 6.2619908E-004, 1.1779368E-002, 4.5117517E+002
 8.8001342E+001, 4.2024664E-002, 1.7528655E-001, 5.7066473E-002, 1.4133177E-003, 6.3127681E-004, 1.1816624E-002, 4.5115445E+002
 8.9009944E+001, 4.0901200E-002, 1.7633642E-001, 5.7369164E-002, 1.4133924E-003, 6.2683480E-004, 1.1885834E-002, 4.5216164E+002
 9.0009772E+001, 3.9905268E-002, 1.7728123E-001, 5.7635907E-002, 1.4030163E-003, 6.1278892E-004, 1.1945878E-002, 4.5363998E+002
 9.1010913E+001, 3.9335419E-002, 1.7777764E-001, 5.7795348E-002, 1.4329693E-003, 6.1943892E-004, 1.1985017E-002, 4.5300873E+002
 9.2004582E+001, 3.8800987E-002, 1.7825883E-001, 5.7941127E-002, 1.4460443E-003, 6.3275143E-004, 1.2019534E-002, 4.5363779E+002
 9.3000292E+001, 3.7766049E-002, 1.7920278E-001, 5.8225216E-002, 1.4678441E-003, 6.2104690E-004, 1.2086421E-002, 4.5401329E+002
 9.4002245E+001, 3.7353130E-002, 1.7956216E-001, 5.8340038E-002, 1.4884922E-003, 6.3292185E-004, 1.2114535E-002, 4.5316041E+002
 9.5009061E+001, 3.6410458E-002, 1.8040956E-001, 5.8600416E-002, 1.5179052E-003, 6.2910126E-004, 1.2176690E-002, 4.5468468E+002
 9.6012693E+001, 3.5800635E-002, 1.8096832E-001, 5.8766977E-002, 1.5279152E-003, 6.2539548E-004, 1.2215663E-002, 4.5431724E+002
 9.7008863E+001, 3.4944199E-002, 1.8172186E-001, 5.9006069E-002, 1.5679279E-003, 6.2721771E-004, 1.2273906E-002, 4.5490037E+002
 9.8002275E+001, 3.4616954E-002, 1.8206190E-001, 5.9086896E-002, 1.5365822E-003, 6.3342185E-004, 1.2289596E-002, 4.5480019E+002
 9.9011515E+001, 3.3945993E-002, 1.8273278E-001, 5.9261192E-002, 1.5014974E-003, 6.1356052E-004, 1.2326287E-002, 4.5511709E+002
 1.0000228E+002, 3.3558852E-002, 1.8303560E-001, 5.9374854E-002, 1.5498601E-003, 6.2921568E-004, 1.2356616E-002, 4.5404093E+002
 1.0100779E+002, 3.2585208E-002, 1.8394220E-001, 5.9637441E-002, 1.5521624E-003, 6.2865553E-004, 1.2416860E-002, 4.5596111E+002
 1.0200535E+002, 3.1813213E-002, 1.8461010E-001, 5.9856336E-002, 1.6002606E-003, 6.1920252E-004, 1.2471192E-002, 4.5579367E+002
 1.0300568E+002, 3.1558133E-002, 1.8489271E-001, 5.9916543E-002, 1.5614123E-003, 6.1899720E-004, 1.2481488E-002, 4.5589279E+002
 1.0400010E+002, 3.0480524E-002, 1.8583992E-001, 6.0218110E-002, 1.6135296E-003, 6.1623531E-004, 1.2555091E-002, 4.5635648E+002
 1.0500380E+002, 3.0219799E-002, 1.8609757E-001, 6.0285287E-002, 1.6006019E-003, 6.1887778E-004, 1.2569300E-002, 4.5589827E+002
 1.0601005E+002, 2.9211215E-002, 1.8701205E-001, 6.0563178E-002, 1.6266019E-003, 6.0747366E-004, 1.2635145E-002, 4.5706212E+002
 1.0700809E+002, 2.8764937E-002, 1.8742218E-001, 6.0684794E-002, 1.6327886E-003, 6.0518268E-004, 1.2663501E-002, 4.5758315E+002
 1.0800638E+002, 2.8070717E-002, 1.8803484E-001, 6.0878036E-002, 1.6632391E-003, 6.0859405E-004, 1.2710409E-002, 4.5763546E+002
 1.0901176E+002, 2.7847843E-002, 1.8829932E-001, 6.0927815E-002, 1.6148400E-003, 6.0368669E-004, 1.2717462E-002, 4.5738135E+002
 1.1000197E+002, 2.7285358E-002, 1.8883206E-001, 6.1078996E-002, 1.6103712E-003, 5.9243753E-004, 1.2751614E-002, 4.5797171E+002
 1.1100332E+002, 2.6849963E-002, 1.8922304E-001, 6.1198605E-002, 1.6230503E-003, 5.9736027E-004, 1.2780101E-002, 4.5763947E+002
 1.1201155E+002, 2.5996566E-002, 1.9001396E-001, 6.1430304E-002, 1.6297573E-003, 5.8923528E-004, 1.2833666E-002, 4.5855477E+002
 1.1301070E+002, 2.5758921E-002, 1.9018527E-001, 6.1503016E-002, 1.6724831E-003, 5.9735417E-004, 1.2854118E-002, 4.5833737E+002
 1.1400224E+002, 2.5506493E-002, 1.9044224E-001, 6.1566267E-002, 1.6527713E-003, 6.0316087E-004, 1.2866827E-002, 4.5800443E+002
 1.1500169E+002, 2.5146229E-002, 1.9079132E-001, 6.1661606E-002, 1.6430400E-003, 5.9586621E-004, 1.2887747E-002, 4.5877178E+002
 1.1601129E+002, 2.4392774E-002, 1.9142616E-001, 6.1878260E-002, 1.7044782E-003, 5.8870958E-004, 1.2942761E-002, 4.5930749E+002
 1.1700685E+002, 2.3946942E-002, 1.9181584E-001, 6.2003420E-002, 1.7279259E-003, 5.8780232E-004, 1.2973471E-002, 4.5853788E+002
 1.1800409E+002, 2.3274297E-002, 1.9242252E-001, 6.2188894E-002, 1.7472608E-003, 5.8447719E-004, 1.3017601E-002, 4.5966571E+002
 1.1901281E+002, 2.2749667E-002, 1.9289678E-001, 6.2333783E-002, 1.7621463E-003, 5.7791033E-004, 1.3052050E-002, 4.5879429E+002
 1.2000622E+002, 2.2017000E-002, 1.9348922E-001, 6.2549088E-002, 1.8434728E-003, 5.7198627E-004, 1.3108533E-002, 4.6059955E+002
 1.2100218E+002, 2.1925283E-002, 1.9357478E-001, 6.2573521E-002, 1.8430760E-003, 5.7441390E-004, 1.3114088E-002, 4.5957864E+002
 1.2201096E+002, 2.1234741E-002, 1.9416293E-001, 6.2770849E-002, 1.8938031E-003, 5.6814601E-004, 1.3163728E-002, 4.6022602E+002
 1.2300627E+002, 2.1203038E-002, 1.9423151E-001, 6.2771526E-002, 1.8589563E-003, 5.7206938E-004, 1.3160776E-002, 4.6014579E+002
 1.2400227E+002, 2.0535371E-002, 1.9483417E-001, 6.2956040E-002, 1.8786052E-003, 5.6416374E-004, 1.3204708E-002, 4.6047296E+002
 1.2500806E+002, 2.0495975E-002, 1.9490139E-001, 6.2960702E-002, 1.8517345E-003, 5.6548030E-004, 1.3203376E-002, 4.6004754E+002
 1.2601066E+002, 2.0377151E-002, 1.9498156E-001, 6.2997632E-002, 1.8770756E-003, 5.7384116E-004, 1.3214094E-002, 4.5967154E+002
 1.2700991E+002, 1.9939878E-002, 1.9537884E-001, 6.3117279E-002, 1.8864665E-003, 5.7510770E-004, 1.3242291E-002, 4.6062830E+002
 1.2800369E+002, 1.9730848E-002, 1.9556999E-001, 6.3174375E-002, 1.8901100E-003, 5.7447102E-004, 1.3255671E-002, 4.5976684E+002
 1.2900961E+002, 1.9727220E-002, 1.9562213E-001, 6.3166288E-002, 1.8478445E-003, 5.7240057E-004, 1.3250044E-002, 4.6040144E+002
 1.3001186E+002, 1.8965428E-002, 1.9620836E-001, 6.3395427E-002, 1.9577549E-003, 5.6984338E-004, 1.3312248E-002, 4.6032121E+002
 1.3100578E+002, 1.8807321E-002, 1.9634249E-001, 6.3440129E-002, 1.9688356E-003, 5.7372673E-004, 1.3323464E-002, 4.6087248E+002
 1.3201134E+002, 1.8589809E-002, 1.9656202E-001, 6.3495027E-002, 1.9535658E-003, 5.7840411E-004, 1.3334659E-002, 4.5979539E+002
 1.3301038E+002, 1.8479195E-002, 1.9665168E-001, 6.3526865E-002, 1.9645730E-003, 5.8324494E-004, 1.3342928E-002, 4.6068723E+002
 1.3400621E+002, 1.7998571E-002, 1.9713188E-001, 6.3651029E-002, 1.9384472E-003, 5.7594934E-004, 1.3368974E-002, 4.6042907E+002
 1.3500246E+002, 1.7778188E-002, 1.9731088E-001, 6.3716094E-002, 1.9629988E-003, 5.7001063E-004, 1.3386036E-002, 4.5950949E+002
 1.3600591E+002, 1.7804906E-002, 1.9726522E-001, 6.3710869E-002, 1.9776924E-003, 5.8813261E-004, 1.3386178E-002, 4.5967270E+002
 1.3700264E+002, 1.7216921E-002, 1.9779676E-001, 6.3873244E-002, 1.9943538E-003, 5.8085130E-004, 1.3424782E-002, 4.6036113E+002
 1.3800975E+002, 1.6969217E-002, 1.9799785E-001, 6.3945655E-002, 2.0207549E-003, 5.8094546E-004, 1.3443697E-002, 4.6131209E+002
 1.3901243E+002, 1.6752370E-002, 1.9820190E-001, 6.4003884E-002, 2.0196632E-003, 5.7941876E-004, 1.3456911E-002, 4.6049992E+002
 1.4000175E+002, 1.6330109E-002, 1.9848839E-001, 6.4137908E-002, 2.1136891E-003, 5.8089433E-004, 1.3495954E-002, 4.6066871E+002
 1.4100602E+002, 1.6180033E-002, 1.9863897E-001, 6.4176786E-002, 2.1053746E-003, 5.7652413E-004, 1.3504095E-002, 4.6120533E+002
 1.4201216E+002, 1.5489967E-002, 1.9919465E-001, 6.4380301E-002, 2.1844909E-003, 5.6831031E-004, 1.3557682E-002, 4.6149939E+002
 1.4300071E+002, 1.5141952E-002, 1.9949399E-001, 6.4479486E-002, 2.2080028E-003, 5.6244356E-004, 1.3582452E-002, 4.6159702E+002
 1.4400725E+002, 1.5149170E-002, 1.9950235E-001, 6.4474046E-002, 2.1937155E-003, 5.6811109E-004, 1.3579940E-002, 4.6289033E+002
 1.4500798E+002, 1.5110396E-002, 1.9958784E-001, 6.4475313E-002, 2.1509800E-003, 5.6609022E-004, 1.3576410E-002, 4.6151717E+002
 1.4600968E+002, 1.4766435E-002, 1.9980438E-001, 6.4587410E-002, 2.2418046E-003, 5.6985373E-004, 1.3610157E-002, 4.6127126E+002
 1.4700505E+002, 1.4398818E-002, 2.0006032E-001, 6.4702664E-002, 2.3176350E-003, 5.7279310E-004, 1.3643286E-002, 4.6185848E+002
 1.4800102E+002, 1.4318545E-002, 2.0009293E-001, 6.4731303E-002, 2.3528976E-003, 5.8225990E-004, 1.3652996E-002, 4.6169885E+002
 1.4900338E+002, 1.4320468E-002, 2.0014783E-001, 6.4720793E-002, 2.3046894E-003, 5.7483841E-004, 1.3646277E-002, 4.6175106E+002
 1.5000608E+002, 1.4089238E-002, 2.0028164E-001, 6.4798638E-002, 2.3764653E-003, 5.7513138E-004, 1.3670487E-002, 4.6227169E+002
 1.5101310E+002, 1.3780160E-002, 2.0051096E-001, 6.4892340E-002, 2.4269805E-003, 5.8223583E-004, 1.3696432E-002, 4.6150002E+002
 1.5201159E+002, 1.3678437E-002, 2.0065487E-001, 6.4910708E-002, 2.3847105E-003, 5.7937674E-004, 1.3696853E-002, 4.6197092E+002
 1.5300117E+002, 1.3406273E-002, 2.0089983E-001, 6.4986009E-002, 2.3932530E-003, 5.7657669E-004, 1.3714829E-002, 4.6215205E+002
 1.5400739E+002, 1.3559051E-002, 2.0076750E-001, 6.4942707E-002, 2.3838501E-003, 5.7857919E-004, 1.3704091E-002, 4.6243865E+002
