s,,,,,,,
Time,"O2 EXHAUST","CO2 EXHAUST","H2O EXHAUST","CO EXHAUST","FUEL EXHAUST","SOOT EXHAUST","TEMP EXHAUST"
 0.0000000E+000, 2.3099739E-001, 5.9146498E-004, 5.9412092E-003, 0.0000000E+000, 0.0000000E+000, 0.0000000E+000, 2.0000000E+001
 1.0013646E+000, 2.3099739E-001, 5.9146498E-004, 5.9412092E-003, 2.1401652E-035, 1.0483122E-033, 8.3549886E-036, 2.0297414E+001
 2.0032456E+000, 2.2498825E-001, 5.2807561E-003, 9.8513468E-003, 4.9064696E-006, 1.7966646E-004, 2.8256962E-005, 8.3330405E+001
 3.0017472E+000, 2.2135802E-001, 8.1249128E-003, 1.2233332E-002, 1.3007924E-005, 1.8592090E-004, 4.6494020E-005, 1.1774596E+002
 4.0053837E+000, 2.1678535E-001, 1.1698264E-002, 1.5221709E-002, 2.1131720E-005, 2.6051136E-004, 6.8966441E-005, 1.6242655E+002
 5.0026584E+000, 2.1298099E-001, 1.4681953E-002, 1.7714054E-002, 2.6273322E-005, 2.7643987E-004, 8.7378401E-005, 1.9614797E+002
 6.0031111E+000, 2.1060185E-001, 1.6540644E-002, 1.9269250E-002, 3.0904291E-005, 3.1481212E-004, 9.9154418E-005, 2.1717853E+002
 7.0003463E+000, 2.0565830E-001, 2.0435097E-002, 2.2512498E-002, 3.2317582E-005, 2.8203414E-004, 1.2205054E-004, 2.5804235E+002
 8.0070746E+000, 2.0147278E-001, 2.3737464E-002, 2.5260932E-002, 3.2556408E-005, 2.3398524E-004, 1.4125987E-004, 2.8793829E+002
 9.0040974E+000, 1.9626911E-001, 2.7846706E-002, 2.8678863E-002, 3.1763387E-005, 1.6331375E-004, 1.6492888E-004, 3.2062752E+002
 1.0000091E+001, 1.9149995E-001, 3.1614862E-002, 3.1811144E-002, 3.0013392E-005, 9.5399313E-005, 1.8641396E-004, 3.4768333E+002
 1.1002066E+001, 1.8730028E-001, 3.4930927E-002, 3.4568320E-002, 2.8860637E-005, 4.4247094E-005, 2.0540439E-004, 3.6833603E+002
 1.2007231E+001, 1.8062609E-001, 4.0188156E-002, 3.8945186E-002, 3.0123721E-005, 8.3324190E-006, 2.3617428E-004, 3.9724270E+002
 1.3003531E+001, 1.7822850E-001, 4.2075283E-002, 4.0516983E-002, 3.0947657E-005, 4.1965057E-007, 2.4729885E-004, 4.0466622E+002
 1.4006116E+001, 1.7103291E-001, 4.7732155E-002, 4.5231810E-002, 3.5145089E-005, 2.5099366E-008, 2.8101648E-004, 4.2953413E+002
 1.5004198E+001, 1.6733405E-001, 5.0639999E-002, 4.7655412E-002, 3.7305701E-005, 1.3691889E-008, 2.9834924E-004, 4.3197065E+002
 1.6000758E+001, 1.6270077E-001, 5.4282417E-002, 5.0691290E-002, 4.0027597E-005, 2.1503245E-008, 3.2006389E-004, 4.4182523E+002
 1.7000171E+001, 1.5868732E-001, 5.7437544E-002, 5.3321036E-002, 4.2393383E-005, 2.9935813E-008, 3.3887523E-004, 4.4668626E+002
 1.8000680E+001, 1.5477693E-001, 6.0511706E-002, 5.5883229E-002, 4.4661738E-005, 1.2785069E-008, 3.5719597E-004, 4.4983621E+002
 1.9005176E+001, 1.5095126E-001, 6.3519224E-002, 5.8389932E-002, 4.6909438E-005, 1.6636014E-008, 3.7512565E-004, 4.5263614E+002
 2.0004320E+001, 1.4679404E-001, 6.6787388E-002, 6.1113873E-002, 4.9350018E-005, 2.4812742E-008, 3.9460879E-004, 4.5762265E+002
 2.1001987E+001, 1.4292832E-001, 6.9826422E-002, 6.3646804E-002, 5.1600747E-005, 1.1820616E-008, 4.1272196E-004, 4.6305441E+002
 2.2002562E+001, 1.4053557E-001, 7.1707469E-002, 6.5214610E-002, 5.3002615E-005, 9.3942511E-009, 4.2393520E-004, 4.5796293E+002
 2.3000140E+001, 1.3755031E-001, 7.4054310E-002, 6.7170646E-002, 5.4753620E-005, 1.2511715E-008, 4.3792555E-004, 4.5807306E+002
 2.4002334E+001, 1.3315087E-001, 7.7512889E-002, 7.0053299E-002, 5.7338569E-005, 1.8090806E-008, 4.5854432E-004, 4.6484167E+002
 2.5001141E+001, 1.3078797E-001, 7.9370483E-002, 7.1601537E-002, 5.8712832E-005, 1.1851275E-008, 4.6961558E-004, 4.5931232E+002
 2.6002298E+001, 1.2735661E-001, 8.2068019E-002, 7.3849878E-002, 6.0729632E-005, 1.5404849E-008, 4.8569743E-004, 4.6433549E+002
 2.7006034E+001, 1.2427243E-001, 8.4492572E-002, 7.5870751E-002, 6.2572688E-005, 4.1640252E-008, 5.0015835E-004, 4.6664229E+002
 2.8007069E+001, 1.2073009E-001, 8.7277383E-002, 7.8191791E-002, 6.4632725E-005, 3.1630285E-008, 5.1675579E-004, 4.6924273E+002
 2.9004314E+001, 1.1856644E-001, 8.8978358E-002, 7.9609472E-002, 6.5879840E-005, 1.8768896E-008, 5.2689118E-004, 4.6244392E+002
 3.0007775E+001, 1.1597955E-001, 9.1012005E-002, 8.1304489E-002, 6.7407754E-005, 2.5541479E-008, 5.3901674E-004, 4.6157363E+002
 3.1006693E+001, 1.1323247E-001, 9.3171601E-002, 8.3104457E-002, 6.9017144E-005, 2.2497831E-008, 5.5189044E-004, 4.6408704E+002
 3.2005650E+001, 1.1039090E-001, 9.5405511E-002, 8.4966338E-002, 7.0667874E-005, 1.8035284E-008, 5.6520414E-004, 4.6528863E+002
 3.3001665E+001, 1.0787045E-001, 9.7386925E-002, 8.6617821E-002, 7.2157496E-005, 2.4909508E-008, 5.7701846E-004, 4.6504012E+002
 3.4004832E+001, 1.0584066E-001, 9.8982605E-002, 8.7947812E-002, 7.3363384E-005, 3.4599093E-008, 5.8653416E-004, 4.6362402E+002
 3.5008235E+001, 1.0372838E-001, 1.0064321E-001, 8.9331826E-002, 7.4568774E-005, 1.2407444E-008, 5.9642643E-004, 4.5645168E+002
 3.6001357E+001, 1.0033949E-001, 1.0330735E-001, 9.1552335E-002, 7.6563838E-005, 2.1191772E-008, 6.1230986E-004, 4.6511131E+002
 3.7000184E+001, 9.7590132E-002, 1.0546872E-001, 9.3353812E-002, 7.8192272E-005, 3.3809441E-008, 6.2519791E-004, 4.6559276E+002
 3.8005663E+001, 9.5875831E-002, 1.0681641E-001, 9.4477074E-002, 7.9193878E-005, 3.0694187E-008, 6.3323113E-004, 4.6592610E+002
 3.9003669E+001, 9.4038802E-002, 1.0826058E-001, 9.5680753E-002, 8.0270642E-005, 3.0134433E-008, 6.4184017E-004, 4.6326867E+002
 4.0003716E+001, 9.1972649E-002, 1.0988490E-001, 9.7034548E-002, 8.1461049E-005, 1.9014290E-008, 6.5151873E-004, 4.5943207E+002
 4.1006937E+001, 8.8555136E-002, 1.1257139E-001, 9.9273873E-002, 8.3570856E-005, 1.0364182E-007, 6.6755642E-004, 4.6845196E+002
 4.2002295E+001, 8.7333224E-002, 1.1353213E-001, 1.0007446E-001, 8.4199345E-005, 2.5908570E-008, 6.7326478E-004, 4.6108363E+002
 4.3007275E+001, 8.4669136E-002, 1.1562644E-001, 1.0182007E-001, 8.5788199E-005, 4.3630682E-008, 6.8575536E-004, 4.6622389E+002
 4.4003986E+001, 8.2599017E-002, 1.1725390E-001, 1.0317645E-001, 8.6966044E-005, 2.5658524E-008, 6.9544944E-004, 4.6177470E+002
 4.5005232E+001, 8.1268024E-002, 1.1830014E-001, 1.0404860E-001, 8.7820082E-005, 8.4024735E-008, 7.0170216E-004, 4.5919733E+002
 4.6004229E+001, 7.8086949E-002, 1.2079509E-001, 1.0613521E-001, 9.3401549E-005, 2.7740460E-006, 7.1737302E-004, 4.6315493E+002
 4.7000880E+001, 7.5531226E-002, 1.2278642E-001, 1.0781669E-001, 1.0623882E-004, 1.1232095E-005, 7.3167790E-004, 4.6265209E+002
 4.8004830E+001, 7.4039722E-002, 1.2394570E-001, 1.0879921E-001, 1.1560020E-004, 1.7060202E-005, 7.4041048E-004, 4.6170722E+002
 4.9005096E+001, 7.2771755E-002, 1.2494104E-001, 1.0963044E-001, 1.1719839E-004, 1.8325452E-005, 7.4652752E-004, 4.5971501E+002
 5.0005200E+001, 7.0760324E-002, 1.2650078E-001, 1.1095728E-001, 1.3236014E-004, 2.6247108E-005, 7.5882694E-004, 4.6210624E+002
 5.1007786E+001, 6.8334923E-002, 1.2838513E-001, 1.1255483E-001, 1.4785644E-004, 3.7997600E-005, 7.7308130E-004, 4.6078102E+002
 5.2002625E+001, 6.6581669E-002, 1.2975154E-001, 1.1370828E-001, 1.5648445E-004, 4.3355985E-005, 7.8285829E-004, 4.6027763E+002
 5.3001941E+001, 6.4346028E-002, 1.3147404E-001, 1.1518600E-001, 1.7972387E-004, 6.2681727E-005, 7.9783391E-004, 4.6216077E+002
 5.4006444E+001, 6.3690364E-002, 1.3197637E-001, 1.1561953E-001, 1.8786372E-004, 7.3508785E-005, 8.0249337E-004, 4.5840696E+002
 5.5005416E+001, 6.1140766E-002, 1.3394944E-001, 1.1730263E-001, 2.0947378E-004, 8.6557365E-005, 8.1857326E-004, 4.5687225E+002
 5.6004093E+001, 5.9802074E-002, 1.3499671E-001, 1.1818101E-001, 2.1313897E-004, 9.2032827E-005, 8.2543470E-004, 4.5987567E+002
 5.7007394E+001, 5.7538806E-002, 1.3674098E-001, 1.1967732E-001, 2.3662219E-004, 1.0931103E-004, 8.4058886E-004, 4.6220493E+002
 5.8004082E+001, 5.6186582E-002, 1.3779506E-001, 1.2056505E-001, 2.4221848E-004, 1.2056440E-004, 8.4790394E-004, 4.6130503E+002
 5.9007658E+001, 5.3904844E-002, 1.3956730E-001, 1.2206824E-001, 2.5715305E-004, 1.3154979E-004, 8.6138743E-004, 4.6107407E+002
 6.0008079E+001, 5.2815991E-002, 1.4041264E-001, 1.2278460E-001, 2.6394720E-004, 1.4144219E-004, 8.6774835E-004, 4.6018068E+002
 6.1001025E+001, 5.0994983E-002, 1.4180956E-001, 1.2399157E-001, 2.8725653E-004, 1.5625700E-004, 8.8085008E-004, 4.5998584E+002
 6.2000982E+001, 4.9798118E-002, 1.4275776E-001, 1.2477201E-001, 2.8283161E-004, 1.5666895E-004, 8.8540222E-004, 4.5987278E+002
 6.3007776E+001, 4.8570647E-002, 1.4369472E-001, 1.2558651E-001, 3.0105283E-004, 1.7233590E-004, 8.9474469E-004, 4.5342329E+002
 6.4003179E+001, 4.6904783E-002, 1.4500311E-001, 1.2667769E-001, 3.0238595E-004, 1.7621448E-004, 9.0262099E-004, 4.5818001E+002
 6.5007331E+001, 4.4882942E-002, 1.4657478E-001, 1.2800952E-001, 3.1497768E-004, 1.8389120E-004, 9.1443860E-004, 4.5926719E+002
 6.6005890E+001, 4.3411648E-002, 1.4767207E-001, 1.2899880E-001, 3.5475913E-004, 2.0273837E-004, 9.2933384E-004, 4.6142603E+002
 6.7006983E+001, 4.1378526E-002, 1.4928596E-001, 1.3032239E-001, 3.4475278E-004, 2.0565083E-004, 9.3655119E-004, 4.6323587E+002
 6.8006402E+001, 4.0474768E-002, 1.4999917E-001, 1.3091174E-001, 3.4264531E-004, 2.1144839E-004, 9.4023699E-004, 4.6389258E+002
 6.9002531E+001, 3.9586716E-002, 1.5065763E-001, 1.3150959E-001, 3.6871755E-004, 2.2768130E-004, 9.4964707E-004, 4.5887935E+002
 7.0004634E+001, 3.7491608E-002, 1.5228816E-001, 1.3289034E-001, 3.8126240E-004, 2.2913851E-004, 9.6179609E-004, 4.6366529E+002
 7.1006926E+001, 3.5891781E-002, 1.5350572E-001, 1.3395506E-001, 4.0820775E-004, 2.4431652E-004, 9.7463689E-004, 4.6389554E+002
 7.2006309E+001, 3.5070786E-002, 1.5416596E-001, 1.3448557E-001, 3.9839808E-004, 2.4414406E-004, 9.7636393E-004, 4.6464285E+002
 7.3003705E+001, 3.3401301E-002, 1.5541739E-001, 1.3560754E-001, 4.4047151E-004, 2.5503289E-004, 9.9264473E-004, 4.6078946E+002
 7.4008192E+001, 3.2694985E-002, 1.5596274E-001, 1.3607371E-001, 4.4695524E-004, 2.6154874E-004, 9.9719873E-004, 4.6309681E+002
 7.5001003E+001, 3.1433278E-002, 1.5694032E-001, 1.3690430E-001, 4.5595253E-004, 2.7491453E-004, 1.0047992E-003, 4.5984907E+002
 7.6001390E+001, 2.9223998E-002, 1.5863911E-001, 1.3837189E-001, 4.8412847E-004, 2.7164746E-004, 1.0206955E-003, 4.6371593E+002
 7.7000863E+001, 2.8599197E-002, 1.5907631E-001, 1.3880149E-001, 5.1849327E-004, 2.9981091E-004, 1.0306000E-003, 4.6018505E+002
 7.8008312E+001, 2.6616724E-002, 1.6058871E-001, 1.4012384E-001, 5.5180598E-004, 2.9932686E-004, 1.0465164E-003, 4.6419126E+002
 7.9000868E+001, 2.5871997E-002, 1.6115632E-001, 1.4061583E-001, 5.6212668E-004, 3.1931602E-004, 1.0520223E-003, 4.6334365E+002
 8.0003234E+001, 2.4745705E-002, 1.6198176E-001, 1.4138471E-001, 6.0486565E-004, 3.1675968E-004, 1.0659744E-003, 4.6170592E+002
 8.1006299E+001, 2.2709411E-002, 1.6350785E-001, 1.4275724E-001, 6.5836997E-004, 3.1439211E-004, 1.0862994E-003, 4.6495984E+002
 8.2004401E+001, 2.2185933E-002, 1.6389646E-001, 1.4310927E-001, 6.7334078E-004, 3.2453941E-004, 1.0917638E-003, 4.6343152E+002
 8.3010875E+001, 2.1625675E-002, 1.6435088E-001, 1.4346863E-001, 6.6359376E-004, 3.2727428E-004, 1.0923102E-003, 4.6319452E+002
 8.4003540E+001, 2.0168836E-002, 1.6542912E-001, 1.4445300E-001, 7.0906443E-004, 3.4342184E-004, 1.1083147E-003, 4.6179459E+002
 8.5009929E+001, 1.8821608E-002, 1.6642646E-001, 1.4536648E-001, 7.5263403E-004, 3.4513589E-004, 1.1234422E-003, 4.6556981E+002
 8.6007342E+001, 1.7019415E-002, 1.6776896E-001, 1.4658217E-001, 8.0405146E-004, 3.5566798E-004, 1.1422548E-003, 4.7024772E+002
 8.7000100E+001, 1.6929870E-002, 1.6780576E-001, 1.4665565E-001, 8.2639620E-004, 3.6427325E-004, 1.1472591E-003, 4.5952435E+002
 8.8003076E+001, 1.6542192E-002, 1.6800154E-001, 1.4695663E-001, 8.9840118E-004, 3.9642000E-004, 1.1638333E-003, 4.6117854E+002
 8.9009131E+001, 1.5152718E-002, 1.6902825E-001, 1.4790046E-001, 9.4504141E-004, 3.9515546E-004, 1.1797895E-003, 4.5995579E+002
 9.0006853E+001, 1.2860251E-002, 1.7060669E-001, 1.4951157E-001, 1.1001667E-003, 4.1063695E-004, 1.2222064E-003, 4.7037849E+002
 9.1005722E+001, 1.3025769E-002, 1.7041471E-001, 1.4942877E-001, 1.1402915E-003, 4.3291231E-004, 1.2296957E-003, 4.6194064E+002
 9.2004143E+001, 1.2385677E-002, 1.7083753E-001, 1.4988186E-001, 1.1931204E-003, 4.6047367E-004, 1.2434755E-003, 4.6033348E+002
 9.3005745E+001, 1.1350835E-002, 1.7153539E-001, 1.5062103E-001, 1.2756439E-003, 4.4938811E-004, 1.2652175E-003, 4.6166540E+002
 9.4006203E+001, 1.0599204E-002, 1.7212730E-001, 1.5111819E-001, 1.2780152E-003, 4.2855203E-004, 1.2691598E-003, 4.6322822E+002
 9.5005722E+001, 9.9134053E-003, 1.7189829E-001, 1.5192920E-001, 1.7999057E-003, 5.3212061E-004, 1.3797277E-003, 4.5282878E+002
 9.6004051E+001, 9.2434988E-003, 1.7210829E-001, 1.5251294E-001, 2.0130882E-003, 5.9195153E-004, 1.4266536E-003, 4.5530122E+002
 9.7007867E+001, 9.2559512E-003, 1.7260403E-001, 1.5226658E-001, 1.6697823E-003, 5.2459249E-004, 1.3559228E-003, 4.5385046E+002
 9.8006465E+001, 8.2462669E-003, 1.7285951E-001, 1.5318828E-001, 2.0392153E-003, 5.7027792E-004, 1.4366135E-003, 4.5609339E+002
 9.9008897E+001, 8.1485617E-003, 1.7260956E-001, 1.5340239E-001, 2.2592007E-003, 6.2937213E-004, 1.4823296E-003, 4.5865984E+002
 1.0000517E+002, 7.4448661E-003, 1.7229812E-001, 1.5425712E-001, 2.8397688E-003, 7.9985033E-004, 1.6050004E-003, 4.5515051E+002
 1.0100220E+002, 7.0808055E-003, 1.7229199E-001, 1.5464961E-001, 3.0467559E-003, 7.7378055E-004, 1.6493439E-003, 4.5097408E+002
 1.0200378E+002, 7.3292886E-003, 1.7275232E-001, 1.5416860E-001, 2.5966431E-003, 7.2352471E-004, 1.5555076E-003, 4.5187521E+002
 1.0300467E+002, 6.9787056E-003, 1.7261720E-001, 1.5458780E-001, 2.8737070E-003, 7.9450952E-004, 1.6141279E-003, 4.5233831E+002
 1.0400804E+002, 6.6227608E-003, 1.7097438E-001, 1.5565878E-001, 4.1448260E-003, 1.3243240E-003, 1.8771339E-003, 4.4344934E+002
 1.0500426E+002, 6.3629513E-003, 1.7186404E-001, 1.5556515E-001, 3.7096299E-003, 9.9580961E-004, 1.7889856E-003, 4.4843901E+002
 1.0600589E+002, 5.8600456E-003, 1.7169499E-001, 1.5615771E-001, 4.0917272E-003, 1.0826669E-003, 1.8699289E-003, 4.4924787E+002
 1.0700540E+002, 5.7733187E-003, 1.7186826E-001, 1.5618620E-001, 4.0312028E-003, 9.8367014E-004, 1.8579570E-003, 4.4408985E+002
 1.0800207E+002, 5.9042658E-003, 1.7134556E-001, 1.5629813E-001, 4.3161478E-003, 1.0398370E-003, 1.9160186E-003, 4.4146839E+002
 1.0900918E+002, 5.6969845E-003, 1.7070430E-001, 1.5675804E-001, 4.8344657E-003, 1.3671321E-003, 2.0234296E-003, 4.4302054E+002
 1.1000691E+002, 5.6738341E-003, 1.7051217E-001, 1.5690536E-001, 4.9941406E-003, 1.2625381E-003, 2.0565498E-003, 4.3842316E+002
 1.1101019E+002, 5.1070910E-003, 1.6962091E-001, 1.5785411E-001, 5.8755464E-003, 1.6512845E-003, 2.2403587E-003, 4.3749514E+002
 1.1200466E+002, 5.2996165E-003, 1.6982282E-001, 1.5758599E-001, 5.6480110E-003, 1.5059671E-003, 2.1927447E-003, 4.3494573E+002
 1.1300425E+002, 5.0830317E-003, 1.6958673E-001, 1.5788322E-001, 5.9056680E-003, 1.7052327E-003, 2.2466188E-003, 4.3640177E+002
 1.1400965E+002, 4.9102315E-003, 1.6975162E-001, 1.5803507E-001, 5.9126987E-003, 1.4914052E-003, 2.2490821E-003, 4.3686452E+002
 1.1500852E+002, 4.9770203E-003, 1.6996474E-001, 1.5786456E-001, 5.7314659E-003, 1.4623838E-003, 2.2114611E-003, 4.3510657E+002
 1.1600179E+002, 4.9855077E-003, 1.6869196E-001, 1.5836199E-001, 6.5435861E-003, 2.0066921E-003, 2.3782020E-003, 4.2943618E+002
 1.1700211E+002, 5.2470019E-003, 1.6877793E-001, 1.5809548E-001, 6.3669469E-003, 1.7984624E-003, 2.3408276E-003, 4.2930336E+002
 1.1800545E+002, 5.0348853E-003, 1.6749797E-001, 1.5885090E-001, 7.3162877E-003, 2.2530826E-003, 2.5369473E-003, 4.2975988E+002
 1.1900745E+002, 4.7296218E-003, 1.6764937E-001, 1.5909810E-001, 7.3793918E-003, 2.2430392E-003, 2.5513555E-003, 4.3218880E+002
 1.2000748E+002, 4.8503142E-003, 1.6744678E-001, 1.5909525E-001, 7.4654427E-003, 2.1551634E-003, 2.5686297E-003, 4.3170398E+002
 1.2100505E+002, 4.8134304E-003, 1.6686800E-001, 1.5936568E-001, 7.8577660E-003, 2.3971266E-003, 2.6493890E-003, 4.2518899E+002
 1.2201006E+002, 4.8653910E-003, 1.6705235E-001, 1.5927523E-001, 7.7301241E-003, 2.1676290E-003, 2.6230906E-003, 4.2943508E+002
 1.2300026E+002, 4.8655902E-003, 1.6615216E-001, 1.5964336E-001, 8.3128874E-003, 2.5116550E-003, 2.7428170E-003, 4.2396607E+002
 1.2400411E+002, 4.8364278E-003, 1.6543686E-001, 1.5993675E-001, 8.7767531E-003, 2.9052225E-003, 2.8381239E-003, 4.2698844E+002
 1.2500701E+002, 4.7758984E-003, 1.6516724E-001, 1.6015051E-001, 9.0047485E-003, 2.8486107E-003, 2.8854430E-003, 4.2622329E+002
 1.2600937E+002, 4.5263879E-003, 1.6514100E-001, 1.6043562E-001, 9.1644932E-003, 2.8106789E-003, 2.9195407E-003, 4.2556843E+002
 1.2700324E+002, 4.8021475E-003, 1.6467713E-001, 1.6033560E-001, 9.3139086E-003, 2.9871242E-003, 2.9488857E-003, 4.2349990E+002
 1.2800099E+002, 4.7667378E-003, 1.6441997E-001, 1.6049007E-001, 9.5059276E-003, 3.0372218E-003, 2.9885639E-003, 4.1962082E+002
 1.2900390E+002, 4.4403550E-003, 1.6474172E-001, 1.6072948E-001, 9.4905260E-003, 2.8027668E-003, 2.9871275E-003, 4.2750719E+002
 1.3001090E+002, 4.4810058E-003, 1.6376262E-001, 1.6111168E-001, 1.0114616E-002, 3.0792929E-003, 3.1152565E-003, 4.1716203E+002
 1.3100282E+002, 4.4279085E-003, 1.6412625E-001, 1.6098141E-001, 9.8892375E-003, 3.0900995E-003, 3.0690438E-003, 4.2198429E+002
 1.3200070E+002, 4.4279113E-003, 1.6295963E-001, 1.6143293E-001, 1.0631460E-002, 3.6395603E-003, 3.2214142E-003, 4.2187478E+002
 1.3300124E+002, 4.6828640E-003, 1.6251166E-001, 1.6135196E-001, 1.0783848E-002, 3.7951683E-003, 3.2514886E-003, 4.1637107E+002
 1.3400432E+002, 4.5883790E-003, 1.6202107E-001, 1.6166060E-001, 1.1157602E-002, 3.9484121E-003, 3.3287779E-003, 4.2117946E+002
 1.3500015E+002, 4.6739977E-003, 1.6193857E-001, 1.6167393E-001, 1.1199594E-002, 3.7005355E-003, 3.3373017E-003, 4.1893490E+002
 1.3601031E+002, 4.5213165E-003, 1.6156771E-001, 1.6199188E-001, 1.1526219E-002, 3.8197132E-003, 3.4051807E-003, 4.1502161E+002
 1.3700461E+002, 4.4485043E-003, 1.6106479E-001, 1.6220700E-001, 1.1857482E-002, 4.2817330E-003, 3.4732893E-003, 4.1512769E+002
 1.3800358E+002, 4.5866783E-003, 1.6122399E-001, 1.6211026E-001, 1.1736652E-002, 3.7645118E-003, 3.4483045E-003, 4.2116682E+002
 1.3900861E+002, 4.6065607E-003, 1.6027158E-001, 1.6239939E-001, 1.2301865E-002, 4.4481596E-003, 3.5639661E-003, 4.1398416E+002
 1.4000372E+002, 4.6746615E-003, 1.6010620E-001, 1.6243594E-001, 1.2392277E-002, 4.3488122E-003, 3.5823913E-003, 4.1859128E+002
 1.4100340E+002, 4.7631732E-003, 1.5956357E-001, 1.6253445E-001, 1.2679651E-002, 4.6782459E-003, 3.6408588E-003, 4.1607789E+002
 1.4200441E+002, 4.4564891E-003, 1.5990042E-001, 1.6274116E-001, 1.2640723E-002, 4.4613437E-003, 3.6344659E-003, 4.2058769E+002
 1.4300334E+002, 4.4265116E-003, 1.5924207E-001, 1.6304067E-001, 1.3082707E-002, 4.7185322E-003, 3.7254113E-003, 4.1954210E+002
 1.4400355E+002, 4.5211151E-003, 1.5878227E-001, 1.6312417E-001, 1.3325994E-002, 4.9148398E-003, 3.7749065E-003, 4.1835398E+002
 1.4500316E+002, 4.4494434E-003, 1.5879203E-001, 1.6321846E-001, 1.3370600E-002, 4.8191822E-003, 3.7845265E-003, 4.1708810E+002
 1.4600414E+002, 4.3726101E-003, 1.5869612E-001, 1.6330687E-001, 1.3458660E-002, 4.9828459E-003, 3.8028513E-003, 4.1729393E+002
 1.4700420E+002, 4.6189499E-003, 1.5820022E-001, 1.6324382E-001, 1.3641329E-002, 5.1998828E-003, 3.8391404E-003, 4.1855213E+002
 1.4800108E+002, 4.5171808E-003, 1.5744277E-001, 1.6361983E-001, 1.4166655E-002, 5.6537152E-003, 3.9473802E-003, 4.1377578E+002
 1.4900621E+002, 4.4323982E-003, 1.5742915E-001, 1.6377706E-001, 1.4253745E-002, 5.4081378E-003, 3.9659729E-003, 4.1633904E+002
 1.5000406E+002, 4.5402466E-003, 1.5722919E-001, 1.6379970E-001, 1.4351777E-002, 5.2668630E-003, 3.9858311E-003, 4.1807036E+002
 1.5100139E+002, 4.5606830E-003, 1.5667538E-001, 1.6392558E-001, 1.4658818E-002, 5.7964241E-003, 4.0484511E-003, 4.1321058E+002
 1.5200496E+002, 4.2733671E-003, 1.5683849E-001, 1.6417223E-001, 1.4716288E-002, 5.6891463E-003, 4.0617191E-003, 4.1841724E+002
 1.5300990E+002, 4.6830813E-003, 1.5621035E-001, 1.6400980E-001, 1.4904430E-002, 5.8831488E-003, 4.0984142E-003, 4.1265977E+002
 1.5400618E+002, 4.5106603E-003, 1.5619458E-001, 1.6420938E-001, 1.5015088E-002, 5.8418953E-003, 4.1220483E-003, 4.1380421E+002
