s,,,,,,,
Time,"O2 EXHAUST","CO2 EXHAUST","H2O EXHAUST","CO EXHAUST","FUEL EXHAUST","SOOT EXHAUST","TEMP EXHAUST"
 0.0000000E+000, 2.3099739E-001, 5.9146498E-004, 5.9412092E-003, 0.0000000E+000, 0.0000000E+000, 0.0000000E+000, 2.0000000E+001
 1.0022738E+000, 2.3099739E-001, 5.9146498E-004, 5.9412092E-003, 4.0124323E-029, 1.6139303E-028, 1.4801490E-029, 2.2159223E+001
 2.0024898E+000, 2.1995031E-001, 8.8319816E-003, 1.0725511E-002, 1.3491356E-004, 1.4304744E-004, 9.4128266E-005, 1.2820658E+002
 3.0025726E+000, 2.1128740E-001, 1.5370269E-002, 1.4467010E-002, 1.9903708E-004, 1.6674754E-004, 1.5960977E-004, 2.0437574E+002
 4.0054055E+000, 2.0164156E-001, 2.2720834E-002, 1.8615088E-002, 2.2556287E-004, 1.6359642E-004, 2.2345708E-004, 2.8161596E+002
 5.0053650E+000, 1.9138001E-001, 3.0642325E-002, 2.3002184E-002, 1.8908149E-004, 1.1650310E-004, 2.7831260E-004, 3.5070003E+002
 6.0042794E+000, 1.7950274E-001, 3.9835921E-002, 2.8073488E-002, 1.3085698E-004, 5.2952877E-005, 3.3857158E-004, 4.1898008E+002
 7.0001775E+000, 1.7213038E-001, 4.5547443E-002, 3.1220020E-002, 9.1544157E-005, 1.1599203E-005, 3.7533406E-004, 4.5034005E+002
 8.0015116E+000, 1.5807363E-001, 5.6309139E-002, 3.7249970E-002, 9.6728991E-005, 2.0349778E-007, 4.6159576E-004, 4.9927417E+002
 9.0036453E+000, 1.4497230E-001, 6.6319206E-002, 4.2874864E-002, 1.1415133E-004, 1.7833724E-007, 5.4453415E-004, 5.3520162E+002
 1.0007478E+001, 1.3682886E-001, 7.2540610E-002, 4.6371321E-002, 1.2537221E-004, 2.4269691E-007, 5.9616576E-004, 5.4384823E+002
 1.1001549E+001, 1.2643203E-001, 8.0484699E-002, 5.0834940E-002, 1.3892425E-004, 2.4183123E-007, 6.6192763E-004, 5.5620086E+002
 1.2006622E+001, 1.1132635E-001, 9.2021249E-002, 5.7321882E-002, 1.6234551E-004, 7.7792465E-007, 7.5823025E-004, 5.7776866E+002
 1.3007871E+001, 1.0288580E-001, 9.8473505E-002, 6.0944725E-002, 1.7136507E-004, 4.5243677E-007, 8.1121646E-004, 5.8153962E+002
 1.4002463E+001, 9.7215598E-002, 1.0280684E-001, 6.3378851E-002, 1.7822368E-004, 3.0695858E-007, 8.4697372E-004, 5.7635061E+002
 1.5007767E+001, 8.7791374E-002, 1.1000505E-001, 6.7425718E-002, 1.9233024E-004, 7.1052728E-007, 9.0695287E-004, 5.8867135E+002
 1.6006661E+001, 8.3739225E-002, 1.1309847E-001, 6.9166276E-002, 1.9950102E-004, 8.7471053E-007, 9.3296652E-004, 5.8683786E+002
 1.7007629E+001, 7.9612084E-002, 1.1624216E-001, 7.0941108E-002, 2.1146982E-004, 2.2407888E-006, 9.6040655E-004, 5.7953544E+002
 1.8001580E+001, 7.3932653E-002, 1.2056539E-001, 7.3384416E-002, 2.2991011E-004, 4.0655450E-006, 9.9856704E-004, 5.7850024E+002
 1.9004460E+001, 6.8588094E-002, 1.2464167E-001, 7.5681307E-002, 2.4194389E-004, 4.4300611E-006, 1.0334001E-003, 5.7608146E+002
 2.0008314E+001, 6.6607768E-002, 1.2615447E-001, 7.6531566E-002, 2.4471963E-004, 4.7717517E-006, 1.0459650E-003, 5.7311387E+002
 2.1004806E+001, 5.9170366E-002, 1.3182977E-001, 7.9727088E-002, 2.5961897E-004, 4.6014992E-006, 1.0940643E-003, 5.7465448E+002
 2.2007069E+001, 5.3380109E-002, 1.3625782E-001, 8.2211840E-002, 2.6461416E-004, 4.1583148E-006, 1.1301714E-003, 5.8291671E+002
 2.3005706E+001, 4.7473148E-002, 1.4076198E-001, 8.4750639E-002, 2.7854714E-004, 5.4033196E-006, 1.1687972E-003, 5.8813990E+002
 2.4001385E+001, 4.8235291E-002, 1.4015557E-001, 8.4430905E-002, 2.9390131E-004, 7.2591543E-006, 1.1672910E-003, 5.7902506E+002
 2.5000901E+001, 4.2060618E-002, 1.4489358E-001, 8.7075612E-002, 2.8833562E-004, 5.8220259E-006, 1.2035864E-003, 5.8175947E+002
 2.6006690E+001, 4.0420885E-002, 1.4611704E-001, 8.7788634E-002, 3.1039689E-004, 8.6934212E-006, 1.2179968E-003, 5.7855685E+002
 2.7000829E+001, 3.6651772E-002, 1.4897645E-001, 8.9413394E-002, 3.2940832E-004, 8.9559129E-006, 1.2446976E-003, 5.8061671E+002
 2.8002095E+001, 3.0262390E-002, 1.5388671E-001, 9.2147750E-002, 3.1856849E-004, 6.8120189E-006, 1.2812251E-003, 5.8348481E+002
 2.9002713E+001, 2.9251300E-002, 1.5464613E-001, 9.2585912E-002, 3.2880826E-004, 7.8502201E-006, 1.2894293E-003, 5.8156507E+002
 3.0004659E+001, 2.3485981E-002, 1.5896405E-001, 9.5088652E-002, 3.9593760E-004, 1.1843645E-005, 1.3379869E-003, 5.9098412E+002
 3.1007528E+001, 2.0905416E-002, 1.6102180E-001, 9.6169664E-002, 3.4076915E-004, 6.4420336E-006, 1.3424402E-003, 5.9265552E+002
 3.2004521E+001, 1.8115101E-002, 1.6302847E-001, 9.7407314E-002, 4.3013513E-004, 1.1347872E-005, 1.3774779E-003, 5.8775796E+002
 3.3000446E+001, 1.4566525E-002, 1.6569932E-001, 9.8943381E-002, 4.6229652E-004, 1.4604354E-005, 1.4055061E-003, 5.9128021E+002
 3.4001566E+001, 1.3240308E-002, 1.6667160E-001, 9.9525812E-002, 4.9214254E-004, 1.5902435E-005, 1.4195982E-003, 5.7952576E+002
 3.5002468E+001, 8.3052970E-003, 1.6986210E-001, 1.0183262E-001, 8.9862346E-004, 1.1808486E-005, 1.5319933E-003, 5.9656378E+002
 3.6008409E+001, 5.9971812E-003, 1.7091122E-001, 1.0304959E-001, 1.3900352E-003, 4.0910980E-005, 1.6456546E-003, 5.9298895E+002
 3.7005890E+001, 4.6032295E-003, 1.7162012E-001, 1.0376351E-001, 1.6374332E-003, 3.8301688E-005, 1.7043066E-003, 5.8709916E+002
 3.8007258E+001, 3.4500681E-003, 1.7125293E-001, 1.0463597E-001, 2.4790275E-003, 1.9725178E-004, 1.8818424E-003, 5.7362016E+002
 3.9008133E+001, 3.0190791E-003, 1.7115057E-001, 1.0497395E-001, 2.7870067E-003, 1.1391840E-004, 1.9470638E-003, 5.7079206E+002
 4.0003518E+001, 2.9927628E-003, 1.7053640E-001, 1.0517509E-001, 3.2124622E-003, 2.0642179E-004, 2.0334238E-003, 5.5447227E+002
 4.1008567E+001, 1.2964496E-003, 1.6961206E-001, 1.0658614E-001, 4.7176863E-003, 4.1825797E-004, 2.3488358E-003, 5.7099925E+002
 4.2002915E+001, 1.2394210E-003, 1.6880145E-001, 1.0687396E-001, 5.2964594E-003, 4.9553979E-004, 2.4665132E-003, 5.5483110E+002
 4.3002159E+001, 1.2434144E-003, 1.6658865E-001, 1.0748813E-001, 6.7443158E-003, 1.0981511E-003, 2.7594325E-003, 5.4569038E+002
 4.4003681E+001, 1.6485273E-003, 1.6716916E-001, 1.0707851E-001, 6.1699295E-003, 7.7918228E-004, 2.6408740E-003, 5.4476923E+002
 4.5001795E+001, 9.4697642E-004, 1.6651126E-001, 1.0777429E-001, 6.9996837E-003, 7.2396189E-004, 2.8135701E-003, 5.3951764E+002
 4.6004763E+001, 1.0738175E-003, 1.6666961E-001, 1.0762628E-001, 6.8153902E-003, 7.9239117E-004, 2.7753103E-003, 5.3378527E+002
 4.7007805E+001, 9.0263760E-004, 1.6396495E-001, 1.0849011E-001, 8.6734933E-003, 1.5652632E-003, 3.1522968E-003, 5.1848943E+002
 4.8007293E+001, 7.5426925E-004, 1.6322376E-001, 1.0880970E-001, 9.2469454E-003, 1.6891586E-003, 3.2693828E-003, 5.2305195E+002
 4.9007153E+001, 8.1674200E-004, 1.6275142E-001, 1.0892843E-001, 9.5455583E-003, 1.6373413E-003, 3.3296688E-003, 5.2316621E+002
 5.0003997E+001, 6.4143720E-004, 1.6151015E-001, 1.0944384E-001, 1.0489667E-002, 1.6620913E-003, 3.5222674E-003, 5.2418541E+002
 5.1005694E+001, 6.6636341E-004, 1.6038729E-001, 1.0973690E-001, 1.1209940E-002, 1.9870611E-003, 3.6678134E-003, 5.1321888E+002
 5.2000046E+001, 6.4405342E-004, 1.5891361E-001, 1.1013530E-001, 1.2166638E-002, 2.5578754E-003, 3.8612747E-003, 5.1211621E+002
 5.3002314E+001, 6.7865870E-004, 1.5944061E-001, 1.0993809E-001, 1.1782810E-002, 2.5800580E-003, 3.7831507E-003, 5.1282392E+002
 5.4002215E+001, 5.9739793E-004, 1.5868709E-001, 1.1022789E-001, 1.2338094E-002, 2.6324858E-003, 3.8962434E-003, 5.1160508E+002
 5.5000159E+001, 5.9840985E-004, 1.5612619E-001, 1.1091088E-001, 1.3992846E-002, 3.5161905E-003, 4.2307688E-003, 5.0630238E+002
 5.6001775E+001, 5.5059066E-004, 1.5656567E-001, 1.1086490E-001, 1.3763380E-002, 3.1241589E-003, 4.1850461E-003, 5.0651992E+002
 5.7001645E+001, 5.6018651E-004, 1.5704111E-001, 1.1079025E-001, 1.3495263E-002, 2.5980592E-003, 4.1313205E-003, 5.0869900E+002
 5.8004653E+001, 5.9426990E-004, 1.5413811E-001, 1.1149851E-001, 1.5320785E-002, 3.8690615E-003, 4.4997545E-003, 4.9979283E+002
 5.9005254E+001, 5.9678224E-004, 1.5397708E-001, 1.1153743E-001, 1.5421755E-002, 3.9392476E-003, 4.5201289E-003, 4.9823528E+002
 6.0000962E+001, 6.1150019E-004, 1.5369267E-001, 1.1164636E-001, 1.5630174E-002, 3.7727682E-003, 4.5625635E-003, 5.0123531E+002
 6.1008716E+001, 5.7542133E-004, 1.5309781E-001, 1.1174985E-001, 1.5973673E-002, 4.4691390E-003, 4.6315072E-003, 4.9828593E+002
 6.2003650E+001, 6.5903148E-004, 1.5288757E-001, 1.1182018E-001, 1.6118733E-002, 4.1059044E-003, 4.6609435E-003, 4.9472200E+002
 6.3003520E+001, 6.8540322E-004, 1.5207493E-001, 1.1200981E-001, 1.6622944E-002, 4.4447667E-003, 4.7626197E-003, 5.0205437E+002
 6.4009052E+001, 6.1507062E-004, 1.5241147E-001, 1.1196440E-001, 1.6440158E-002, 4.3478646E-003, 4.7260921E-003, 4.9630958E+002
 6.5000276E+001, 6.1666985E-004, 1.5110213E-001, 1.1234574E-001, 1.7310389E-002, 4.5971860E-003, 4.9023136E-003, 4.9891738E+002
 6.6005308E+001, 6.5468971E-004, 1.5055230E-001, 1.1246607E-001, 1.7645164E-002, 4.7915120E-003, 4.9697408E-003, 4.9824563E+002
 6.7003635E+001, 6.9919782E-004, 1.4970014E-001, 1.1254395E-001, 1.8082485E-002, 5.8219749E-003, 5.0567660E-003, 4.9032930E+002
 6.8001747E+001, 6.6162346E-004, 1.5008882E-001, 1.1259599E-001, 1.7949277E-002, 4.8844339E-003, 5.0312769E-003, 4.9826461E+002
 6.9009354E+001, 7.3132874E-004, 1.4827571E-001, 1.1293859E-001, 1.9013420E-002, 6.0911504E-003, 5.2450922E-003, 4.9068370E+002
 7.0001177E+001, 7.6775160E-004, 1.4800391E-001, 1.1305846E-001, 1.9224064E-002, 5.7418069E-003, 5.2881027E-003, 4.9269868E+002
 7.1003995E+001, 7.2994674E-004, 1.4762355E-001, 1.1314663E-001, 1.9460538E-002, 6.1129165E-003, 5.3357956E-003, 4.9007830E+002
 7.2010345E+001, 7.1335824E-004, 1.4705348E-001, 1.1332240E-001, 1.9847074E-002, 6.2334663E-003, 5.4141601E-003, 4.8925314E+002
 7.3004971E+001, 6.5829540E-004, 1.4762987E-001, 1.1321932E-001, 1.9513770E-002, 5.9509616E-003, 5.3472581E-003, 4.9070068E+002
 7.4004475E+001, 6.8461188E-004, 1.4612762E-001, 1.1351971E-001, 2.0408491E-002, 6.9798968E-003, 5.5272076E-003, 4.9052832E+002
 7.5004115E+001, 6.5940850E-004, 1.4603539E-001, 1.1359629E-001, 2.0507690E-002, 6.7966087E-003, 5.5477455E-003, 4.9494345E+002
 7.6005418E+001, 7.0310874E-004, 1.4534515E-001, 1.1374549E-001, 2.0926631E-002, 7.0688561E-003, 5.6321075E-003, 4.8637672E+002
 7.7004757E+001, 7.1478834E-004, 1.4506099E-001, 1.1386966E-001, 2.1146471E-002, 6.8206051E-003, 5.6769925E-003, 4.8995531E+002
 7.8009156E+001, 7.4808529E-004, 1.4470382E-001, 1.1387523E-001, 2.1309113E-002, 7.3582925E-003, 5.7090399E-003, 4.8769206E+002
 7.9010086E+001, 7.7159238E-004, 1.4392473E-001, 1.1406612E-001, 2.1799388E-002, 7.6345872E-003, 5.8079932E-003, 4.9082858E+002
 8.0006609E+001, 7.8932710E-004, 1.4336588E-001, 1.1417396E-001, 2.2129138E-002, 8.0083425E-003, 5.8742726E-003, 4.8569396E+002
 8.1004590E+001, 7.7505636E-004, 1.4295045E-001, 1.1432660E-001, 2.2429349E-002, 7.9540601E-003, 5.9353515E-003, 4.9132932E+002
 8.2010150E+001, 7.6563806E-004, 1.4312904E-001, 1.1421073E-001, 2.2262727E-002, 8.3517786E-003, 5.9010423E-003, 4.8886669E+002
 8.3007342E+001, 8.0410767E-004, 1.4304732E-001, 1.1426342E-001, 2.2338105E-002, 8.0294811E-003, 5.9165553E-003, 4.9020501E+002
 8.4008283E+001, 8.4878251E-004, 1.4177446E-001, 1.1454029E-001, 2.3112621E-002, 8.6704509E-003, 6.0725458E-003, 4.9042885E+002
 8.5000735E+001, 8.2511141E-004, 1.4179561E-001, 1.1452738E-001, 2.3093914E-002, 8.8064905E-003, 6.0687028E-003, 4.8746179E+002
 8.6004072E+001, 7.9000898E-004, 1.4188544E-001, 1.1456492E-001, 2.3082822E-002, 8.5426332E-003, 6.0670343E-003, 4.9132672E+002
 8.7003372E+001, 8.5900739E-004, 1.4078070E-001, 1.1478749E-001, 2.3741131E-002, 9.0823051E-003, 6.1994393E-003, 4.8572750E+002
 8.8003938E+001, 8.6420845E-004, 1.4166971E-001, 1.1454056E-001, 2.3159190E-002, 8.8129131E-003, 6.0817022E-003, 4.8803555E+002
 8.9007314E+001, 8.6164894E-004, 1.4058718E-001, 1.1483620E-001, 2.3863948E-002, 9.1562443E-003, 6.2242408E-003, 4.8639219E+002
 9.0004436E+001, 8.4217342E-004, 1.4066444E-001, 1.1484690E-001, 2.3837960E-002, 9.0176869E-003, 6.2192795E-003, 4.9051864E+002
 9.1004450E+001, 8.6812729E-004, 1.4075967E-001, 1.1473250E-001, 2.3708917E-002, 9.4249580E-003, 6.1923676E-003, 4.8699418E+002
 9.2004506E+001, 8.8187296E-004, 1.4004209E-001, 1.1490056E-001, 2.4154782E-002, 9.7601650E-003, 6.2822864E-003, 4.8726727E+002
 9.3008836E+001, 8.9445986E-004, 1.3944544E-001, 1.1504327E-001, 2.4527727E-002, 1.0015755E-002, 6.3575272E-003, 4.8713599E+002
 9.4010977E+001, 9.0458647E-004, 1.3917384E-001, 1.1512583E-001, 2.4710664E-002, 1.0005345E-002, 6.3946005E-003, 4.8800115E+002
 9.5008892E+001, 8.8302912E-004, 1.3884945E-001, 1.1525093E-001, 2.4949732E-002, 9.9698641E-003, 6.4432905E-003, 4.8753077E+002
 9.6002841E+001, 9.1720288E-004, 1.3866900E-001, 1.1525447E-001, 2.5032125E-002, 1.0164807E-002, 6.4595290E-003, 4.8557997E+002
 9.7001068E+001, 8.9095553E-004, 1.3846567E-001, 1.1525330E-001, 2.5122270E-002, 1.0685916E-002, 6.4772500E-003, 4.8734237E+002
 9.8002867E+001, 8.6273959E-004, 1.3803795E-001, 1.1541080E-001, 2.5431867E-002, 1.0684213E-002, 6.5402443E-003, 4.8500809E+002
 9.9004146E+001, 9.0040643E-004, 1.3806915E-001, 1.1539530E-001, 2.5405615E-002, 1.0560723E-002, 6.5348621E-003, 4.8818752E+002
 1.0000372E+002, 9.0041985E-004, 1.3782831E-001, 1.1539885E-001, 2.5515541E-002, 1.1018017E-002, 6.5565270E-003, 4.8529363E+002
 1.0100430E+002, 9.3234424E-004, 1.3770566E-001, 1.1546242E-001, 2.5617448E-002, 1.0737431E-002, 6.5774045E-003, 4.8664931E+002
 1.0201071E+002, 1.0122222E-003, 1.3694060E-001, 1.1557922E-001, 2.6044646E-002, 1.1207495E-002, 6.6629457E-003, 4.8350456E+002
 1.0300509E+002, 9.6680780E-004, 1.3687840E-001, 1.1563998E-001, 2.6118933E-002, 1.1146098E-002, 6.6783806E-003, 4.8498061E+002
 1.0400687E+002, 8.8420678E-004, 1.3697012E-001, 1.1562253E-001, 2.6066453E-002, 1.1415171E-002, 6.6678558E-003, 4.8747063E+002
 1.0500882E+002, 9.8546760E-004, 1.3624910E-001, 1.1575274E-001, 2.6483745E-002, 1.1625851E-002, 6.7516206E-003, 4.8655285E+002
 1.0600169E+002, 9.9689959E-004, 1.3648118E-001, 1.1569575E-001, 2.6337271E-002, 1.1467549E-002, 6.7220518E-003, 4.8453776E+002
 1.0700846E+002, 9.2430456E-004, 1.3643757E-001, 1.1569906E-001, 2.6360503E-002, 1.1836347E-002, 6.7266894E-003, 4.8677567E+002
 1.0800406E+002, 8.8494930E-004, 1.3687048E-001, 1.1565709E-001, 2.6136839E-002, 1.1397403E-002, 6.6821584E-003, 4.8620446E+002
 1.0901065E+002, 9.5623931E-004, 1.3569664E-001, 1.1585781E-001, 2.6809426E-002, 1.2199575E-002, 6.8170792E-003, 4.8484744E+002
 1.1000402E+002, 9.0110311E-004, 1.3628299E-001, 1.1574871E-001, 2.6467154E-002, 1.1934682E-002, 6.7483330E-003, 4.8459926E+002
 1.1100469E+002, 9.6782202E-004, 1.3572309E-001, 1.1575533E-001, 2.6720257E-002, 1.2730077E-002, 6.7981728E-003, 4.8308933E+002
 1.1200042E+002, 9.4886686E-004, 1.3561077E-001, 1.1590193E-001, 2.6881024E-002, 1.2129365E-002, 6.8317501E-003, 4.8583325E+002
 1.1300151E+002, 9.5695837E-004, 1.3576841E-001, 1.1582389E-001, 2.6751909E-002, 1.2262769E-002, 6.8053153E-003, 4.8394390E+002
 1.1400059E+002, 9.0471542E-004, 1.3576342E-001, 1.1583809E-001, 2.6765772E-002, 1.2402851E-002, 6.8082489E-003, 4.8796487E+002
 1.1500906E+002, 8.9124933E-004, 1.3629012E-001, 1.1570973E-001, 2.6434805E-002, 1.2201692E-002, 6.7414551E-003, 4.8654943E+002
 1.1600934E+002, 9.5154746E-004, 1.3529224E-001, 1.1594378E-001, 2.7054342E-002, 1.2494152E-002, 6.8663914E-003, 4.8395406E+002
 1.1700771E+002, 8.8644996E-004, 1.3537839E-001, 1.1591079E-001, 2.6992321E-002, 1.2797140E-002, 6.8537771E-003, 4.8690370E+002
 1.1800202E+002, 8.6554115E-004, 1.3555999E-001, 1.1585939E-001, 2.6873124E-002, 1.2839567E-002, 6.8296578E-003, 4.8656146E+002
 1.1900110E+002, 9.4323626E-004, 1.3554879E-001, 1.1575107E-001, 2.6795115E-002, 1.3205580E-002, 6.8128456E-003, 4.8310654E+002
 1.2000289E+002, 9.0199307E-004, 1.3496082E-001, 1.1595204E-001, 2.7209048E-002, 1.3309168E-002, 6.8969426E-003, 4.8545901E+002
 1.2100540E+002, 9.3433151E-004, 1.3546603E-001, 1.1580135E-001, 2.6869998E-002, 1.3097576E-002, 6.8282455E-003, 4.8573125E+002
 1.2200313E+002, 9.2305760E-004, 1.3551135E-001, 1.1583507E-001, 2.6875418E-002, 1.2846610E-002, 6.8297648E-003, 4.8629772E+002
 1.2300931E+002, 9.4561875E-004, 1.3543848E-001, 1.1579822E-001, 2.6879702E-002, 1.3124669E-002, 6.8301081E-003, 4.8436915E+002
 1.2400096E+002, 9.4573928E-004, 1.3516720E-001, 1.1586525E-001, 2.7050985E-002, 1.3251002E-002, 6.8646859E-003, 4.8572993E+002
 1.2500408E+002, 9.1288651E-004, 1.3487492E-001, 1.1595839E-001, 2.7251885E-002, 1.3395624E-002, 6.9054475E-003, 4.8547263E+002
 1.2600110E+002, 8.6601578E-004, 1.3530542E-001, 1.1585041E-001, 2.6979712E-002, 1.3399475E-002, 6.8504991E-003, 4.8552624E+002
 1.2700165E+002, 9.0112482E-004, 1.3572821E-001, 1.1570822E-001, 2.6683711E-002, 1.3287977E-002, 6.7903803E-003, 4.8677275E+002
 1.2800676E+002, 8.8739959E-004, 1.3596033E-001, 1.1564863E-001, 2.6535717E-002, 1.3250429E-002, 6.7604864E-003, 4.8685267E+002
 1.2900074E+002, 8.7911210E-004, 1.3509923E-001, 1.1584514E-001, 2.7067323E-002, 1.3787676E-002, 6.8676535E-003, 4.8629752E+002
 1.3000894E+002, 8.5557547E-004, 1.3501428E-001, 1.1583854E-001, 2.7100607E-002, 1.4095437E-002, 6.8741191E-003, 4.8817200E+002
 1.3100863E+002, 9.0207728E-004, 1.3517013E-001, 1.1577659E-001, 2.6983707E-002, 1.3973295E-002, 6.8502879E-003, 4.8608309E+002
 1.3200355E+002, 9.5632543E-004, 1.3536232E-001, 1.1569329E-001, 2.6834397E-002, 1.3878116E-002, 6.8197954E-003, 4.8565568E+002
 1.3300339E+002, 8.9552803E-004, 1.3545643E-001, 1.1563555E-001, 2.6750112E-002, 1.4299838E-002, 6.8024712E-003, 4.8508990E+002
 1.3400977E+002, 9.2218403E-004, 1.3569528E-001, 1.1557935E-001, 2.6600939E-002, 1.4059755E-002, 6.7723767E-003, 4.8541862E+002
 1.3500460E+002, 9.8761376E-004, 1.3537787E-001, 1.1559891E-001, 2.6755823E-002, 1.4298327E-002, 6.8030741E-003, 4.8350525E+002
 1.3600278E+002, 9.0817267E-004, 1.3552122E-001, 1.1556345E-001, 2.6666733E-002, 1.4562432E-002, 6.7851084E-003, 4.8673413E+002
 1.3700025E+002, 9.1611165E-004, 1.3576415E-001, 1.1554696E-001, 2.6545990E-002, 1.4147553E-002, 6.7611409E-003, 4.8646872E+002
 1.3800194E+002, 9.7819060E-004, 1.3569395E-001, 1.1551181E-001, 2.6549641E-002, 1.4245236E-002, 6.7613687E-003, 4.8603966E+002
 1.3901066E+002, 9.9065338E-004, 1.3508255E-001, 1.1561862E-001, 2.6902122E-002, 1.4751853E-002, 6.8321064E-003, 4.8552541E+002
 1.4000706E+002, 9.6471003E-004, 1.3575479E-001, 1.1551172E-001, 2.6522734E-002, 1.4180856E-002, 6.7560809E-003, 4.8481531E+002
 1.4100906E+002, 9.6003968E-004, 1.3544376E-001, 1.1553320E-001, 2.6677502E-002, 1.4686869E-002, 6.7868048E-003, 4.8575038E+002
 1.4200674E+002, 9.4461810E-004, 1.3560298E-001, 1.1553691E-001, 2.6609676E-002, 1.4411410E-002, 6.7735213E-003, 4.8555712E+002
 1.4300132E+002, 9.6998098E-004, 1.3510568E-001, 1.1565343E-001, 2.6918413E-002, 1.4577478E-002, 6.8357816E-003, 4.8476601E+002
 1.4400364E+002, 9.6910058E-004, 1.3526272E-001, 1.1555787E-001, 2.6776531E-002, 1.4857390E-002, 6.8066055E-003, 4.8641614E+002
 1.4500286E+002, 9.2058389E-004, 1.3576224E-001, 1.1545004E-001, 2.6473766E-002, 1.4729864E-002, 6.7456435E-003, 4.8667822E+002
 1.4600514E+002, 9.4207222E-004, 1.3581305E-001, 1.1541265E-001, 2.6422587E-002, 1.4769624E-002, 6.7350727E-003, 4.8516462E+002
 1.4700694E+002, 1.0295551E-003, 1.3535305E-001, 1.1544527E-001, 2.6650408E-002, 1.5119523E-002, 6.7802802E-003, 4.8333659E+002
 1.4800348E+002, 9.6895831E-004, 1.3536346E-001, 1.1550251E-001, 2.6689981E-002, 1.4998614E-002, 6.7888466E-003, 4.8563349E+002
 1.4900503E+002, 9.5861978E-004, 1.3557576E-001, 1.1544049E-001, 2.6548923E-002, 1.5001315E-002, 6.7602830E-003, 4.8486149E+002
 1.5001119E+002, 9.5592233E-004, 1.3556784E-001, 1.1544326E-001, 2.6554583E-002, 1.5011242E-002, 6.7614340E-003, 4.8590458E+002
 1.5100077E+002, 9.6282528E-004, 1.3509228E-001, 1.1554051E-001, 2.6839472E-002, 1.5329620E-002, 6.8187539E-003, 4.8743088E+002
 1.5201098E+002, 9.4591752E-004, 1.3563605E-001, 1.1545997E-001, 2.6536975E-002, 1.4814273E-002, 6.7581975E-003, 4.8422399E+002
 1.5300213E+002, 9.1010945E-004, 1.3553707E-001, 1.1546731E-001, 2.6587233E-002, 1.5115157E-002, 6.7681913E-003, 4.8911167E+002
 1.5400677E+002, 9.9933418E-004, 1.3582161E-001, 1.1527674E-001, 2.6315380E-002, 1.5351367E-002, 6.7121577E-003, 4.8433627E+002
