s,,,,,,,
Time,"O2 EXHAUST","CO2 EXHAUST","H2O EXHAUST","CO EXHAUST","FUEL EXHAUST","SOOT EXHAUST","TEMP EXHAUST"
 0.0000000E+000, 2.3099739E-001, 5.9146498E-004, 5.9412092E-003, 0.0000000E+000, 0.0000000E+000, 0.0000000E+000, 2.0000000E+001
 1.0044702E+000, 2.3099739E-001, 5.9146498E-004, 5.9412092E-003, 4.2620589E-030, 5.4390329E-029, 1.1929165E-030, 2.0579760E+001
 2.0047007E+000, 2.2217953E-001, 7.7149062E-003, 1.0414384E-002, 3.8548540E-005, 2.8654419E-004, 3.7779273E-005, 1.0641444E+002
 3.0017569E+000, 2.1657735E-001, 1.2262899E-002, 1.3273819E-002, 6.5084360E-005, 3.3603955E-004, 6.2311873E-005, 1.5653420E+002
 4.0064149E+000, 2.1107128E-001, 1.6744625E-002, 1.6075922E-002, 8.0423194E-005, 4.0228094E-004, 8.4169299E-005, 2.0557210E+002
 5.0060829E+000, 2.0572904E-001, 2.1096673E-002, 1.8801487E-002, 9.8309494E-005, 4.2498853E-004, 1.0603552E-004, 2.4779629E+002
 6.0066407E+000, 1.9802727E-001, 2.7414730E-002, 2.2722638E-002, 9.9324569E-005, 4.1034646E-004, 1.3242994E-004, 3.0748744E+002
 7.0012134E+000, 1.9129794E-001, 3.2967150E-002, 2.6150676E-002, 8.7473448E-005, 3.2291005E-004, 1.5289347E-004, 3.4911720E+002
 8.0007289E+000, 1.8230964E-001, 4.0403362E-002, 3.0726218E-002, 6.0719733E-005, 1.8223634E-004, 1.7796659E-004, 3.9889433E+002
 9.0050013E+000, 1.7613554E-001, 4.5509129E-002, 3.3869620E-002, 4.3605223E-005, 8.7790587E-005, 1.9545106E-004, 4.2367591E+002
 1.0001037E+001, 1.6664956E-001, 5.3323027E-002, 3.8698361E-002, 3.0205967E-005, 8.8040044E-006, 2.2495238E-004, 4.6000136E+002
 1.1003011E+001, 1.5825858E-001, 6.0203920E-002, 4.2969848E-002, 3.2054140E-005, 7.7405582E-007, 2.5385736E-004, 4.8261043E+002
 1.2000694E+001, 1.5255896E-001, 6.4875521E-002, 4.5871253E-002, 3.4293522E-005, 8.1550529E-008, 2.7369276E-004, 4.9189842E+002
 1.3000823E+001, 1.4507007E-001, 7.1012862E-002, 4.9683622E-002, 3.7679013E-005, 1.2840995E-007, 2.9984669E-004, 5.0715640E+002
 1.4000990E+001, 1.3892311E-001, 7.6050683E-002, 5.2812779E-002, 4.0306179E-005, 1.0114182E-007, 3.2128254E-004, 5.1145920E+002
 1.5002505E+001, 1.3269198E-001, 8.1157440E-002, 5.5984794E-002, 4.2997705E-005, 9.3701575E-008, 3.4301781E-004, 5.1997064E+002
 1.6007095E+001, 1.2875693E-001, 8.4382284E-002, 5.7988017E-002, 4.4795129E-005, 1.2883387E-007, 3.5676427E-004, 5.1600338E+002
 1.7008490E+001, 1.2238828E-001, 8.9601504E-002, 6.1230131E-002, 4.7715762E-005, 1.4767179E-007, 3.7901461E-004, 5.2375297E+002
 1.8002119E+001, 1.2094708E-001, 9.0782996E-002, 6.1963661E-002, 4.8100040E-005, 7.3024197E-008, 3.8399213E-004, 5.2031295E+002
 1.9000050E+001, 1.1599412E-001, 9.4841874E-002, 6.4485141E-002, 5.0478716E-005, 1.6255431E-007, 4.0131877E-004, 5.2491020E+002
 2.0000238E+001, 1.1282921E-001, 9.7435820E-002, 6.6096229E-002, 5.1764086E-005, 1.0658678E-007, 4.1234153E-004, 5.2164378E+002
 2.1002716E+001, 1.1074857E-001, 9.9141053E-002, 6.7155385E-002, 5.2639580E-005, 9.2137685E-008, 4.1959431E-004, 5.1843343E+002
 2.2001995E+001, 1.0751007E-001, 1.0179486E-001, 6.8804075E-002, 5.4250300E-005, 2.4696348E-007, 4.3093483E-004, 5.1907455E+002
 2.3007934E+001, 1.0466908E-001, 1.0412340E-001, 7.0250251E-002, 5.5355519E-005, 1.4633641E-007, 4.4081935E-004, 5.1581368E+002
 2.4001669E+001, 1.0292929E-001, 1.0554933E-001, 7.1135886E-002, 5.6058228E-005, 9.6568705E-008, 4.4687790E-004, 5.2160521E+002
 2.5004191E+001, 9.9978013E-002, 1.0796799E-001, 7.2638278E-002, 5.7375467E-005, 1.5146469E-007, 4.5718126E-004, 5.1802255E+002
 2.6006192E+001, 9.8085614E-002, 1.0951886E-001, 7.3601650E-002, 5.8238242E-005, 1.2355460E-007, 4.6379176E-004, 5.1357582E+002
 2.7006135E+001, 9.5513839E-002, 1.1162662E-001, 7.4910818E-002, 5.9315617E-005, 1.2036875E-007, 4.7275557E-004, 5.1711013E+002
 2.8008616E+001, 9.2668063E-002, 1.1395813E-001, 7.6359746E-002, 6.1054646E-005, 3.6381516E-007, 4.8278827E-004, 5.1335526E+002
 2.9005572E+001, 9.1834199E-002, 1.1464153E-001, 7.6784238E-002, 6.1417621E-005, 3.3192920E-007, 4.8569754E-004, 5.0940409E+002
 3.0004479E+001, 8.8796223E-002, 1.1712294E-001, 7.8333673E-002, 6.8380344E-005, 2.6474671E-006, 4.9747128E-004, 5.1284423E+002
 3.1007634E+001, 8.6344970E-002, 1.1912140E-001, 7.9585075E-002, 7.6439965E-005, 5.9660666E-006, 5.0747929E-004, 5.1394523E+002
 3.2007371E+001, 8.5571383E-002, 1.1974966E-001, 7.9980741E-002, 8.0548706E-005, 8.2366959E-006, 5.1096321E-004, 5.1147236E+002
 3.3005478E+001, 8.3401755E-002, 1.2151833E-001, 8.1088474E-002, 8.7841296E-005, 1.1054629E-005, 5.1985465E-004, 5.0897230E+002
 3.4002996E+001, 8.1461871E-002, 1.2309623E-001, 8.2080152E-002, 9.6725183E-005, 1.4368834E-005, 5.2829691E-004, 5.0905390E+002
 3.5005441E+001, 7.8346735E-002, 1.2563280E-001, 8.3671885E-002, 1.0929659E-004, 1.7898510E-005, 5.4150174E-004, 5.1166697E+002
 3.6002931E+001, 7.7616078E-002, 1.2623723E-001, 8.4041510E-002, 1.0558290E-004, 1.8167729E-005, 5.4320976E-004, 5.1256122E+002
 3.7007012E+001, 7.5287821E-002, 1.2811612E-001, 8.5237180E-002, 1.2646964E-004, 2.5035472E-005, 5.5547250E-004, 5.1055424E+002
 3.8002733E+001, 7.3567046E-002, 1.2953121E-001, 8.6111322E-002, 1.2385908E-004, 2.4457408E-005, 5.6077578E-004, 5.1560487E+002
 3.9006722E+001, 7.3540949E-002, 1.2955157E-001, 8.6124892E-002, 1.2451349E-004, 2.5103929E-005, 5.6100045E-004, 5.0924684E+002
 4.0005317E+001, 7.1915254E-002, 1.3087788E-001, 8.6954462E-002, 1.2920883E-004, 2.7331998E-005, 5.6750228E-004, 5.0876114E+002
 4.1002477E+001, 7.0020117E-002, 1.3243470E-001, 8.7917825E-002, 1.2750299E-004, 2.6840655E-005, 5.7358669E-004, 5.1012248E+002
 4.2005039E+001, 6.8602725E-002, 1.3358337E-001, 8.8644150E-002, 1.3702808E-004, 2.9082324E-005, 5.8038807E-004, 5.1000066E+002
 4.3005588E+001, 6.5971857E-002, 1.3572499E-001, 8.9988795E-002, 1.4816476E-004, 3.1554184E-005, 5.9164890E-004, 5.1412635E+002
 4.4000552E+001, 6.5035035E-002, 1.3648360E-001, 9.0468793E-002, 1.5468036E-004, 3.4567349E-005, 5.9618895E-004, 5.1176625E+002
 4.5006407E+001, 6.3311872E-002, 1.3789409E-001, 9.1346538E-002, 1.5656016E-004, 3.5314953E-005, 6.0243589E-004, 5.1286524E+002
 4.6004665E+001, 6.2496846E-002, 1.3856559E-001, 9.1760286E-002, 1.5458737E-004, 3.3923972E-005, 6.0479502E-004, 5.1745825E+002
 4.7007574E+001, 6.2372710E-002, 1.3867822E-001, 9.1819090E-002, 1.4690010E-004, 3.3845440E-005, 6.0361350E-004, 5.0974899E+002
 4.8008036E+001, 5.9074544E-002, 1.4136102E-001, 9.3505898E-002, 1.6249151E-004, 3.5495715E-005, 6.1807167E-004, 5.1313565E+002
 4.9008160E+001, 5.9329797E-002, 1.4115991E-001, 9.3372730E-002, 1.5665822E-004, 3.5308877E-005, 6.1598775E-004, 5.1075254E+002
 5.0009085E+001, 5.7669924E-002, 1.4252124E-001, 9.4217267E-002, 1.5665149E-004, 3.5518373E-005, 6.2162656E-004, 5.1554288E+002
 5.1001303E+001, 5.6966580E-002, 1.4309203E-001, 9.4577250E-002, 1.6073668E-004, 3.7217569E-005, 6.2486732E-004, 5.1220760E+002
 5.2001617E+001, 5.4944649E-002, 1.4473366E-001, 9.5611936E-002, 1.7203751E-004, 4.1445214E-005, 6.3409180E-004, 5.0906231E+002
 5.3004018E+001, 5.3862328E-002, 1.4561274E-001, 9.6166042E-002, 1.7810648E-004, 4.1787771E-005, 6.3903520E-004, 5.1147525E+002
 5.4006886E+001, 5.2606701E-002, 1.4664316E-001, 9.6804993E-002, 1.7789183E-004, 4.0225212E-005, 6.4325837E-004, 5.1324417E+002
 5.5008597E+001, 5.3383431E-002, 1.4602346E-001, 9.6403248E-002, 1.6587276E-004, 3.7834097E-005, 6.3811394E-004, 5.1594732E+002
 5.6003744E+001, 5.1322543E-002, 1.4769444E-001, 9.7459264E-002, 1.7932808E-004, 3.9765587E-005, 6.4792197E-004, 5.1393735E+002
 5.7007421E+001, 5.1052852E-002, 1.4789287E-001, 9.7604570E-002, 1.9476706E-004, 4.5350519E-005, 6.5205426E-004, 5.0632231E+002
 5.8000499E+001, 5.0135792E-002, 1.4863558E-001, 9.8074178E-002, 2.0092541E-004, 4.9432392E-005, 6.5645180E-004, 5.0872465E+002
 5.9009239E+001, 4.8979214E-002, 1.4959879E-001, 9.8657744E-002, 1.9118960E-004, 4.4451313E-005, 6.5835517E-004, 5.1096609E+002
 6.0000622E+001, 4.7354312E-002, 1.5093027E-001, 9.9485245E-002, 1.9220920E-004, 4.3246856E-005, 6.6409033E-004, 5.1448446E+002
 6.1002175E+001, 4.7264824E-002, 1.5099624E-001, 9.9533262E-002, 1.9714132E-004, 4.5819662E-005, 6.6542113E-004, 5.0888613E+002
 6.2000405E+001, 4.7154488E-002, 1.5108164E-001, 9.9591173E-002, 2.0057345E-004, 4.7281158E-005, 6.6651078E-004, 5.1163453E+002
 6.3002042E+001, 4.6079024E-002, 1.5193955E-001, 1.0014721E-001, 2.1712388E-004, 5.1927007E-005, 6.7361372E-004, 5.0576584E+002
 6.4008429E+001, 4.6015653E-002, 1.5203398E-001, 1.0016426E-001, 1.8824129E-004, 4.2129423E-005, 6.6781245E-004, 5.1375705E+002
 6.5006753E+001, 4.4762051E-002, 1.5304539E-001, 1.0080780E-001, 1.9943273E-004, 4.7496017E-005, 6.7440237E-004, 5.0792786E+002
 6.6005786E+001, 4.2845876E-002, 1.5458558E-001, 1.0179437E-001, 2.2101720E-004, 5.2970030E-005, 6.8541145E-004, 5.1405568E+002
 6.7004864E+001, 4.2820029E-002, 1.5464721E-001, 1.0179283E-001, 1.9336551E-004, 4.4727584E-005, 6.7973819E-004, 5.1729494E+002
 6.8002007E+001, 4.2550981E-002, 1.5485365E-001, 1.0193494E-001, 2.0312981E-004, 4.7369834E-005, 6.8268699E-004, 5.1089558E+002
 6.9000952E+001, 4.1791480E-002, 1.5547414E-001, 1.0232274E-001, 2.0510761E-004, 4.5483748E-005, 6.8568184E-004, 5.1220289E+002
 7.0007024E+001, 4.0023661E-002, 1.5690806E-001, 1.0322823E-001, 2.1616049E-004, 4.7818316E-005, 6.9399259E-004, 5.1884936E+002
 7.1008210E+001, 4.0147131E-002, 1.5682223E-001, 1.0315980E-001, 2.0560602E-004, 4.4666705E-005, 6.9137407E-004, 5.1078258E+002
 7.2007812E+001, 3.9448678E-002, 1.5740229E-001, 1.0351251E-001, 2.0064075E-004, 4.3433992E-005, 6.9271278E-004, 5.1282423E+002
 7.3006527E+001, 3.8744643E-002, 1.5795378E-001, 1.0388066E-001, 2.1871571E-004, 4.6199407E-005, 6.9887303E-004, 5.0990566E+002
 7.4007395E+001, 3.7751633E-002, 1.5875358E-001, 1.0439069E-001, 2.2835613E-004, 5.1911759E-005, 7.0425366E-004, 5.1690290E+002
 7.5008096E+001, 3.9184700E-002, 1.5760418E-001, 1.0365164E-001, 2.1030100E-004, 4.8877266E-005, 6.9562045E-004, 5.1136657E+002
 7.6006223E+001, 3.6499085E-002, 1.5978795E-001, 1.0502635E-001, 2.2413585E-004, 4.5859372E-005, 7.0763441E-004, 5.1139398E+002
 7.7005727E+001, 3.7035176E-002, 1.5935796E-001, 1.0474933E-001, 2.1701266E-004, 4.7569248E-005, 7.0432564E-004, 5.1273920E+002
 7.8003222E+001, 3.6751876E-002, 1.5957818E-001, 1.0489841E-001, 2.2566739E-004, 4.7392938E-005, 7.0709364E-004, 5.1439298E+002
 7.9002051E+001, 3.6243661E-002, 1.5999054E-001, 1.0515842E-001, 2.2858170E-004, 4.9260114E-005, 7.0942700E-004, 5.1154809E+002
 8.0009536E+001, 3.5230342E-002, 1.6079336E-001, 1.0568445E-001, 2.4802454E-004, 5.4223570E-005, 7.1692180E-004, 5.1191254E+002
 8.1009986E+001, 3.5798430E-002, 1.6032620E-001, 1.0539575E-001, 2.4880200E-004, 5.4979733E-005, 7.1515296E-004, 5.1334107E+002
 8.2002133E+001, 3.5927238E-002, 1.6024991E-001, 1.0531927E-001, 2.2854583E-004, 5.0338097E-005, 7.1049390E-004, 5.1077638E+002
 8.3005752E+001, 3.4148845E-002, 1.6169557E-001, 1.0622913E-001, 2.3757421E-004, 5.1475671E-005, 7.1841925E-004, 5.1297077E+002
 8.4001984E+001, 3.3465561E-002, 1.6225909E-001, 1.0657572E-001, 2.3548050E-004, 5.0567815E-005, 7.2030511E-004, 5.1710940E+002
 8.5002156E+001, 3.3926369E-002, 1.6186471E-001, 1.0634792E-001, 2.4719400E-004, 5.0478483E-005, 7.2118251E-004, 5.1139903E+002
 8.6003237E+001, 3.3887801E-002, 1.6191731E-001, 1.0635955E-001, 2.3260041E-004, 4.8047316E-005, 7.1827156E-004, 5.1340651E+002
 8.7002050E+001, 3.2809059E-002, 1.6279966E-001, 1.0690970E-001, 2.3451122E-004, 4.6534677E-005, 7.2233695E-004, 5.1560007E+002
 8.8004025E+001, 3.3657772E-002, 1.6209250E-001, 1.0648152E-001, 2.4183490E-004, 5.0666381E-005, 7.2097728E-004, 5.0578640E+002
 8.9009520E+001, 3.2775548E-002, 1.6281474E-001, 1.0693100E-001, 2.4282036E-004, 5.0364465E-005, 7.2418093E-004, 5.1577894E+002
 9.0007211E+001, 3.2247785E-002, 1.6323713E-001, 1.0720313E-001, 2.4983101E-004, 5.3554061E-005, 7.2743408E-004, 5.1363570E+002
 9.1002757E+001, 3.2199335E-002, 1.6329005E-001, 1.0722287E-001, 2.4073692E-004, 5.1438603E-005, 7.2570354E-004, 5.1049096E+002
 9.2005268E+001, 3.2876865E-002, 1.6275496E-001, 1.0687045E-001, 2.2651749E-004, 4.8223465E-005, 7.2043789E-004, 5.0812311E+002
 9.3004491E+001, 3.0987563E-002, 1.6428627E-001, 1.0783908E-001, 2.3945199E-004, 4.8450821E-005, 7.2955557E-004, 5.1378315E+002
 9.4007985E+001, 3.1899960E-002, 1.6352885E-001, 1.0737866E-001, 2.4602785E-004, 4.7735280E-005, 7.2782732E-004, 5.1246258E+002
 9.5004710E+001, 3.1337817E-002, 1.6395336E-001, 1.0767769E-001, 2.7083124E-004, 5.6555848E-005, 7.3490406E-004, 5.1274846E+002
 9.6006055E+001, 3.0233089E-002, 1.6486316E-001, 1.0823842E-001, 2.6826531E-004, 5.5857695E-005, 7.3812336E-004, 5.0831659E+002
 9.7001023E+001, 2.9725673E-002, 1.6527020E-001, 1.0849993E-001, 2.7451543E-004, 5.7645851E-005, 7.4114984E-004, 5.1472482E+002
 9.8007093E+001, 3.0973791E-002, 1.6426588E-001, 1.0785762E-001, 2.6113780E-004, 5.4819963E-005, 7.3412057E-004, 5.1124741E+002
 9.9000723E+001, 3.0751719E-002, 1.6446177E-001, 1.0796554E-001, 2.5167855E-004, 5.2394284E-005, 7.3290409E-004, 5.1161003E+002
 1.0000413E+002, 2.9816029E-002, 1.6523162E-001, 1.0844114E-001, 2.5028439E-004, 4.9911759E-005, 7.3579480E-004, 5.1550484E+002
 1.0100339E+002, 2.9854496E-002, 1.6518396E-001, 1.0842732E-001, 2.6122505E-004, 5.3743743E-005, 7.3794306E-004, 5.1343812E+002
 1.0200944E+002, 2.9831334E-002, 1.6522566E-001, 1.0843108E-001, 2.4585379E-004, 4.7966628E-005, 7.3482019E-004, 5.1268144E+002
 1.0300391E+002, 3.0124368E-002, 1.6497933E-001, 1.0828360E-001, 2.4957733E-004, 5.2008558E-005, 7.3459791E-004, 5.1778376E+002
 1.0400593E+002, 2.8520550E-002, 1.6627391E-001, 1.0910845E-001, 2.6464377E-004, 5.0038164E-005, 7.4319190E-004, 5.1275321E+002
 1.0500779E+002, 2.9307173E-002, 1.6561229E-001, 1.0871270E-001, 2.7490042E-004, 6.0836316E-005, 7.4264974E-004, 5.0869414E+002
 1.0600178E+002, 2.8672965E-002, 1.6615194E-001, 1.0902918E-001, 2.6215620E-004, 5.2491228E-005, 7.4215320E-004, 5.1183433E+002
 1.0700003E+002, 2.8890142E-002, 1.6596718E-001, 1.0892085E-001, 2.6653827E-004, 5.5016682E-005, 7.4232724E-004, 5.1187764E+002
 1.0800266E+002, 2.9087054E-002, 1.6580435E-001, 1.0882129E-001, 2.6754838E-004, 5.4560448E-005, 7.4186916E-004, 5.1297771E+002
 1.0900431E+002, 2.7376576E-002, 1.6719430E-001, 1.0969565E-001, 2.7593850E-004, 6.0471519E-005, 7.4942686E-004, 5.1493137E+002
 1.1000279E+002, 2.8922570E-002, 1.6594978E-001, 1.0890086E-001, 2.6014343E-004, 5.3924242E-005, 7.4088408E-004, 5.1360395E+002
 1.1100941E+002, 2.7780560E-002, 1.6686507E-001, 1.0949039E-001, 2.7522150E-004, 5.4731233E-005, 7.4790905E-004, 5.1448616E+002
 1.1200029E+002, 2.7630377E-002, 1.6700123E-001, 1.0956209E-001, 2.6634247E-004, 5.2072778E-005, 7.4656949E-004, 5.0778273E+002
 1.1300167E+002, 2.8362794E-002, 1.6640559E-001, 1.0918699E-001, 2.6247436E-004, 5.4045940E-005, 7.4327233E-004, 5.1441681E+002
 1.1401062E+002, 2.9283355E-002, 1.6564648E-001, 1.0872017E-001, 2.6533443E-004, 5.4449791E-005, 7.4074042E-004, 5.1031293E+002
 1.1500684E+002, 2.8004381E-002, 1.6671368E-001, 1.0936481E-001, 2.5321018E-004, 4.8165968E-005, 7.4256255E-004, 5.1335017E+002
 1.1600697E+002, 2.6944001E-002, 1.6757213E-001, 1.0990878E-001, 2.6112683E-004, 4.8740191E-005, 7.4781659E-004, 5.1412827E+002
 1.1700146E+002, 2.7789017E-002, 1.6688722E-001, 1.0947490E-001, 2.5490875E-004, 5.1879021E-005, 7.4364574E-004, 5.1053403E+002
 1.1800491E+002, 2.7233638E-002, 1.6732370E-001, 1.0976477E-001, 2.6816923E-004, 5.3900809E-005, 7.4829723E-004, 5.1573501E+002
 1.1900971E+002, 2.5697602E-002, 1.6855902E-001, 1.1055613E-001, 2.8551843E-004, 5.4386621E-005, 7.5713509E-004, 5.1366099E+002
 1.2000499E+002, 2.7604581E-002, 1.6705336E-001, 1.0956363E-001, 2.4493388E-004, 4.7434649E-005, 7.4219541E-004, 5.1415863E+002
 1.2100065E+002, 2.7031605E-002, 1.6751052E-001, 1.0986001E-001, 2.5380246E-004, 4.9025239E-005, 7.4599098E-004, 5.1573378E+002
 1.2200105E+002, 2.6968750E-002, 1.6749752E-001, 1.0991524E-001, 2.9780386E-004, 6.3233140E-005, 7.5537117E-004, 5.1049303E+002
 1.2300141E+002, 2.6197707E-002, 1.6816786E-001, 1.1029384E-001, 2.7190400E-004, 5.5098058E-005, 7.5259546E-004, 5.0717027E+002
 1.2400556E+002, 2.7401779E-002, 1.6720042E-001, 1.0967350E-001, 2.5789492E-004, 5.2941592E-005, 7.4558362E-004, 5.1227628E+002
 1.2500013E+002, 2.6670742E-002, 1.6778967E-001, 1.1004944E-001, 2.6510519E-004, 5.3922873E-005, 7.4957088E-004, 5.1050201E+002
 1.2600392E+002, 2.6539564E-002, 1.6789581E-001, 1.1011680E-001, 2.6615880E-004, 5.3775958E-005, 7.5023651E-004, 5.1252836E+002
 1.2700631E+002, 2.7083205E-002, 1.6746568E-001, 1.0983402E-001, 2.5508799E-004, 5.2796727E-005, 7.4608081E-004, 5.1386934E+002
 1.2800914E+002, 2.7280491E-002, 1.6727406E-001, 1.0974510E-001, 2.7590047E-004, 5.5742273E-005, 7.4974915E-004, 5.0813486E+002
 1.2900865E+002, 2.5710202E-002, 1.6855012E-001, 1.1054874E-001, 2.8423255E-004, 5.6372280E-005, 7.5682251E-004, 5.1329195E+002
 1.3000494E+002, 2.5458432E-002, 1.6875865E-001, 1.1067608E-001, 2.8281994E-004, 5.6063093E-005, 7.5738365E-004, 5.1709150E+002
 1.3100440E+002, 2.5643785E-002, 1.6856201E-001, 1.1059854E-001, 3.1371507E-004, 6.2396402E-005, 7.6319290E-004, 5.0846156E+002
 1.3200148E+002, 2.6445450E-002, 1.6795319E-001, 1.1017206E-001, 2.7982285E-004, 5.6911111E-005, 7.5340389E-004, 5.1261322E+002
 1.3300336E+002, 2.5848277E-002, 1.6845336E-001, 1.1047268E-001, 2.7308625E-004, 5.2087567E-005, 7.5403180E-004, 5.1346699E+002
 1.3400688E+002, 2.5961449E-002, 1.6835980E-001, 1.1041520E-001, 2.7348054E-004, 5.3065652E-005, 7.5372871E-004, 5.0545172E+002
 1.3500049E+002, 2.5520001E-002, 1.6870646E-001, 1.1064549E-001, 2.8406643E-004, 5.5792146E-005, 7.5743464E-004, 5.1652529E+002
 1.3600523E+002, 2.6356588E-002, 1.6804584E-001, 1.1020997E-001, 2.6621806E-004, 5.3515154E-005, 7.5087085E-004, 5.1530335E+002
 1.3700679E+002, 2.5299206E-002, 1.6891006E-001, 1.1074959E-001, 2.6862479E-004, 5.1523033E-005, 7.5496747E-004, 5.1478133E+002
 1.3800871E+002, 2.4395253E-002, 1.6961223E-001, 1.1122449E-001, 2.9592122E-004, 5.6005122E-005, 7.6372911E-004, 5.1226917E+002
 1.3900773E+002, 2.5138510E-002, 1.6901778E-001, 1.1084044E-001, 2.8532021E-004, 5.4738594E-005, 7.5899331E-004, 5.1428710E+002
 1.4000047E+002, 2.4685515E-002, 1.6938498E-001, 1.1107182E-001, 2.8781646E-004, 5.9076619E-005, 7.6104988E-004, 5.1412743E+002
 1.4100174E+002, 2.5966730E-002, 1.6834724E-001, 1.1041593E-001, 2.7939377E-004, 5.2601688E-005, 7.5494450E-004, 5.1186662E+002
 1.4200425E+002, 2.5797372E-002, 1.6846461E-001, 1.1050977E-001, 2.9400917E-004, 5.7788831E-005, 7.5856438E-004, 5.0826896E+002
 1.4300886E+002, 2.5686532E-002, 1.6854976E-001, 1.1056838E-001, 2.9803218E-004, 5.8319238E-005, 7.5977973E-004, 5.0508150E+002
 1.4400084E+002, 2.6554025E-002, 1.6786622E-001, 1.1011642E-001, 2.7864615E-004, 5.4701952E-005, 7.5279124E-004, 5.0787654E+002
 1.4500199E+002, 2.5856331E-002, 1.6845995E-001, 1.1046336E-001, 2.6376897E-004, 5.1537589E-005, 7.5206148E-004, 5.0620628E+002
 1.4600384E+002, 2.6030928E-002, 1.6830134E-001, 1.1038050E-001, 2.7456210E-004, 5.2796334E-005, 7.5371842E-004, 5.1157857E+002
 1.4700126E+002, 2.5758199E-002, 1.6851731E-001, 1.1052233E-001, 2.8001895E-004, 5.3044706E-005, 7.5578316E-004, 5.1447118E+002
 1.4800229E+002, 2.5873057E-002, 1.6844359E-001, 1.1045591E-001, 2.6564613E-004, 5.1542986E-005, 7.5239618E-004, 5.1132575E+002
 1.4900858E+002, 2.4791806E-002, 1.6927581E-001, 1.1102693E-001, 3.0366788E-004, 5.7559125E-005, 7.6399616E-004, 5.1551381E+002
 1.5000758E+002, 2.4725473E-002, 1.6938042E-001, 1.1104144E-001, 2.6866192E-004, 5.2256299E-005, 7.5692423E-004, 5.1616217E+002
 1.5100685E+002, 2.4757421E-002, 1.6932198E-001, 1.1103723E-001, 2.9093137E-004, 5.7193225E-005, 7.6145672E-004, 5.1537459E+002
 1.5200500E+002, 2.4881293E-002, 1.6921267E-001, 1.1097803E-001, 2.9690096E-004, 5.3663923E-005, 7.6228369E-004, 5.1277304E+002
 1.5300386E+002, 2.3730080E-002, 1.7014473E-001, 1.1156800E-001, 3.0505851E-004, 5.7110280E-005, 7.6789439E-004, 5.1346688E+002
 1.5400143E+002, 2.4056291E-002, 1.6990412E-001, 1.1139201E-001, 2.8648859E-004, 5.2688708E-005, 7.6291608E-004, 5.1370527E+002
