s,,,,,,,
Time,"O2 EXHAUST","CO2 EXHAUST","H2O EXHAUST","CO EXHAUST","FUEL EXHAUST","SOOT EXHAUST","TEMP EXHAUST"
 0.0000000E+000, 2.3134768E-001, 5.9236189E-004, 4.4338011E-003, 0.0000000E+000, 0.0000000E+000, 0.0000000E+000, 2.0000000E+001
 1.0038456E+000, 2.3134768E-001, 5.9236189E-004, 4.4338011E-003, 3.8573258E-031, 2.9458412E-030, 1.1334478E-031, 2.0391487E+001
 2.0055459E+000, 2.2436419E-001, 6.0324649E-003, 9.0183954E-003, 2.9364161E-005, 8.2891722E-005, 3.7899671E-005, 9.8314873E+001
 3.0051838E+000, 2.1983783E-001, 9.5497899E-003, 1.1998784E-002, 5.6815942E-005, 1.1848809E-004, 6.4235683E-005, 1.3167997E+002
 4.0023236E+000, 2.1632184E-001, 1.2280488E-002, 1.4310759E-002, 7.7178998E-005, 1.6179715E-004, 8.4476466E-005, 1.6500192E+002
 5.0048475E+000, 2.1285245E-001, 1.4944047E-002, 1.6601236E-002, 1.1565304E-004, 2.3054551E-004, 1.0824673E-004, 1.9561157E+002
 6.0007663E+000, 2.0747294E-001, 1.9190631E-002, 2.0125368E-002, 1.0971709E-004, 2.1076496E-004, 1.3158716E-004, 2.3774642E+002
 7.0045171E+000, 2.0351558E-001, 2.2317758E-002, 2.2717986E-002, 1.0401624E-004, 1.8916743E-004, 1.4848702E-004, 2.6618622E+002
 8.0028285E+000, 1.9898565E-001, 2.5911971E-002, 2.5682024E-002, 8.9122530E-005, 1.4957655E-004, 1.6610625E-004, 2.9732234E+002
 9.0041310E+000, 1.9567821E-001, 2.8537228E-002, 2.7845312E-002, 7.7364590E-005, 1.2201897E-004, 1.7878527E-004, 3.1496067E+002
 1.0000412E+001, 1.8867107E-001, 3.4105146E-002, 3.2428151E-002, 4.9628419E-005, 5.2562056E-005, 2.0507068E-004, 3.5672806E+002
 1.1000855E+001, 1.8431996E-001, 3.7557198E-002, 3.5274849E-002, 3.5274066E-005, 1.6451187E-005, 2.2198226E-004, 3.7511240E+002
 1.2009031E+001, 1.8038881E-001, 4.0661094E-002, 3.7849967E-002, 3.0552621E-005, 1.4235166E-006, 2.3895934E-004, 3.9432366E+002
 1.3008819E+001, 1.7368216E-001, 4.5935861E-002, 4.2247546E-002, 3.3823930E-005, 4.6496652E-008, 2.7025421E-004, 4.1181438E+002
 1.4001206E+001, 1.6715137E-001, 5.1071178E-002, 4.6530056E-002, 3.7636121E-005, 2.7348548E-008, 3.0085749E-004, 4.3274682E+002
 1.5007440E+001, 1.6145018E-001, 5.5554141E-002, 5.0268564E-002, 4.0973433E-005, 2.1151785E-008, 3.2757517E-004, 4.3473857E+002
 1.6001715E+001, 1.5596739E-001, 5.9865320E-002, 5.3863880E-002, 4.4216789E-005, 6.7149207E-008, 3.5327640E-004, 4.5055137E+002
 1.7000095E+001, 1.5542333E-001, 6.0293216E-002, 5.4220611E-002, 4.4478908E-005, 1.4955155E-009, 3.5581438E-004, 4.4028369E+002
 1.8000374E+001, 1.5064526E-001, 6.4050234E-002, 5.7353819E-002, 4.7324656E-005, 2.8035213E-008, 3.7821613E-004, 4.4801112E+002
 1.9009893E+001, 1.4613193E-001, 6.7599198E-002, 6.0313383E-002, 4.9941398E-005, 1.9646797E-008, 3.9936188E-004, 4.5327762E+002
 2.0004229E+001, 1.4160961E-001, 7.1155173E-002, 6.3278867E-002, 5.2601717E-005, 2.6648712E-008, 4.2055771E-004, 4.5835575E+002
 2.1001314E+001, 1.3933445E-001, 7.2944193E-002, 6.4770777E-002, 5.3923060E-005, 2.0364874E-008, 4.3121769E-004, 4.5633579E+002
 2.2008292E+001, 1.3524361E-001, 7.6160916E-002, 6.7453309E-002, 5.6311427E-005, 1.0209573E-008, 4.5038745E-004, 4.6048362E+002
 2.3008330E+001, 1.3180152E-001, 7.8867496E-002, 6.9710440E-002, 5.8334398E-005, 1.8112934E-008, 4.6651994E-004, 4.5845530E+002
 2.4005400E+001, 1.3048399E-001, 7.9903516E-002, 7.0574388E-002, 5.9090899E-005, 3.2344546E-009, 4.7269125E-004, 4.5383930E+002
 2.5004314E+001, 1.2575322E-001, 8.3623367E-002, 7.3676579E-002, 6.1896737E-005, 3.1480347E-008, 4.9486885E-004, 4.6202875E+002
 2.6003366E+001, 1.2264573E-001, 8.6066888E-002, 7.5714273E-002, 6.3690888E-005, 1.3698861E-008, 5.0942642E-004, 4.6096392E+002
 2.7001756E+001, 1.2022555E-001, 8.7969938E-002, 7.7301287E-002, 6.5102390E-005, 7.8395844E-009, 5.2076714E-004, 4.5755320E+002
 2.8003954E+001, 1.1765270E-001, 8.9992975E-002, 7.8988423E-002, 6.6635037E-005, 2.8568777E-008, 5.3282985E-004, 4.5474476E+002
 2.9007488E+001, 1.1475639E-001, 9.2270148E-002, 8.0887763E-002, 6.8499523E-005, 1.3264861E-007, 5.4643803E-004, 4.6236256E+002
 3.0003444E+001, 1.1003068E-001, 9.5986176E-002, 8.3986555E-002, 7.1191913E-005, 1.3526507E-007, 5.6856891E-004, 4.6787091E+002
 3.1002490E+001, 1.1096477E-001, 9.5251840E-002, 8.3373983E-002, 7.0549442E-005, 2.2229101E-008, 5.6417167E-004, 4.5593558E+002
 3.2001357E+001, 1.0605670E-001, 9.9111159E-002, 8.6592413E-002, 7.3423483E-005, 2.6374230E-008, 5.8717276E-004, 4.6782211E+002
 3.3003664E+001, 1.0699277E-001, 9.8375051E-002, 8.5978613E-002, 7.2910728E-005, 4.8651899E-008, 5.8279331E-004, 4.6023918E+002
 3.4005822E+001, 1.0199925E-001, 1.0230149E-001, 8.9253100E-002, 7.5877435E-005, 9.0159157E-008, 6.0620368E-004, 4.6458874E+002
 3.5007194E+001, 9.9056955E-002, 1.0461515E-001, 9.1182454E-002, 7.7551889E-005, 6.1661156E-008, 6.1998231E-004, 4.6508212E+002
 3.6001128E+001, 9.8615431E-002, 1.0496241E-001, 9.1471953E-002, 7.7761555E-005, 5.7333270E-009, 6.2204134E-004, 4.4982726E+002
 3.7001843E+001, 9.2341613E-002, 1.0989514E-001, 9.5586098E-002, 8.1726373E-005, 4.5854609E-007, 6.5150292E-004, 4.7268208E+002
 3.8000927E+001, 9.1780878E-002, 1.1033638E-001, 9.5953718E-002, 8.1873919E-005, 1.2090340E-007, 6.5409347E-004, 4.6313410E+002
 3.9003190E+001, 8.8465192E-002, 1.1294353E-001, 9.8127971E-002, 8.3843111E-005, 1.3756204E-007, 6.6963776E-004, 4.7582192E+002
 4.0001304E+001, 8.7883235E-002, 1.1340135E-001, 9.8509509E-002, 8.4051930E-005, 9.4281932E-009, 6.7233770E-004, 4.6168618E+002
 4.1007483E+001, 8.7181195E-002, 1.1395334E-001, 9.8969880E-002, 8.4486714E-005, 3.5775761E-008, 6.7563263E-004, 4.6003953E+002
 4.2009707E+001, 8.3326846E-002, 1.1695119E-001, 1.0150525E-001, 1.0535093E-004, 3.4978179E-005, 6.9753099E-004, 4.6876819E+002
 4.3007845E+001, 7.8439942E-002, 1.2074407E-001, 1.0472127E-001, 1.3610992E-004, 8.9946948E-005, 7.2618052E-004, 4.8240138E+002
 4.4003296E+001, 7.8315875E-002, 1.2087305E-001, 1.0479686E-001, 1.1933995E-004, 4.9317824E-005, 7.2329975E-004, 4.7186415E+002
 4.5011550E+001, 7.5105059E-002, 1.2327852E-001, 1.0692549E-001, 1.8581261E-004, 1.9827285E-004, 7.5163181E-004, 4.7265311E+002
 4.6001276E+001, 7.5096250E-002, 1.2335755E-001, 1.0691453E-001, 1.4535040E-004, 1.1923007E-004, 7.4333495E-004, 4.6556629E+002
 4.7005201E+001, 7.2990716E-002, 1.2491689E-001, 1.0832640E-001, 2.0518183E-004, 1.8922352E-004, 7.6532323E-004, 4.6349897E+002
 4.8002412E+001, 6.9746709E-002, 1.2695640E-001, 1.1056004E-001, 4.8768645E-004, 7.9921522E-004, 8.3827808E-004, 4.6758868E+002
 4.9000337E+001, 7.0661395E-002, 1.2659590E-001, 1.0989012E-001, 2.9262527E-004, 3.5299156E-004, 7.9398025E-004, 4.6009038E+002
 5.0001431E+001, 6.9268241E-002, 1.2751418E-001, 1.1082227E-001, 3.8123596E-004, 6.3798049E-004, 8.1847904E-004, 4.5296749E+002
 5.1004342E+001, 6.7246349E-002, 1.2863610E-001, 1.1223912E-001, 6.3593041E-004, 1.2219243E-003, 8.8009549E-004, 4.5418636E+002
 5.2003001E+001, 6.6634538E-002, 1.2913797E-001, 1.1266824E-001, 6.4154332E-004, 1.0671406E-003, 8.8421966E-004, 4.5997589E+002
 5.3007521E+001, 6.5910028E-002, 1.2958026E-001, 1.1311362E-001, 6.8283625E-004, 1.4457446E-003, 8.9572032E-004, 4.5438522E+002
 5.4011866E+001, 6.6100608E-002, 1.2957174E-001, 1.1299502E-001, 6.2364611E-004, 1.1328957E-003, 8.8286279E-004, 4.5169205E+002
 5.5001569E+001, 6.4803305E-002, 1.3043635E-001, 1.1388592E-001, 7.1378962E-004, 1.2868021E-003, 9.0738148E-004, 4.5327111E+002
 5.6007505E+001, 6.4656201E-002, 1.3050946E-001, 1.1400453E-001, 7.4410062E-004, 1.2840023E-003, 9.1436388E-004, 4.5104955E+002
 5.7009021E+001, 6.4444132E-002, 1.3038042E-001, 1.1420415E-001, 9.0603249E-004, 1.6409388E-003, 9.4865439E-004, 4.4326740E+002
 5.8002530E+001, 6.4468758E-002, 1.3044368E-001, 1.1418936E-001, 8.7026299E-004, 1.4676018E-003, 9.4128108E-004, 4.3876033E+002
 5.9007555E+001, 6.1520635E-002, 1.3102555E-001, 1.1615705E-001, 1.6559808E-003, 4.8562290E-003, 1.1146742E-003, 4.4811826E+002
 6.0008211E+001, 6.1524805E-002, 1.3173069E-001, 1.1620664E-001, 1.3704125E-003, 3.2060849E-003, 1.0569684E-003, 4.3978283E+002
 6.1001405E+001, 6.1021636E-002, 1.3195134E-001, 1.1662954E-001, 1.4959469E-003, 3.1870653E-003, 1.0854101E-003, 4.4052755E+002
 6.2002025E+001, 6.0960230E-002, 1.3195161E-001, 1.1669185E-001, 1.5285614E-003, 3.1957895E-003, 1.0924685E-003, 4.3866118E+002
 6.3008283E+001, 6.1568105E-002, 1.3162629E-001, 1.1626253E-001, 1.4449725E-003, 3.0094076E-003, 1.0724951E-003, 4.3500011E+002
 6.4005920E+001, 6.0328284E-002, 1.3180187E-001, 1.1712996E-001, 1.8265327E-003, 4.4139983E-003, 1.1560770E-003, 4.2277624E+002
 6.5003586E+001, 5.9052521E-002, 1.3242456E-001, 1.1821050E-001, 2.1212190E-003, 4.2038414E-003, 1.2234490E-003, 4.4262782E+002
 6.6003035E+001, 5.8827844E-002, 1.3199847E-001, 1.1816236E-001, 2.2863346E-003, 6.2161431E-003, 1.2567116E-003, 4.2909201E+002
 6.7004341E+001, 5.8723074E-002, 1.3238370E-001, 1.1829191E-001, 2.1841939E-003, 5.3556709E-003, 1.2368421E-003, 4.2824794E+002
 6.8003350E+001, 5.8223553E-002, 1.3266641E-001, 1.1864342E-001, 2.2454348E-003, 5.4827776E-003, 1.2517327E-003, 4.2881517E+002
 6.9000478E+001, 5.7912512E-002, 1.3244739E-001, 1.1884078E-001, 2.4467785E-003, 6.4512819E-003, 1.2940311E-003, 4.2619432E+002
 7.0004234E+001, 5.7906937E-002, 1.3236965E-001, 1.1891606E-001, 2.5200266E-003, 6.3294489E-003, 1.3094287E-003, 4.2237403E+002
 7.1007096E+001, 5.7597435E-002, 1.3158113E-001, 1.1909356E-001, 2.9623966E-003, 8.5285274E-003, 1.4005803E-003, 4.2398570E+002
 7.2008093E+001, 5.8069684E-002, 1.3154945E-001, 1.1860222E-001, 2.7183762E-003, 8.5705193E-003, 1.3475976E-003, 4.1127498E+002
 7.3001512E+001, 5.7588549E-002, 1.3205320E-001, 1.1902907E-001, 2.7208448E-003, 7.8669995E-003, 1.3510504E-003, 4.1676082E+002
 7.4003965E+001, 5.8108628E-002, 1.3215962E-001, 1.1873639E-001, 2.5181066E-003, 6.6250616E-003, 1.3077964E-003, 4.2660687E+002
 7.5000898E+001, 5.6782603E-002, 1.3213721E-001, 1.1949498E-001, 2.9315592E-003, 9.2360287E-003, 1.3971350E-003, 4.2242475E+002
 7.6005864E+001, 5.6559270E-002, 1.3277313E-001, 1.1975741E-001, 2.7884945E-003, 7.8334345E-003, 1.3698625E-003, 4.1945801E+002
 7.7007900E+001, 5.6844182E-002, 1.3173696E-001, 1.1940659E-001, 3.0619683E-003, 1.0144302E-002, 1.4230341E-003, 4.1401078E+002
 7.8010001E+001, 5.6849248E-002, 1.3134901E-001, 1.1938314E-001, 3.2209962E-003, 1.1005511E-002, 1.4551966E-003, 4.1376453E+002
 7.9008992E+001, 5.6233720E-002, 1.3197045E-001, 1.2000502E-001, 3.2734760E-003, 9.8467518E-003, 1.4701513E-003, 4.1688102E+002
 8.0009174E+001, 5.6021830E-002, 1.3246068E-001, 1.2005468E-001, 3.0846677E-003, 9.5490623E-003, 1.4321402E-003, 4.1784472E+002
 8.1005118E+001, 5.6404089E-002, 1.3185129E-001, 1.1958662E-001, 3.1083945E-003, 1.1052566E-002, 1.4337455E-003, 4.1679775E+002
 8.2000081E+001, 5.6096351E-002, 1.3205572E-001, 1.2007014E-001, 3.2706968E-003, 9.9935774E-003, 1.4700449E-003, 4.1797844E+002
 8.3008678E+001, 5.6353304E-002, 1.3161389E-001, 1.1981558E-001, 3.3318895E-003, 1.0827522E-002, 1.4807262E-003, 4.1314327E+002
 8.4004226E+001, 5.5913826E-002, 1.3166160E-001, 1.2013503E-001, 3.4797351E-003, 1.1306717E-002, 1.5129941E-003, 4.1442066E+002
 8.5006221E+001, 5.5825019E-002, 1.3143582E-001, 1.2005764E-001, 3.5401602E-003, 1.2453834E-002, 1.5247631E-003, 4.0897172E+002
 8.6001370E+001, 5.5762262E-002, 1.3118923E-001, 1.2017870E-001, 3.7120724E-003, 1.2733074E-002, 1.5605311E-003, 4.1500963E+002
 8.7003214E+001, 5.5688193E-002, 1.3180795E-001, 1.2020884E-001, 3.4552672E-003, 1.1668631E-002, 1.5085499E-003, 4.1077082E+002
 8.8000098E+001, 5.5480020E-002, 1.3089341E-001, 1.2023493E-001, 3.8741344E-003, 1.4304219E-002, 1.5938868E-003, 4.0711235E+002
 8.9006440E+001, 5.5733030E-002, 1.3088982E-001, 1.2001466E-001, 3.7596954E-003, 1.4126363E-002, 1.5691040E-003, 4.0387337E+002
 9.0011090E+001, 5.5471932E-002, 1.3151329E-001, 1.2032618E-001, 3.6478175E-003, 1.2711362E-002, 1.5485073E-003, 4.1196027E+002
 9.1008086E+001, 5.5510695E-002, 1.3067863E-001, 1.1992253E-001, 3.8072353E-003, 1.5869432E-002, 1.5781717E-003, 4.0521833E+002
 9.2007713E+001, 5.5196962E-002, 1.3083227E-001, 1.2033301E-001, 3.9542686E-003, 1.5233378E-002, 1.6108743E-003, 4.0602255E+002
 9.3001972E+001, 5.4994019E-002, 1.3117688E-001, 1.2060440E-001, 3.9442002E-003, 1.4300054E-002, 1.6106909E-003, 4.1251631E+002
 9.4007843E+001, 5.5033196E-002, 1.3079288E-001, 1.2018965E-001, 3.8990219E-003, 1.6585489E-002, 1.5986967E-003, 4.0637960E+002
 9.5007174E+001, 5.4774545E-002, 1.3101120E-001, 1.2053407E-001, 3.9828952E-003, 1.5850662E-002, 1.6181080E-003, 4.0462415E+002
 9.6006719E+001, 5.4904013E-002, 1.3132208E-001, 1.2048272E-001, 3.8180509E-003, 1.4877019E-002, 1.5842397E-003, 4.0168315E+002
 9.7008100E+001, 5.5020364E-002, 1.3024027E-001, 1.2022513E-001, 4.1613101E-003, 1.7619631E-002, 1.6522477E-003, 4.0205911E+002
 9.8010853E+001, 5.4161994E-002, 1.3131374E-001, 1.2115088E-001, 4.1734493E-003, 1.5347615E-002, 1.6610912E-003, 4.1791161E+002
 9.9007400E+001, 5.4676237E-002, 1.3086805E-001, 1.2046573E-001, 4.0116163E-003, 1.6833748E-002, 1.6234957E-003, 4.0990872E+002
 1.0000853E+002, 5.4543979E-002, 1.3047392E-001, 1.2052718E-001, 4.2184468E-003, 1.7947615E-002, 1.6659664E-003, 4.0592084E+002
 1.0100353E+002, 5.4486146E-002, 1.3050898E-001, 1.2062585E-001, 4.2544632E-003, 1.7723996E-002, 1.6739619E-003, 4.0598049E+002
 1.0200981E+002, 5.4326908E-002, 1.3102642E-001, 1.2077029E-001, 4.1021524E-003, 1.6765817E-002, 1.6440033E-003, 4.0814620E+002
 1.0300894E+002, 5.4669816E-002, 1.3061923E-001, 1.2045763E-001, 4.1172873E-003, 1.7399144E-002, 1.6449190E-003, 4.0487506E+002
 1.0400240E+002, 5.4430285E-002, 1.3021702E-001, 1.2049724E-001, 4.3173366E-003, 1.9072271E-002, 1.6858776E-003, 4.0431523E+002
 1.0500392E+002, 5.4588580E-002, 1.3013020E-001, 1.2022506E-001, 4.2136387E-003, 1.9674324E-002, 1.6629389E-003, 4.0369837E+002
 1.0601116E+002, 5.4421074E-002, 1.3031353E-001, 1.2048224E-001, 4.2670787E-003, 1.8975714E-002, 1.6755625E-003, 4.0557075E+002
 1.0700724E+002, 5.4417756E-002, 1.2996568E-001, 1.2040406E-001, 4.3802137E-003, 2.0011540E-002, 1.6980282E-003, 4.0659908E+002
 1.0800274E+002, 5.4219580E-002, 1.3040107E-001, 1.2065125E-001, 4.3175383E-003, 1.8971140E-002, 1.6869881E-003, 4.0535698E+002
 1.0900002E+002, 5.4255717E-002, 1.3025027E-001, 1.2071995E-001, 4.4192634E-003, 1.8847424E-002, 1.7081237E-003, 4.0482961E+002
 1.1000117E+002, 5.4239421E-002, 1.3008682E-001, 1.2040049E-001, 4.3264752E-003, 2.0535960E-002, 1.6871050E-003, 4.0323004E+002
 1.1100132E+002, 5.4155545E-002, 1.2982694E-001, 1.2038325E-001, 4.4329801E-003, 2.1489093E-002, 1.7086459E-003, 3.9932028E+002
 1.1200863E+002, 5.4747797E-002, 1.2947703E-001, 1.1983023E-001, 4.2964701E-003, 2.1917361E-002, 1.6770814E-003, 4.0107852E+002
 1.1300484E+002, 5.4172986E-002, 1.3024091E-001, 1.2050079E-001, 4.3108851E-003, 2.0100413E-002, 1.6846237E-003, 4.0316577E+002
 1.1400506E+002, 5.3834777E-002, 1.2973729E-001, 1.2091099E-001, 4.7480179E-003, 2.0904607E-002, 1.7762894E-003, 4.0591309E+002
 1.1500195E+002, 5.4027967E-002, 1.2981735E-001, 1.2062663E-001, 4.5640758E-003, 2.1068727E-002, 1.7369543E-003, 4.0652787E+002
 1.1600109E+002, 5.4104154E-002, 1.2980838E-001, 1.2045682E-001, 4.4796365E-003, 2.1448198E-002, 1.7186333E-003, 4.0452856E+002
 1.1700993E+002, 5.4308602E-002, 1.3000753E-001, 1.2042289E-001, 4.3724336E-003, 2.0313460E-002, 1.6965885E-003, 3.9957130E+002
 1.1800876E+002, 5.3965532E-002, 1.2963070E-001, 1.2067731E-001, 4.6731722E-003, 2.1508427E-002, 1.7594789E-003, 4.0263932E+002
 1.1900851E+002, 5.3829317E-002, 1.2963443E-001, 1.2074319E-001, 4.7067559E-003, 2.1812941E-002, 1.7667682E-003, 4.0884106E+002
 1.2000797E+002, 5.3696757E-002, 1.2995834E-001, 1.2073733E-001, 4.5619604E-003, 2.1740531E-002, 1.7373165E-003, 4.0395373E+002
 1.2100072E+002, 5.4101186E-002, 1.2960096E-001, 1.2047762E-001, 4.5819343E-003, 2.1798359E-002, 1.7395661E-003, 3.9878447E+002
 1.2201015E+002, 5.3796605E-002, 1.3015544E-001, 1.2078879E-001, 4.5006972E-003, 2.0709344E-002, 1.7252002E-003, 4.0299748E+002
 1.2300949E+002, 5.3598827E-002, 1.2953756E-001, 1.2098857E-001, 4.8783009E-003, 2.1998183E-002, 1.8033246E-003, 4.0447455E+002
 1.2400564E+002, 5.3771225E-002, 1.2996324E-001, 1.2072247E-001, 4.5514643E-003, 2.1474716E-002, 1.7350729E-003, 4.0574601E+002
 1.2500509E+002, 5.3602187E-002, 1.2994346E-001, 1.2072113E-001, 4.5609883E-003, 2.2237024E-002, 1.7370216E-003, 4.0787178E+002
 1.2600571E+002, 5.3808295E-002, 1.2948080E-001, 1.2044958E-001, 4.6230406E-003, 2.3397361E-002, 1.7477691E-003, 4.0244099E+002
 1.2700994E+002, 5.3594089E-002, 1.2949791E-001, 1.2058937E-001, 4.6895948E-003, 2.3707537E-002, 1.7622698E-003, 4.0240682E+002
 1.2800393E+002, 5.3143509E-002, 1.3005977E-001, 1.2121068E-001, 4.7666130E-003, 2.1972748E-002, 1.7821866E-003, 4.0740751E+002
 1.2900505E+002, 5.3219339E-002, 1.2983465E-001, 1.2091871E-001, 4.7144403E-003, 2.3285191E-002, 1.7695969E-003, 4.0668816E+002
 1.3000328E+002, 5.3268175E-002, 1.2937720E-001, 1.2096754E-001, 4.9410990E-003, 2.3810710E-002, 1.8159887E-003, 4.0605741E+002
 1.3100093E+002, 5.3411777E-002, 1.2919613E-001, 1.2082802E-001, 4.9476574E-003, 2.4131965E-002, 1.8163588E-003, 4.0239540E+002
 1.3200483E+002, 5.3226430E-002, 1.2912560E-001, 1.2085308E-001, 4.9933521E-003, 2.4960125E-002, 1.8258398E-003, 4.0817468E+002
 1.3300964E+002, 5.3092524E-002, 1.2975865E-001, 1.2111501E-001, 4.8505057E-003, 2.3186253E-002, 1.7985966E-003, 4.0569465E+002
 1.3400131E+002, 5.3399524E-002, 1.2935860E-001, 1.2081098E-001, 4.8672682E-003, 2.3922490E-002, 1.7999063E-003, 4.0509291E+002
 1.3500913E+002, 5.3313773E-002, 1.2883914E-001, 1.2079861E-001, 5.0908471E-003, 2.5391319E-002, 1.8452753E-003, 4.0488340E+002
 1.3600374E+002, 5.3203635E-002, 1.2898353E-001, 1.2095648E-001, 5.1096651E-003, 2.4928757E-002, 1.8501827E-003, 4.0160679E+002
 1.3700839E+002, 5.2996507E-002, 1.2947028E-001, 1.2114860E-001, 4.9959559E-003, 2.4043868E-002, 1.8283987E-003, 4.0670726E+002
 1.3800304E+002, 5.2860733E-002, 1.2964770E-001, 1.2133601E-001, 5.0156826E-003, 2.3503888E-002, 1.8336940E-003, 4.0430365E+002
 1.3900234E+002, 5.3240974E-002, 1.2936884E-001, 1.2095571E-001, 4.9389153E-003, 2.3990732E-002, 1.8154683E-003, 4.0274893E+002
 1.4000145E+002, 5.3139757E-002, 1.2938667E-001, 1.2108660E-001, 4.9995573E-003, 2.3856208E-002, 1.8286925E-003, 4.0114114E+002
 1.4100544E+002, 5.3117370E-002, 1.2893946E-001, 1.2076729E-001, 5.0321222E-003, 2.6146479E-002, 1.8331532E-003, 4.0181578E+002
 1.4200423E+002, 5.3054154E-002, 1.2940724E-001, 1.2101721E-001, 4.9553840E-003, 2.4457017E-002, 1.8192559E-003, 4.0822023E+002
 1.4300403E+002, 5.2965279E-002, 1.2927415E-001, 1.2125990E-001, 5.1402802E-003, 2.4126228E-002, 1.8584894E-003, 4.0446286E+002
 1.4400868E+002, 5.2891584E-002, 1.2951477E-001, 1.2130391E-001, 5.0574839E-003, 2.3772513E-002, 1.8419687E-003, 4.0576680E+002
 1.4500415E+002, 5.2520542E-002, 1.2976090E-001, 1.2160307E-001, 5.1066946E-003, 2.3640110E-002, 1.8540433E-003, 4.0901951E+002
 1.4600096E+002, 5.2681475E-002, 1.2974788E-001, 1.2144004E-001, 5.0267946E-003, 2.3641186E-002, 1.8366797E-003, 4.0828970E+002
 1.4700323E+002, 5.2841072E-002, 1.2955087E-001, 1.2131574E-001, 5.0481088E-003, 2.3865671E-002, 1.8401499E-003, 4.0204884E+002
 1.4800450E+002, 5.2751281E-002, 1.2936785E-001, 1.2133087E-001, 5.1374785E-003, 2.4557222E-002, 1.8584280E-003, 4.0024588E+002
 1.4900889E+002, 5.2729698E-002, 1.2922344E-001, 1.2127262E-001, 5.1712942E-003, 2.5176876E-002, 1.8649096E-003, 4.0326622E+002
 1.5000698E+002, 5.2736551E-002, 1.2899714E-001, 1.2117877E-001, 5.2226007E-003, 2.5985796E-002, 1.8747014E-003, 4.0471199E+002
 1.5100359E+002, 5.2183999E-002, 1.2944430E-001, 1.2178797E-001, 5.3448767E-003, 2.4965212E-002, 1.9037480E-003, 4.1190420E+002
 1.5200395E+002, 5.2795394E-002, 1.2923910E-001, 1.2126167E-001, 5.1581486E-003, 2.4910644E-002, 1.8621551E-003, 3.9825043E+002
 1.5300709E+002, 5.2648235E-002, 1.2936026E-001, 1.2125371E-001, 5.1018623E-003, 2.5320502E-002, 1.8506804E-003, 4.0773037E+002
 1.5400417E+002, 5.2736131E-002, 1.2879955E-001, 1.2121925E-001, 5.3307083E-003, 2.6225888E-002, 1.8969479E-003, 4.0777115E+002
