s,,,,,,,
Time,"O2 EXHAUST","CO2 EXHAUST","H2O EXHAUST","CO EXHAUST","FUEL EXHAUST","SOOT EXHAUST","TEMP EXHAUST"
 0.0000000E+000, 2.3099739E-001, 5.9146498E-004, 5.9412092E-003, 0.0000000E+000, 0.0000000E+000, 0.0000000E+000, 2.0000000E+001
 1.0039839E+000, 2.3099739E-001, 5.9146498E-004, 5.9412092E-003, 1.2845031E-031, 1.3431283E-030, 3.8147500E-032, 2.0496586E+001
 2.0022186E+000, 2.2260826E-001, 8.2480859E-003, 9.1648136E-003, 4.3248750E-005, 2.9466636E-004, 5.5409996E-005, 1.0143317E+002
 3.0017986E+000, 2.1756095E-001, 1.2855399E-002, 1.1121032E-002, 8.5811371E-005, 3.6986552E-004, 9.2297977E-005, 1.4770817E+002
 4.0038210E+000, 2.1214811E-001, 1.7842547E-002, 1.3208543E-002, 1.0043234E-004, 4.2063198E-004, 1.2548385E-004, 1.9598915E+002
 5.0042829E+000, 2.0600858E-001, 2.3472808E-002, 1.5585099E-002, 1.3764543E-004, 4.7818832E-004, 1.6738876E-004, 2.4427730E+002
 6.0020728E+000, 1.9974194E-001, 2.9275569E-002, 1.8004205E-002, 1.4400680E-004, 4.6515028E-004, 2.0371814E-004, 2.9296387E+002
 7.0032783E+000, 1.9365052E-001, 3.4948442E-002, 2.0356032E-002, 1.3613499E-004, 3.8564068E-004, 2.3621298E-004, 3.3105010E+002
 8.0013092E+000, 1.8588525E-001, 4.2183958E-002, 2.3353374E-002, 1.2366040E-004, 2.8108472E-004, 2.7713685E-004, 3.7766252E+002
 9.0026180E+000, 1.7718850E-001, 5.0295379E-002, 2.6709766E-002, 1.0563995E-004, 1.5103091E-004, 3.2214950E-004, 4.1863548E+002
 1.0007364E+001, 1.6947005E-001, 5.7484127E-002, 2.9687463E-002, 9.3056470E-005, 6.2845428E-005, 3.6276828E-004, 4.4558448E+002
 1.1006666E+001, 1.6134830E-001, 6.5021713E-002, 3.2821552E-002, 9.2557999E-005, 1.8744162E-005, 4.0808026E-004, 4.6998558E+002
 1.2005997E+001, 1.5631000E-001, 6.9690923E-002, 3.4765615E-002, 9.5076641E-005, 5.7455794E-006, 4.3675534E-004, 4.7283739E+002
 1.3007335E+001, 1.4720480E-001, 7.8118063E-002, 3.8279590E-002, 1.0522461E-004, 3.3764105E-007, 4.8971025E-004, 4.9817265E+002
 1.4000615E+001, 1.4165044E-001, 8.3257222E-002, 4.0423194E-002, 1.1212025E-004, 1.1436660E-007, 5.2215558E-004, 4.9697833E+002
 1.5007345E+001, 1.3465433E-001, 8.9730268E-002, 4.3123201E-002, 1.2083238E-004, 8.2767670E-008, 5.6302793E-004, 5.0599034E+002
 1.6005847E+001, 1.3022334E-001, 9.3829908E-002, 4.4833268E-002, 1.2639647E-004, 8.8638405E-008, 5.8892397E-004, 5.0713794E+002
 1.7008735E+001, 1.2406799E-001, 9.9525056E-002, 4.7208801E-002, 1.3406017E-004, 7.7164861E-008, 6.2488418E-004, 5.1330787E+002
 1.8008265E+001, 1.1920841E-001, 1.0402120E-001, 4.9084289E-002, 1.4019227E-004, 8.9961220E-008, 6.5329120E-004, 5.1483306E+002
 1.9004957E+001, 1.1413251E-001, 1.0871747E-001, 5.1043270E-002, 1.4661383E-004, 1.0917027E-007, 6.8296615E-004, 5.1482755E+002
 2.0007653E+001, 1.0816596E-001, 1.1423763E-001, 5.3346037E-002, 1.5427386E-004, 1.2053552E-007, 7.1787118E-004, 5.1688537E+002
 2.1001220E+001, 1.0373730E-001, 1.1833531E-001, 5.5055143E-002, 1.5968644E-004, 1.2833856E-007, 7.4372291E-004, 5.1847205E+002
 2.2002823E+001, 9.9764254E-002, 1.2201099E-001, 5.6588549E-002, 1.6486610E-004, 2.1365971E-007, 7.6698189E-004, 5.1938594E+002
 2.3008136E+001, 9.5790097E-002, 1.2568505E-001, 5.8123157E-002, 1.7200557E-004, 9.4808592E-007, 7.9065131E-004, 5.1617679E+002
 2.4005816E+001, 9.1665242E-002, 1.2947899E-001, 5.9721812E-002, 1.9397784E-004, 5.3735325E-006, 8.1822326E-004, 5.1774464E+002
 2.5008399E+001, 8.8470450E-002, 1.3241517E-001, 6.0960708E-002, 2.1273020E-004, 9.1890840E-006, 8.3993629E-004, 5.1601235E+002
 2.6004361E+001, 8.3612697E-002, 1.3689194E-001, 6.2840725E-002, 2.3200992E-004, 1.3085768E-005, 8.7104548E-004, 5.1855489E+002
 2.7006791E+001, 8.2130855E-002, 1.3825773E-001, 6.3413903E-002, 2.3749665E-004, 1.5824729E-005, 8.8045171E-004, 5.1158493E+002
 2.8006169E+001, 7.8676684E-002, 1.4143447E-001, 6.4752756E-002, 2.5617243E-004, 1.9372727E-005, 9.0359784E-004, 5.0903298E+002
 2.9008588E+001, 7.4810510E-002, 1.4501627E-001, 6.6243099E-002, 2.5716273E-004, 2.0409267E-005, 9.2539289E-004, 5.1309773E+002
 3.0002214E+001, 7.1393939E-002, 1.4815121E-001, 6.7569610E-002, 2.8109704E-004, 2.4918882E-005, 9.4941463E-004, 5.1069763E+002
 3.1006436E+001, 6.8370718E-002, 1.5095285E-001, 6.8734752E-002, 2.8125605E-004, 2.5683456E-005, 9.6633051E-004, 5.1474507E+002
 3.2004355E+001, 6.3370311E-002, 1.5553334E-001, 7.0678904E-002, 3.2245921E-004, 3.1506191E-005, 1.0027651E-003, 5.1599158E+002
 3.3008047E+001, 6.2827421E-002, 1.5604747E-001, 7.0884552E-002, 3.1396352E-004, 3.1109231E-005, 1.0040416E-003, 5.0860750E+002
 3.4011031E+001, 5.6775847E-002, 1.6160472E-001, 7.3233134E-002, 3.5335107E-004, 3.6048117E-005, 1.0459726E-003, 5.1946587E+002
 3.5000535E+001, 5.6073930E-002, 1.6226890E-001, 7.3498923E-002, 3.4252082E-004, 3.7256480E-005, 1.0476527E-003, 5.1289604E+002
 3.6005419E+001, 5.2344463E-002, 1.6568340E-001, 7.4950002E-002, 3.7511302E-004, 3.8721846E-005, 1.0752152E-003, 5.1114582E+002
 3.7008650E+001, 4.8863499E-002, 1.6888434E-001, 7.6299599E-002, 3.9449022E-004, 4.1012538E-005, 1.0986576E-003, 5.1181938E+002
 3.8003020E+001, 4.5051996E-002, 1.7238052E-001, 7.7780504E-002, 4.2276587E-004, 4.1963570E-005, 1.1257868E-003, 5.1715688E+002
 3.9003306E+001, 4.2311932E-002, 1.7487284E-001, 7.8851544E-002, 4.5894956E-004, 4.6109899E-005, 1.1485626E-003, 5.1541834E+002
 4.0010642E+001, 3.9260479E-002, 1.7772543E-001, 8.0020135E-002, 4.4058517E-004, 4.2026094E-005, 1.1618140E-003, 5.1842683E+002
 4.1007112E+001, 3.6716880E-002, 1.8004094E-001, 8.1013254E-002, 4.7219756E-004, 4.8851430E-005, 1.1825443E-003, 5.1272830E+002
 4.2007817E+001, 3.3201755E-002, 1.8330154E-001, 8.2367086E-002, 4.7010292E-004, 4.8867486E-005, 1.2017425E-003, 5.2195208E+002
 4.3007929E+001, 3.0117373E-002, 1.8614123E-001, 8.3562226E-002, 4.8504285E-004, 4.8264996E-005, 1.2220567E-003, 5.2251875E+002
 4.4010565E+001, 2.8888125E-002, 1.8719413E-001, 8.4063217E-002, 5.5097318E-004, 5.7189603E-005, 1.2425369E-003, 5.1163820E+002
 4.5006612E+001, 2.5070446E-002, 1.9072569E-001, 8.5536808E-002, 5.5627496E-004, 5.7162833E-005, 1.2649535E-003, 5.1994777E+002
 4.6003780E+001, 2.3116735E-002, 1.9249216E-001, 8.6303707E-002, 5.9004551E-004, 6.1856633E-005, 1.2828383E-003, 5.1938563E+002
 4.7000208E+001, 1.9893133E-002, 1.9538396E-001, 8.7577441E-002, 6.6437418E-004, 6.5066906E-005, 1.3161996E-003, 5.2296512E+002
 4.8009018E+001, 1.6930887E-002, 1.9804903E-001, 8.8744887E-002, 7.2619292E-004, 7.0718481E-005, 1.3455126E-003, 5.2550135E+002
 4.9002656E+001, 1.5959145E-002, 1.9874087E-001, 8.9187118E-002, 8.8743504E-004, 8.0925666E-005, 1.3842522E-003, 5.1981486E+002
 5.0006403E+001, 1.2452937E-002, 2.0164409E-001, 9.0651593E-002, 1.1557883E-003, 9.2901441E-005, 1.4592819E-003, 5.2198614E+002
 5.1002724E+001, 1.0522017E-002, 2.0302431E-001, 9.1525524E-002, 1.4688928E-003, 1.3114975E-004, 1.5347294E-003, 5.1844478E+002
 5.2011219E+001, 1.0089342E-002, 2.0322547E-001, 9.1763128E-002, 1.6292971E-003, 1.0465098E-004, 1.5703326E-003, 5.1412433E+002
 5.3004157E+001, 8.2243804E-003, 2.0429311E-001, 9.2684990E-002, 2.1283112E-003, 2.0448360E-004, 1.6837564E-003, 5.0740153E+002
 5.4011974E+001, 7.0275820E-003, 2.0532513E-001, 9.3181437E-002, 2.1981646E-003, 1.4716303E-004, 1.7049516E-003, 5.0804982E+002
 5.5010958E+001, 6.1330361E-003, 2.0484306E-001, 9.3945188E-002, 3.2043577E-003, 2.4890658E-004, 1.9177781E-003, 5.0091050E+002
 5.6002794E+001, 5.2788236E-003, 2.0519794E-001, 9.4417271E-002, 3.5428839E-003, 2.6310068E-004, 1.9924976E-003, 4.9614409E+002
 5.7004139E+001, 4.4809086E-003, 2.0458846E-001, 9.5156739E-002, 4.5789867E-003, 3.6256504E-004, 2.2109692E-003, 5.0005633E+002
 5.8000844E+001, 4.3946572E-003, 2.0323227E-001, 9.5595116E-002, 5.6268992E-003, 7.9738418E-004, 2.4274745E-003, 4.8808470E+002
 5.9005071E+001, 4.4229901E-003, 2.0360593E-001, 9.5488230E-002, 5.3520588E-003, 5.7498909E-004, 2.3707986E-003, 4.8429978E+002
 6.0009193E+001, 4.2170359E-003, 2.0267756E-001, 9.5909802E-002, 6.1953954E-003, 7.5483015E-004, 2.5460192E-003, 4.8411388E+002
 6.1004996E+001, 3.5662636E-003, 2.0249295E-001, 9.6400452E-002, 6.7879473E-003, 8.8745736E-004, 2.6719523E-003, 4.7996794E+002
 6.2001473E+001, 3.5172634E-003, 2.0205534E-001, 9.6539795E-002, 7.1244826E-003, 1.1287134E-003, 2.7414705E-003, 4.7713566E+002
 6.3003697E+001, 3.2535299E-003, 2.0163888E-001, 9.6865754E-002, 7.6448742E-003, 1.1011234E-003, 2.8505345E-003, 4.7204655E+002
 6.4009466E+001, 2.9996390E-003, 2.0144764E-001, 9.7090372E-002, 7.9626044E-003, 1.1915698E-003, 2.9175048E-003, 4.7024094E+002
 6.5011147E+001, 3.2183733E-003, 2.0004417E-001, 9.7380082E-002, 8.8742857E-003, 1.3430203E-003, 3.1045159E-003, 4.6330452E+002
 6.6007987E+001, 3.2074233E-003, 1.9960434E-001, 9.7497318E-002, 9.1885998E-003, 1.5629598E-003, 3.1692563E-003, 4.5740334E+002
 6.7006892E+001, 3.0743291E-003, 1.9820940E-001, 9.7985204E-002, 1.0304804E-002, 1.9729079E-003, 3.4001699E-003, 4.5460314E+002
 6.8000552E+001, 3.1158169E-003, 1.9842714E-001, 9.7878642E-002, 1.0099433E-002, 2.0053480E-003, 3.3574500E-003, 4.5986464E+002
 6.9000648E+001, 3.0005149E-003, 1.9696838E-001, 9.8350119E-002, 1.1227100E-002, 2.5672911E-003, 3.5904373E-003, 4.5477979E+002
 7.0001065E+001, 2.8875759E-003, 1.9682726E-001, 9.8510335E-002, 1.1454144E-002, 2.3570728E-003, 3.6382653E-003, 4.5217496E+002
 7.1004355E+001, 3.0531850E-003, 1.9628704E-001, 9.8564455E-002, 1.1745242E-002, 2.4209587E-003, 3.6974225E-003, 4.4250689E+002
 7.2008942E+001, 3.0255922E-003, 1.9469611E-001, 9.8998039E-002, 1.2891457E-002, 3.1091762E-003, 3.9335906E-003, 4.4539564E+002
 7.3010700E+001, 3.0175002E-003, 1.9324306E-001, 9.9465914E-002, 1.4010301E-002, 3.2343931E-003, 4.1647192E-003, 4.4427611E+002
 7.4008662E+001, 2.9875047E-003, 1.9294346E-001, 9.9573565E-002, 1.4252952E-002, 3.3110766E-003, 4.2149393E-003, 4.3992694E+002
 7.5004355E+001, 2.8993805E-003, 1.9225978E-001, 9.9845756E-002, 1.4833895E-002, 3.4086271E-003, 4.3353761E-003, 4.4473349E+002
 7.6004166E+001, 3.0902632E-003, 1.9116761E-001, 9.9988580E-002, 1.5459627E-002, 3.9370478E-003, 4.4629559E-003, 4.3787060E+002
 7.7004208E+001, 3.1007035E-003, 1.9050660E-001, 1.0012484E-001, 1.5891122E-002, 4.3954893E-003, 4.5514883E-003, 4.3297405E+002
 7.8010854E+001, 3.0045799E-003, 1.8958378E-001, 1.0050235E-001, 1.6684887E-002, 4.3712401E-003, 4.7161132E-003, 4.3646804E+002
 7.9009749E+001, 3.1485617E-003, 1.8889940E-001, 1.0057763E-001, 1.7062064E-002, 4.6862089E-003, 4.7928584E-003, 4.3128031E+002
 8.0009603E+001, 3.0461450E-003, 1.8736891E-001, 1.0106857E-001, 1.8240967E-002, 5.2208252E-003, 5.0363987E-003, 4.2955770E+002
 8.1003067E+001, 3.1830250E-003, 1.8686906E-001, 1.0114602E-001, 1.8538296E-002, 5.1835130E-003, 5.0971350E-003, 4.3190797E+002
 8.2002524E+001, 3.0054344E-003, 1.8684866E-001, 1.0131325E-001, 1.8720213E-002, 4.9594413E-003, 5.1360148E-003, 4.2973991E+002
 8.3001046E+001, 3.0435886E-003, 1.8531355E-001, 1.0167807E-001, 1.9770670E-002, 5.6753607E-003, 5.3519886E-003, 4.2678612E+002
 8.4010532E+001, 3.0498439E-003, 1.8485516E-001, 1.0179542E-001, 2.0092948E-002, 5.8599583E-003, 5.4183244E-003, 4.2537152E+002
 8.5009986E+001, 3.1669368E-003, 1.8440866E-001, 1.0185339E-001, 2.0347366E-002, 5.9156868E-003, 5.4701823E-003, 4.2122630E+002
 8.6001200E+001, 3.0580567E-003, 1.8378052E-001, 1.0212790E-001, 2.0906415E-002, 5.9748360E-003, 5.5862593E-003, 4.2601011E+002
 8.7007758E+001, 3.2567125E-003, 1.8282469E-001, 1.0224481E-001, 2.1445111E-002, 6.3541031E-003, 5.6959994E-003, 4.2031898E+002
 8.8008115E+001, 3.3302918E-003, 1.8112845E-001, 1.0267115E-001, 2.2628444E-002, 6.8745621E-003, 5.9394905E-003, 4.1637761E+002
 8.9010184E+001, 3.3123089E-003, 1.8129052E-001, 1.0268105E-001, 2.2566653E-002, 6.5660852E-003, 5.9272178E-003, 4.1484655E+002
 9.0007753E+001, 3.2934717E-003, 1.8061632E-001, 1.0280249E-001, 2.2989818E-002, 7.2621021E-003, 6.0138856E-003, 4.1608320E+002
 9.1009618E+001, 3.2992272E-003, 1.8003445E-001, 1.0295280E-001, 2.3400314E-002, 7.4974556E-003, 6.0983920E-003, 4.1908484E+002
 9.2009873E+001, 3.3617730E-003, 1.7950941E-001, 1.0304787E-001, 2.3728455E-002, 7.7144960E-003, 6.1655834E-003, 4.1813154E+002
 9.3009693E+001, 3.2428765E-003, 1.7897241E-001, 1.0325524E-001, 2.4179518E-002, 8.0368647E-003, 6.2590582E-003, 4.1615591E+002
 9.4001959E+001, 3.5971417E-003, 1.7776601E-001, 1.0343086E-001, 2.4885132E-002, 7.9152551E-003, 6.4030742E-003, 4.1340422E+002
 9.5010315E+001, 3.6258655E-003, 1.7694129E-001, 1.0364527E-001, 2.5467817E-002, 8.1548734E-003, 6.5230351E-003, 4.1245628E+002
 9.6000228E+001, 3.6797140E-003, 1.7549485E-001, 1.0423599E-001, 2.6705908E-002, 7.2701284E-003, 6.7797668E-003, 4.1314037E+002
 9.7009144E+001, 4.2301110E-003, 1.7268038E-001, 1.0472058E-001, 2.8434323E-002, 7.6873581E-003, 7.1333867E-003, 4.1033886E+002
 9.8004307E+001, 4.6713483E-003, 1.7249184E-001, 1.0458813E-001, 2.8373994E-002, 7.0207913E-003, 7.1193135E-003, 4.0754792E+002
 9.9001785E+001, 5.5628724E-003, 1.7234492E-001, 1.0384836E-001, 2.7672276E-002, 8.0446034E-003, 6.9679814E-003, 3.9713812E+002
 1.0001198E+002, 8.2821690E-003, 1.7049114E-001, 1.0236208E-001, 2.6933879E-002, 9.3470893E-003, 6.7985011E-003, 3.9261756E+002
 1.0100871E+002, 1.0827400E-002, 1.6781862E-001, 1.0136125E-001, 2.7053521E-002, 1.0093350E-002, 6.8080518E-003, 3.8999216E+002
 1.0200083E+002, 1.0770498E-002, 1.6552075E-001, 1.0218644E-001, 2.8909865E-002, 9.9625386E-003, 7.1922111E-003, 4.0193044E+002
 1.0300888E+002, 1.2750110E-002, 1.6672713E-001, 1.0018642E-001, 2.6308913E-002, 1.1321218E-002, 6.6418327E-003, 3.8654171E+002
 1.0400099E+002, 1.2864888E-002, 1.6540819E-001, 1.0059915E-001, 2.7309416E-002, 1.0997579E-002, 6.8483952E-003, 3.8593953E+002
 1.0500430E+002, 1.4422456E-002, 1.6487257E-001, 9.9570981E-002, 2.6473909E-002, 1.1755131E-002, 6.6660350E-003, 3.7703233E+002
 1.0601118E+002, 1.2922101E-002, 1.6552034E-001, 1.0060775E-001, 2.7266695E-002, 1.0483187E-002, 6.8399097E-003, 3.7788208E+002
 1.0701117E+002, 1.2439236E-002, 1.6775568E-001, 1.0033070E-001, 2.6003673E-002, 9.6942046E-003, 6.5825803E-003, 3.8266502E+002
 1.0800408E+002, 1.2719924E-002, 1.6623722E-001, 1.0066223E-001, 2.7007177E-002, 9.5657887E-003, 6.7885846E-003, 3.8127399E+002
 1.0900190E+002, 1.3838139E-002, 1.6429001E-001, 1.0045355E-001, 2.7636864E-002, 1.0049951E-002, 6.9118598E-003, 3.7581692E+002
 1.1001048E+002, 1.4526112E-002, 1.6234816E-001, 1.0055195E-001, 2.8584106E-002, 1.0471176E-002, 7.1032522E-003, 3.7428306E+002
 1.1100758E+002, 1.4800705E-002, 1.6160365E-001, 1.0061380E-001, 2.8971314E-002, 1.0442465E-002, 7.1817845E-003, 3.6934873E+002
 1.1200867E+002, 1.6230602E-002, 1.5852270E-001, 1.0051810E-001, 3.0212207E-002, 1.1213911E-002, 7.4292738E-003, 3.6965941E+002
 1.1300360E+002, 1.5941411E-002, 1.5931867E-001, 1.0052573E-001, 2.9872409E-002, 1.0782909E-002, 7.3612148E-003, 3.7475426E+002
 1.1401011E+002, 1.6275949E-002, 1.5756039E-001, 1.0087336E-001, 3.0997647E-002, 1.0812486E-002, 7.5918745E-003, 3.7834407E+002
 1.1500530E+002, 1.7353590E-002, 1.5578929E-001, 1.0061328E-001, 3.1498107E-002, 1.1422789E-002, 7.6885048E-003, 3.6909752E+002
 1.1600050E+002, 1.7799953E-002, 1.5380991E-001, 1.0090068E-001, 3.2658414E-002, 1.1790204E-002, 7.9253525E-003, 3.6493914E+002
 1.1700231E+002, 1.7816385E-002, 1.5561700E-001, 1.0032060E-001, 3.1268621E-002, 1.1597122E-002, 7.6382648E-003, 3.6720309E+002
 1.1800804E+002, 1.8869420E-002, 1.5231443E-001, 1.0062571E-001, 3.3021279E-002, 1.1973218E-002, 7.9941414E-003, 3.6763674E+002
 1.1900570E+002, 1.8539708E-002, 1.5211714E-001, 1.0093340E-001, 3.3427254E-002, 1.1892467E-002, 8.0799946E-003, 3.8092448E+002
 1.2000105E+002, 1.7964823E-002, 1.5266040E-001, 1.0123968E-001, 3.3507927E-002, 1.1362320E-002, 8.1005627E-003, 3.7789903E+002
 1.2101207E+002, 1.8866647E-002, 1.4994838E-001, 1.0142741E-001, 3.4882997E-002, 1.1894178E-002, 8.3790422E-003, 3.7628990E+002
 1.2200361E+002, 1.8934197E-002, 1.4987348E-001, 1.0138880E-001, 3.4875811E-002, 1.1994334E-002, 8.3770506E-003, 3.7436575E+002
 1.2301213E+002, 1.9725048E-002, 1.4836520E-001, 1.0125188E-001, 3.5390312E-002, 1.2534754E-002, 8.4782747E-003, 3.7157632E+002
 1.2400487E+002, 1.9687157E-002, 1.4793233E-001, 1.0141681E-001, 3.5750234E-002, 1.2566356E-002, 8.5528349E-003, 3.7282825E+002
 1.2500907E+002, 1.9188434E-002, 1.4889809E-001, 1.0153137E-001, 3.5447689E-002, 1.2026739E-002, 8.4937857E-003, 3.7767206E+002
 1.2600753E+002, 2.0241472E-002, 1.4594719E-001, 1.0165202E-001, 3.6857867E-002, 1.2808899E-002, 8.7783540E-003, 3.7066203E+002
 1.2700738E+002, 2.0618531E-002, 1.4580760E-001, 1.0139842E-001, 3.6655307E-002, 1.3040343E-002, 8.7340842E-003, 3.7445569E+002
 1.2800992E+002, 2.1158975E-002, 1.4412347E-001, 1.0152439E-001, 3.7519142E-002, 1.3395842E-002, 8.9091462E-003, 3.6721662E+002
 1.2900751E+002, 2.1492510E-002, 1.4399495E-001, 1.0129444E-001, 3.7336539E-002, 1.3644424E-002, 8.8692221E-003, 3.7333037E+002
 1.3001031E+002, 2.1073114E-002, 1.4253040E-001, 1.0211623E-001, 3.8827155E-002, 1.3379863E-002, 9.1799890E-003, 3.7797357E+002
 1.3101021E+002, 2.0789078E-002, 1.4438685E-001, 1.0176723E-001, 3.7655545E-002, 1.2951773E-002, 8.9399770E-003, 3.8038290E+002
 1.3200691E+002, 2.0871253E-002, 1.4283493E-001, 1.0219649E-001, 3.8777311E-002, 1.3130335E-002, 9.1711365E-003, 3.8062036E+002
 1.3301165E+002, 2.0958010E-002, 1.4077178E-001, 1.0280249E-001, 4.0304748E-002, 1.3249110E-002, 9.4861923E-003, 3.7181241E+002
 1.3401274E+002, 2.0834698E-002, 1.3988991E-001, 1.0313146E-001, 4.1032052E-002, 1.3548148E-002, 9.6368158E-003, 3.7248662E+002
 1.3500894E+002, 2.0515664E-002, 1.3887536E-001, 1.0369313E-001, 4.2057696E-002, 1.3529485E-002, 9.8506036E-003, 3.7670853E+002
 1.3600279E+002, 2.0640301E-002, 1.3935921E-001, 1.0346000E-001, 4.1604221E-002, 1.3444298E-002, 9.7562924E-003, 3.8133141E+002
 1.3700357E+002, 2.1303771E-002, 1.3905339E-001, 1.0302541E-001, 4.1286328E-002, 1.3901880E-002, 9.6862940E-003, 3.8329137E+002
 1.3800075E+002, 2.0888763E-002, 1.3731465E-001, 1.0387518E-001, 4.2927179E-002, 1.3998825E-002, 1.0027621E-002, 3.7843959E+002
 1.3900907E+002, 2.1357849E-002, 1.3594089E-001, 1.0393577E-001, 4.3588653E-002, 1.4424538E-002, 1.0161167E-002, 3.7294163E+002
 1.4000519E+002, 2.2037829E-002, 1.3441780E-001, 1.0383559E-001, 4.4149507E-002, 1.5235873E-002, 1.0272241E-002, 3.7282430E+002
 1.4101029E+002, 2.1364246E-002, 1.3460253E-001, 1.0437802E-001, 4.4630229E-002, 1.4414118E-002, 1.0376419E-002, 3.7931265E+002
 1.4200753E+002, 2.0850984E-002, 1.3496366E-001, 1.0468261E-001, 4.4788821E-002, 1.4001204E-002, 1.0412596E-002, 3.8595722E+002
 1.4300853E+002, 2.0866368E-002, 1.3325392E-001, 1.0523370E-001, 4.6105267E-002, 1.4041276E-002, 1.0684544E-002, 3.8283787E+002
 1.4401072E+002, 2.1323048E-002, 1.3241586E-001, 1.0514973E-001, 4.6382767E-002, 1.4317053E-002, 1.0738993E-002, 3.8342413E+002
 1.4500766E+002, 2.0743676E-002, 1.3301145E-001, 1.0544180E-001, 4.6425937E-002, 1.3786412E-002, 1.0751835E-002, 3.8769216E+002
 1.4600676E+002, 2.0696580E-002, 1.3206698E-001, 1.0573201E-001, 4.7140195E-002, 1.4125854E-002, 1.0899285E-002, 3.8497675E+002
 1.4700682E+002, 2.0688573E-002, 1.3085230E-001, 1.0616277E-001, 4.8115451E-002, 1.3997392E-002, 1.1101063E-002, 3.8318220E+002
 1.4800007E+002, 2.0786377E-002, 1.3076923E-001, 1.0613156E-001, 4.8118601E-002, 1.3943270E-002, 1.1101237E-002, 3.8339783E+002
 1.4901258E+002, 2.0764236E-002, 1.3078996E-001, 1.0616284E-001, 4.8141424E-002, 1.3806080E-002, 1.1106255E-002, 3.8199453E+002
 1.5000149E+002, 2.1051570E-002, 1.2817079E-001, 1.0675775E-001, 4.9900452E-002, 1.4266575E-002, 1.1467616E-002, 3.7942965E+002
 1.5100349E+002, 2.0302981E-002, 1.2964854E-001, 1.0683604E-001, 4.9339453E-002, 1.3963452E-002, 1.1356239E-002, 3.8352718E+002
 1.5200512E+002, 2.0376214E-002, 1.2895449E-001, 1.0702022E-001, 4.9832368E-002, 1.3938126E-002, 1.1457739E-002, 3.8181668E+002
 1.5300733E+002, 2.0698916E-002, 1.2868214E-001, 1.0683940E-001, 4.9763602E-002, 1.4224012E-002, 1.1441356E-002, 3.8283930E+002
 1.5400447E+002, 1.9513687E-002, 1.3030711E-001, 1.0723989E-001, 4.9472339E-002, 1.3510202E-002, 1.1388697E-002, 3.9275992E+002
