s,,,,,,,
Time,"O2 EXHAUST","CO2 EXHAUST","H2O EXHAUST","CO EXHAUST","FUEL EXHAUST","SOOT EXHAUST","TEMP EXHAUST"
 0.0000000E+000, 2.3099739E-001, 5.9146498E-004, 5.9412092E-003, 0.0000000E+000, 0.0000000E+000, 0.0000000E+000, 2.0000000E+001
 1.0030550E+000, 2.3099739E-001, 5.9146498E-004, 5.9412092E-003, 9.3050990E-033, 8.0227534E-032, 1.3946698E-032, 2.0624013E+001
 2.0043282E+000, 2.2483447E-001, 6.2647688E-003, 7.5842984E-003, 1.7197327E-005, 2.8419729E-004, 3.7760640E-004, 8.0259312E+001
 3.0048177E+000, 2.2170186E-001, 9.1425496E-003, 8.4335527E-003, 5.3545136E-005, 3.1029721E-004, 5.7506591E-004, 1.0615899E+002
 4.0031001E+000, 2.1781782E-001, 1.2716336E-002, 9.4764346E-003, 7.8045117E-005, 4.2498241E-004, 8.1585968E-004, 1.4233693E+002
 5.0035355E+000, 2.1365845E-001, 1.6555162E-002, 1.0597001E-002, 1.0440487E-004, 4.9301388E-004, 1.0745183E-003, 1.7648864E+002
 6.0049091E+000, 2.1042630E-001, 1.9527455E-002, 1.1466196E-002, 1.2804110E-004, 5.7906021E-004, 1.2754834E-003, 2.0403202E+002
 7.0054257E+000, 2.0520853E-001, 2.4372208E-002, 1.2875241E-002, 1.5102819E-004, 5.8317100E-004, 1.5997134E-003, 2.4049972E+002
 8.0069330E+000, 2.0135035E-001, 2.7952733E-002, 1.3914250E-002, 1.6403404E-004, 6.1578145E-004, 1.8384835E-003, 2.6576129E+002
 9.0015990E+000, 1.9601210E-001, 3.2917747E-002, 1.5358080E-002, 1.8687024E-004, 5.8483046E-004, 2.1706058E-003, 2.9636378E+002
 1.0005169E+001, 1.9184713E-001, 3.6800366E-002, 1.6482885E-002, 1.9693681E-004, 5.6064231E-004, 2.4286533E-003, 3.1701830E+002
 1.1008516E+001, 1.8742664E-001, 4.0929089E-002, 1.7678450E-002, 2.0634612E-004, 5.0521858E-004, 2.7027786E-003, 3.3847378E+002
 1.2001351E+001, 1.8072300E-001, 4.7205717E-002, 1.9489378E-002, 2.0849298E-004, 4.1374590E-004, 3.1169061E-003, 3.6075242E+002
 1.3005190E+001, 1.7634323E-001, 5.1304863E-002, 2.0672525E-002, 2.1077335E-004, 3.5691904E-004, 3.3875533E-003, 3.7529010E+002
 1.4000515E+001, 1.7064768E-001, 5.6639205E-002, 2.2210112E-002, 2.0997506E-004, 2.8573236E-004, 3.7389474E-003, 3.9020768E+002
 1.5004083E+001, 1.6639955E-001, 6.0620602E-002, 2.3356891E-002, 2.0781631E-004, 2.2847693E-004, 4.0008823E-003, 4.0081817E+002
 1.6006299E+001, 1.6270904E-001, 6.4080374E-002, 2.4352227E-002, 2.0382313E-004, 1.8538704E-004, 4.2280460E-003, 4.0715050E+002
 1.7003689E+001, 1.5880318E-001, 6.7735246E-002, 2.5405973E-002, 2.0386721E-004, 1.4861180E-004, 4.4689339E-003, 4.1233500E+002
 1.8002595E+001, 1.5411333E-001, 7.2120019E-002, 2.6670906E-002, 2.0538365E-004, 1.1384668E-004, 4.7582428E-003, 4.1907584E+002
 1.9009563E+001, 1.5052297E-001, 7.5480139E-002, 2.7638810E-002, 2.0391163E-004, 8.5822442E-005, 4.9793799E-003, 4.2371975E+002
 2.0008181E+001, 1.4734611E-001, 7.8447951E-002, 2.8495186E-002, 2.0541701E-004, 7.0816209E-005, 5.1753003E-003, 4.2556716E+002
 2.1003518E+001, 1.4334316E-001, 8.2184647E-002, 2.9574615E-002, 2.0949942E-004, 5.3516265E-005, 5.4224477E-003, 4.2888042E+002
 2.2008239E+001, 1.4097198E-001, 8.4399127E-002, 3.0213910E-002, 2.1116562E-004, 4.2518037E-005, 5.5687533E-003, 4.3135692E+002
 2.3009805E+001, 1.3629881E-001, 8.8757028E-002, 3.1474063E-002, 2.1833896E-004, 3.0115391E-005, 5.8575050E-003, 4.3705566E+002
 2.4001531E+001, 1.3498490E-001, 8.9982900E-002, 3.1828206E-002, 2.1974605E-004, 2.7067253E-005, 5.9385996E-003, 4.3487723E+002
 2.5002439E+001, 1.3246010E-001, 9.2338563E-002, 3.2508633E-002, 2.2227287E-004, 2.1977460E-005, 6.0943948E-003, 4.3445360E+002
 2.6005422E+001, 1.2987989E-001, 9.4743008E-002, 3.3204293E-002, 2.2696309E-004, 1.9081952E-005, 6.2538690E-003, 4.3405740E+002
 2.7001627E+001, 1.2694733E-001, 9.7474277E-002, 3.3995144E-002, 2.3345957E-004, 1.6699314E-005, 6.4352704E-003, 4.3396168E+002
 2.8009245E+001, 1.2413707E-001, 1.0009277E-001, 3.4752860E-002, 2.3880106E-004, 1.3885069E-005, 6.6089918E-003, 4.3353231E+002
 2.9001476E+001, 1.2235348E-001, 1.0175605E-001, 3.5233491E-002, 2.4096720E-004, 1.2113498E-005, 6.7190768E-003, 4.3291729E+002
 3.0008786E+001, 1.1970790E-001, 1.0422204E-001, 3.5946565E-002, 2.4506876E-004, 9.9879801E-006, 6.8824811E-003, 4.3501756E+002
 3.1004158E+001, 1.1773921E-001, 1.0605450E-001, 3.6477563E-002, 2.5017307E-004, 9.5532222E-006, 7.0043466E-003, 4.3575504E+002
 3.2009287E+001, 1.1532448E-001, 1.0830095E-001, 3.7129052E-002, 2.5739597E-004, 9.3979929E-006, 7.1539512E-003, 4.3490315E+002
 3.3007507E+001, 1.1227961E-001, 1.1113475E-001, 3.7950391E-002, 2.6561487E-004, 8.6892788E-006, 7.3424795E-003, 4.3839996E+002
 3.4005941E+001, 1.1021776E-001, 1.1305205E-001, 3.8506718E-002, 2.7233392E-004, 9.6610684E-006, 7.4702825E-003, 4.3768483E+002
 3.5007493E+001, 1.0864585E-001, 1.1451502E-001, 3.8930712E-002, 2.7652518E-004, 9.4536805E-006, 7.5676007E-003, 4.3699513E+002
 3.6001375E+001, 1.0657072E-001, 1.1643857E-001, 3.9491660E-002, 2.8840482E-004, 1.1564635E-005, 7.6969225E-003, 4.3631027E+002
 3.7008141E+001, 1.0416678E-001, 1.1864617E-001, 4.0144839E-002, 3.1926787E-004, 1.9533458E-005, 7.8490358E-003, 4.3607861E+002
 3.8009414E+001, 1.0158653E-001, 1.2102627E-001, 4.0844195E-002, 3.4362662E-004, 2.5450073E-005, 8.0111237E-003, 4.3961474E+002
 3.9010563E+001, 1.0024475E-001, 1.2225440E-001, 4.1209431E-002, 3.6420902E-004, 3.0959975E-005, 8.0964788E-003, 4.3780999E+002
 4.0007987E+001, 9.7385369E-002, 1.2486877E-001, 4.1988186E-002, 4.1033720E-004, 4.3729846E-005, 8.2786744E-003, 4.3859559E+002
 4.1001337E+001, 9.6690636E-002, 1.2552655E-001, 4.2173724E-002, 4.0287650E-004, 4.1077026E-005, 8.3204268E-003, 4.3801307E+002
 4.2006974E+001, 9.4342036E-002, 1.2768193E-001, 4.2811675E-002, 4.3345935E-004, 5.3054193E-005, 8.4690388E-003, 4.3658686E+002
 4.3008397E+001, 9.2237125E-002, 1.2959298E-001, 4.3387556E-002, 4.7928613E-004, 6.2138849E-005, 8.6048162E-003, 4.3894416E+002
 4.4002711E+001, 9.0528903E-002, 1.3115567E-001, 4.3852654E-002, 5.0614989E-004, 6.9555874E-005, 8.7135680E-003, 4.3816270E+002
 4.5009175E+001, 8.8784928E-002, 1.3274781E-001, 4.4327303E-002, 5.3502964E-004, 8.4489950E-005, 8.8246937E-003, 4.3865367E+002
 4.6003957E+001, 8.6960189E-002, 1.3441626E-001, 4.4824377E-002, 5.6460658E-004, 9.1556721E-005, 8.9409982E-003, 4.3963517E+002
 4.7004078E+001, 8.5446061E-002, 1.3579831E-001, 4.5236644E-002, 5.9012539E-004, 1.0338238E-004, 9.0375562E-003, 4.3944508E+002
 4.8010024E+001, 8.3762433E-002, 1.3732682E-001, 4.5696824E-002, 6.2604313E-004, 1.1478516E-004, 9.1459973E-003, 4.4058435E+002
 4.9009984E+001, 8.1365321E-002, 1.3950408E-001, 4.6351662E-002, 6.7601934E-004, 1.3252757E-004, 9.3002103E-003, 4.4100114E+002
 5.0001403E+001, 8.1406807E-002, 1.3948199E-001, 4.6336932E-002, 6.6077701E-004, 1.3612169E-004, 9.2954860E-003, 4.4002500E+002
 5.1007105E+001, 7.8090172E-002, 1.4250208E-001, 4.7241642E-002, 7.2347680E-004, 1.5947243E-004, 9.5079748E-003, 4.4181618E+002
 5.2001456E+001, 7.8099566E-002, 1.4248188E-001, 4.7240684E-002, 7.3242275E-004, 1.6501686E-004, 9.5085622E-003, 4.4100653E+002
 5.3005948E+001, 7.5106447E-002, 1.4518926E-001, 4.8061014E-002, 8.0558202E-004, 1.8227030E-004, 9.7026840E-003, 4.4332474E+002
 5.4010277E+001, 7.4408347E-002, 1.4586809E-001, 4.8243820E-002, 7.8206148E-004, 1.8168415E-004, 9.7423803E-003, 4.4183023E+002
 5.5003788E+001, 7.1956878E-002, 1.4807461E-001, 4.8917402E-002, 8.5087984E-004, 1.9926623E-004, 9.9025615E-003, 4.4254405E+002
 5.6001024E+001, 7.0899782E-002, 1.4906349E-001, 4.9201175E-002, 8.4859843E-004, 2.0277363E-004, 9.9672459E-003, 4.4513498E+002
 5.7003492E+001, 6.9047516E-002, 1.5076751E-001, 4.9703101E-002, 8.6837188E-004, 2.1603014E-004, 1.0083793E-002, 4.4547308E+002
 5.8002870E+001, 6.7774205E-002, 1.5189726E-001, 5.0055951E-002, 9.1819347E-004, 2.2632794E-004, 1.0168933E-002, 4.4480155E+002
 5.9004619E+001, 6.6896246E-002, 1.5271500E-001, 5.0292260E-002, 9.1931704E-004, 2.2972522E-004, 1.0223069E-002, 4.4504971E+002
 6.0010763E+001, 6.4856654E-002, 1.5457863E-001, 5.0847781E-002, 9.5293590E-004, 2.4057701E-004, 1.0353104E-002, 4.4455321E+002
 6.1003449E+001, 6.4112485E-002, 1.5526731E-001, 5.1048331E-002, 9.5674819E-004, 2.4891303E-004, 1.0399310E-002, 4.4593559E+002
 6.2004742E+001, 6.3131565E-002, 1.5614782E-001, 5.1318613E-002, 9.8690483E-004, 2.5320082E-004, 1.0463808E-002, 4.4532101E+002
 6.3005924E+001, 6.1125646E-002, 1.5797699E-001, 5.1865842E-002, 1.0235008E-003, 2.6226328E-004, 1.0592210E-002, 4.4662393E+002
 6.4001589E+001, 6.0159282E-002, 1.5887139E-001, 5.2127066E-002, 1.0297800E-003, 2.6568042E-004, 1.0652503E-002, 4.4645893E+002
 6.5000595E+001, 5.8564016E-002, 1.6030498E-001, 5.2566292E-002, 1.0773620E-003, 2.7285283E-004, 1.0757189E-002, 4.4607807E+002
 6.6001863E+001, 5.7437242E-002, 1.6136832E-001, 5.2866672E-002, 1.0662394E-003, 2.7960859E-004, 1.0824885E-002, 4.4779072E+002
 6.7010623E+001, 5.6925882E-002, 1.6182150E-001, 5.3007304E-002, 1.0846793E-003, 2.9445874E-004, 1.0858707E-002, 4.4636128E+002
 6.8008419E+001, 5.5767049E-002, 1.6287166E-001, 5.3325141E-002, 1.1123353E-003, 2.9558357E-004, 1.0933851E-002, 4.4682460E+002
 6.9003257E+001, 5.3461911E-002, 1.6496567E-001, 5.3955942E-002, 1.1621252E-003, 3.0221333E-004, 1.1082536E-002, 4.4950553E+002
 7.0007177E+001, 5.2529358E-002, 1.6581096E-001, 5.4211522E-002, 1.1839478E-003, 3.0457553E-004, 1.1142925E-002, 4.4830118E+002
 7.1004472E+001, 5.1288609E-002, 1.6698728E-001, 5.4541578E-002, 1.1675154E-003, 3.0903280E-004, 1.1216929E-002, 4.5014472E+002
 7.2001855E+001, 5.0287782E-002, 1.6787834E-001, 5.4818155E-002, 1.2036729E-003, 3.1874294E-004, 1.1283410E-002, 4.5011929E+002
 7.3010428E+001, 4.9220835E-002, 1.6888254E-001, 5.5103586E-002, 1.1963339E-003, 3.2065824E-004, 1.1348019E-002, 4.5072224E+002
 7.4012062E+001, 4.8347747E-002, 1.6964681E-001, 5.5347726E-002, 1.2399554E-003, 3.2570837E-004, 1.1407743E-002, 4.5021324E+002
 7.5008427E+001, 4.7285220E-002, 1.7062948E-001, 5.5635429E-002, 1.2480924E-003, 3.2629911E-004, 1.1474253E-002, 4.5033238E+002
 7.6000237E+001, 4.6320447E-002, 1.7148285E-001, 5.5903879E-002, 1.2891784E-003, 3.2862349E-004, 1.1539305E-002, 4.5019824E+002
 7.7007948E+001, 4.5246540E-002, 1.7246252E-001, 5.6195996E-002, 1.3070854E-003, 3.4058874E-004, 1.1607712E-002, 4.5227727E+002
 7.8005722E+001, 4.3919562E-002, 1.7370654E-001, 5.6552707E-002, 1.3036047E-003, 3.3585024E-004, 1.1688955E-002, 4.5177383E+002
 7.9007583E+001, 4.3666247E-002, 1.7395142E-001, 5.6618360E-002, 1.2946780E-003, 3.4436891E-004, 1.1703180E-002, 4.5239829E+002
 8.0002267E+001, 4.3012114E-002, 1.7453069E-001, 5.6799767E-002, 1.3211176E-003, 3.5031968E-004, 1.1747027E-002, 4.5212010E+002
 8.1003280E+001, 4.0787316E-002, 1.7655912E-001, 5.7408596E-002, 1.3651596E-003, 3.4369129E-004, 1.1890158E-002, 4.5454137E+002
 8.2000241E+001, 3.9514949E-002, 1.7770770E-001, 5.7757882E-002, 1.3985023E-003, 3.4988789E-004, 1.1973006E-002, 4.5504444E+002
 8.3004656E+001, 3.9305233E-002, 1.7781255E-001, 5.7829774E-002, 1.4748304E-003, 3.6712282E-004, 1.1996284E-002, 4.5464619E+002
 8.4003431E+001, 3.8542323E-002, 1.7855116E-001, 5.8030275E-002, 1.4521503E-003, 3.6551831E-004, 1.2040100E-002, 4.5574684E+002
 8.5009648E+001, 3.7231748E-002, 1.7969843E-001, 5.8396689E-002, 1.5175024E-003, 3.7357949E-004, 1.2129726E-002, 4.5538975E+002
 8.6004794E+001, 3.6232685E-002, 1.8059015E-001, 5.8673542E-002, 1.5537067E-003, 3.7240703E-004, 1.2196259E-002, 4.5503073E+002
 8.7003097E+001, 3.6134843E-002, 1.8075220E-001, 5.8687333E-002, 1.4934593E-003, 3.6392682E-004, 1.2194020E-002, 4.5616512E+002
 8.8003252E+001, 3.4988575E-002, 1.8175549E-001, 5.9007991E-002, 1.5510119E-003, 3.6956315E-004, 1.2272485E-002, 4.5525569E+002
 8.9000729E+001, 3.4649533E-002, 1.8201249E-001, 5.9109111E-002, 1.6005678E-003, 3.8311502E-004, 1.2300049E-002, 4.5576259E+002
 9.0005563E+001, 3.3246986E-002, 1.8329335E-001, 5.9493228E-002, 1.6277039E-003, 3.7249672E-004, 1.2390285E-002, 4.5582651E+002
 9.1005933E+001, 3.2878313E-002, 1.8368207E-001, 5.9583848E-002, 1.5885583E-003, 3.7366948E-004, 1.2407510E-002, 4.5665352E+002
 9.2003327E+001, 3.2530047E-002, 1.8400011E-001, 5.9678892E-002, 1.5947235E-003, 3.7413072E-004, 1.2429793E-002, 4.5575924E+002
 9.3001348E+001, 3.1372883E-002, 1.8493520E-001, 6.0017202E-002, 1.7204785E-003, 3.8172564E-004, 1.2518387E-002, 4.5629372E+002
 9.4003071E+001, 3.0041241E-002, 1.8614235E-001, 6.0382547E-002, 1.7522466E-003, 3.8135183E-004, 1.2604758E-002, 4.5679638E+002
 9.5010249E+001, 3.0150945E-002, 1.8608670E-001, 6.0343719E-002, 1.7106408E-003, 3.8489224E-004, 1.2592169E-002, 4.5640498E+002
 9.6006981E+001, 2.8900361E-002, 1.8718941E-001, 6.0693199E-002, 1.7683856E-003, 3.8018887E-004, 1.2677227E-002, 4.5759901E+002
 9.7006002E+001, 2.8419934E-002, 1.8760093E-001, 6.0828436E-002, 1.7988582E-003, 3.9049357E-004, 1.2710884E-002, 4.5753137E+002
 9.8002050E+001, 2.7457807E-002, 1.8852730E-001, 6.1082061E-002, 1.7743719E-003, 3.9037087E-004, 1.2766687E-002, 4.5745253E+002
 9.9007711E+001, 2.7276457E-002, 1.8856838E-001, 6.1153786E-002, 1.8839526E-003, 4.0428391E-004, 1.2792892E-002, 4.5906956E+002
 1.0001030E+002, 2.6600647E-002, 1.8925554E-001, 6.1326683E-002, 1.8377797E-003, 3.8867772E-004, 1.2828279E-002, 4.5718946E+002
 1.0101015E+002, 2.6095549E-002, 1.8966740E-001, 6.1473547E-002, 1.8892608E-003, 3.9293552E-004, 1.2866462E-002, 4.5826810E+002
 1.0200727E+002, 2.5550009E-002, 1.9011508E-001, 6.1630769E-002, 1.9408881E-003, 4.0539097E-004, 1.2907038E-002, 4.5969841E+002
 1.0300288E+002, 2.4372035E-002, 1.9112939E-001, 6.1963323E-002, 2.0143885E-003, 4.1265036E-004, 1.2989649E-002, 4.5894989E+002
 1.0400136E+002, 2.4075504E-002, 1.9147744E-001, 6.2031275E-002, 1.9550661E-003, 3.9706170E-004, 1.2999866E-002, 4.5856440E+002
 1.0500749E+002, 2.3923155E-002, 1.9162168E-001, 6.2072413E-002, 1.9542173E-003, 3.9237326E-004, 1.3009190E-002, 4.6029824E+002
 1.0601089E+002, 2.3116057E-002, 1.9219208E-001, 6.2321247E-002, 2.1087998E-003, 4.2252353E-004, 1.3079931E-002, 4.5931194E+002
 1.0700390E+002, 2.2850613E-002, 1.9248584E-001, 6.2385314E-002, 2.0710080E-003, 4.0997670E-004, 1.3091188E-002, 4.6023422E+002
 1.0800521E+002, 2.1815580E-002, 1.9338086E-001, 6.2678196E-002, 2.1347066E-003, 4.0351840E-004, 1.3163834E-002, 4.5969567E+002
 1.0900248E+002, 2.1272945E-002, 1.9378507E-001, 6.2841664E-002, 2.2207146E-003, 4.2272026E-004, 1.3208917E-002, 4.6059178E+002
 1.1000518E+002, 2.1292568E-002, 1.9372926E-001, 6.2842773E-002, 2.2522130E-003, 4.2960277E-004, 1.3211993E-002, 4.5942279E+002
 1.1101009E+002, 2.0012224E-002, 1.9488955E-001, 6.3196656E-002, 2.2874752E-003, 4.0597265E-004, 1.3296024E-002, 4.6074582E+002
 1.1200756E+002, 2.0238444E-002, 1.9466510E-001, 6.3137722E-002, 2.2980563E-003, 4.1116041E-004, 1.3283501E-002, 4.5943774E+002
 1.1300648E+002, 1.9557166E-002, 1.9534426E-001, 6.3312244E-002, 2.2592963E-003, 4.1699780E-004, 1.3319951E-002, 4.6123633E+002
 1.1400951E+002, 1.9583076E-002, 1.9495578E-001, 6.3372972E-002, 2.5750683E-003, 4.3262641E-004, 1.3362058E-002, 4.6001773E+002
 1.1500747E+002, 1.9781337E-002, 1.9513626E-001, 6.3250922E-002, 2.2568698E-003, 4.2374895E-004, 1.3305722E-002, 4.5950330E+002
 1.1601070E+002, 1.8231810E-002, 1.9630359E-001, 6.3720986E-002, 2.5010084E-003, 4.2587506E-004, 1.3435007E-002, 4.5992816E+002
 1.1700922E+002, 1.8559013E-002, 1.9606445E-001, 6.3620029E-002, 2.4425074E-003, 4.2811564E-004, 1.3406702E-002, 4.5992905E+002
 1.1801048E+002, 1.7504281E-002, 1.9698363E-001, 6.3916975E-002, 2.5009185E-003, 4.2294218E-004, 1.3479806E-002, 4.6139087E+002
 1.1900726E+002, 1.7507875E-002, 1.9712009E-001, 6.3891432E-002, 2.3821588E-003, 4.0405393E-004, 1.3463334E-002, 4.6106047E+002
 1.2000233E+002, 1.6560102E-002, 1.9761628E-001, 6.4217163E-002, 2.7163701E-003, 4.3540083E-004, 1.3567701E-002, 4.6118035E+002
 1.2100006E+002, 1.7133039E-002, 1.9707196E-001, 6.4062889E-002, 2.7213460E-003, 4.5238380E-004, 1.3532895E-002, 4.6200438E+002
 1.2200127E+002, 1.6176105E-002, 1.9785654E-001, 6.4340694E-002, 2.8157822E-003, 4.5695437E-004, 1.3604854E-002, 4.5946890E+002
 1.2300799E+002, 1.6236292E-002, 1.9762104E-001, 6.4357431E-002, 2.9705394E-003, 4.6820016E-004, 1.3622517E-002, 4.6021443E+002
 1.2400854E+002, 1.5803819E-002, 1.9804364E-001, 6.4471282E-002, 2.9558875E-003, 4.5873718E-004, 1.3647227E-002, 4.5943915E+002
 1.2500484E+002, 1.5890348E-002, 1.9819730E-001, 6.4404115E-002, 2.7521249E-003, 4.5145980E-004, 1.3613662E-002, 4.6049643E+002
 1.2600256E+002, 1.4585301E-002, 1.9929033E-001, 6.4781692E-002, 2.8661300E-003, 4.2933394E-004, 1.3710145E-002, 4.6172715E+002
 1.2700952E+002, 1.4677950E-002, 1.9872414E-001, 6.4842640E-002, 3.2762794E-003, 4.7976781E-004, 1.3760778E-002, 4.6175665E+002
 1.2800394E+002, 1.4223696E-002, 1.9924370E-001, 6.4948757E-002, 3.1963269E-003, 4.6112765E-004, 1.3777875E-002, 4.6249476E+002
 1.2900723E+002, 1.3262596E-002, 1.9995779E-001, 6.5241942E-002, 3.3559913E-003, 4.6490971E-004, 1.3859175E-002, 4.6175642E+002
 1.3001088E+002, 1.4099343E-002, 1.9928699E-001, 6.4994820E-002, 3.2578194E-003, 4.7283020E-004, 1.3793915E-002, 4.6074589E+002
 1.3100213E+002, 1.3927463E-002, 1.9925486E-001, 6.5078607E-002, 3.4277785E-003, 4.6526477E-004, 1.3828241E-002, 4.5991567E+002
 1.3200476E+002, 1.4139027E-002, 1.9904294E-001, 6.5020391E-002, 3.4334124E-003, 5.0201461E-004, 1.3815483E-002, 4.6002429E+002
 1.3300457E+002, 1.2962272E-002, 2.0001179E-001, 6.5362460E-002, 3.5481136E-003, 4.9648128E-004, 1.3903932E-002, 4.6010144E+002
 1.3400499E+002, 1.3080416E-002, 1.9964016E-001, 6.5377374E-002, 3.7714224E-003, 5.2465271E-004, 1.3927323E-002, 4.6088387E+002
 1.3500099E+002, 1.3650406E-002, 1.9926809E-001, 6.5193289E-002, 3.6310245E-003, 5.2614785E-004, 1.3872697E-002, 4.5871555E+002
 1.3600190E+002, 1.2639674E-002, 1.9992755E-001, 6.5519607E-002, 3.8799628E-003, 5.2504043E-004, 1.3969538E-002, 4.6161184E+002
 1.3701289E+002, 1.2613843E-002, 1.9994970E-001, 6.5527839E-002, 3.8832518E-003, 5.1676270E-004, 1.3971703E-002, 4.5942437E+002
 1.3800704E+002, 1.2651045E-002, 1.9951776E-001, 6.5589025E-002, 4.2230204E-003, 5.5777996E-004, 1.4016092E-002, 4.5901161E+002
 1.3900139E+002, 1.2391881E-002, 1.9991747E-001, 6.5630452E-002, 4.0880086E-003, 5.4197137E-004, 1.4013485E-002, 4.5726914E+002
 1.4000756E+002, 1.2325790E-002, 1.9981624E-001, 6.5678391E-002, 4.2290214E-003, 5.5014332E-004, 1.4037051E-002, 4.5976890E+002
 1.4100504E+002, 1.2113665E-002, 2.0022969E-001, 6.5696594E-002, 4.0442973E-003, 5.3049477E-004, 1.4024689E-002, 4.5998398E+002
 1.4200153E+002, 1.1674365E-002, 2.0010475E-001, 6.5912107E-002, 4.5043898E-003, 5.7330699E-004, 1.4115113E-002, 4.5927758E+002
 1.4300186E+002, 1.2073103E-002, 1.9967559E-001, 6.5815141E-002, 4.5532999E-003, 5.7772010E-004, 1.4097316E-002, 4.6035952E+002
 1.4400733E+002, 1.1649064E-002, 2.0011218E-001, 6.5922111E-002, 4.5187476E-003, 5.7231965E-004, 1.4118681E-002, 4.5788204E+002
 1.4501028E+002, 1.0915963E-002, 2.0024658E-001, 6.6219062E-002, 4.9911063E-003, 6.1963733E-004, 1.4228827E-002, 4.5815745E+002
 1.4601060E+002, 1.1625641E-002, 2.0018967E-001, 6.5915923E-002, 4.4668067E-003, 5.8964102E-004, 1.4112651E-002, 4.5768250E+002
 1.4700894E+002, 1.1803544E-002, 1.9991692E-001, 6.5887179E-002, 4.5580648E-003, 6.0044900E-004, 1.4114244E-002, 4.5851454E+002
 1.4800157E+002, 1.0897372E-002, 2.0028035E-001, 6.6219613E-002, 4.9744488E-003, 6.3175272E-004, 1.4227482E-002, 4.6054718E+002
 1.4900863E+002, 1.0147356E-002, 2.0075022E-001, 6.6468049E-002, 5.1806863E-003, 6.0734069E-004, 1.4302671E-002, 4.6012246E+002
 1.5000157E+002, 1.0800440E-002, 2.0058040E-001, 6.6209248E-002, 4.7971212E-003, 5.9998478E-004, 1.4209232E-002, 4.5928917E+002
 1.5100652E+002, 1.0117391E-002, 2.0082801E-001, 6.6468322E-002, 5.1400438E-003, 5.9179967E-004, 1.4299082E-002, 4.6026549E+002
 1.5200885E+002, 1.0213778E-002, 2.0069166E-001, 6.6450816E-002, 5.1799152E-003, 5.9542013E-004, 1.4298645E-002, 4.5850926E+002
 1.5301086E+002, 9.5386694E-003, 2.0101520E-001, 6.6687888E-002, 5.4430144E-003, 6.2365787E-004, 1.4376386E-002, 4.5955025E+002
 1.5400316E+002, 9.4175361E-003, 2.0125535E-001, 6.6698844E-002, 5.3362946E-003, 6.0024805E-004, 1.4369328E-002, 4.5995569E+002
