s,,,,,,,
Time,"O2 EXHAUST","CO2 EXHAUST","H2O EXHAUST","CO EXHAUST","FUEL EXHAUST","SOOT EXHAUST","TEMP EXHAUST"
 0.0000000E+000, 2.3099739E-001, 5.9146498E-004, 5.9412091E-003, 0.0000000E+000, 0.0000000E+000, 0.0000000E+000, 2.0000000E+001
 1.0024609E+000, 2.3099739E-001, 5.9146498E-004, 5.9412091E-003, 1.8909314E-028, 1.0675860E-027, 5.2978858E-029, 2.0948157E+001
 2.0025984E+000, 2.2062809E-001, 1.0067373E-002, 9.9477715E-003, 7.7461794E-005, 1.9142289E-004, 7.3822360E-005, 1.1843602E+002
 3.0013697E+000, 2.1168100E-001, 1.8285966E-002, 1.3408199E-002, 1.2857446E-004, 2.5214656E-004, 1.3437189E-004, 1.9811291E+002
 4.0037878E+000, 2.0601157E-001, 2.3490579E-002, 1.5601999E-002, 1.6349788E-004, 2.9054369E-004, 1.7326914E-004, 2.4748546E+002
 5.0043564E+000, 2.0060261E-001, 2.8490306E-002, 1.7689057E-002, 1.7519263E-004, 2.9538081E-004, 2.0590651E-004, 2.8832270E+002
 6.0023469E+000, 1.9057412E-001, 3.7831332E-002, 2.1548860E-002, 1.5460386E-004, 2.2193319E-004, 2.5770052E-004, 3.5744855E+002
 7.0036506E+000, 1.8313478E-001, 4.4773532E-002, 2.4410379E-002, 1.3170417E-004, 1.5266681E-004, 2.9454947E-004, 4.0022773E+002
 8.0005016E+000, 1.7628546E-001, 5.1171685E-002, 2.7044208E-002, 1.0689494E-004, 8.0463859E-005, 3.2770914E-004, 4.3478035E+002
 9.0058696E+000, 1.6589439E-001, 6.0846493E-002, 3.1043557E-002, 8.7344123E-005, 1.2178502E-005, 3.8173769E-004, 4.7713166E+002
 1.0003892E+001, 1.5722297E-001, 6.8882338E-002, 3.4385825E-002, 9.3093721E-005, 1.2674879E-006, 4.3137131E-004, 5.0129866E+002
 1.1005866E+001, 1.5223939E-001, 7.3496447E-002, 3.6307178E-002, 9.8821658E-005, 2.0705028E-007, 4.6039554E-004, 5.0948312E+002
 1.2000496E+001, 1.4527887E-001, 7.9939556E-002, 3.8990901E-002, 1.0763637E-004, 3.5022529E-007, 5.0110139E-004, 5.2980213E+002
 1.3001310E+001, 1.3851660E-001, 8.6199158E-002, 4.1598190E-002, 1.1620134E-004, 4.7735268E-007, 5.4064817E-004, 5.3427933E+002
 1.4006063E+001, 1.3554146E-001, 8.8953254E-002, 4.2745278E-002, 1.1990006E-004, 4.0739210E-007, 5.5803286E-004, 5.3475339E+002
 1.5006795E+001, 1.3058242E-001, 9.3543985E-002, 4.4657247E-002, 1.2597684E-004, 2.0581790E-007, 5.8699180E-004, 5.3772209E+002
 1.6005025E+001, 1.2800064E-001, 9.5933898E-002, 4.5652674E-002, 1.2921023E-004, 2.3849284E-007, 6.0208279E-004, 5.3363930E+002
 1.7006230E+001, 1.2567925E-001, 9.8082614E-002, 4.6547745E-002, 1.3222920E-004, 3.5782586E-007, 6.1567498E-004, 5.3976896E+002
 1.8007255E+001, 1.2312105E-001, 1.0045097E-001, 4.7534032E-002, 1.3526142E-004, 1.5121076E-007, 6.3059263E-004, 5.3154752E+002
 1.9002573E+001, 1.2008446E-001, 1.0326178E-001, 4.8704842E-002, 1.3914284E-004, 2.4609820E-007, 6.4835839E-004, 5.3955211E+002
 2.0005261E+001, 1.2105001E-001, 1.0236777E-001, 4.8332604E-002, 1.3807254E-004, 4.2686155E-007, 6.4274329E-004, 5.3409779E+002
 2.1006917E+001, 1.1847288E-001, 1.0475376E-001, 4.9326173E-002, 1.4105623E-004, 1.1375148E-007, 6.5775670E-004, 5.3573389E+002
 2.2001528E+001, 1.1490093E-001, 1.0806021E-001, 5.0703386E-002, 1.4556978E-004, 1.2568040E-007, 6.7864379E-004, 5.3652817E+002
 2.3003773E+001, 1.1425113E-001, 1.0866161E-001, 5.0953944E-002, 1.4645521E-004, 2.2296686E-007, 6.8245685E-004, 5.3327775E+002
 2.4000346E+001, 1.1406396E-001, 1.0883504E-001, 5.1026075E-002, 1.4658190E-004, 1.3720022E-007, 6.8352856E-004, 5.3073839E+002
 2.5003826E+001, 1.1104463E-001, 1.1162988E-001, 5.2190236E-002, 1.5044478E-004, 1.8690160E-007, 7.0119413E-004, 5.3166314E+002
 2.6003467E+001, 1.1056609E-001, 1.1207298E-001, 5.2374710E-002, 1.5095423E-004, 9.8200903E-008, 7.0397261E-004, 5.2950085E+002
 2.7000798E+001, 1.1018799E-001, 1.1242299E-001, 5.2520492E-002, 1.5142676E-004, 1.0303395E-007, 7.0618250E-004, 5.2789711E+002
 2.8005165E+001, 1.0937298E-001, 1.1317730E-001, 5.2834746E-002, 1.5252699E-004, 2.3665221E-007, 7.1096281E-004, 5.2337341E+002
 2.9004183E+001, 1.0789546E-001, 1.1454514E-001, 5.3404396E-002, 1.5430263E-004, 1.3677601E-007, 7.1958373E-004, 5.2458861E+002
 3.0003757E+001, 1.0663382E-001, 1.1571290E-001, 5.3890852E-002, 1.5595396E-004, 2.5007196E-007, 7.2697301E-004, 5.3049108E+002
 3.1002905E+001, 1.0594824E-001, 1.1634750E-001, 5.4155196E-002, 1.5684337E-004, 2.5021305E-007, 7.3098678E-004, 5.3107637E+002
 3.2001393E+001, 1.0439496E-001, 1.1778533E-001, 5.4754076E-002, 1.5879429E-004, 3.0157189E-007, 7.4006714E-004, 5.2799343E+002
 3.3003886E+001, 1.0473514E-001, 1.1747061E-001, 5.4622889E-002, 1.5825853E-004, 1.1799057E-007, 7.3805607E-004, 5.2436398E+002
 3.4003383E+001, 1.0204945E-001, 1.1995676E-001, 5.5658374E-002, 1.6159392E-004, 1.0299660E-007, 7.5374865E-004, 5.3277801E+002
 3.5006604E+001, 1.0240207E-001, 1.1963025E-001, 5.5522441E-002, 1.6121825E-004, 1.2962387E-007, 7.5170122E-004, 5.2686273E+002
 3.6001119E+001, 1.0168912E-001, 1.2029018E-001, 5.5797329E-002, 1.6213260E-004, 1.7938144E-007, 7.5587296E-004, 5.2899970E+002
 3.7003191E+001, 1.0158173E-001, 1.2038976E-001, 5.5838703E-002, 1.6216041E-004, 5.6092229E-008, 7.5647859E-004, 5.2457979E+002
 3.8005806E+001, 9.9883786E-002, 1.2196072E-001, 5.6493516E-002, 1.6480867E-004, 7.1668741E-007, 7.6651149E-004, 5.2636646E+002
 3.9005617E+001, 9.8012008E-002, 1.2369414E-001, 5.7215058E-002, 1.6667206E-004, 9.3189822E-008, 7.7735287E-004, 5.2906632E+002
 4.0006024E+001, 9.9371012E-002, 1.2243610E-001, 5.6691083E-002, 1.6498398E-004, 1.2489127E-007, 7.6941207E-004, 5.2328717E+002
 4.1003480E+001, 9.7541078E-002, 1.2412985E-001, 5.7396674E-002, 1.6741125E-004, 2.7465362E-007, 7.8013650E-004, 5.2886820E+002
 4.2002136E+001, 9.6154481E-002, 1.2541343E-001, 5.7931282E-002, 1.6912688E-004, 2.6639732E-007, 7.8823710E-004, 5.3283489E+002
 4.3004622E+001, 9.4951838E-002, 1.2652620E-001, 5.8395072E-002, 1.7096017E-004, 6.5384619E-007, 7.9533458E-004, 5.3511493E+002
 4.4000703E+001, 9.5412557E-002, 1.2610027E-001, 5.8217331E-002, 1.7002682E-004, 2.2077969E-007, 7.9256776E-004, 5.2973694E+002
 4.5006023E+001, 9.5217391E-002, 1.2628086E-001, 5.8292596E-002, 1.7032236E-004, 2.6612804E-007, 7.9371915E-004, 5.2252984E+002
 4.6008043E+001, 9.3544799E-002, 1.2782871E-001, 5.8937542E-002, 1.7268205E-004, 7.6751986E-007, 8.0355046E-004, 5.3069522E+002
 4.7002105E+001, 9.4622408E-002, 1.2683076E-001, 5.8522169E-002, 1.7163560E-004, 9.4065079E-007, 7.9731466E-004, 5.2803030E+002
 4.8001325E+001, 9.3936180E-002, 1.2746291E-001, 5.8787299E-002, 1.7445511E-004, 3.7247151E-006, 8.0173136E-004, 5.3084738E+002
 4.9001621E+001, 9.2364241E-002, 1.2891255E-001, 5.9394378E-002, 1.7993625E-004, 8.5191898E-006, 8.1164668E-004, 5.3230002E+002
 5.0001967E+001, 9.2194195E-002, 1.2903739E-001, 5.9465842E-002, 2.0096781E-004, 3.7316510E-005, 8.1694914E-004, 5.3167482E+002
 5.1002607E+001, 9.2083141E-002, 1.2917227E-001, 5.9502867E-002, 1.8062321E-004, 8.8350101E-006, 8.1335927E-004, 5.2998261E+002
 5.2001430E+001, 9.1967407E-002, 1.2927476E-001, 5.9548478E-002, 1.8388579E-004, 1.2047803E-005, 8.1468239E-004, 5.2533805E+002
 5.3003599E+001, 9.1078184E-002, 1.3009475E-001, 5.9891988E-002, 1.8710895E-004, 1.4290469E-005, 8.2031752E-004, 5.3148518E+002
 5.4006230E+001, 9.0818668E-002, 1.3029768E-001, 5.9997471E-002, 2.0990741E-004, 5.5354858E-005, 8.2647256E-004, 5.3760488E+002
 5.5003374E+001, 9.1334688E-002, 1.2985802E-001, 5.9792876E-002, 1.8624326E-004, 1.4177932E-005, 8.1870471E-004, 5.3405958E+002
 5.6007174E+001, 9.0504220E-002, 1.3061041E-001, 6.0116113E-002, 1.9782155E-004, 2.8171021E-005, 8.2574065E-004, 5.3250608E+002
 5.7004666E+001, 8.9929192E-002, 1.3115309E-001, 6.0336129E-002, 1.9209979E-004, 1.7846311E-005, 8.2777045E-004, 5.2777181E+002
 5.8007767E+001, 9.1671029E-002, 1.2954823E-001, 5.9662771E-002, 1.8468285E-004, 1.3676849E-005, 8.1650158E-004, 5.2274742E+002
 5.9001689E+001, 8.9818442E-002, 1.3125395E-001, 6.0379105E-002, 1.9327226E-004, 1.9462878E-005, 8.2863151E-004, 5.2770240E+002
 6.0001187E+001, 9.0095154E-002, 1.3098791E-001, 6.0273840E-002, 1.9887494E-004, 3.0457646E-005, 8.2824172E-004, 5.2556358E+002
 6.1007123E+001, 9.1703292E-002, 1.2951452E-001, 5.9651371E-002, 1.8744714E-004, 1.4991389E-005, 8.1689675E-004, 5.2915433E+002
 6.2005536E+001, 8.9155018E-002, 1.3184396E-001, 6.0639709E-002, 2.0997341E-004, 3.8091815E-005, 8.3579807E-004, 5.3066886E+002
 6.3000304E+001, 9.0182183E-002, 1.3091661E-001, 6.0239127E-002, 1.9337572E-004, 1.9102591E-005, 8.2662251E-004, 5.2305443E+002
 6.4000922E+001, 9.0119158E-002, 1.3097839E-001, 6.0262534E-002, 1.9098215E-004, 1.7704199E-005, 8.2647660E-004, 5.2700423E+002
 6.5001952E+001, 8.9431333E-002, 1.3162111E-001, 6.0526531E-002, 1.8788569E-004, 1.3058604E-005, 8.2967691E-004, 5.3284366E+002
 6.6000287E+001, 8.9165899E-002, 1.3184828E-001, 6.0632162E-002, 1.9999867E-004, 2.9878828E-005, 8.3366580E-004, 5.3157698E+002
 6.7002900E+001, 8.7684328E-002, 1.3311647E-001, 6.1223658E-002, 2.6946197E-004, 1.1183651E-004, 8.5633255E-004, 5.3476934E+002
 6.8007054E+001, 8.8567468E-002, 1.3234555E-001, 6.0871291E-002, 2.3506489E-004, 9.1361619E-005, 8.4424768E-004, 5.2856802E+002
 6.9007813E+001, 8.9375303E-002, 1.3162703E-001, 6.0556843E-002, 2.1772072E-004, 5.1371831E-005, 8.3616808E-004, 5.2345420E+002
 7.0005566E+001, 8.9281424E-002, 1.3173344E-001, 6.0589407E-002, 2.0526971E-004, 3.4715070E-005, 8.3411476E-004, 5.2549191E+002
 7.1005662E+001, 8.7710696E-002, 1.3315991E-001, 6.1199700E-002, 2.2452020E-004, 6.0895532E-005, 8.4686993E-004, 5.2811414E+002
 7.2001595E+001, 8.8129727E-002, 1.3276005E-001, 6.1038931E-002, 2.3023354E-004, 7.9815971E-005, 8.4569834E-004, 5.3115127E+002
 7.3002872E+001, 8.7968252E-002, 1.3292463E-001, 6.1099758E-002, 2.2212302E-004, 5.8561682E-005, 8.4493442E-004, 5.2290097E+002
 7.4006267E+001, 8.6335100E-002, 1.3441052E-001, 6.1735248E-002, 2.4186918E-004, 7.4674960E-005, 8.5815459E-004, 5.3222413E+002
 7.5002531E+001, 8.8229144E-002, 1.3267802E-001, 6.1000096E-002, 2.2506280E-004, 6.3068928E-005, 8.4408548E-004, 5.2838241E+002
 7.6004245E+001, 8.7184448E-002, 1.3361410E-001, 6.1407937E-002, 2.4559429E-004, 9.3886338E-005, 8.5416481E-004, 5.2310141E+002
 7.7000709E+001, 8.7300952E-002, 1.3352535E-001, 6.1360251E-002, 2.3395387E-004, 7.2800789E-005, 8.5111167E-004, 5.3077453E+002
 7.8004600E+001, 8.8223397E-002, 1.3266133E-001, 6.1006877E-002, 2.3973078E-004, 7.9037399E-005, 8.4715875E-004, 5.2149863E+002
 7.9005065E+001, 8.6015340E-002, 1.3464940E-001, 6.1869015E-002, 2.7891601E-004, 1.2439188E-004, 8.6760905E-004, 5.3172288E+002
 8.0003447E+001, 8.6605912E-002, 1.3416022E-001, 6.1630057E-002, 2.4055916E-004, 7.8620568E-005, 8.5636389E-004, 5.2399514E+002
 8.1002383E+001, 8.6299963E-002, 1.3441914E-001, 6.1752249E-002, 2.5629423E-004, 1.0113095E-004, 8.6132773E-004, 5.2638689E+002
 8.2001321E+001, 8.4893911E-002, 1.3567603E-001, 6.2302026E-002, 2.8616569E-004, 1.4327370E-004, 8.7535980E-004, 5.2406435E+002
 8.3003643E+001, 8.7427782E-002, 1.3340815E-001, 6.1311368E-002, 2.3371976E-004, 7.2294220E-005, 8.5035526E-004, 5.2416601E+002
 8.4005613E+001, 8.7937569E-002, 1.3296755E-001, 6.1109174E-002, 2.1310188E-004, 4.4411610E-005, 8.4324093E-004, 5.3124280E+002
 8.5003824E+001, 8.5424153E-002, 1.3517903E-001, 6.2099233E-002, 2.8998442E-004, 1.4550361E-004, 8.7319329E-004, 5.2509264E+002
 8.6006887E+001, 8.7136990E-002, 1.3366552E-001, 6.1426853E-002, 2.4289187E-004, 7.5293918E-005, 8.5388969E-004, 5.3173622E+002
 8.7001666E+001, 8.6825459E-002, 1.3396309E-001, 6.1543195E-002, 2.3524773E-004, 7.9935090E-005, 8.5402759E-004, 5.3127557E+002
 8.8005740E+001, 8.7545588E-002, 1.3331451E-001, 6.1263503E-002, 2.2407779E-004, 5.6542866E-005, 8.4770512E-004, 5.3015502E+002
 8.9007318E+001, 8.5208238E-002, 1.3539277E-001, 6.2179713E-002, 2.8112814E-004, 1.3478349E-004, 8.7256409E-004, 5.3261578E+002
 9.0001423E+001, 8.7299715E-002, 1.3352541E-001, 6.1361731E-002, 2.3547382E-004, 6.8864213E-005, 8.5144093E-004, 5.2726597E+002
 9.1000750E+001, 8.6576545E-002, 1.3420240E-001, 6.1638642E-002, 2.3099162E-004, 6.5488610E-005, 8.5454769E-004, 5.3267972E+002
 9.2004324E+001, 8.7295294E-002, 1.3354557E-001, 6.1359773E-002, 2.2444041E-004, 5.9220664E-005, 8.4917495E-004, 5.2784515E+002
 9.3001759E+001, 8.6398507E-002, 1.3434717E-001, 6.1710671E-002, 2.4376920E-004, 8.4691055E-005, 8.5818423E-004, 5.3110108E+002
 9.4005782E+001, 8.6287693E-002, 1.3439922E-001, 6.1759588E-002, 2.7316711E-004, 1.4732186E-004, 8.6485869E-004, 5.3180913E+002
 9.5003441E+001, 8.7471469E-002, 1.3335878E-001, 6.1296406E-002, 2.3964328E-004, 7.8589302E-005, 8.5133967E-004, 5.2552004E+002
 9.6006692E+001, 8.6537085E-002, 1.3424670E-001, 6.1652063E-002, 2.2567392E-004, 6.0930511E-005, 8.5366390E-004, 5.3075715E+002
 9.7003847E+001, 8.7286078E-002, 1.3356362E-001, 6.1361789E-002, 2.1855661E-004, 4.9652088E-005, 8.4801057E-004, 5.2741999E+002
 9.8007282E+001, 8.7703541E-002, 1.3310415E-001, 6.1214891E-002, 2.6556800E-004, 1.0924390E-004, 8.5541578E-004, 5.2978726E+002
 9.9001385E+001, 8.6626221E-002, 1.3415004E-001, 6.1620632E-002, 2.3499170E-004, 7.1202765E-005, 8.5509792E-004, 5.2310950E+002
 1.0000793E+002, 8.5257696E-002, 1.3539315E-001, 6.2151507E-002, 2.5076594E-004, 9.8646323E-005, 8.6599677E-004, 5.3214460E+002
 1.0100269E+002, 8.6905579E-002, 1.3383396E-001, 6.1524870E-002, 2.7295390E-004, 1.1274654E-004, 8.6140864E-004, 5.2810280E+002
 1.0200548E+002, 8.6314066E-002, 1.3444206E-001, 6.1740375E-002, 2.3336618E-004, 6.8829110E-005, 8.5650468E-004, 5.2717892E+002
 1.0300380E+002, 8.6171491E-002, 1.3456367E-001, 6.1796999E-002, 2.3994087E-004, 7.9367522E-005, 8.5865958E-004, 5.2666174E+002
 1.0400428E+002, 8.7562610E-002, 1.3330764E-001, 6.1254958E-002, 2.1799524E-004, 5.0934362E-005, 8.4634764E-004, 5.2803034E+002
 1.0500755E+002, 8.6308342E-002, 1.3444091E-001, 6.1744727E-002, 2.3849828E-004, 6.8625031E-005, 8.5760817E-004, 5.2611717E+002
 1.0600725E+002, 8.6269793E-002, 1.3440808E-001, 6.1771405E-002, 2.8172705E-004, 1.3283940E-004, 8.6676411E-004, 5.2796506E+002
 1.0700078E+002, 8.5583371E-002, 1.3509105E-001, 6.2027340E-002, 2.5207827E-004, 9.1414265E-005, 8.6446153E-004, 5.3150189E+002
 1.0800611E+002, 8.5719936E-002, 1.3489458E-001, 6.1986551E-002, 2.9583849E-004, 1.5837765E-004, 8.7274706E-004, 5.2484106E+002
 1.0900835E+002, 8.9016019E-002, 1.3196427E-001, 6.0694154E-002, 2.1481353E-004, 4.9499798E-005, 8.3756982E-004, 5.2636676E+002
 1.1000307E+002, 8.6136939E-002, 1.3459728E-001, 6.1809747E-002, 2.3865782E-004, 7.9615125E-005, 8.5858437E-004, 5.2690628E+002
 1.1100689E+002, 8.6315605E-002, 1.3431841E-001, 6.1761841E-002, 3.1140529E-004, 1.7745307E-004, 8.7264577E-004, 5.2443580E+002
 1.1200756E+002, 8.6806216E-002, 1.3397501E-001, 6.1553060E-002, 2.4045241E-004, 7.6800756E-005, 8.5522550E-004, 5.2476436E+002
 1.1300521E+002, 8.5915996E-002, 1.3474661E-001, 6.1905273E-002, 2.7456579E-004, 1.2638992E-004, 8.6725313E-004, 5.2602066E+002
 1.1400522E+002, 8.5426497E-002, 1.3523550E-001, 6.2087280E-002, 2.5206522E-004, 9.6230824E-005, 8.6532855E-004, 5.2830806E+002
 1.1500206E+002, 8.7800610E-002, 1.3306516E-001, 6.1166701E-002, 2.3134264E-004, 7.3633555E-005, 8.4777554E-004, 5.2349338E+002
 1.1600045E+002, 8.4912189E-002, 1.3566939E-001, 6.2293963E-002, 2.8044278E-004, 1.2906390E-004, 8.7408148E-004, 5.2959446E+002
 1.1700377E+002, 8.6032557E-002, 1.3467462E-001, 6.1853898E-002, 2.5153879E-004, 9.4187445E-005, 8.6183718E-004, 5.2972911E+002
 1.1800011E+002, 8.5184859E-002, 1.3541958E-001, 6.2188237E-002, 2.7831277E-004, 1.2751420E-004, 8.7211633E-004, 5.3102971E+002
 1.1900031E+002, 8.4778530E-002, 1.3575983E-001, 6.2351812E-002, 3.0217646E-004, 1.5676475E-004, 8.7932873E-004, 5.2490384E+002
 1.2000575E+002, 8.5068079E-002, 1.3545120E-001, 6.2244762E-002, 3.2492458E-004, 2.0942204E-004, 8.8239245E-004, 5.2783819E+002
 1.2100783E+002, 8.5869907E-002, 1.3480255E-001, 6.1919953E-002, 2.6543212E-004, 1.1878306E-004, 8.6561374E-004, 5.3259727E+002
 1.2200550E+002, 8.6254930E-002, 1.3447938E-001, 6.1766410E-002, 2.4465488E-004, 8.3761294E-005, 8.5917201E-004, 5.3054439E+002
 1.2300675E+002, 8.6062694E-002, 1.3457760E-001, 6.1856034E-002, 2.9694664E-004, 1.4785322E-004, 8.7107806E-004, 5.2877119E+002
 1.2400381E+002, 8.6086039E-002, 1.3461537E-001, 6.1835447E-002, 2.5811291E-004, 1.0035487E-004, 8.6290287E-004, 5.2600619E+002
 1.2500195E+002, 8.6152579E-002, 1.3440715E-001, 6.1833793E-002, 3.4912419E-004, 2.4556534E-004, 8.8134161E-004, 5.2867001E+002
 1.2600290E+002, 8.7493845E-002, 1.3334298E-001, 6.1286557E-002, 2.3613500E-004, 7.6252468E-005, 8.5048543E-004, 5.2859366E+002
 1.2700765E+002, 8.6531671E-002, 1.3420928E-001, 6.1660968E-002, 2.5191177E-004, 1.0373199E-004, 8.5911578E-004, 5.2798221E+002
 1.2800271E+002, 8.6421247E-002, 1.3432603E-001, 6.1701529E-002, 2.4339617E-004, 8.7136833E-005, 8.5797624E-004, 5.2765086E+002
 1.2900546E+002, 8.6846360E-002, 1.3389603E-001, 6.1542618E-002, 2.6452354E-004, 1.2915969E-004, 8.5995839E-004, 5.2132276E+002
 1.3000508E+002, 8.6663257E-002, 1.3409207E-001, 6.1610253E-002, 2.4968464E-004, 9.4510060E-005, 8.5792804E-004, 5.3030348E+002
 1.3100464E+002, 8.7355325E-002, 1.3347537E-001, 6.1338888E-002, 2.3331782E-004, 7.4520795E-005, 8.5067307E-004, 5.2473787E+002
 1.3200455E+002, 8.4727261E-002, 1.3574379E-001, 6.2379862E-002, 3.3952447E-004, 2.3244007E-004, 8.8731338E-004, 5.3138773E+002
 1.3300260E+002, 8.6314288E-002, 1.3439275E-001, 6.1748477E-002, 2.6402809E-004, 1.1655327E-004, 8.6284221E-004, 5.2449069E+002
 1.3400800E+002, 8.6779519E-002, 1.3393103E-001, 6.1572547E-002, 2.8105736E-004, 1.5724460E-004, 8.6374665E-004, 5.2802916E+002
 1.3500274E+002, 8.7336287E-002, 1.3346620E-001, 6.1350101E-002, 2.4946063E-004, 1.0416457E-004, 8.5411077E-004, 5.2632960E+002
 1.3600642E+002, 8.5909765E-002, 1.3477770E-001, 6.1903374E-002, 2.5867913E-004, 1.0225238E-004, 8.6400289E-004, 5.3102037E+002
 1.3700297E+002, 8.5559119E-002, 1.3510963E-001, 6.2036448E-002, 2.5361457E-004, 1.0055118E-004, 8.6490585E-004, 5.2261554E+002
 1.3800062E+002, 8.4106806E-002, 1.3636528E-001, 6.2610657E-002, 3.1028571E-004, 1.9005802E-004, 8.8472927E-004, 5.2820235E+002
 1.3900070E+002, 8.6014098E-002, 1.3463331E-001, 6.1869647E-002, 2.8688847E-004, 1.5762168E-004, 8.6923728E-004, 5.2206525E+002
 1.4000284E+002, 8.5778217E-002, 1.3487605E-001, 6.1957216E-002, 2.7266629E-004, 1.2975653E-004, 8.6762162E-004, 5.2895429E+002
 1.4100387E+002, 8.5922295E-002, 1.3476460E-001, 6.1897693E-002, 2.5847122E-004, 1.1037073E-004, 8.6387906E-004, 5.2664822E+002
 1.4200237E+002, 8.6900809E-002, 1.3387653E-001, 6.1517480E-002, 2.4619630E-004, 9.3028314E-005, 8.5587536E-004, 5.2786202E+002
 1.4300482E+002, 8.4378807E-002, 1.3616885E-001, 6.2498888E-002, 2.7777629E-004, 1.2214005E-004, 8.7651210E-004, 5.2998229E+002
 1.4400706E+002, 8.5139150E-002, 1.3538840E-001, 6.2218631E-002, 3.2478704E-004, 1.9580851E-004, 8.8198445E-004, 5.2856096E+002
 1.4500002E+002, 8.6192794E-002, 1.3451404E-001, 6.1795414E-002, 2.6027284E-004, 9.8496834E-005, 8.6276003E-004, 5.2625669E+002
 1.4600730E+002, 8.5490518E-002, 1.3515455E-001, 6.2066574E-002, 2.6589815E-004, 1.1511805E-004, 8.6783417E-004, 5.2898396E+002
 1.4700244E+002, 8.5256475E-002, 1.3535668E-001, 6.2160047E-002, 2.7609099E-004, 1.2429199E-004, 8.7125683E-004, 5.3085414E+002
 1.4800354E+002, 8.4813313E-002, 1.3575595E-001, 6.2333249E-002, 2.8401113E-004, 1.3185347E-004, 8.7537484E-004, 5.3008936E+002
 1.4900184E+002, 8.3785358E-002, 1.3660056E-001, 6.2749040E-002, 3.5374236E-004, 2.2599900E-004, 8.9554889E-004, 5.2409802E+002
 1.5000225E+002, 8.7319312E-002, 1.3349999E-001, 6.1355645E-002, 2.4025818E-004, 7.4389853E-005, 8.5232305E-004, 5.3461357E+002
 1.5100792E+002, 8.5691470E-002, 1.3494227E-001, 6.1995917E-002, 2.8455039E-004, 1.2584566E-004, 8.7059171E-004, 5.2435788E+002
 1.5200427E+002, 8.4445726E-002, 1.3604560E-001, 6.2484845E-002, 3.1754299E-004, 1.7239698E-004, 8.8437447E-004, 5.2719234E+002
 1.5300486E+002, 8.8505140E-002, 1.3243285E-001, 6.0892126E-002, 2.1844175E-004, 5.2048069E-005, 8.4117652E-004, 5.2863270E+002
 1.5400255E+002, 8.4880368E-002, 1.3570448E-001, 6.2305980E-002, 2.7766753E-004, 1.1941377E-004, 8.7369231E-004, 5.2748341E+002
