s,,,,,,,
Time,"O2 EXHAUST","CO2 EXHAUST","H2O EXHAUST","CO EXHAUST","FUEL EXHAUST","SOOT EXHAUST","TEMP EXHAUST"
 0.0000000E+000, 2.3099739E-001, 5.9146498E-004, 5.9412092E-003, 0.0000000E+000, 0.0000000E+000, 0.0000000E+000, 2.0000000E+001
 1.0042094E+000, 2.3099739E-001, 5.9146498E-004, 5.9412092E-003, 3.4411625E-025, 1.1916495E-024, 9.9293689E-026, 2.2579361E+001
 2.0012618E+000, 2.1791196E-001, 1.0395936E-002, 1.1606547E-002, 1.3914615E-004, 9.3680915E-005, 1.0741004E-004, 1.4370074E+002
 3.0003950E+000, 2.0910222E-001, 1.6998197E-002, 1.5423494E-002, 2.3427878E-004, 1.3684291E-004, 1.8004627E-004, 2.2075975E+002
 4.0037884E+000, 2.0021002E-001, 2.3831317E-002, 1.9231607E-002, 2.2145771E-004, 1.1858532E-004, 2.3136322E-004, 2.9054687E+002
 5.0033520E+000, 1.9226040E-001, 2.9952130E-002, 2.2632910E-002, 2.0227857E-004, 9.7702560E-005, 2.7568096E-004, 3.4931587E+002
 6.0052543E+000, 1.8033178E-001, 3.9196717E-002, 2.7721098E-002, 1.3499900E-004, 4.2587717E-005, 3.3440200E-004, 4.2124173E+002
 7.0034014E+000, 1.6612151E-001, 5.0153551E-002, 3.3796399E-002, 9.0238889E-005, 2.9852099E-006, 4.1149922E-004, 4.9362344E+002
 8.0051556E+000, 1.5747156E-001, 5.6769714E-002, 3.7508297E-002, 9.7154612E-005, 9.3742472E-008, 4.6533124E-004, 5.1615367E+002
 9.0011882E+000, 1.4999123E-001, 6.2485012E-002, 4.0719898E-002, 1.0713356E-004, 6.8776653E-008, 5.1269210E-004, 5.3283058E+002
 1.0003310E+001, 1.3720663E-001, 7.2249758E-002, 4.6209812E-002, 1.2637077E-004, 4.6524480E-007, 5.9407854E-004, 5.6594871E+002
 1.1007537E+001, 1.3051290E-001, 7.7366277E-002, 4.9083013E-002, 1.3379916E-004, 2.2365616E-007, 6.3615481E-004, 5.6876648E+002
 1.2005676E+001, 1.2431314E-001, 8.2104914E-002, 5.1744280E-002, 1.4088775E-004, 6.3137892E-008, 6.7516829E-004, 5.7766650E+002
 1.3003789E+001, 1.1784915E-001, 8.7043518E-002, 5.4519562E-002, 1.4961061E-004, 1.4353614E-007, 7.1611438E-004, 5.8273391E+002
 1.4003566E+001, 1.1338918E-001, 9.0451192E-002, 5.6434384E-002, 1.5551800E-004, 1.2121476E-007, 7.4434360E-004, 5.7951529E+002
 1.5003272E+001, 1.0962406E-001, 9.3327756E-002, 5.8050945E-002, 1.6064316E-004, 1.6226315E-007, 7.6820277E-004, 5.8280170E+002
 1.6001090E+001, 1.0825321E-001, 9.4375888E-002, 5.8639284E-002, 1.6197460E-004, 3.9169804E-008, 7.7678140E-004, 5.6576601E+002
 1.7000898E+001, 1.0266932E-001, 9.8640151E-002, 6.1037284E-002, 1.7080946E-004, 3.3143604E-007, 8.1241590E-004, 5.7802676E+002
 1.8001184E+001, 1.0173779E-001, 9.9353816E-002, 6.1436645E-002, 1.7075221E-004, 7.8744417E-008, 8.1805038E-004, 5.7583519E+002
 1.9004838E+001, 9.6453668E-002, 1.0338455E-001, 6.3707371E-002, 1.8226625E-004, 5.4926642E-007, 8.5241149E-004, 5.7726223E+002
 2.0002638E+001, 9.1839068E-002, 1.0691123E-001, 6.5688315E-002, 1.8779016E-004, 4.4770017E-007, 8.8150018E-004, 5.7773510E+002
 2.1003358E+001, 8.8880084E-002, 1.0917717E-001, 6.6957107E-002, 1.8823055E-004, 1.6920357E-007, 8.9952342E-004, 5.8043406E+002
 2.2006566E+001, 8.6868269E-002, 1.1071165E-001, 6.7821658E-002, 1.9268707E-004, 4.8178054E-007, 9.1262026E-004, 5.8356112E+002
 2.3003120E+001, 8.4694232E-002, 1.1236956E-001, 6.8756036E-002, 1.9772584E-004, 7.1446451E-007, 9.2681853E-004, 5.7929365E+002
 2.4000253E+001, 8.7446746E-002, 1.1027043E-001, 6.7573060E-002, 1.9140099E-004, 4.1420377E-007, 9.0885342E-004, 5.7718293E+002
 2.5005970E+001, 8.0429637E-002, 1.1562233E-001, 7.0588631E-002, 2.0712703E-004, 1.7069251E-006, 9.5457116E-004, 5.7699073E+002
 2.6000056E+001, 7.8684268E-002, 1.1695187E-001, 7.1339259E-002, 2.1219320E-004, 1.8231944E-006, 9.6617713E-004, 5.7525277E+002
 2.7006167E+001, 7.7847789E-002, 1.1758580E-001, 7.1699939E-002, 2.1677847E-004, 2.5925290E-006, 9.7217610E-004, 5.7167188E+002
 2.8004688E+001, 7.4901148E-002, 1.1984186E-001, 7.2963661E-002, 2.1757311E-004, 1.7845465E-006, 9.9019716E-004, 5.8805670E+002
 2.9006222E+001, 7.5251259E-002, 1.1956798E-001, 7.2815272E-002, 2.2139991E-004, 2.6166154E-006, 9.8885058E-004, 5.6933965E+002
 3.0005598E+001, 7.3899038E-002, 1.2060081E-001, 7.3395962E-002, 2.2344608E-004, 2.4737618E-006, 9.9746138E-004, 5.6919060E+002
 3.1004405E+001, 7.0064157E-002, 1.2353911E-001, 7.5039848E-002, 2.2292594E-004, 1.8619217E-006, 1.0205987E-003, 5.8063305E+002
 3.2000881E+001, 7.2593268E-002, 1.2159840E-001, 7.3956540E-002, 2.2519001E-004, 2.8682959E-006, 1.0057286E-003, 5.5900038E+002
 3.3003139E+001, 7.0471544E-002, 1.2322293E-001, 7.4866469E-002, 2.2572597E-004, 2.2411234E-006, 1.0186973E-003, 5.7983426E+002
 3.4006463E+001, 6.8628480E-002, 1.2462795E-001, 7.5658708E-002, 2.3029958E-004, 2.7490238E-006, 1.0307949E-003, 5.7610555E+002
 3.5005228E+001, 6.8640923E-002, 1.2462306E-001, 7.5651947E-002, 2.2715934E-004, 2.3074218E-006, 1.0300829E-003, 5.6719073E+002
 3.6005433E+001, 6.5514784E-002, 1.2700521E-001, 7.6996061E-002, 2.3562094E-004, 3.0053227E-006, 1.0507454E-003, 5.7317070E+002
 3.7001746E+001, 6.5540120E-002, 1.2699380E-001, 7.6982773E-002, 2.3023219E-004, 2.0300335E-006, 1.0494998E-003, 5.7951345E+002
 3.8004314E+001, 6.5995470E-002, 1.2664939E-001, 7.6786190E-002, 2.2725053E-004, 1.7504515E-006, 1.0461355E-003, 5.7398542E+002
 3.9006560E+001, 6.4191462E-002, 1.2802463E-001, 7.7561649E-002, 2.3173635E-004, 2.2054529E-006, 1.0579786E-003, 5.6961416E+002
 4.0001979E+001, 6.1862980E-002, 1.2979592E-001, 7.8563764E-002, 2.4011689E-004, 2.8476742E-006, 1.0737904E-003, 5.7237370E+002
 4.1002887E+001, 6.1888086E-002, 1.2977781E-001, 7.8552687E-002, 2.3938097E-004, 2.5507341E-006, 1.0734893E-003, 5.7188446E+002
 4.2004823E+001, 6.3424773E-002, 1.2860159E-001, 7.7893547E-002, 2.3874438E-004, 2.9565094E-006, 1.0640462E-003, 5.5882536E+002
 4.3003981E+001, 6.4911901E-002, 1.2746807E-001, 7.7254283E-002, 2.3496438E-004, 2.3790629E-006, 1.0542670E-003, 5.6036170E+002
 4.4003290E+001, 6.1242599E-002, 1.3026033E-001, 7.8833130E-002, 2.4748102E-004, 3.3650758E-006, 1.0790439E-003, 5.7092801E+002
 4.5006394E+001, 6.2003008E-002, 1.2968769E-001, 7.8504056E-002, 2.4078986E-004, 2.7773141E-006, 1.0730784E-003, 5.7707645E+002
 4.6002420E+001, 5.8643937E-002, 1.3223431E-001, 7.9952467E-002, 2.5880670E-004, 3.9130211E-006, 1.0970909E-003, 5.6816148E+002
 4.7004911E+001, 5.8173728E-002, 1.3261585E-001, 8.0147344E-002, 2.4423888E-004, 2.7129027E-006, 1.0969864E-003, 5.6890231E+002
 4.8005437E+001, 5.3972561E-002, 1.3580578E-001, 8.1957322E-002, 2.6343142E-004, 3.8796769E-006, 1.1263412E-003, 5.7720064E+002
 4.9005566E+001, 5.5387181E-002, 1.3474197E-001, 8.1344648E-002, 2.4995651E-004, 2.7994032E-006, 1.1150349E-003, 5.7741465E+002
 5.0002235E+001, 5.5095045E-002, 1.3496977E-001, 8.1468639E-002, 2.4722079E-004, 2.5017467E-006, 1.1162507E-003, 5.7343759E+002
 5.1000363E+001, 5.6028826E-002, 1.3425061E-001, 8.1069502E-002, 2.4985122E-004, 2.9389455E-006, 1.1111245E-003, 5.7901477E+002
 5.2003431E+001, 5.7308283E-002, 1.3327518E-001, 8.0519520E-002, 2.4670081E-004, 2.7835196E-006, 1.1027311E-003, 5.6745143E+002
 5.3000806E+001, 5.6451071E-002, 1.3392365E-001, 8.0889569E-002, 2.5224387E-004, 3.2515225E-006, 1.1090505E-003, 5.6691313E+002
 5.4000439E+001, 5.4743625E-002, 1.3523721E-001, 8.1619830E-002, 2.4839397E-004, 2.6701827E-006, 1.1186184E-003, 5.6887761E+002
 5.5004636E+001, 5.5448780E-002, 1.3469967E-001, 8.1316772E-002, 2.4667728E-004, 2.1246356E-006, 1.1139971E-003, 5.7371291E+002
 5.6001777E+001, 5.2238909E-002, 1.3714319E-001, 8.2697576E-002, 2.5696870E-004, 3.4468380E-006, 1.1355376E-003, 5.7157460E+002
 5.7001487E+001, 5.2795471E-002, 1.3671116E-001, 8.2460789E-002, 2.6088149E-004, 3.6016664E-006, 1.1329581E-003, 5.6861918E+002
 5.8001105E+001, 5.4844523E-002, 1.3515744E-001, 8.1577352E-002, 2.5008876E-004, 2.8249724E-006, 1.1183506E-003, 5.6776300E+002
 5.9005113E+001, 5.5259693E-002, 1.3483944E-001, 8.1399357E-002, 2.5007834E-004, 2.8303929E-006, 1.1158322E-003, 5.6497493E+002
 6.0005251E+001, 5.1728765E-002, 1.3753203E-001, 8.2916996E-002, 2.5836125E-004, 2.8651110E-006, 1.1389128E-003, 5.7205540E+002
 6.1001962E+001, 5.6599844E-002, 1.3381645E-001, 8.0823669E-002, 2.4763909E-004, 2.8675361E-006, 1.1072150E-003, 5.6404451E+002
 6.2002492E+001, 5.5201915E-002, 1.3488862E-001, 8.1422569E-002, 2.4671128E-004, 2.6381888E-006, 1.1154995E-003, 5.7360440E+002
 6.3000019E+001, 5.7077428E-002, 1.3346118E-001, 8.0615643E-002, 2.4047028E-004, 2.0725748E-006, 1.1028670E-003, 5.7510237E+002
 6.4007657E+001, 5.1712787E-002, 1.3753556E-001, 8.2926493E-002, 2.6423149E-004, 3.8790716E-006, 1.1401993E-003, 5.6653849E+002
 6.5006677E+001, 5.2548821E-002, 1.3691245E-001, 8.2562744E-002, 2.5252655E-004, 2.3474408E-006, 1.1327594E-003, 5.7646234E+002
 6.6002604E+001, 5.3087722E-002, 1.3649628E-001, 8.2332705E-002, 2.5478087E-004, 2.9457163E-006, 1.1299499E-003, 5.7014686E+002
 6.7001405E+001, 5.3554919E-002, 1.3613741E-001, 8.2132693E-002, 2.5544260E-004, 3.2144695E-006, 1.1272523E-003, 5.6293722E+002
 6.8005877E+001, 5.2679669E-002, 1.3681244E-001, 8.2506552E-002, 2.5235414E-004, 2.4897538E-006, 1.1319312E-003, 5.7235599E+002
 6.9004866E+001, 4.8092642E-002, 1.4031046E-001, 8.4478042E-002, 2.6302372E-004, 2.8302045E-006, 1.1618963E-003, 5.7996472E+002
 7.0000311E+001, 5.6515317E-002, 1.3388623E-001, 8.0858376E-002, 2.4424619E-004, 2.2821577E-006, 1.1070396E-003, 5.7833040E+002
 7.1004193E+001, 4.9742900E-002, 1.3904147E-001, 8.3771998E-002, 2.6630492E-004, 3.7410186E-006, 1.1525591E-003, 5.7894979E+002
 7.2004414E+001, 5.2732620E-002, 1.3677483E-001, 8.2482933E-002, 2.5034962E-004, 2.2806633E-006, 1.1312039E-003, 5.7664714E+002
 7.3001351E+001, 5.0690114E-002, 1.3832634E-001, 8.3362657E-002, 2.5921188E-004, 3.0773983E-006, 1.1453800E-003, 5.7258124E+002
 7.4000638E+001, 5.1210598E-002, 1.3793896E-001, 8.3135996E-002, 2.5152731E-004, 2.2877836E-006, 1.1406673E-003, 5.7364354E+002
 7.5002198E+001, 5.0656589E-002, 1.3835776E-001, 8.3375298E-002, 2.5535412E-004, 2.3326870E-006, 1.1448015E-003, 5.7619733E+002
 7.6001411E+001, 5.1047252E-002, 1.3804987E-001, 8.3210473E-002, 2.6120371E-004, 3.1575551E-006, 1.1436196E-003, 5.7672880E+002
 7.7003088E+001, 5.4207228E-002, 1.3564095E-001, 8.1851999E-002, 2.5323416E-004, 3.2591354E-006, 1.1228507E-003, 5.7368660E+002
 7.8004285E+001, 5.0190668E-002, 1.3870337E-001, 8.3578526E-002, 2.6299774E-004, 3.3199531E-006, 1.1491749E-003, 5.7783717E+002
 7.9002494E+001, 4.9590124E-002, 1.3916881E-001, 8.3834339E-002, 2.5933223E-004, 2.6489788E-006, 1.1520717E-003, 5.7491492E+002
 8.0003417E+001, 5.1120452E-002, 1.3799967E-001, 8.3177218E-002, 2.5718066E-004, 3.0146349E-006, 1.1423598E-003, 5.7485761E+002
 8.1000516E+001, 4.8778040E-002, 1.3977899E-001, 8.4186073E-002, 2.6731583E-004, 4.1911585E-006, 1.1586113E-003, 5.6245830E+002
 8.2004468E+001, 5.2042656E-002, 1.3729887E-001, 8.2780023E-002, 2.5331256E-004, 3.2051185E-006, 1.1359854E-003, 5.6860380E+002
 8.3005383E+001, 4.7140520E-002, 1.4104236E-001, 8.4885428E-002, 2.6126630E-004, 2.6129386E-006, 1.1673105E-003, 5.7755194E+002
 8.4001567E+001, 5.0956522E-002, 1.3813217E-001, 8.3245369E-002, 2.5249224E-004, 2.3403844E-006, 1.1424029E-003, 5.7087047E+002
 8.5005686E+001, 4.8913435E-002, 1.3968976E-001, 8.4123594E-002, 2.5752765E-004, 2.6844249E-006, 1.1558067E-003, 5.7936060E+002
 8.6005083E+001, 5.0005169E-002, 1.3885797E-001, 8.3654143E-002, 2.5448171E-004, 2.5103360E-006, 1.1485722E-003, 5.7115821E+002
 8.7002577E+001, 4.8928470E-002, 1.3968185E-001, 8.4116068E-002, 2.5510589E-004, 2.1582430E-006, 1.1552249E-003, 5.8059755E+002
 8.8001630E+001, 4.9283362E-002, 1.3941080E-001, 8.3963697E-002, 2.5458878E-004, 1.9782039E-006, 1.1529694E-003, 5.8339189E+002
 8.9006619E+001, 4.7963731E-002, 1.4041485E-001, 8.4531511E-002, 2.5915677E-004, 2.6659506E-006, 1.1618932E-003, 5.6569668E+002
 9.0001417E+001, 4.8566804E-002, 1.3995511E-001, 8.4272289E-002, 2.5766606E-004, 2.4513884E-006, 1.1579359E-003, 5.7998488E+002
 9.1000325E+001, 5.3137971E-002, 1.3646583E-001, 8.2308676E-002, 2.4932646E-004, 2.2602163E-006, 1.1285396E-003, 5.7676016E+002
 9.2001821E+001, 5.1813927E-002, 1.3746509E-001, 8.2881013E-002, 2.5951653E-004, 3.0094511E-006, 1.1386308E-003, 5.6293838E+002
 9.3002055E+001, 5.0231688E-002, 1.3868047E-001, 8.3558324E-002, 2.5723014E-004, 2.4681952E-006, 1.1477571E-003, 5.6716302E+002
 9.4003836E+001, 5.1758531E-002, 1.3751195E-001, 8.2903360E-002, 2.5648987E-004, 2.8424622E-006, 1.1383527E-003, 5.6875290E+002
 9.5006081E+001, 4.8168494E-002, 1.4024776E-001, 8.4446908E-002, 2.6611494E-004, 3.4563769E-006, 1.1620630E-003, 5.7080879E+002
 9.6005309E+001, 4.9816642E-002, 1.3900106E-001, 8.3735402E-002, 2.5539571E-004, 2.4425304E-006, 1.1499004E-003, 5.7779098E+002
 9.7007448E+001, 5.1351058E-002, 1.3783008E-001, 8.3076173E-002, 2.5239823E-004, 2.4333042E-006, 1.1399926E-003, 5.6784931E+002
 9.8004157E+001, 4.9996091E-002, 1.3885586E-001, 8.3660815E-002, 2.6061120E-004, 3.4139681E-006, 1.1498697E-003, 5.5939307E+002
 9.9000688E+001, 4.8191480E-002, 1.4023767E-001, 8.4434739E-002, 2.6102524E-004, 2.7561195E-006, 1.1608919E-003, 5.8044391E+002
 1.0000300E+002, 4.6364293E-002, 1.4164080E-001, 8.5217056E-002, 2.5867890E-004, 2.0228796E-006, 1.1714908E-003, 5.8239117E+002
 1.0100122E+002, 4.8035658E-002, 1.4036387E-001, 8.4499376E-002, 2.5634809E-004, 2.4908980E-006, 1.1608876E-003, 5.7096379E+002
 1.0200248E+002, 4.7560659E-002, 1.4071574E-001, 8.4706779E-002, 2.6451408E-004, 3.1179682E-006, 1.1654225E-003, 5.6652048E+002
 1.0300100E+002, 5.1025350E-002, 1.3808173E-001, 8.3215140E-002, 2.5093401E-004, 2.2590811E-006, 1.1416697E-003, 5.7482636E+002
 1.0400537E+002, 4.8973012E-002, 1.3963957E-001, 8.4099474E-002, 2.6062528E-004, 2.9896146E-006, 1.1560738E-003, 5.7282462E+002
 1.0500739E+002, 4.9760589E-002, 1.3904434E-001, 8.3759300E-002, 2.5514125E-004, 2.5720600E-006, 1.1501883E-003, 5.7428472E+002
 1.0600089E+002, 4.6904596E-002, 1.4120798E-001, 8.4991335E-002, 2.7157486E-004, 3.3019303E-006, 1.1708312E-003, 5.7537360E+002
 1.0700816E+002, 4.9131724E-002, 1.3951089E-001, 8.4033651E-002, 2.6546327E-004, 3.4696467E-006, 1.1560929E-003, 5.6867855E+002
 1.0800108E+002, 5.0913782E-002, 1.3816111E-001, 8.3264847E-002, 2.5505185E-004, 2.7752310E-006, 1.1431807E-003, 5.6208023E+002
 1.0900304E+002, 4.7715508E-002, 1.4061181E-001, 8.4635841E-002, 2.5454459E-004, 1.9406238E-006, 1.1624627E-003, 5.8475252E+002
 1.1000356E+002, 4.7296582E-002, 1.4091444E-001, 8.4821105E-002, 2.6694149E-004, 3.3666070E-006, 1.1675152E-003, 5.6751927E+002
 1.1100285E+002, 5.1461785E-002, 1.3774480E-001, 8.3028822E-002, 2.5269753E-004, 2.6299253E-006, 1.1393819E-003, 5.7090435E+002
 1.1200137E+002, 4.6169316E-002, 1.4178313E-001, 8.5302788E-002, 2.6341586E-004, 2.7779408E-006, 1.1736326E-003, 5.7958023E+002
 1.1300372E+002, 5.0585567E-002, 1.3840466E-001, 8.3408011E-002, 2.6040064E-004, 3.3066309E-006, 1.1462545E-003, 5.6414476E+002
 1.1400776E+002, 4.5752947E-002, 1.4209915E-001, 8.5482218E-002, 2.6541127E-004, 2.8587060E-006, 1.1765609E-003, 5.7331824E+002
 1.1500380E+002, 5.0718326E-002, 1.3831487E-001, 8.3347405E-002, 2.5232120E-004, 2.3586335E-006, 1.1438118E-003, 5.7927327E+002
 1.1600490E+002, 4.8566681E-002, 1.3995313E-001, 8.4272920E-002, 2.5902623E-004, 3.0203877E-006, 1.1582119E-003, 5.8010011E+002
 1.1700301E+002, 5.2449571E-002, 1.3699365E-001, 8.2603554E-002, 2.4891045E-004, 2.7632066E-006, 1.1326266E-003, 5.7348831E+002
 1.1800738E+002, 4.6770240E-002, 1.4131582E-001, 8.5047299E-002, 2.6815074E-004, 3.5933096E-006, 1.1709502E-003, 5.7120144E+002
 1.1900618E+002, 4.8060646E-002, 1.4033222E-001, 8.4492615E-002, 2.6489245E-004, 3.0292927E-006, 1.1624691E-003, 5.7176431E+002
 1.2000480E+002, 4.8717836E-002, 1.3983502E-001, 8.4208906E-002, 2.6065567E-004, 2.7929880E-006, 1.1576267E-003, 5.6980112E+002
 1.2100383E+002, 5.0344032E-002, 1.3858717E-001, 8.3512357E-002, 2.6211158E-004, 3.3581149E-006, 1.1480655E-003, 5.7339217E+002
 1.2200062E+002, 4.8144497E-002, 1.4025771E-001, 8.4459790E-002, 2.7182373E-004, 4.2484813E-006, 1.1633657E-003, 5.6860646E+002
 1.2300286E+002, 4.9941458E-002, 1.3890312E-001, 8.3682609E-002, 2.5697360E-004, 2.6700694E-006, 1.1494638E-003, 5.7894302E+002
 1.2400287E+002, 4.9627392E-002, 1.3914368E-001, 8.3817276E-002, 2.5699487E-004, 2.5490208E-006, 1.1513717E-003, 5.7244676E+002
 1.2500239E+002, 4.8068456E-002, 1.4033102E-001, 8.4487747E-002, 2.6161859E-004, 2.8735824E-006, 1.1617577E-003, 5.8510514E+002
 1.2600382E+002, 4.7438774E-002, 1.4080341E-001, 8.4760808E-002, 2.6838282E-004, 3.4982749E-006, 1.1669457E-003, 5.6955280E+002
 1.2700725E+002, 4.9889400E-002, 1.3894941E-001, 8.3702957E-002, 2.5263280E-004, 2.0353084E-006, 1.1488994E-003, 5.8005016E+002
 1.2800344E+002, 4.6468532E-002, 1.4155073E-001, 8.5175533E-002, 2.6561681E-004, 2.8662847E-006, 1.1722657E-003, 5.6930972E+002
 1.2900587E+002, 4.3760212E-002, 1.4360934E-001, 8.6341555E-002, 2.7641412E-004, 4.1583618E-006, 1.1908690E-003, 5.8536836E+002
 1.3000213E+002, 4.9507116E-002, 1.3923716E-001, 8.3868445E-002, 2.5609459E-004, 2.2859073E-006, 1.1519184E-003, 5.8362047E+002
 1.3100163E+002, 4.7893951E-002, 1.4046762E-001, 8.4561589E-002, 2.5958414E-004, 3.0269081E-006, 1.1624023E-003, 5.7573531E+002
 1.3200488E+002, 4.6038497E-002, 1.4188164E-001, 8.5359388E-002, 2.6455995E-004, 2.9704185E-006, 1.1746574E-003, 5.8442571E+002
 1.3300341E+002, 5.0076233E-002, 1.3879650E-001, 8.3625855E-002, 2.5925363E-004, 3.0770086E-006, 1.1491090E-003, 5.6886455E+002
 1.3400486E+002, 4.7105820E-002, 1.4106879E-001, 8.4900331E-002, 2.6135376E-004, 2.7500003E-006, 1.1675384E-003, 5.7910337E+002
 1.3500177E+002, 4.7456683E-002, 1.4079972E-001, 8.4750041E-002, 2.6159212E-004, 2.5805715E-006, 1.1654605E-003, 5.8522079E+002
 1.3600489E+002, 4.4777121E-002, 1.4284112E-001, 8.5902229E-002, 2.6911151E-004, 3.5674287E-006, 1.1832249E-003, 5.8059330E+002
 1.3700538E+002, 4.7638491E-002, 1.4066063E-001, 8.4672015E-002, 2.6145085E-004, 2.7355859E-006, 1.1643297E-003, 5.7182822E+002
 1.3800296E+002, 4.9565232E-002, 1.3919925E-001, 8.3841471E-002, 2.5160609E-004, 1.8405998E-006, 1.1506560E-003, 5.8105581E+002
 1.3900672E+002, 4.6386694E-002, 1.4161602E-001, 8.5209784E-002, 2.6382645E-004, 2.8111015E-006, 1.1723984E-003, 5.6849072E+002
 1.4000506E+002, 4.9111270E-002, 1.3954184E-001, 8.4037687E-002, 2.5509586E-004, 2.2237069E-006, 1.1541149E-003, 5.7416155E+002
 1.4100183E+002, 5.1954628E-002, 1.3736998E-001, 8.2816706E-002, 2.5087674E-004, 2.3792063E-006, 1.1360259E-003, 5.6954567E+002
 1.4200071E+002, 5.0550179E-002, 1.3844270E-001, 8.3419747E-002, 2.5294226E-004, 2.6981376E-006, 1.1449565E-003, 5.6303669E+002
 1.4300135E+002, 4.8843931E-002, 1.3974769E-001, 8.4151924E-002, 2.5433191E-004, 2.3814543E-006, 1.1555799E-003, 5.6522515E+002
 1.4400554E+002, 4.8816357E-002, 1.3974902E-001, 8.4169938E-002, 2.6781142E-004, 3.6229195E-006, 1.1584805E-003, 5.7479501E+002
 1.4500414E+002, 4.8255463E-002, 1.4018513E-001, 8.4408334E-002, 2.6337111E-004, 3.4718077E-006, 1.1609791E-003, 5.7207459E+002
 1.4600424E+002, 4.7443841E-002, 1.4080705E-001, 8.4756308E-002, 2.6328096E-004, 2.8752309E-006, 1.1658806E-003, 5.7696414E+002
 1.4700666E+002, 4.8971041E-002, 1.3964910E-001, 8.4097851E-002, 2.5519423E-004, 2.2306992E-006, 1.1549847E-003, 5.7822308E+002
 1.4800675E+002, 4.6812336E-002, 1.4128699E-001, 8.5028217E-002, 2.6584751E-004, 3.1575078E-006, 1.1702284E-003, 5.7169618E+002
 1.4900086E+002, 4.8304772E-002, 1.4015553E-001, 8.4384683E-002, 2.5784246E-004, 2.6915033E-006, 1.1595595E-003, 5.7248694E+002
 1.5000417E+002, 4.6658429E-002, 1.4140732E-001, 8.5093435E-002, 2.6418595E-004, 3.0053593E-006, 1.1708242E-003, 5.6926662E+002
 1.5100544E+002, 4.8620855E-002, 1.3990764E-001, 8.4250978E-002, 2.6176997E-004, 3.0590740E-006, 1.1584402E-003, 5.6874391E+002
 1.5200361E+002, 4.8916598E-002, 1.3968729E-001, 8.4122266E-002, 2.5756894E-004, 2.6027755E-006, 1.1557960E-003, 5.6856942E+002
 1.5300022E+002, 5.0029445E-002, 1.3884397E-001, 8.3642314E-002, 2.5136421E-004, 2.1193638E-006, 1.1477931E-003, 5.7676630E+002
 1.5400224E+002, 4.9012042E-002, 1.3960564E-001, 8.4084004E-002, 2.6337214E-004, 3.2335698E-006, 1.1563942E-003, 5.7382338E+002
