s,,,,,,,
Time,"O2 EXHAUST","CO2 EXHAUST","H2O EXHAUST","CO EXHAUST","FUEL EXHAUST","SOOT EXHAUST","TEMP EXHAUST"
 0.0000000E+000, 2.3099739E-001, 5.9146498E-004, 5.9412092E-003, 0.0000000E+000, 0.0000000E+000, 0.0000000E+000, 2.0000000E+001
 1.0030550E+000, 2.3099739E-001, 5.9146498E-004, 5.9412092E-003, 9.3050990E-033, 8.0227534E-032, 1.3946698E-032, 2.0624013E+001
 2.0043282E+000, 2.2483447E-001, 6.2647688E-003, 7.5842984E-003, 1.7197327E-005, 2.8419729E-004, 3.7760640E-004, 8.0259312E+001
 3.0048177E+000, 2.2170186E-001, 9.1425496E-003, 8.4335527E-003, 5.3545136E-005, 3.1029721E-004, 5.7506591E-004, 1.0615899E+002
 4.0031001E+000, 2.1781782E-001, 1.2716336E-002, 9.4764346E-003, 7.8045117E-005, 4.2498241E-004, 8.1585968E-004, 1.4233693E+002
 5.0035355E+000, 2.1365845E-001, 1.6555162E-002, 1.0597001E-002, 1.0440487E-004, 4.9301388E-004, 1.0745183E-003, 1.7648864E+002
 6.0049091E+000, 2.1042630E-001, 1.9527455E-002, 1.1466196E-002, 1.2804110E-004, 5.7906021E-004, 1.2754834E-003, 2.0403202E+002
 7.0054257E+000, 2.0520853E-001, 2.4372208E-002, 1.2875241E-002, 1.5102819E-004, 5.8317100E-004, 1.5997134E-003, 2.4049972E+002
 8.0069330E+000, 2.0135035E-001, 2.7952733E-002, 1.3914250E-002, 1.6403404E-004, 6.1578145E-004, 1.8384835E-003, 2.6576129E+002
 9.0015990E+000, 1.9601210E-001, 3.2917747E-002, 1.5358080E-002, 1.8687024E-004, 5.8483047E-004, 2.1706058E-003, 2.9636378E+002
 1.0005172E+001, 1.9184712E-001, 3.6800379E-002, 1.6482889E-002, 1.9693679E-004, 5.6064212E-004, 2.4286542E-003, 3.1701838E+002
 1.1008514E+001, 1.8742663E-001, 4.0929094E-002, 1.7678452E-002, 2.0634614E-004, 5.0521842E-004, 2.7027789E-003, 3.3847379E+002
 1.2001283E+001, 1.8072366E-001, 4.7205056E-002, 1.9489202E-002, 2.0851858E-004, 4.1380956E-004, 3.1168681E-003, 3.6074901E+002
 1.3005479E+001, 1.7634346E-001, 5.1304700E-002, 2.0672460E-002, 2.1073869E-004, 3.5684722E-004, 3.3875352E-003, 3.7528823E+002
 1.4007781E+001, 1.7063324E-001, 5.6652939E-002, 2.2213977E-002, 2.0980009E-004, 2.8548034E-004, 3.7398150E-003, 3.9020404E+002
 1.5002898E+001, 1.6645125E-001, 6.0572099E-002, 2.3342942E-002, 2.0788134E-004, 2.2917435E-004, 3.9976996E-003, 4.0059449E+002
 1.6006502E+001, 1.6285495E-001, 6.3944267E-002, 2.4312847E-002, 2.0356191E-004, 1.8614489E-004, 4.2190196E-003, 4.0666824E+002
 1.7007601E+001, 1.5838629E-001, 6.8124517E-002, 2.5518322E-002, 2.0411296E-004, 1.4724116E-004, 4.4946420E-003, 4.1275835E+002
 1.8008747E+001, 1.5395827E-001, 7.2264830E-002, 2.6712763E-002, 2.0558307E-004, 1.1267138E-004, 4.7678296E-003, 4.1913426E+002
 1.9008914E+001, 1.5232845E-001, 7.3792703E-002, 2.7152065E-002, 2.0339049E-004, 9.6118368E-005, 4.8680556E-003, 4.1892444E+002
 2.0006850E+001, 1.4699695E-001, 7.8773446E-002, 2.8589682E-002, 2.0660593E-004, 6.6924178E-005, 5.1970074E-003, 4.2724622E+002
 2.1004465E+001, 1.4360738E-001, 8.1938829E-002, 2.9503417E-002, 2.0886709E-004, 5.2733067E-005, 5.4061111E-003, 4.2956341E+002
 2.2009846E+001, 1.4096699E-001, 8.4399985E-002, 3.0215774E-002, 2.1414080E-004, 4.4372643E-005, 5.5694478E-003, 4.3126455E+002
 2.3009982E+001, 1.3852345E-001, 8.6681464E-002, 3.0874469E-002, 2.1598446E-004, 3.5074127E-005, 5.7202071E-003, 4.3272118E+002
 2.4004192E+001, 1.3446691E-001, 9.0465886E-002, 3.1967896E-002, 2.2059250E-004, 2.5710504E-005, 5.9706130E-003, 4.3754925E+002
 2.5002290E+001, 1.3205867E-001, 9.2709725E-002, 3.2617198E-002, 2.2517377E-004, 2.3546731E-005, 6.1194789E-003, 4.3546313E+002
 2.6005122E+001, 1.3002665E-001, 9.4604704E-002, 3.3164967E-002, 2.2795667E-004, 1.9717465E-005, 6.2449670E-003, 4.3446567E+002
 2.7009656E+001, 1.2768050E-001, 9.6791911E-002, 3.3797370E-002, 2.3148258E-004, 1.6943904E-005, 6.3898741E-003, 4.3513746E+002
 2.8007243E+001, 1.2351407E-001, 1.0067300E-001, 3.4920812E-002, 2.4008312E-004, 1.3894314E-005, 6.6475076E-003, 4.3792159E+002
 2.9002286E+001, 1.2122077E-001, 1.0281075E-001, 3.5538957E-002, 2.4361400E-004, 1.1677485E-005, 6.7891559E-003, 4.3814519E+002
 3.0008735E+001, 1.2018685E-001, 1.0377345E-001, 3.5817788E-002, 2.4604839E-004, 1.1236642E-005, 6.8531261E-003, 4.3536658E+002
 3.1008920E+001, 1.1752301E-001, 1.0625409E-001, 3.6536083E-002, 2.5198839E-004, 1.0496212E-005, 7.0178903E-003, 4.3504380E+002
 3.2001936E+001, 1.1548039E-001, 1.0815835E-001, 3.7086570E-002, 2.5487204E-004, 8.9663944E-006, 7.1440118E-003, 4.3629909E+002
 3.3001031E+001, 1.1182926E-001, 1.1155467E-001, 3.8071729E-002, 2.6615776E-004, 8.5119928E-006, 7.3702712E-003, 4.3855668E+002
 3.4010370E+001, 1.1013026E-001, 1.1312973E-001, 3.8530916E-002, 2.7564388E-004, 1.0757283E-005, 7.4761122E-003, 4.3749628E+002
 3.5004861E+001, 1.0844272E-001, 1.1469511E-001, 3.8986904E-002, 2.8437608E-004, 1.2246702E-005, 7.5811536E-003, 4.3775559E+002
 3.6010590E+001, 1.0609579E-001, 1.1687642E-001, 3.9620444E-002, 2.9311826E-004, 1.2549606E-005, 7.7267907E-003, 4.3906057E+002
 3.7001702E+001, 1.0433688E-001, 1.1849447E-001, 4.0098062E-002, 3.1365590E-004, 1.6220732E-005, 7.8378349E-003, 4.3731687E+002
 3.8002960E+001, 1.0221726E-001, 1.2044826E-001, 4.0672452E-002, 3.3423630E-004, 2.4599090E-005, 7.9710156E-003, 4.3746479E+002
 3.9007878E+001, 9.9513114E-002, 1.2294088E-001, 4.1405722E-002, 3.6130570E-004, 3.0829792E-005, 8.1411003E-003, 4.3868801E+002
 4.0001928E+001, 9.7964418E-002, 1.2435785E-001, 4.1827494E-002, 3.8573136E-004, 3.6194852E-005, 8.2397253E-003, 4.3882418E+002
 4.1001383E+001, 9.5874630E-002, 1.2628134E-001, 4.2394569E-002, 4.0888172E-004, 4.2316800E-005, 8.3714599E-003, 4.3911660E+002
 4.2005760E+001, 9.3756183E-002, 1.2822598E-001, 4.2970156E-002, 4.3647166E-004, 5.0883516E-005, 8.5055409E-003, 4.3858383E+002
 4.3006777E+001, 9.3061004E-002, 1.2885846E-001, 4.3159607E-002, 4.4959591E-004, 5.8359143E-005, 8.5500401E-003, 4.3853587E+002
 4.4009950E+001, 9.1116267E-002, 1.3063816E-001, 4.3688999E-002, 4.7964811E-004, 6.6616321E-005, 8.6737782E-003, 4.3862270E+002
 4.5002979E+001, 8.8847593E-002, 1.3268996E-001, 4.4310335E-002, 5.3448798E-004, 8.4261746E-005, 8.8207653E-003, 4.4007524E+002
 4.6001136E+001, 8.6646985E-002, 1.3471940E-001, 4.4906358E-002, 5.5476737E-004, 9.4091989E-005, 8.9588675E-003, 4.3913714E+002
 4.7009564E+001, 8.5390644E-002, 1.3585518E-001, 4.5250586E-002, 5.8564554E-004, 1.0333704E-004, 9.0403439E-003, 4.3846501E+002
 4.8005062E+001, 8.3662446E-002, 1.3744118E-001, 4.5719698E-002, 6.0760413E-004, 1.1509942E-004, 9.1495810E-003, 4.3985010E+002
 4.9002493E+001, 8.1883610E-002, 1.3904394E-001, 4.6207902E-002, 6.5566294E-004, 1.3008905E-004, 9.2655189E-003, 4.4208331E+002
 5.0005668E+001, 7.9746816E-002, 1.4099179E-001, 4.6790706E-002, 6.9478897E-004, 1.4208613E-004, 9.4022849E-003, 4.4194071E+002
 5.1008831E+001, 7.8807914E-002, 1.4184516E-001, 4.7046730E-002, 7.1324486E-004, 1.5226330E-004, 9.4624855E-003, 4.4163824E+002
 5.2006852E+001, 7.6515256E-002, 1.4395903E-001, 4.7668106E-002, 7.3535546E-004, 1.5944692E-004, 9.6065447E-003, 4.4291739E+002
 5.3007514E+001, 7.5486871E-002, 1.4486573E-001, 4.7953667E-002, 7.7972841E-004, 1.7242750E-004, 9.6758171E-003, 4.4277968E+002
 5.4001965E+001, 7.4354267E-002, 1.4589230E-001, 4.8262982E-002, 8.0436468E-004, 1.8535760E-004, 9.7487584E-003, 4.4231333E+002
 5.5003683E+001, 7.1749577E-002, 1.4828325E-001, 4.8970526E-002, 8.3804066E-004, 1.9742021E-004, 9.9135588E-003, 4.4341049E+002
 5.6009825E+001, 7.0703939E-002, 1.4921961E-001, 4.9258259E-002, 8.7074854E-004, 2.0937714E-004, 9.9822849E-003, 4.4374551E+002
 5.7005665E+001, 6.9405562E-002, 1.5041301E-001, 4.9611291E-002, 8.8726261E-004, 2.0955146E-004, 1.0064479E-002, 4.4352760E+002
 5.8008007E+001, 6.8400749E-002, 1.5133509E-001, 4.9883124E-002, 8.9847119E-004, 2.2489067E-004, 1.0127654E-002, 4.4519724E+002
 5.9005254E+001, 6.6708565E-002, 1.5288681E-001, 5.0342898E-002, 9.2140584E-004, 2.3455264E-004, 1.0234841E-002, 4.4534454E+002
 6.0004431E+001, 6.5247025E-002, 1.5423057E-001, 5.0740257E-002, 9.3971792E-004, 2.3442234E-004, 1.0327330E-002, 4.4410553E+002
 6.1007503E+001, 6.4385250E-002, 1.5499477E-001, 5.0978335E-002, 9.7239815E-004, 2.4878670E-004, 1.0384704E-002, 4.4409843E+002
 6.2003153E+001, 6.2564909E-002, 1.5667895E-001, 5.1470790E-002, 9.8521708E-004, 2.5269889E-004, 1.0498451E-002, 4.4503199E+002
 6.3008555E+001, 6.1043631E-002, 1.5806278E-001, 5.1886986E-002, 1.0168720E-003, 2.5472004E-004, 1.0596442E-002, 4.4516983E+002
 6.4000432E+001, 5.9878223E-002, 1.5914278E-001, 5.2200898E-002, 1.0217559E-003, 2.6662807E-004, 1.0668669E-002, 4.4675348E+002
 6.5003824E+001, 5.8880725E-002, 1.6004491E-001, 5.2474065E-002, 1.0458354E-003, 2.7464029E-004, 1.0733289E-002, 4.4691861E+002
 6.6002393E+001, 5.7324268E-002, 1.6147477E-001, 5.2897445E-002, 1.0663473E-003, 2.7456422E-004, 1.0831924E-002, 4.4668039E+002
 6.7008604E+001, 5.6586251E-002, 1.6214416E-001, 5.3098311E-002, 1.0809607E-003, 2.8847648E-004, 1.0879175E-002, 4.4791133E+002
 6.8009854E+001, 5.5491680E-002, 1.6315387E-001, 5.3395354E-002, 1.0919081E-003, 2.8753548E-004, 1.0948069E-002, 4.4824176E+002
 6.9001851E+001, 5.3991042E-002, 1.6451076E-001, 5.3806856E-002, 1.1292320E-003, 2.9502823E-004, 1.1045501E-002, 4.4898254E+002
 7.0008049E+001, 5.2652203E-002, 1.6573952E-001, 5.4170697E-002, 1.1469244E-003, 3.0016216E-004, 1.1130278E-002, 4.4921484E+002
 7.1002484E+001, 5.2018808E-002, 1.6628694E-001, 5.4348477E-002, 1.1835571E-003, 3.1000745E-004, 1.1174212E-002, 4.4951554E+002
 7.2005357E+001, 5.0595900E-002, 1.6763398E-001, 5.4728097E-002, 1.1677074E-003, 3.0844279E-004, 1.1259592E-002, 4.4885269E+002
 7.3010294E+001, 4.9009130E-002, 1.6901357E-001, 5.5172941E-002, 1.2540850E-003, 3.2359913E-004, 1.1369039E-002, 4.5091353E+002
 7.4010394E+001, 4.7564276E-002, 1.7040960E-001, 5.5552983E-002, 1.2132156E-003, 3.2255008E-004, 1.1452282E-002, 4.5282395E+002
 7.5001112E+001, 4.6938053E-002, 1.7094188E-001, 5.5730576E-002, 1.2574611E-003, 3.3113760E-004, 1.1496851E-002, 4.5177832E+002
 7.6007931E+001, 4.6350703E-002, 1.7150269E-001, 5.5885780E-002, 1.2457296E-003, 3.3585878E-004, 1.1531296E-002, 4.5214458E+002
 7.7006735E+001, 4.5081483E-002, 1.7263350E-001, 5.6237141E-002, 1.2922135E-003, 3.4118530E-004, 1.1615792E-002, 4.5249208E+002
 7.8006349E+001, 4.3412430E-002, 1.7417067E-001, 5.6691398E-002, 1.3125316E-003, 3.3207613E-004, 1.1721458E-002, 4.5184292E+002
 7.9010693E+001, 4.2864206E-002, 1.7463631E-001, 5.6846175E-002, 1.3502484E-003, 3.4657011E-004, 1.1760235E-002, 4.5259537E+002
 8.0000404E+001, 4.2026684E-002, 1.7535013E-001, 5.7083378E-002, 1.4078295E-003, 3.5756222E-004, 1.1819627E-002, 4.5293272E+002
 8.1008053E+001, 4.1382302E-002, 1.7598251E-001, 5.7251453E-002, 1.3818206E-003, 3.5302147E-004, 1.1855728E-002, 4.5353504E+002
 8.2001026E+001, 4.0627673E-002, 1.7671076E-001, 5.7450331E-002, 1.3616196E-003, 3.5046266E-004, 1.1899393E-002, 4.5379549E+002
 8.3009912E+001, 3.9368915E-002, 1.7784153E-001, 5.7797591E-002, 1.4005828E-003, 3.5059209E-004, 1.1982272E-002, 4.5348680E+002
 8.4005552E+001, 3.8478847E-002, 1.7858628E-001, 5.8052801E-002, 1.4747318E-003, 3.5782990E-004, 1.2047257E-002, 4.5340152E+002
 8.5004691E+001, 3.7328496E-002, 1.7966761E-001, 5.8361269E-002, 1.4688198E-003, 3.5565080E-004, 1.2117256E-002, 4.5510948E+002
 8.6001609E+001, 3.6238085E-002, 1.8056114E-001, 5.8677001E-002, 1.5752740E-003, 3.6925151E-004, 1.2198972E-002, 4.5506049E+002
 8.7009213E+001, 3.5984923E-002, 1.8091181E-001, 5.8724753E-002, 1.4776884E-003, 3.5652077E-004, 1.2201158E-002, 4.5604976E+002
 8.8002206E+001, 3.4982227E-002, 1.8186308E-001, 5.8991688E-002, 1.4644114E-003, 3.5713456E-004, 1.2261006E-002, 4.5698064E+002
 8.9002623E+001, 3.4269571E-002, 1.8243142E-001, 5.9200221E-002, 1.5462856E-003, 3.7331399E-004, 1.2316020E-002, 4.5655477E+002
 9.0005845E+001, 3.3114020E-002, 1.8343296E-001, 5.9525552E-002, 1.6132825E-003, 3.7722173E-004, 1.2396394E-002, 4.5729623E+002
 9.1005876E+001, 3.2865322E-002, 1.8365023E-001, 5.9594185E-002, 1.6243677E-003, 3.8772740E-004, 1.2413091E-002, 4.5786506E+002
 9.2001116E+001, 3.2149205E-002, 1.8423995E-001, 5.9801605E-002, 1.6928144E-003, 3.9100205E-004, 1.2466634E-002, 4.5542977E+002
 9.3006656E+001, 3.1378976E-002, 1.8495775E-001, 6.0008896E-002, 1.6935455E-003, 3.9348282E-004, 1.2514099E-002, 4.5700004E+002
 9.4002147E+001, 3.0602507E-002, 1.8567195E-001, 6.0221034E-002, 1.7048947E-003, 3.8342201E-004, 1.2563603E-002, 4.5723733E+002
 9.5007219E+001, 2.9448657E-002, 1.8672427E-001, 6.0536502E-002, 1.7270654E-003, 3.8209348E-004, 1.2637711E-002, 4.5681953E+002
 9.6009938E+001, 2.9605805E-002, 1.8652508E-001, 6.0501812E-002, 1.7688247E-003, 4.0395217E-004, 1.2633539E-002, 4.5745292E+002
 9.7003753E+001, 2.8855759E-002, 1.8713904E-001, 6.0720527E-002, 1.8450725E-003, 4.0039665E-004, 1.2690351E-002, 4.5762037E+002
 9.8007189E+001, 2.7989947E-002, 1.8798555E-001, 6.0947166E-002, 1.8132519E-003, 3.9244306E-004, 1.2739319E-002, 4.5748409E+002
 9.9006972E+001, 2.7758975E-002, 1.8819037E-001, 6.1011610E-002, 1.8231092E-003, 3.9047938E-004, 1.2754931E-002, 4.5711043E+002
 1.0000118E+002, 2.6872187E-002, 1.8899328E-001, 6.1255455E-002, 1.8457466E-003, 3.8690558E-004, 1.2812702E-002, 4.5742119E+002
 1.0100683E+002, 2.7207736E-002, 1.8869177E-001, 6.1161103E-002, 1.8323184E-003, 4.0331913E-004, 1.2789952E-002, 4.5748071E+002
 1.0200890E+002, 2.5834372E-002, 1.8996688E-001, 6.1533998E-002, 1.8419037E-003, 3.8602653E-004, 1.2876045E-002, 4.5846891E+002
 1.0301192E+002, 2.4905845E-002, 1.9078206E-001, 6.1793547E-002, 1.8868352E-003, 3.8809149E-004, 1.2939405E-002, 4.5800488E+002
 1.0400658E+002, 2.4430869E-002, 1.9116196E-001, 6.1931627E-002, 1.9392352E-003, 4.0523443E-004, 1.2975680E-002, 4.5879842E+002
 1.0500560E+002, 2.4298957E-002, 1.9137126E-001, 6.1952014E-002, 1.8661185E-003, 3.9338645E-004, 1.2973795E-002, 4.6008666E+002
 1.0600574E+002, 2.3648185E-002, 1.9177635E-001, 6.2164635E-002, 2.0413920E-003, 4.0365391E-004, 1.3038077E-002, 4.5817681E+002
 1.0700318E+002, 2.2775190E-002, 1.9262761E-001, 6.2392991E-002, 2.0102645E-003, 4.0107091E-004, 1.3087506E-002, 4.5997043E+002
 1.0800503E+002, 2.1506409E-002, 1.9370614E-001, 6.2755602E-002, 2.1047059E-003, 3.9282662E-004, 1.3178838E-002, 4.6026050E+002
 1.0900831E+002, 2.1288996E-002, 1.9384708E-001, 6.2824839E-002, 2.1570986E-003, 4.0291559E-004, 1.3199362E-002, 4.5972401E+002
 1.1001036E+002, 2.1796589E-002, 1.9344288E-001, 6.2674857E-002, 2.0959369E-003, 4.0362422E-004, 1.3159608E-002, 4.6010092E+002
 1.1101188E+002, 2.0738090E-002, 1.9430873E-001, 6.2981749E-002, 2.2007961E-003, 4.1580508E-004, 1.3239159E-002, 4.5933197E+002
 1.1200163E+002, 2.0457478E-002, 1.9463261E-001, 6.3046315E-002, 2.1481013E-003, 4.0822262E-004, 1.3249205E-002, 4.6070748E+002
 1.1300428E+002, 1.9960665E-002, 1.9488478E-001, 6.3219594E-002, 2.3320024E-003, 4.1530480E-004, 1.3305258E-002, 4.6008241E+002
 1.1400212E+002, 1.9079489E-002, 1.9576448E-001, 6.3445923E-002, 2.2822134E-003, 4.1515000E-004, 1.3352560E-002, 4.6177187E+002
 1.1500479E+002, 1.9336974E-002, 1.9547608E-001, 6.3384326E-002, 2.3217024E-003, 4.2832233E-004, 1.3342021E-002, 4.6134605E+002
 1.1600354E+002, 1.8747371E-002, 1.9598029E-001, 6.3552260E-002, 2.3629564E-003, 4.2444715E-004, 1.3384097E-002, 4.5967515E+002
 1.1700588E+002, 1.7890204E-002, 1.9654375E-001, 6.3825596E-002, 2.5658959E-003, 4.4732147E-004, 1.3464749E-002, 4.6025930E+002
 1.1801040E+002, 1.8862358E-002, 1.9590463E-001, 6.3515049E-002, 2.3348321E-003, 4.2648087E-004, 1.3373080E-002, 4.6116032E+002
 1.1900631E+002, 1.7510127E-002, 1.9689283E-001, 6.3930305E-002, 2.5732349E-003, 4.3534921E-004, 1.3489329E-002, 4.6065843E+002
 1.2000732E+002, 1.6746844E-002, 1.9747760E-001, 6.4160462E-002, 2.6857697E-003, 4.3213857E-004, 1.3552000E-002, 4.6069612E+002
 1.2100396E+002, 1.7084561E-002, 1.9724960E-001, 6.4050998E-002, 2.6060186E-003, 4.4978635E-004, 1.3519873E-002, 4.6094475E+002
 1.2200733E+002, 1.6521169E-002, 1.9784787E-001, 6.4191007E-002, 2.5465293E-003, 4.3023418E-004, 1.3546546E-002, 4.6117382E+002
 1.2300629E+002, 1.6316224E-002, 1.9789238E-001, 6.4272621E-002, 2.6723734E-003, 4.4420420E-004, 1.3576464E-002, 4.6023737E+002
 1.2400654E+002, 1.5565900E-002, 1.9837176E-001, 6.4513827E-002, 2.8609198E-003, 4.7058596E-004, 1.3648489E-002, 4.6073821E+002
 1.2500628E+002, 1.5643899E-002, 1.9831499E-001, 6.4489786E-002, 2.8468888E-003, 4.7048585E-004, 1.3641739E-002, 4.6183179E+002
 1.2600986E+002, 1.5072657E-002, 1.9876908E-001, 6.4658366E-002, 2.9157903E-003, 4.7297308E-004, 1.3686441E-002, 4.6094815E+002
 1.2701116E+002, 1.5060031E-002, 1.9870822E-001, 6.4676429E-002, 2.9807809E-003, 4.6546345E-004, 1.3696365E-002, 4.6091505E+002
 1.2800642E+002, 1.4460677E-002, 1.9875791E-001, 6.4927872E-002, 3.4147732E-003, 5.2975959E-004, 1.3792702E-002, 4.6005172E+002
 1.2900802E+002, 1.3719644E-002, 1.9950979E-001, 6.5118964E-002, 3.3676295E-003, 5.0164267E-004, 1.3832146E-002, 4.5961803E+002
 1.3000712E+002, 1.4527513E-002, 1.9885621E-001, 6.4881034E-002, 3.2772316E-003, 5.1356002E-004, 1.3769688E-002, 4.5913345E+002
 1.3100925E+002, 1.4088004E-002, 1.9922890E-001, 6.5006689E-002, 3.3105219E-003, 5.1188078E-004, 1.3801389E-002, 4.5884442E+002
 1.3200044E+002, 1.4469816E-002, 1.9895522E-001, 6.4889049E-002, 3.2396181E-003, 5.0361947E-004, 1.3768147E-002, 4.5930949E+002
 1.3301176E+002, 1.3906867E-002, 1.9944901E-001, 6.5046407E-002, 3.2670950E-003, 5.0565563E-004, 1.3806583E-002, 4.6054772E+002
 1.3400965E+002, 1.3351290E-002, 1.9909969E-001, 6.5355816E-002, 4.0170508E-003, 5.5615571E-004, 1.3944373E-002, 4.5877908E+002
 1.3500103E+002, 1.3140062E-002, 1.9940289E-001, 6.5390877E-002, 3.9215646E-003, 5.7076097E-004, 1.3943882E-002, 4.5949511E+002
 1.3600261E+002, 1.2688878E-002, 1.9978915E-001, 6.5519594E-002, 3.9532598E-003, 5.6515512E-004, 1.3976135E-002, 4.6044204E+002
 1.3701059E+002, 1.2941770E-002, 1.9974900E-001, 6.5415199E-002, 3.7835444E-003, 5.5592948E-004, 1.3937097E-002, 4.6064608E+002
 1.3800888E+002, 1.2373257E-002, 2.0017241E-001, 6.5591492E-002, 3.8823972E-003, 5.3016522E-004, 1.3986199E-002, 4.5923364E+002
 1.3900955E+002, 1.2193386E-002, 2.0064412E-001, 6.5585075E-002, 3.6219068E-003, 5.0227175E-004, 1.3961430E-002, 4.6258448E+002
 1.4000912E+002, 1.1635715E-002, 2.0024619E-001, 6.5901765E-002, 4.4110544E-003, 5.7944371E-004, 1.4104421E-002, 4.6016231E+002
 1.4100861E+002, 1.1755863E-002, 2.0043779E-001, 6.5813644E-002, 4.1488914E-003, 5.6026094E-004, 1.4060833E-002, 4.5993167E+002
 1.4200446E+002, 1.1457483E-002, 2.0083412E-001, 6.5874736E-002, 4.0514563E-003, 5.3082359E-004, 1.4066060E-002, 4.5971937E+002
 1.4300859E+002, 1.1806243E-002, 2.0052027E-001, 6.5777475E-002, 4.0391528E-003, 5.4134186E-004, 1.4042737E-002, 4.5791014E+002
 1.4400290E+002, 1.1507733E-002, 2.0050976E-001, 6.5911651E-002, 4.2900025E-003, 5.5299087E-004, 1.4095835E-002, 4.5820257E+002
 1.4500202E+002, 1.1658874E-002, 2.0045661E-001, 6.5853176E-002, 4.2112449E-003, 5.6245733E-004, 1.4075444E-002, 4.5906281E+002
 1.4601196E+002, 1.1247016E-002, 2.0040483E-001, 6.6045289E-002, 4.5897702E-003, 5.7959767E-004, 1.4153198E-002, 4.5818777E+002
 1.4700346E+002, 1.0997692E-002, 2.0016538E-001, 6.6199558E-002, 4.9980811E-003, 6.0534747E-004, 1.4224971E-002, 4.5849959E+002
 1.4801040E+002, 1.0859438E-002, 2.0047283E-001, 6.6200580E-002, 4.8382138E-003, 6.2549833E-004, 1.4210955E-002, 4.5781542E+002
 1.4900025E+002, 1.0576386E-002, 2.0063341E-001, 6.6295832E-002, 4.9277615E-003, 6.3182328E-004, 1.4240739E-002, 4.5832986E+002
 1.5001142E+002, 1.0350191E-002, 2.0081225E-001, 6.6365282E-002, 4.9602427E-003, 6.0981825E-004, 1.4259490E-002, 4.5900979E+002
 1.5100102E+002, 1.0734793E-002, 2.0051300E-001, 6.6247979E-002, 4.9037395E-003, 6.3164296E-004, 1.4227652E-002, 4.6039807E+002
 1.5200127E+002, 1.1108044E-002, 1.9985340E-001, 6.6198554E-002, 5.1616567E-003, 7.0701711E-004, 1.4239488E-002, 4.5668266E+002
 1.5300641E+002, 1.1147305E-002, 1.9957067E-001, 6.6227398E-002, 5.3640165E-003, 7.7540167E-004, 1.4264248E-002, 4.5535944E+002
 1.5400161E+002, 1.0862661E-002, 1.9991775E-001, 6.6295901E-002, 5.3056591E-003, 7.0783767E-004, 1.4274607E-002, 4.5651993E+002
