s,,,,,,,
Time,"O2 EXHAUST","CO2 EXHAUST","H2O EXHAUST","CO EXHAUST","FUEL EXHAUST","SOOT EXHAUST","TEMP EXHAUST"
 0.0000000E+000, 2.3099739E-001, 5.9146498E-004, 5.9412092E-003, 0.0000000E+000, 0.0000000E+000, 0.0000000E+000, 2.0000000E+001
 1.0005660E+000, 2.3099739E-001, 5.9146498E-004, 5.9412092E-003, 3.6632414E-030, 4.2730135E-029, 1.0130252E-030, 2.0675563E+001
 2.0018287E+000, 2.2209432E-001, 7.7846978E-003, 1.0458619E-002, 3.9182838E-005, 2.8234017E-004, 3.8204417E-005, 1.0758826E+002
 3.0016264E+000, 2.1648011E-001, 1.2341794E-002, 1.3324275E-002, 6.6121606E-005, 3.3288491E-004, 6.2861129E-005, 1.5823701E+002
 4.0030934E+000, 2.1183533E-001, 1.6103175E-002, 1.5685976E-002, 8.6115014E-005, 4.3806766E-004, 8.2732085E-005, 2.0069961E+002
 5.0053631E+000, 2.0465547E-001, 2.1952112E-002, 1.9349874E-002, 1.1074480E-004, 4.6489028E-004, 1.1224601E-004, 2.5913307E+002
 6.0035569E+000, 1.9741459E-001, 2.7905005E-002, 2.3036129E-002, 1.0586659E-004, 4.2629972E-004, 1.3586390E-004, 3.1299350E+002
 7.0035007E+000, 1.9027243E-001, 3.3812425E-002, 2.6673922E-002, 8.6616099E-005, 3.0720225E-004, 1.5621173E-004, 3.5864171E+002
 8.0072230E+000, 1.8167382E-001, 4.0926089E-002, 3.1051320E-002, 6.1242390E-005, 1.7176993E-004, 1.8024438E-004, 4.0239261E+002
 9.0053364E+000, 1.7342390E-001, 4.7745475E-002, 3.5250304E-002, 3.8835168E-005, 5.8051869E-005, 2.0369385E-004, 4.4035863E+002
 1.0000242E+001, 1.6631259E-001, 5.3599581E-002, 3.8869848E-002, 3.0146969E-005, 8.2614846E-006, 2.2608554E-004, 4.6252471E+002
 1.1003163E+001, 1.5758351E-001, 6.0757417E-002, 4.3313463E-002, 3.2216965E-005, 4.6208046E-007, 2.5618551E-004, 4.8229459E+002
 1.2001142E+001, 1.5128137E-001, 6.5922356E-002, 4.6521701E-002, 3.4995217E-005, 1.2470839E-007, 2.7818042E-004, 4.9504849E+002
 1.3003010E+001, 1.4425902E-001, 7.1677511E-002, 5.0096511E-002, 3.8062560E-005, 1.3101636E-007, 3.0268269E-004, 5.0822526E+002
 1.4005408E+001, 1.3810206E-001, 7.6723294E-002, 5.3230830E-002, 4.0844929E-005, 2.0498717E-007, 3.2418480E-004, 5.1622409E+002
 1.5002889E+001, 1.3219349E-001, 8.1565495E-002, 5.6238730E-002, 4.3543909E-005, 1.9248387E-007, 3.4482556E-004, 5.1997336E+002
 1.6002655E+001, 1.2689518E-001, 8.5908073E-002, 5.8935770E-002, 4.5615759E-005, 1.3013231E-007, 3.6326183E-004, 5.2227760E+002
 1.7007017E+001, 1.2356051E-001, 8.8641050E-002, 6.0633306E-002, 4.7037297E-005, 1.0647018E-007, 3.7488982E-004, 5.2109926E+002
 1.8003253E+001, 1.1810862E-001, 9.3108875E-002, 6.3408743E-002, 4.9592377E-005, 1.9017309E-007, 3.9394862E-004, 5.2411833E+002
 1.9009319E+001, 1.1492633E-001, 9.5717201E-002, 6.5028630E-002, 5.0792678E-005, 1.0939428E-007, 4.0501272E-004, 5.2600741E+002
 2.0001488E+001, 1.1369539E-001, 9.6726111E-002, 6.5655232E-002, 5.1273377E-005, 5.3959236E-008, 4.0929587E-004, 5.1740024E+002
 2.1001630E+001, 1.1091681E-001, 9.9003247E-002, 6.7069714E-002, 5.2515442E-005, 8.4766288E-008, 4.1899675E-004, 5.1896994E+002
 2.2000622E+001, 1.0627857E-001, 1.0280433E-001, 6.9430927E-002, 5.4660134E-005, 1.3474808E-007, 4.3520514E-004, 5.2329158E+002
 2.3000481E+001, 1.0399293E-001, 1.0467756E-001, 7.0594448E-002, 5.5634332E-005, 1.0619959E-007, 4.4317513E-004, 5.1928746E+002
 2.4007231E+001, 1.0352549E-001, 1.0506076E-001, 7.0832359E-002, 5.5760186E-005, 9.8269128E-008, 4.4478978E-004, 5.2025255E+002
 2.5008309E+001, 1.0147981E-001, 1.0673722E-001, 7.1873768E-002, 5.6706816E-005, 1.0561780E-007, 4.5193861E-004, 5.1696214E+002
 2.6006502E+001, 9.7074391E-002, 1.1034757E-001, 7.4116434E-002, 5.8703107E-005, 1.5580160E-007, 4.6732491E-004, 5.1838190E+002
 2.7005746E+001, 9.5555993E-002, 1.1159205E-001, 7.4889368E-002, 5.9311622E-005, 1.1020847E-007, 4.7261151E-004, 5.1970587E+002
 2.8003599E+001, 9.2430631E-002, 1.1415270E-001, 7.6480614E-002, 6.1164952E-005, 3.9415422E-007, 4.8361807E-004, 5.1846972E+002
 2.9002315E+001, 9.1352004E-002, 1.1503615E-001, 7.7029925E-002, 6.2020838E-005, 3.5969576E-007, 4.8746188E-004, 5.1557795E+002
 3.0006485E+001, 8.9534517E-002, 1.1651868E-001, 7.7957484E-002, 6.7466163E-005, 2.7712389E-006, 4.9477173E-004, 5.1596251E+002
 3.1007608E+001, 8.7278151E-002, 1.1836637E-001, 7.9106656E-002, 6.9480076E-005, 3.1134245E-006, 5.0285882E-004, 5.1258715E+002
 3.2001069E+001, 8.4974701E-002, 1.2024378E-001, 8.0282726E-002, 7.7380042E-005, 6.7367304E-006, 5.1233105E-004, 5.1602082E+002
 3.3008857E+001, 8.3702091E-002, 1.2127641E-001, 8.0934241E-002, 8.4950155E-005, 9.2316876E-006, 5.1823248E-004, 5.1131324E+002
 3.4000078E+001, 8.0825947E-002, 1.2362409E-001, 8.2401437E-002, 9.2418868E-005, 1.3040542E-005, 5.2956067E-004, 5.1328078E+002
 3.5006253E+001, 7.9563065E-002, 1.2465044E-001, 8.3047364E-002, 9.8817577E-005, 1.5306116E-005, 5.3518489E-004, 5.1581232E+002
 3.6009263E+001, 7.6907821E-002, 1.2681737E-001, 8.4402283E-002, 1.0618140E-004, 1.7667392E-005, 5.4574171E-004, 5.1567738E+002
 3.7003318E+001, 7.5355316E-002, 1.2807396E-001, 8.5198097E-002, 1.1747954E-004, 2.2052891E-005, 5.5337035E-004, 5.1249151E+002
 3.8000642E+001, 7.3628528E-002, 1.2949413E-001, 8.6074936E-002, 1.1456365E-004, 2.3010198E-005, 5.5862916E-004, 5.1581996E+002
 3.9003538E+001, 7.3623166E-002, 1.2950303E-001, 8.6076080E-002, 1.1151814E-004, 2.1823696E-005, 5.5801309E-004, 5.1022950E+002
 4.0004606E+001, 7.1670526E-002, 1.3110012E-001, 8.7071371E-002, 1.1463322E-004, 2.1903539E-005, 5.6529799E-004, 5.1732883E+002
 4.1003373E+001, 7.1097374E-002, 1.3157020E-001, 8.7362857E-002, 1.1453840E-004, 2.2612355E-005, 5.6722527E-004, 5.1397898E+002
 4.2008338E+001, 6.8238564E-002, 1.3389064E-001, 8.8826598E-002, 1.3134172E-004, 2.5930078E-005, 5.8044194E-004, 5.1168454E+002
 4.3004765E+001, 6.6285570E-002, 1.3548932E-001, 8.9821530E-002, 1.3352116E-004, 2.6065810E-005, 5.8753284E-004, 5.1473139E+002
 4.4006235E+001, 6.4836187E-002, 1.3665850E-001, 9.0565592E-002, 1.4654872E-004, 3.2602664E-005, 5.9517010E-004, 5.1411658E+002
 4.5008114E+001, 6.4028498E-002, 1.3731158E-001, 9.0980184E-002, 1.5309980E-004, 3.3363398E-005, 5.9928051E-004, 5.1164509E+002
 4.6000647E+001, 6.3459601E-002, 1.3779682E-001, 9.1262656E-002, 1.4019905E-004, 3.0609221E-005, 5.9852500E-004, 5.1350045E+002
 4.7009060E+001, 6.0601465E-002, 1.4012753E-001, 9.2722045E-002, 1.4955285E-004, 3.2113484E-005, 6.1018700E-004, 5.1446557E+002
 4.8003320E+001, 6.0881406E-002, 1.3988885E-001, 9.2582863E-002, 1.5573250E-004, 3.4185966E-005, 6.1052306E-004, 5.1418053E+002
 4.9001412E+001, 5.9028554E-002, 1.4141593E-001, 9.3522838E-002, 1.5059420E-004, 3.3061594E-005, 6.1574833E-004, 5.1543400E+002
 5.0007177E+001, 5.7949658E-002, 1.4229718E-001, 9.4073460E-002, 1.5330355E-004, 3.2056369E-005, 6.1998041E-004, 5.1349509E+002
 5.1002790E+001, 5.6544007E-002, 1.4343585E-001, 9.4793516E-002, 1.6279344E-004, 3.6519591E-005, 6.2673280E-004, 5.1471765E+002
 5.2003492E+001, 5.5979917E-002, 1.4390225E-001, 9.5079549E-002, 1.6048402E-004, 3.3855755E-005, 6.2817002E-004, 5.0967124E+002
 5.3003947E+001, 5.4636929E-002, 1.4501241E-001, 9.5759738E-002, 1.5455125E-004, 3.2001658E-005, 6.3149760E-004, 5.1521358E+002
 5.4006248E+001, 5.3929462E-002, 1.4559276E-001, 9.6119755E-002, 1.5453576E-004, 3.1538807E-005, 6.3389877E-004, 5.1308787E+002
 5.5008767E+001, 5.2529500E-002, 1.4674401E-001, 9.6830842E-002, 1.5236390E-004, 3.1531063E-005, 6.3820295E-004, 5.1696913E+002
 5.6005406E+001, 5.2474832E-002, 1.4677122E-001, 9.6865112E-002, 1.6445257E-004, 3.4891760E-005, 6.4090752E-004, 5.0792586E+002
 5.7004228E+001, 5.0494613E-002, 1.4838776E-001, 9.7875760E-002, 1.6984809E-004, 3.4737627E-005, 6.4876197E-004, 5.1634382E+002
 5.8009326E+001, 5.0167954E-002, 1.4866029E-001, 9.8040083E-002, 1.6655275E-004, 3.4841360E-005, 6.4918456E-004, 5.1150990E+002
 5.9003748E+001, 4.9019807E-002, 1.4958942E-001, 9.8628790E-002, 1.7509827E-004, 3.7613256E-005, 6.5486629E-004, 5.1421260E+002
 6.0001522E+001, 4.8994916E-002, 1.4961402E-001, 9.8639821E-002, 1.7215801E-004, 3.7312954E-005, 6.5433783E-004, 5.1605977E+002
 6.1000892E+001, 4.6765835E-002, 1.5143835E-001, 9.9775564E-002, 1.7491078E-004, 3.7390849E-005, 6.6248653E-004, 5.1737530E+002
 6.2000088E+001, 4.6618971E-002, 1.5154679E-001, 9.9855238E-002, 1.8351761E-004, 3.6932286E-005, 6.6478115E-004, 5.1731660E+002
 6.3006176E+001, 4.5951932E-002, 1.5210904E-001, 1.0018841E-001, 1.7266387E-004, 3.7374974E-005, 6.6478359E-004, 5.1900129E+002
 6.4007725E+001, 4.5955814E-002, 1.5210510E-001, 1.0018640E-001, 1.7297294E-004, 3.9079003E-005, 6.6483353E-004, 5.1769350E+002
 6.5002318E+001, 4.3096100E-002, 1.5443416E-001, 1.0164835E-001, 1.8480147E-004, 3.7723486E-005, 6.7701930E-004, 5.1597714E+002
 6.6004705E+001, 4.3732206E-002, 1.5391798E-001, 1.0132235E-001, 1.8079200E-004, 3.8278114E-005, 6.7402104E-004, 5.1417076E+002
 6.7008000E+001, 4.5084638E-002, 1.5281095E-001, 1.0063294E-001, 1.7897255E-004, 4.0247401E-005, 6.6904433E-004, 5.1285322E+002
 6.8004714E+001, 4.2101843E-002, 1.5526489E-001, 1.0214852E-001, 1.7423141E-004, 3.5492915E-005, 6.7819493E-004, 5.1928413E+002
 6.9002395E+001, 4.3004973E-002, 1.5451869E-001, 1.0169119E-001, 1.7812927E-004, 3.5581053E-005, 6.7593896E-004, 5.1463926E+002
 7.0008260E+001, 4.1033434E-002, 1.5612543E-001, 1.0269827E-001, 1.8527301E-004, 3.6608153E-005, 6.8412763E-004, 5.1384418E+002
 7.1005982E+001, 4.0447624E-002, 1.5658719E-001, 1.0300293E-001, 1.9791863E-004, 4.1483907E-005, 6.8875204E-004, 5.1561413E+002
 7.2002094E+001, 4.0315142E-002, 1.5672585E-001, 1.0305923E-001, 1.7726012E-004, 3.6377588E-005, 6.8489731E-004, 5.1799397E+002
 7.3005077E+001, 4.0166965E-002, 1.5681833E-001, 1.0314559E-001, 1.9740768E-004, 4.0237336E-005, 6.8960015E-004, 5.1892681E+002
 7.4002132E+001, 3.9432589E-002, 1.5740936E-001, 1.0352324E-001, 2.0504865E-004, 4.3088614E-005, 6.9368712E-004, 5.1313164E+002
 7.5003413E+001, 3.9147301E-002, 1.5763542E-001, 1.0367141E-001, 2.1055364E-004, 4.4051964E-005, 6.9580402E-004, 5.0925479E+002
 7.6000418E+001, 3.8377339E-002, 1.5828381E-001, 1.0405721E-001, 1.9911516E-004, 3.9757092E-005, 6.9603796E-004, 5.1486843E+002
 7.7008228E+001, 3.7409872E-002, 1.5902856E-001, 1.0456784E-001, 2.3288275E-004, 4.6397160E-005, 7.0636348E-004, 5.1132697E+002
 7.8005529E+001, 3.7010467E-002, 1.5940638E-001, 1.0475225E-001, 1.9815336E-004, 3.8905517E-005, 7.0048275E-004, 5.1509661E+002
 7.9001420E+001, 3.6287592E-002, 1.5998585E-001, 1.0512499E-001, 2.0735754E-004, 4.1365414E-005, 7.0485700E-004, 5.1595064E+002
 8.0008386E+001, 3.5229687E-002, 1.6082672E-001, 1.0567361E-001, 2.2608461E-004, 4.3763168E-005, 7.1235603E-004, 5.1394512E+002
 8.1002675E+001, 3.5608584E-002, 1.6054131E-001, 1.0547114E-001, 2.0843573E-004, 4.0918859E-005, 7.0738956E-004, 5.1389688E+002
 8.2008342E+001, 3.5040421E-002, 1.6098275E-001, 1.0576906E-001, 2.2516452E-004, 4.6373266E-005, 7.1280522E-004, 5.0939215E+002
 8.3002500E+001, 3.5197244E-002, 1.6087885E-001, 1.0568045E-001, 2.0836937E-004, 4.0513774E-005, 7.0877380E-004, 5.1049588E+002
 8.4008825E+001, 3.5929680E-002, 1.6028060E-001, 1.0530674E-001, 2.0658663E-004, 4.0739575E-005, 7.0591291E-004, 5.1368913E+002
 8.5009050E+001, 3.3946621E-002, 1.6188297E-001, 1.0632467E-001, 2.2316497E-004, 4.4729941E-005, 7.1610626E-004, 5.1259074E+002
 8.6007516E+001, 3.3859083E-002, 1.6194917E-001, 1.0637117E-001, 2.2694043E-004, 4.6209305E-005, 7.1719004E-004, 5.1426542E+002
 8.7004633E+001, 3.1874701E-002, 1.6355783E-001, 1.0738885E-001, 2.4060573E-004, 4.4369441E-005, 7.2678486E-004, 5.1888509E+002
 8.8005066E+001, 3.2408665E-002, 1.6314863E-001, 1.0710597E-001, 2.2045114E-004, 4.2239679E-005, 7.2076826E-004, 5.1734533E+002
 8.9003296E+001, 3.2029163E-002, 1.6343079E-001, 1.0731040E-001, 2.4085581E-004, 4.4374430E-005, 7.2631214E-004, 5.1469083E+002
 9.0000850E+001, 3.2635651E-002, 1.6292294E-001, 1.0700511E-001, 2.4766000E-004, 4.8954572E-005, 7.2566686E-004, 5.1630318E+002
 9.1004934E+001, 3.2048217E-002, 1.6342208E-001, 1.0729752E-001, 2.3567770E-004, 4.6321043E-005, 7.2516582E-004, 5.1422066E+002
 9.2004552E+001, 3.1443433E-002, 1.6388787E-001, 1.0761671E-001, 2.5667313E-004, 5.0072061E-005, 7.3159718E-004, 5.1650332E+002
 9.3002744E+001, 3.2030829E-002, 1.6342082E-001, 1.0731247E-001, 2.4660211E-004, 4.7182679E-005, 7.2750283E-004, 5.1327938E+002
 9.4004200E+001, 3.1527653E-002, 1.6384481E-001, 1.0756425E-001, 2.3877596E-004, 4.5546619E-005, 7.2758158E-004, 5.1772230E+002
 9.5001783E+001, 3.0851452E-002, 1.6439950E-001, 1.0790754E-001, 2.3821499E-004, 4.9203790E-005, 7.2975949E-004, 5.1460737E+002
 9.6004525E+001, 3.0765416E-002, 1.6445835E-001, 1.0795566E-001, 2.4629014E-004, 5.1136762E-005, 7.3173463E-004, 5.1641847E+002
 9.7003247E+001, 2.9967337E-002, 1.6510559E-001, 1.0836446E-001, 2.5134024E-004, 5.2289419E-005, 7.3549900E-004, 5.1329915E+002
 9.8006279E+001, 3.0922533E-002, 1.6434181E-001, 1.0787103E-001, 2.3772099E-004, 4.9649580E-005, 7.2941456E-004, 5.1247091E+002
 9.9000409E+001, 3.0392485E-002, 1.6473115E-001, 1.0815871E-001, 2.6976278E-004, 5.1502373E-005, 7.3789748E-004, 5.1346532E+002
 1.0000620E+002, 3.0171102E-002, 1.6492237E-001, 1.0826734E-001, 2.6282111E-004, 5.2048556E-005, 7.3720145E-004, 5.1113509E+002
 1.0100724E+002, 3.0249424E-002, 1.6488366E-001, 1.0821802E-001, 2.4523665E-004, 4.7782865E-005, 7.3327091E-004, 5.1523745E+002
 1.0200342E+002, 2.9210023E-002, 1.6572015E-001, 1.0875325E-001, 2.5655132E-004, 4.8267294E-005, 7.3916249E-004, 5.1533572E+002
 1.0300329E+002, 3.0419125E-002, 1.6476704E-001, 1.0812344E-001, 2.2978218E-004, 4.3381849E-005, 7.2947423E-004, 5.1184578E+002
 1.0400811E+002, 3.0376780E-002, 1.6479243E-001, 1.0814828E-001, 2.3610599E-004, 4.5778424E-005, 7.3093525E-004, 5.1551511E+002
 1.0500969E+002, 3.0202901E-002, 1.6496455E-001, 1.0822605E-001, 2.1593425E-004, 3.9661076E-005, 7.2732351E-004, 5.1286610E+002
 1.0600813E+002, 2.8522622E-002, 1.6628073E-001, 1.0910435E-001, 2.5885579E-004, 4.8056397E-005, 7.4197916E-004, 5.1546311E+002
 1.0700634E+002, 3.0109606E-002, 1.6500051E-001, 1.0828851E-001, 2.4384137E-004, 4.6665930E-005, 7.3345587E-004, 5.1479496E+002
 1.0800324E+002, 2.8824074E-002, 1.6606843E-001, 1.0893778E-001, 2.3463272E-004, 4.3374378E-005, 7.3590606E-004, 5.1381485E+002
 1.0900296E+002, 2.8266880E-002, 1.6651863E-001, 1.0922447E-001, 2.3976116E-004, 4.1154786E-005, 7.3887088E-004, 5.1510263E+002
 1.1000307E+002, 2.7856859E-002, 1.6684031E-001, 1.0943745E-001, 2.4910170E-004, 4.8886780E-005, 7.4220633E-004, 5.1841719E+002
 1.1100709E+002, 2.9334447E-002, 1.6563279E-001, 1.0868449E-001, 2.4642219E-004, 4.5866472E-005, 7.3662886E-004, 5.1126506E+002
 1.1200306E+002, 2.7750209E-002, 1.6691220E-001, 1.0949740E-001, 2.5976972E-004, 5.1987594E-005, 7.4479142E-004, 5.1589647E+002
 1.1300162E+002, 2.8091116E-002, 1.6660341E-001, 1.0933500E-001, 2.8003827E-004, 5.5670755E-005, 7.4785769E-004, 5.1384731E+002
 1.1400675E+002, 2.8108570E-002, 1.6663137E-001, 1.0931100E-001, 2.5129041E-004, 4.5863869E-005, 7.4180989E-004, 5.1714892E+002
 1.1500401E+002, 2.8657194E-002, 1.6617006E-001, 1.0903546E-001, 2.5870663E-004, 5.0713254E-005, 7.4148868E-004, 5.0945672E+002
 1.1600829E+002, 2.6969345E-002, 1.6753862E-001, 1.0990075E-001, 2.6999437E-004, 5.0099437E-005, 7.4957899E-004, 5.1411094E+002
 1.1700425E+002, 2.6492158E-002, 1.6795420E-001, 1.1013435E-001, 2.5316657E-004, 4.7192280E-005, 7.4769287E-004, 5.2195387E+002
 1.1800753E+002, 2.8444221E-002, 1.6634685E-001, 1.0914340E-001, 2.5749027E-004, 4.8582795E-005, 7.4196034E-004, 5.1233053E+002
 1.1900313E+002, 2.7119394E-002, 1.6743515E-001, 1.0981696E-001, 2.5637273E-004, 4.7742884E-005, 7.4622978E-004, 5.1604650E+002
 1.2000415E+002, 2.7941474E-002, 1.6677427E-001, 1.0939317E-001, 2.4680004E-004, 4.8259298E-005, 7.4143922E-004, 5.1528556E+002
 1.2100568E+002, 2.6204330E-002, 1.6816724E-001, 1.1028982E-001, 2.6935395E-004, 4.8625069E-005, 7.5204615E-004, 5.1205649E+002
 1.2200830E+002, 2.6171137E-002, 1.6820376E-001, 1.1030302E-001, 2.6278689E-004, 4.8281169E-005, 7.5078946E-004, 5.1964931E+002
 1.2300385E+002, 2.6830244E-002, 1.6767234E-001, 1.0996404E-001, 2.5632849E-004, 4.7857205E-005, 7.4720301E-004, 5.1612548E+002
 1.2400729E+002, 2.6643256E-002, 1.6780664E-001, 1.1006651E-001, 2.6963498E-004, 4.9729296E-005, 7.5061239E-004, 5.1440849E+002
 1.2500555E+002, 2.6785459E-002, 1.6770914E-001, 1.0998690E-001, 2.5634968E-004, 4.7345886E-005, 7.4736001E-004, 5.1314785E+002
 1.2600372E+002, 2.7529746E-002, 1.6709922E-001, 1.0960772E-001, 2.5579588E-004, 4.8718039E-005, 7.4471428E-004, 5.1549785E+002
 1.2700134E+002, 2.5798698E-002, 1.6853704E-001, 1.1048225E-001, 2.4364912E-004, 4.3452668E-005, 7.4806710E-004, 5.1472579E+002
 1.2800775E+002, 2.5179862E-002, 1.6903274E-001, 1.1080126E-001, 2.5163586E-004, 4.6677097E-005, 7.5183328E-004, 5.1897280E+002
 1.2900951E+002, 2.6995637E-002, 1.6754248E-001, 1.0987769E-001, 2.5231094E-004, 4.7142891E-005, 7.4580358E-004, 5.1544087E+002
 1.3000241E+002, 2.5094676E-002, 1.6908335E-001, 1.1085218E-001, 2.6519852E-004, 4.7699921E-005, 7.5495083E-004, 5.2236092E+002
 1.3100603E+002, 2.6309733E-002, 1.6808068E-001, 1.1023589E-001, 2.6920261E-004, 5.0335073E-005, 7.5165507E-004, 5.1614971E+002
 1.3200884E+002, 2.6151379E-002, 1.6823771E-001, 1.1030629E-001, 2.5041975E-004, 4.6355625E-005, 7.4827859E-004, 5.0982230E+002
 1.3300635E+002, 2.6265781E-002, 1.6813919E-001, 1.1024988E-001, 2.5369260E-004, 4.6843982E-005, 7.4857210E-004, 5.1819818E+002
 1.3400374E+002, 2.5951629E-002, 1.6840794E-001, 1.1040495E-001, 2.4561130E-004, 4.8269209E-005, 7.4795291E-004, 5.1720325E+002
 1.3500555E+002, 2.5548460E-002, 1.6869195E-001, 1.1062806E-001, 2.7819836E-004, 5.2730961E-005, 7.5611638E-004, 5.1158031E+002
 1.3600220E+002, 2.6441492E-002, 1.6800805E-001, 1.1015543E-001, 2.4460487E-004, 4.5834230E-005, 7.4608031E-004, 5.1368051E+002
 1.3700312E+002, 2.5571538E-002, 1.6869946E-001, 1.1060676E-001, 2.6015338E-004, 4.7083730E-005, 7.5227859E-004, 5.1349699E+002
 1.3800596E+002, 2.6009630E-002, 1.6833503E-001, 1.1038553E-001, 2.6353468E-004, 4.9040429E-005, 7.5149365E-004, 5.1446943E+002
 1.3900521E+002, 2.4719546E-002, 1.6937180E-001, 1.1105054E-001, 2.7867604E-004, 4.9131959E-005, 7.5903555E-004, 5.1380904E+002
 1.4000514E+002, 2.4740028E-002, 1.6936574E-001, 1.1103621E-001, 2.7133382E-004, 4.6937836E-005, 7.5743624E-004, 5.1761081E+002
 1.4100617E+002, 2.4286515E-002, 1.6973863E-001, 1.1126617E-001, 2.7038906E-004, 4.9031965E-005, 7.5877862E-004, 5.2120518E+002
 1.4200138E+002, 2.5745032E-002, 1.6853172E-001, 1.1052769E-001, 2.7752558E-004, 5.2449414E-005, 7.5530830E-004, 5.1229386E+002
 1.4300432E+002, 2.5922148E-002, 1.6836906E-001, 1.1044476E-001, 2.9001189E-004, 5.1683267E-005, 7.5731143E-004, 5.1089896E+002
 1.4400790E+002, 2.5949696E-002, 1.6838703E-001, 1.1041478E-001, 2.6144396E-004, 4.9497437E-005, 7.5126087E-004, 5.1132588E+002
 1.4500500E+002, 2.5338290E-002, 1.6888298E-001, 1.1072825E-001, 2.6546208E-004, 4.8753326E-005, 7.5417716E-004, 5.1476344E+002
 1.4600731E+002, 2.5638902E-002, 1.6862879E-001, 1.1057858E-001, 2.7102912E-004, 4.7772588E-005, 7.5431759E-004, 5.1362316E+002
 1.4700887E+002, 2.4621537E-002, 1.6947224E-001, 1.1109288E-001, 2.6480774E-004, 4.6203720E-005, 7.5647826E-004, 5.1541745E+002
 1.4800640E+002, 2.5438033E-002, 1.6880416E-001, 1.1067623E-001, 2.6329361E-004, 4.9063927E-005, 7.5338568E-004, 5.1081337E+002
 1.4900757E+002, 2.5478211E-002, 1.6877011E-001, 1.1065613E-001, 2.6401176E-004, 4.9542219E-005, 7.5339857E-004, 5.1049454E+002
 1.5000905E+002, 2.5581938E-002, 1.6868411E-001, 1.1060366E-001, 2.6462679E-004, 4.9875430E-005, 7.5317412E-004, 5.1405609E+002
 1.5100042E+002, 2.4442716E-002, 1.6959695E-001, 1.1119178E-001, 2.7977434E-004, 5.0993940E-005, 7.6020386E-004, 5.1221301E+002
 1.5200713E+002, 2.3741104E-002, 1.7016119E-001, 1.1155261E-001, 2.8727082E-004, 5.4462026E-005, 7.6414888E-004, 5.1654645E+002
 1.5300722E+002, 2.3451943E-002, 1.7040607E-001, 1.1169656E-001, 2.8173690E-004, 5.4749078E-005, 7.6397699E-004, 5.1649984E+002
 1.5400567E+002, 2.4584581E-002, 1.6949700E-001, 1.1111328E-001, 2.6831892E-004, 4.9437986E-005, 7.5733366E-004, 5.1522043E+002
