s,,,,,,,
Time,"O2 EXHAUST","CO2 EXHAUST","H2O EXHAUST","CO EXHAUST","FUEL EXHAUST","SOOT EXHAUST","TEMP EXHAUST"
 0.0000000E+000, 2.3099739E-001, 5.9146498E-004, 5.9412091E-003, 0.0000000E+000, 0.0000000E+000, 0.0000000E+000, 2.0000000E+001
 1.0012068E+000, 2.3099739E-001, 5.9146498E-004, 5.9412091E-003, 7.0742601E-029, 2.0020983E-028, 2.4435813E-029, 2.2030954E+001
 2.0025595E+000, 2.2039946E-001, 8.5256817E-003, 1.0520127E-002, 1.1497248E-004, 1.2688492E-004, 8.7614106E-005, 1.2390654E+002
 3.0028548E+000, 2.0874901E-001, 1.7292512E-002, 1.5555929E-002, 2.2286760E-004, 1.6509441E-004, 1.8027944E-004, 2.2231717E+002
 4.0021868E+000, 2.0320940E-001, 2.1544566E-002, 1.7927843E-002, 2.1928766E-004, 1.5804865E-004, 2.1312427E-004, 2.6757693E+002
 5.0037476E+000, 1.9263650E-001, 2.9651975E-002, 2.2458799E-002, 2.1908288E-004, 1.3624531E-004, 2.7718243E-004, 3.4401632E+002
 6.0028873E+000, 1.8130141E-001, 3.8457344E-002, 2.7288131E-002, 1.4611011E-004, 6.4080456E-005, 3.3101174E-004, 4.0865814E+002
 7.0041381E+000, 1.7052770E-001, 4.6804969E-002, 3.1883113E-002, 9.0198630E-005, 8.2694996E-006, 3.8491399E-004, 4.6512878E+002
 8.0011147E+000, 1.5495765E-001, 5.8723546E-002, 3.8558240E-002, 1.0127014E-004, 4.2226251E-007, 4.8154606E-004, 5.1090342E+002
 9.0015132E+000, 1.4424801E-001, 6.6911616E-002, 4.3151969E-002, 1.1515883E-004, 1.8600726E-007, 5.4929194E-004, 5.3891330E+002
 1.0005298E+001, 1.3437101E-001, 7.4460744E-002, 4.7389215E-002, 1.2953242E-004, 4.7676677E-007, 6.1209086E-004, 5.5049846E+002
 1.1000992E+001, 1.2400393E-001, 8.2387882E-002, 5.1835694E-002, 1.4229839E-004, 2.7434255E-007, 6.7753068E-004, 5.6333299E+002
 1.2006804E+001, 1.1391188E-001, 9.0101524E-002, 5.6165130E-002, 1.5686788E-004, 6.9960071E-007, 7.4167274E-004, 5.7561644E+002
 1.3001751E+001, 1.0873613E-001, 9.4057877E-002, 5.8385441E-002, 1.6412391E-004, 5.3536132E-007, 7.7452453E-004, 5.7255196E+002
 1.4005184E+001, 9.9488766E-002, 1.0112531E-001, 6.2352731E-002, 1.7790974E-004, 7.2277490E-007, 8.3338761E-004, 5.7753779E+002
 1.5007422E+001, 9.4707955E-002, 1.0478167E-001, 6.4402993E-002, 1.8327621E-004, 6.8558916E-007, 8.6345858E-004, 5.7497287E+002
 1.6003183E+001, 8.8406333E-002, 1.0959835E-001, 6.7106317E-002, 1.9226730E-004, 8.4989328E-007, 9.0348815E-004, 5.7829623E+002
 1.7006820E+001, 8.3466922E-002, 1.1336861E-001, 6.9226835E-002, 2.0285716E-004, 1.5358158E-006, 9.3559003E-004, 5.8062346E+002
 1.8000312E+001, 8.1379473E-002, 1.1496097E-001, 7.0123295E-002, 2.0801477E-004, 1.8853479E-006, 9.4929641E-004, 5.7445132E+002
 1.9006007E+001, 7.4626306E-002, 1.2010851E-001, 7.3024677E-002, 2.2741230E-004, 3.2767396E-006, 9.9419395E-004, 5.7597062E+002
 2.0000293E+001, 7.0307127E-002, 1.2340317E-001, 7.4879566E-002, 2.3814235E-004, 4.2016968E-006, 1.0225658E-003, 5.7466613E+002
 2.1001303E+001, 7.0434386E-002, 1.2332053E-001, 7.4820582E-002, 2.2801179E-004, 2.5456586E-006, 1.0197201E-003, 5.7517184E+002
 2.2001772E+001, 6.0770048E-002, 1.3069606E-001, 7.8969902E-002, 2.4958732E-004, 4.1555519E-006, 1.0827049E-003, 5.7799007E+002
 2.3001065E+001, 5.8189121E-002, 1.3266463E-001, 8.0078403E-002, 2.5615247E-004, 4.3148694E-006, 1.0996905E-003, 5.8207764E+002
 2.4007217E+001, 5.8427869E-002, 1.3247200E-001, 7.9979072E-002, 2.6274370E-004, 5.1778095E-006, 1.0995938E-003, 5.6939408E+002
 2.5000322E+001, 5.0202583E-002, 1.3875407E-001, 8.3509204E-002, 2.7792818E-004, 5.4324842E-006, 1.1525499E-003, 5.8047299E+002
 2.6001298E+001, 5.2242937E-002, 1.3719938E-001, 8.2632429E-002, 2.7168957E-004, 4.9959748E-006, 1.1389074E-003, 5.7067833E+002
 2.7000788E+001, 4.6971428E-002, 1.4121278E-001, 8.4898482E-002, 2.8992114E-004, 7.7723024E-006, 1.1745855E-003, 5.7208338E+002
 2.8004929E+001, 4.5800611E-002, 1.4211395E-001, 8.5399112E-002, 2.8752195E-004, 5.6148435E-006, 1.1811915E-003, 5.7308203E+002
 2.9001288E+001, 4.1972614E-002, 1.4501669E-001, 8.7048306E-002, 3.0881784E-004, 7.9620308E-006, 1.2087510E-003, 5.7114791E+002
 3.0004614E+001, 3.8527105E-002, 1.4765298E-001, 8.8525577E-002, 3.1189484E-004, 7.7621774E-006, 1.2302612E-003, 5.6907975E+002
 3.1000882E+001, 3.5335979E-002, 1.5010024E-001, 8.9891971E-002, 3.1083618E-004, 7.7390983E-006, 1.2493817E-003, 5.8035878E+002
 3.2000420E+001, 3.4976161E-002, 1.5037146E-001, 9.0047645E-002, 3.1407590E-004, 7.1243586E-006, 1.2522272E-003, 5.7438431E+002
 3.3009275E+001, 3.3526745E-002, 1.5141831E-001, 9.0688410E-002, 3.5814800E-004, 9.8845987E-006, 1.2700417E-003, 5.7137144E+002
 3.4000008E+001, 3.1545789E-002, 1.5297812E-001, 9.1524118E-002, 3.2962257E-004, 7.2455961E-006, 1.2762016E-003, 5.6454738E+002
 3.5006680E+001, 2.7689207E-002, 1.5587981E-001, 9.3192866E-002, 3.6685286E-004, 9.5900509E-006, 1.3072009E-003, 5.6543835E+002
 3.6004071E+001, 2.3044849E-002, 1.5947830E-001, 9.5170319E-002, 3.4019051E-004, 6.4068193E-006, 1.3298832E-003, 5.7967299E+002
 3.7008972E+001, 2.4247891E-002, 1.5850504E-001, 9.4670778E-002, 3.7532761E-004, 9.7621317E-006, 1.3297918E-003, 5.6529004E+002
 3.8009016E+001, 1.7402409E-002, 1.6365115E-001, 9.7634407E-002, 4.4460692E-004, 1.2840053E-005, 1.3854726E-003, 5.8368403E+002
 3.9002807E+001, 1.6726754E-002, 1.6424879E-001, 9.7899025E-002, 3.8969342E-004, 9.0288802E-006, 1.3783145E-003, 5.7500041E+002
 4.0010464E+001, 1.3502266E-002, 1.6668569E-001, 9.9291054E-002, 4.1350005E-004, 9.5800430E-006, 1.4027340E-003, 5.8054618E+002
 4.1005021E+001, 1.0708257E-002, 1.6872472E-001, 1.0052016E-001, 4.8433419E-004, 1.1133294E-005, 1.4341846E-003, 5.8663725E+002
 4.2008183E+001, 1.0046484E-002, 1.6917947E-001, 1.0081985E-001, 5.2037354E-004, 1.3991157E-005, 1.4455792E-003, 5.7978766E+002
 4.3007885E+001, 1.1786468E-002, 1.6777059E-001, 1.0009732E-001, 5.7172460E-004, 2.1486989E-005, 1.4455522E-003, 5.7386152E+002
 4.4001570E+001, 8.0313577E-003, 1.7035422E-001, 1.0180023E-001, 7.7657060E-004, 1.6790324E-005, 1.5103092E-003, 5.8150448E+002
 4.5003404E+001, 6.3501034E-003, 1.7140128E-001, 1.0259575E-001, 9.4300722E-004, 2.6071279E-005, 1.5546052E-003, 5.7284154E+002
 4.6003228E+001, 5.9809053E-003, 1.7099348E-001, 1.0297365E-001, 1.4222645E-003, 2.6899734E-005, 1.6550933E-003, 5.8162515E+002
 4.7005247E+001, 5.3947084E-003, 1.6971832E-001, 1.0372680E-001, 2.5831654E-003, 3.1731772E-004, 1.8962340E-003, 5.6792050E+002
 4.8002663E+001, 3.9498664E-003, 1.7238349E-001, 1.0388587E-001, 1.5296554E-003, 9.3678623E-005, 1.6893236E-003, 5.7117599E+002
 4.9003582E+001, 4.0226581E-003, 1.7051174E-001, 1.0442457E-001, 2.7836122E-003, 1.4447439E-004, 1.9458836E-003, 5.5884388E+002
 5.0005037E+001, 3.1128185E-003, 1.7027095E-001, 1.0506795E-001, 3.4002874E-003, 4.2303315E-004, 2.0774310E-003, 5.5543294E+002
 5.1002502E+001, 1.7643513E-003, 1.7151289E-001, 1.0561905E-001, 3.2860685E-003, 1.7610293E-004, 2.0625322E-003, 5.6486177E+002
 5.2005179E+001, 1.8769326E-003, 1.6986732E-001, 1.0602084E-001, 4.3327555E-003, 4.6327858E-004, 2.2760281E-003, 5.5630890E+002
 5.3001606E+001, 1.9700052E-003, 1.6844482E-001, 1.0640687E-001, 5.2671974E-003, 4.8944731E-004, 2.4669963E-003, 5.4807685E+002
 5.4004263E+001, 3.3163548E-003, 1.6900080E-001, 1.0535898E-001, 4.1914476E-003, 2.7720600E-004, 2.2385966E-003, 5.5093654E+002
 5.5000648E+001, 1.7693465E-003, 1.6805398E-001, 1.0666122E-001, 5.6413528E-003, 5.2020627E-004, 2.5448744E-003, 5.5059304E+002
 5.6003083E+001, 1.6264309E-003, 1.6803427E-001, 1.0672952E-001, 5.7050391E-003, 7.3119377E-004, 2.5585013E-003, 5.5025758E+002
 5.7003684E+001, 1.1850395E-003, 1.6627828E-001, 1.0754363E-001, 7.1266009E-003, 9.8910040E-004, 2.8522478E-003, 5.3635864E+002
 5.8006887E+001, 1.6764261E-003, 1.6616511E-001, 1.0724959E-001, 6.9440173E-003, 9.8721948E-004, 2.8118414E-003, 5.4299600E+002
 5.9006631E+001, 1.0550051E-003, 1.6615336E-001, 1.0769088E-001, 7.2977770E-003, 8.6478472E-004, 2.8883024E-003, 5.4278664E+002
 6.0004818E+001, 8.6271283E-004, 1.6653822E-001, 1.0771816E-001, 7.1486327E-003, 7.3777027E-004, 2.8590695E-003, 5.4143838E+002
 6.1003309E+001, 7.8819481E-004, 1.6612968E-001, 1.0788159E-001, 7.4590096E-003, 8.4133071E-004, 2.9230061E-003, 5.4204861E+002
 6.2008893E+001, 6.8447902E-004, 1.6462973E-001, 1.0836721E-001, 8.5080628E-003, 1.2228288E-003, 3.1381658E-003, 5.3783705E+002
 6.3007037E+001, 7.6088560E-004, 1.6350941E-001, 1.0861135E-001, 9.1982082E-003, 1.6015103E-003, 3.2786586E-003, 5.3027461E+002
 6.4001754E+001, 8.4158286E-004, 1.6557647E-001, 1.0801788E-001, 7.8115301E-003, 8.6562747E-004, 2.9949184E-003, 5.4088066E+002
 6.5002934E+001, 6.8123839E-004, 1.6370750E-001, 1.0864870E-001, 9.1388880E-003, 1.3111801E-003, 3.2673865E-003, 5.3947418E+002
 6.6000032E+001, 7.8682846E-004, 1.6431188E-001, 1.0835906E-001, 8.6432577E-003, 1.4738402E-003, 3.1649103E-003, 5.3375050E+002
 6.7001561E+001, 7.0326859E-004, 1.6345062E-001, 1.0873163E-001, 9.3176252E-003, 1.2122890E-003, 3.3040341E-003, 5.3564493E+002
 6.8003216E+001, 6.9138473E-004, 1.6212320E-001, 1.0911082E-001, 1.0205919E-002, 1.5304001E-003, 3.4857689E-003, 5.2787789E+002
 6.9005640E+001, 6.5518774E-004, 1.6262475E-001, 1.0895715E-001, 9.8631012E-003, 1.6440734E-003, 3.4155485E-003, 5.3241375E+002
 7.0004806E+001, 5.2503868E-004, 1.6221161E-001, 1.0919675E-001, 1.0234743E-002, 1.5165962E-003, 3.4927055E-003, 5.3185038E+002
 7.1006859E+001, 5.1430108E-004, 1.6221650E-001, 1.0921315E-001, 1.0245262E-002, 1.4500297E-003, 3.4950202E-003, 5.2991262E+002
 7.2001604E+001, 4.5185988E-004, 1.5960215E-001, 1.0994688E-001, 1.1985466E-002, 2.3202858E-003, 3.8509375E-003, 5.2432886E+002
 7.3008469E+001, 4.8001154E-004, 1.6068171E-001, 1.0966203E-001, 1.1280679E-002, 1.8387026E-003, 3.7069535E-003, 5.2725093E+002
 7.4000876E+001, 4.6581875E-004, 1.5958402E-001, 1.0998055E-001, 1.2019098E-002, 2.0892796E-003, 3.8580712E-003, 5.2241916E+002
 7.5004903E+001, 4.5868566E-004, 1.5980320E-001, 1.0990731E-001, 1.1864478E-002, 2.1404677E-003, 3.8263444E-003, 5.2738579E+002
 7.6004282E+001, 4.5903901E-004, 1.5996627E-001, 1.0989765E-001, 1.1783573E-002, 1.8772926E-003, 3.8101243E-003, 5.2821864E+002
 7.7007794E+001, 4.0411887E-004, 1.5894131E-001, 1.1016792E-001, 1.2453102E-002, 2.4530023E-003, 3.9469105E-003, 5.2491253E+002
 7.8004851E+001, 4.6712615E-004, 1.5859471E-001, 1.1024673E-001, 1.2668394E-002, 2.3858599E-003, 3.9907595E-003, 5.2214747E+002
 7.9002194E+001, 4.7160306E-004, 1.5751639E-001, 1.1056145E-001, 1.3394832E-002, 2.5440062E-003, 4.1394372E-003, 5.2439406E+002
 8.0007286E+001, 4.2250246E-004, 1.5771924E-001, 1.1053581E-001, 1.3284703E-002, 2.5073103E-003, 4.1172088E-003, 5.2417308E+002
 8.1001807E+001, 4.0315085E-004, 1.5640455E-001, 1.1095535E-001, 1.4198200E-002, 2.5814931E-003, 4.3044972E-003, 5.2172857E+002
 8.2001706E+001, 4.5377142E-004, 1.5720151E-001, 1.1064919E-001, 1.3604139E-002, 2.6956728E-003, 4.1822428E-003, 5.2219302E+002
 8.3002991E+001, 4.6176205E-004, 1.5712071E-001, 1.1066666E-001, 1.3653764E-002, 2.7134803E-003, 4.1923430E-003, 5.2214352E+002
 8.4005940E+001, 4.6616351E-004, 1.5698954E-001, 1.1069974E-001, 1.3738085E-002, 2.7488952E-003, 4.2095533E-003, 5.2217798E+002
 8.5006250E+001, 5.0855064E-004, 1.5663142E-001, 1.1072408E-001, 1.3917357E-002, 3.1277866E-003, 4.2455184E-003, 5.1924403E+002
 8.6008022E+001, 4.6375339E-004, 1.5628168E-001, 1.1090758E-001, 1.4216001E-002, 2.8673113E-003, 4.3073791E-003, 5.2353470E+002
 8.7001612E+001, 6.0895525E-004, 1.5619569E-001, 1.1079727E-001, 1.4167857E-002, 3.1154907E-003, 4.2962820E-003, 5.2150405E+002
 8.8007417E+001, 6.7371228E-004, 1.5629698E-001, 1.1072102E-001, 1.4062763E-002, 3.1183737E-003, 4.2743403E-003, 5.1850767E+002
 8.9008387E+001, 7.6608889E-004, 1.5651993E-001, 1.1060703E-001, 1.3873485E-002, 3.0001663E-003, 4.2351423E-003, 5.2014015E+002
 9.0002089E+001, 7.5364353E-004, 1.5611051E-001, 1.1068289E-001, 1.4116244E-002, 3.3894401E-003, 4.2844405E-003, 5.2114291E+002
 9.1002660E+001, 7.3095037E-004, 1.5616954E-001, 1.1071979E-001, 1.4118225E-002, 3.1389557E-003, 4.2853348E-003, 5.2275324E+002
 9.2003895E+001, 7.2460975E-004, 1.5679330E-001, 1.1059383E-001, 1.3740915E-002, 2.7156044E-003, 4.2086139E-003, 5.1924885E+002
 9.3008922E+001, 8.0119670E-004, 1.5608458E-001, 1.1074298E-001, 1.4172945E-002, 2.8702399E-003, 4.2965033E-003, 5.2334174E+002
 9.4005948E+001, 7.7005697E-004, 1.5447686E-001, 1.1114942E-001, 1.5208779E-002, 3.6525080E-003, 4.5079523E-003, 5.1963714E+002
 9.5010250E+001, 7.9999818E-004, 1.5450641E-001, 1.1111641E-001, 1.5169692E-002, 3.6740433E-003, 4.4997274E-003, 5.2167624E+002
 9.6004006E+001, 7.6691487E-004, 1.5461485E-001, 1.1109019E-001, 1.5101388E-002, 3.7604584E-003, 4.4858040E-003, 5.1894179E+002
 9.7005834E+001, 7.6147107E-004, 1.5427705E-001, 1.1122128E-001, 1.5353896E-002, 3.6371803E-003, 4.5377758E-003, 5.1654770E+002
 9.8004263E+001, 7.8032477E-004, 1.5337942E-001, 1.1146459E-001, 1.5944069E-002, 3.8215340E-003, 4.6583943E-003, 5.1721587E+002
 9.9002380E+001, 7.7850685E-004, 1.5310480E-001, 1.1152424E-001, 1.6113479E-002, 4.0010818E-003, 4.6928846E-003, 5.2057829E+002
 1.0000299E+002, 7.7125222E-004, 1.5333489E-001, 1.1147004E-001, 1.5968479E-002, 3.9133276E-003, 4.6633250E-003, 5.1811736E+002
 1.0100222E+002, 7.4421985E-004, 1.5355474E-001, 1.1139573E-001, 1.5813107E-002, 4.0527309E-003, 4.6314410E-003, 5.1973183E+002
 1.0200548E+002, 8.8371400E-004, 1.5342161E-001, 1.1135592E-001, 1.5840155E-002, 3.9809144E-003, 4.6362414E-003, 5.1761783E+002
 1.0300443E+002, 9.7964830E-004, 1.5248121E-001, 1.1156449E-001, 1.6421663E-002, 4.1437624E-003, 4.7546463E-003, 5.1710791E+002
 1.0400060E+002, 7.6612211E-004, 1.5237889E-001, 1.1175560E-001, 1.6617680E-002, 4.0509491E-003, 4.7962553E-003, 5.1706955E+002
 1.0500915E+002, 7.9325151E-004, 1.5149219E-001, 1.1197741E-001, 1.7186350E-002, 4.3124693E-003, 4.9123073E-003, 5.1759342E+002
 1.0600763E+002, 7.7984081E-004, 1.5142804E-001, 1.1195153E-001, 1.7195761E-002, 4.6551280E-003, 4.9138384E-003, 5.1921382E+002
 1.0700330E+002, 7.7802434E-004, 1.5155401E-001, 1.1194410E-001, 1.7133329E-002, 4.4602846E-003, 4.9013229E-003, 5.1672061E+002
 1.0800009E+002, 6.6778594E-004, 1.5209216E-001, 1.1185871E-001, 1.6827517E-002, 4.3871531E-003, 4.8393991E-003, 5.2378667E+002
 1.0900945E+002, 7.3731517E-004, 1.5180342E-001, 1.1187237E-001, 1.6966845E-002, 4.5823654E-003, 4.8672680E-003, 5.1805212E+002
 1.1000432E+002, 6.6118328E-004, 1.5313002E-001, 1.1151728E-001, 1.6098960E-002, 4.4831092E-003, 4.6899441E-003, 5.2357629E+002
 1.1100157E+002, 7.9984384E-004, 1.5245561E-001, 1.1166754E-001, 1.6515224E-002, 4.3046971E-003, 4.7746916E-003, 5.2253247E+002
 1.1201052E+002, 8.2389954E-004, 1.5123408E-001, 1.1201347E-001, 1.7329695E-002, 4.4704221E-003, 4.9412876E-003, 5.2159917E+002
 1.1300655E+002, 8.5361195E-004, 1.5035092E-001, 1.1222952E-001, 1.7892335E-002, 4.7498513E-003, 5.0560625E-003, 5.1852593E+002
 1.1400908E+002, 8.6609717E-004, 1.5086007E-001, 1.1208644E-001, 1.7553279E-002, 4.5801330E-003, 4.9867148E-003, 5.1906528E+002
 1.1500091E+002, 9.7552134E-004, 1.5053278E-001, 1.1219779E-001, 1.7783852E-002, 4.0800714E-003, 5.0340214E-003, 5.1913065E+002
 1.1600903E+002, 9.0923474E-004, 1.4963579E-001, 1.1244289E-001, 1.8376673E-002, 4.6066498E-003, 5.1552195E-003, 5.1530018E+002
 1.1700129E+002, 7.0717395E-004, 1.5032417E-001, 1.1236328E-001, 1.8009242E-002, 4.5838477E-003, 5.0811491E-003, 5.2002435E+002
 1.1800543E+002, 6.9127139E-004, 1.5038610E-001, 1.1231495E-001, 1.7944703E-002, 4.8273856E-003, 5.0676735E-003, 5.2010944E+002
 1.1900080E+002, 8.9921365E-004, 1.5090295E-001, 1.1207228E-001, 1.7522520E-002, 4.4453897E-003, 4.9803971E-003, 5.2186427E+002
 1.2000005E+002, 8.6380985E-004, 1.4881190E-001, 1.1261675E-001, 1.8881760E-002, 5.3434628E-003, 5.2580106E-003, 5.1680519E+002
 1.2100998E+002, 8.5981288E-004, 1.4978011E-001, 1.1243878E-001, 1.8309386E-002, 4.5533247E-003, 5.1417991E-003, 5.1849952E+002
 1.2200664E+002, 9.4011962E-004, 1.4895671E-001, 1.1255665E-001, 1.8769159E-002, 5.1124339E-003, 5.2347874E-003, 5.1530594E+002
 1.2300162E+002, 9.3980066E-004, 1.4986588E-001, 1.1231649E-001, 1.8175847E-002, 4.8086289E-003, 5.1135803E-003, 5.1987792E+002
 1.2400207E+002, 8.9118929E-004, 1.4903552E-001, 1.1260207E-001, 1.8769218E-002, 4.8794050E-003, 5.2354223E-003, 5.1953022E+002
 1.2500224E+002, 8.0611734E-004, 1.4980569E-001, 1.1243276E-001, 1.8294240E-002, 4.7638080E-003, 5.1387249E-003, 5.2121456E+002
 1.2600085E+002, 8.0927375E-004, 1.4889007E-001, 1.1263511E-001, 1.8861539E-002, 5.3027325E-003, 5.2542527E-003, 5.1641532E+002
 1.2700189E+002, 8.4856832E-004, 1.4880632E-001, 1.1264490E-001, 1.8906052E-002, 5.2435793E-003, 5.2632228E-003, 5.1750061E+002
 1.2800731E+002, 8.4016787E-004, 1.4869733E-001, 1.1267495E-001, 1.8978295E-002, 5.3073595E-003, 5.2779949E-003, 5.1505280E+002
 1.2900089E+002, 7.6486211E-004, 1.4921162E-001, 1.1260038E-001, 1.8690855E-002, 5.0687895E-003, 5.2198576E-003, 5.1871880E+002
 1.3000990E+002, 7.4380585E-004, 1.4905342E-001, 1.1270005E-001, 1.8838690E-002, 4.8509792E-003, 5.2505975E-003, 5.1939745E+002
 1.3100470E+002, 7.0760335E-004, 1.4909374E-001, 1.1267048E-001, 1.8798596E-002, 5.1054193E-003, 5.2422411E-003, 5.1865605E+002
 1.3200383E+002, 7.2594320E-004, 1.4943049E-001, 1.1253024E-001, 1.8539332E-002, 5.2337664E-003, 5.1887988E-003, 5.2006285E+002
 1.3300933E+002, 7.5663878E-004, 1.4827138E-001, 1.1281634E-001, 1.9279862E-002, 5.6192766E-003, 5.3398884E-003, 5.2060630E+002
 1.3401012E+002, 7.8379397E-004, 1.4843399E-001, 1.1283287E-001, 1.9218660E-002, 5.0831803E-003, 5.3279273E-003, 5.1701171E+002
 1.3500752E+002, 8.4848286E-004, 1.4843824E-001, 1.1277930E-001, 1.9174646E-002, 5.1372148E-003, 5.3184364E-003, 5.1187896E+002
 1.3601017E+002, 8.5110988E-004, 1.4718496E-001, 1.1308397E-001, 1.9972331E-002, 5.7103387E-003, 5.4811507E-003, 5.1515893E+002
 1.3700995E+002, 8.5175257E-004, 1.4710963E-001, 1.1305235E-001, 1.9982138E-002, 6.0520834E-003, 5.4826790E-003, 5.1360146E+002
 1.3801032E+002, 7.9571471E-004, 1.4800434E-001, 1.1290415E-001, 1.9466592E-002, 5.4392213E-003, 5.3781849E-003, 5.1689017E+002
 1.3900438E+002, 7.7530507E-004, 1.4803479E-001, 1.1294379E-001, 1.9483508E-002, 5.2186360E-003, 5.3820853E-003, 5.1764493E+002
 1.4000557E+002, 7.8424035E-004, 1.4711816E-001, 1.1310613E-001, 2.0020607E-002, 5.9832775E-003, 5.4910709E-003, 5.1484610E+002
 1.4100421E+002, 8.0857687E-004, 1.4761707E-001, 1.1299435E-001, 1.9709852E-002, 5.5905422E-003, 5.4277656E-003, 5.1665765E+002
 1.4200541E+002, 6.6730742E-004, 1.4792396E-001, 1.1304122E-001, 1.9609875E-002, 5.2834277E-003, 5.4085554E-003, 5.1674687E+002
 1.4300227E+002, 6.1645699E-004, 1.4752626E-001, 1.1315680E-001, 1.9878392E-002, 5.5634620E-003, 5.4635199E-003, 5.1692410E+002
 1.4400089E+002, 5.1727973E-004, 1.4862563E-001, 1.1291413E-001, 1.9199227E-002, 5.3118506E-003, 5.3252383E-003, 5.2244549E+002
 1.4500639E+002, 5.3283431E-004, 1.4769743E-001, 1.1316223E-001, 1.9806903E-002, 5.5405326E-003, 5.4494030E-003, 5.1825462E+002
 1.4600613E+002, 5.3490857E-004, 1.4748259E-001, 1.1320378E-001, 1.9935462E-002, 5.6981693E-003, 5.4755255E-003, 5.1991102E+002
 1.4700638E+002, 5.6748025E-004, 1.4784886E-001, 1.1308089E-001, 1.9675874E-002, 5.6015227E-003, 5.4222455E-003, 5.1783995E+002
 1.4800979E+002, 5.3610387E-004, 1.4714136E-001, 1.1329154E-001, 2.0156311E-002, 5.8224329E-003, 5.5206203E-003, 5.1556459E+002
 1.4900917E+002, 5.6164318E-004, 1.4792047E-001, 1.1310798E-001, 1.9664385E-002, 5.3167554E-003, 5.4203241E-003, 5.1650217E+002
 1.5000158E+002, 5.0329574E-004, 1.4769154E-001, 1.1321498E-001, 1.9850393E-002, 5.3483809E-003, 5.4587667E-003, 5.1940366E+002
 1.5100819E+002, 6.2797029E-004, 1.4742676E-001, 1.1318071E-001, 1.9941303E-002, 5.5635597E-003, 5.4763474E-003, 5.1682801E+002
 1.5200873E+002, 6.8500663E-004, 1.4725622E-001, 1.1316755E-001, 2.0007088E-002, 5.7438782E-003, 5.4892359E-003, 5.1676799E+002
 1.5300378E+002, 6.4240953E-004, 1.4751652E-001, 1.1314541E-001, 1.9873606E-002, 5.5451383E-003, 5.4624071E-003, 5.1331359E+002
 1.5400102E+002, 6.8038757E-004, 1.4705610E-001, 1.1323754E-001, 2.0150849E-002, 5.7241765E-003, 5.5187637E-003, 5.1781490E+002
