s,,,,,,,
Time,"O2 EXHAUST","CO2 EXHAUST","H2O EXHAUST","CO EXHAUST","FUEL EXHAUST","SOOT EXHAUST","TEMP EXHAUST"
 0.0000000E+000, 2.3099745E-001, 5.9146511E-004, 5.9409840E-003, 0.0000000E+000, 0.0000000E+000, 0.0000000E+000, 2.0000000E+001
 1.0034652E+000, 2.3099745E-001, 5.9146511E-004, 5.9409840E-003, 1.6919957E-025, 1.0864154E-024, 5.9250712E-026, 2.0882045E+001
 2.0007336E+000, 2.1877093E-001, 9.7359941E-003, 1.1217983E-002, 1.3242916E-004, 1.9844272E-004, 1.0095785E-004, 1.4708971E+002
 3.0002985E+000, 2.0950396E-001, 1.6676377E-002, 1.5227758E-002, 2.3630660E-004, 2.6759336E-004, 1.7830980E-004, 2.2881784E+002
 4.0052951E+000, 1.9242404E-001, 2.9762162E-002, 2.2551677E-002, 2.4443174E-004, 2.2725277E-004, 2.8353332E-004, 3.4299618E+002
 5.0060009E+000, 1.7716188E-001, 4.1627042E-002, 2.9058175E-002, 1.4524999E-004, 8.7651096E-005, 3.5588504E-004, 4.2165852E+002
 6.0006587E+000, 1.6618717E-001, 5.0133816E-002, 3.3742151E-002, 8.9248773E-005, 3.8576342E-006, 4.1102837E-004, 4.8121330E+002
 7.0043112E+000, 1.4942182E-001, 6.2956539E-002, 4.0932382E-002, 1.0808486E-004, 3.0844386E-007, 5.1648963E-004, 5.1846746E+002
 8.0045777E+000, 1.3805337E-001, 7.1646271E-002, 4.5809227E-002, 1.2414819E-004, 7.8325036E-007, 5.8867255E-004, 5.4516048E+002
 9.0057796E+000, 1.3117954E-001, 7.6903160E-002, 4.8757230E-002, 1.3207110E-004, 2.5902136E-007, 6.3195159E-004, 5.3632059E+002
 1.0010347E+001, 1.2164661E-001, 8.4191261E-002, 5.2846290E-002, 1.4462194E-004, 2.7295442E-007, 6.9229220E-004, 5.4463146E+002
 1.1008664E+001, 1.1322841E-001, 9.0608132E-002, 5.6461266E-002, 1.6737888E-004, 1.2549549E-005, 7.4795259E-004, 5.6621899E+002
 1.2010781E+001, 1.0164243E-001, 9.9435831E-002, 6.1437591E-002, 2.0122012E-004, 3.0686397E-005, 8.2507306E-004, 5.7750175E+002
 1.3001230E+001, 9.2106747E-002, 1.0661374E-001, 6.5550733E-002, 2.8189705E-004, 1.1026991E-004, 8.9928325E-004, 5.9461728E+002
 1.4009408E+001, 8.5877791E-002, 1.1047868E-001, 6.8395332E-002, 8.2657636E-004, 8.0937139E-004, 1.0476977E-003, 5.8194252E+002
 1.5007102E+001, 8.1973084E-002, 1.1323878E-001, 7.0106348E-002, 9.6081709E-004, 1.0294892E-003, 1.0985677E-003, 5.9047781E+002
 1.6009875E+001, 8.0497740E-002, 1.1360697E-001, 7.0868066E-002, 1.4037483E-003, 1.7292001E-003, 1.1973191E-003, 5.5478787E+002
 1.7005973E+001, 7.9822918E-002, 1.1380543E-001, 7.1218468E-002, 1.5943218E-003, 1.9776739E-003, 1.2401237E-003, 5.5421835E+002
 1.8011985E+001, 7.4814011E-002, 1.1526259E-001, 7.3883345E-002, 3.0648878E-003, 3.4568151E-003, 1.5698381E-003, 5.4674567E+002
 1.9011779E+001, 7.1932808E-002, 1.1593304E-001, 7.5337797E-002, 3.9265185E-003, 5.1242046E-003, 1.7615780E-003, 5.3830105E+002
 2.0006689E+001, 7.1481527E-002, 1.1659803E-001, 7.5511612E-002, 3.7677468E-003, 4.6156491E-003, 1.7324800E-003, 5.2895233E+002
 2.1012065E+001, 6.8869084E-002, 1.1590529E-001, 7.6952907E-002, 5.2290369E-003, 7.9332944E-003, 2.0431974E-003, 5.3184557E+002
 2.2004421E+001, 6.9501836E-002, 1.1566016E-001, 7.6606064E-002, 5.0630081E-003, 7.9300366E-003, 2.0053355E-003, 5.1755432E+002
 2.3002054E+001, 6.8033476E-002, 1.1563124E-001, 7.7442774E-002, 5.7421405E-003, 8.9191763E-003, 2.1520552E-003, 5.1468004E+002
 2.4010982E+001, 6.8940529E-002, 1.1503782E-001, 7.7051808E-002, 5.6943885E-003, 8.7336374E-003, 2.1370303E-003, 5.0690552E+002
 2.5001568E+001, 6.9215127E-002, 1.1456438E-001, 7.6986633E-002, 5.8530205E-003, 8.9273206E-003, 2.1676110E-003, 5.1191627E+002
 2.6004980E+001, 6.9551738E-002, 1.1549421E-001, 7.6656565E-002, 5.1754757E-003, 7.7366006E-003, 2.0283571E-003, 5.1090538E+002
 2.7005884E+001, 7.1006960E-002, 1.1476809E-001, 7.5864255E-002, 4.8709472E-003, 8.0159909E-003, 1.9567264E-003, 5.1059375E+002
 2.8007163E+001, 7.2038603E-002, 1.1413376E-001, 7.5446867E-002, 4.8191635E-003, 7.5559144E-003, 1.9405043E-003, 4.9970397E+002
 2.9000650E+001, 6.9561204E-002, 1.1483191E-001, 7.6618297E-002, 5.4447132E-003, 9.2402030E-003, 2.0813824E-003, 5.0881390E+002
 3.0006103E+001, 7.0397664E-002, 1.1443422E-001, 7.6119220E-002, 5.2274554E-003, 9.6324265E-003, 2.0312318E-003, 4.9322054E+002
 3.1009754E+001, 6.9891516E-002, 1.1380786E-001, 7.6438548E-002, 5.7630952E-003, 1.0997343E-002, 2.1421820E-003, 4.9117616E+002
 3.2011097E+001, 7.0456935E-002, 1.1324513E-001, 7.6131620E-002, 5.7719982E-003, 1.1653514E-002, 2.1396620E-003, 4.8886667E+002
 3.3009012E+001, 6.9732020E-002, 1.1322746E-001, 7.6390800E-002, 5.9912889E-003, 1.3101862E-002, 2.1869770E-003, 4.8195900E+002
 3.4004483E+001, 6.8737318E-002, 1.1342034E-001, 7.7044591E-002, 6.4219705E-003, 1.2814140E-002, 2.2816872E-003, 4.8458883E+002
 3.5008650E+001, 6.8962032E-002, 1.1336993E-001, 7.6817291E-002, 6.2669692E-003, 1.3385717E-002, 2.2477537E-003, 4.7468686E+002
 3.6007723E+001, 6.8327982E-002, 1.1323423E-001, 7.6952509E-002, 6.4431365E-003, 1.5456284E-002, 2.2848077E-003, 4.7683825E+002
 3.7004575E+001, 6.7684074E-002, 1.1328947E-001, 7.7322246E-002, 6.7124779E-003, 1.5738628E-002, 2.3435232E-003, 4.7052405E+002
 3.8007823E+001, 6.7516629E-002, 1.1314791E-001, 7.7517185E-002, 6.9282705E-003, 1.5507554E-002, 2.3890938E-003, 4.6657351E+002
 3.9006062E+001, 6.6234953E-002, 1.1333238E-001, 7.8265187E-002, 7.4399883E-003, 1.5847940E-002, 2.5012743E-003, 4.7492720E+002
 4.0005438E+001, 6.6560630E-002, 1.1209181E-001, 7.8313836E-002, 8.0305038E-003, 1.6636497E-002, 2.6192388E-003, 4.6431123E+002
 4.1005721E+001, 6.6494652E-002, 1.1153541E-001, 7.8390586E-002, 8.3412153E-003, 1.7532971E-002, 2.6820723E-003, 4.7444735E+002
 4.2004013E+001, 6.6151595E-002, 1.1243801E-001, 7.8486343E-002, 8.0136934E-003, 1.6588703E-002, 2.6183386E-003, 4.5858958E+002
 4.3010587E+001, 6.6797283E-002, 1.1132002E-001, 7.8315416E-002, 8.3753387E-003, 1.7162990E-002, 2.6877508E-003, 4.5562589E+002
 4.4004984E+001, 6.6395781E-002, 1.1064658E-001, 7.8755809E-002, 9.0227249E-003, 1.7434976E-002, 2.8225022E-003, 4.4810461E+002
 4.5004279E+001, 6.5455161E-002, 1.1146704E-001, 7.9301133E-002, 9.0865958E-003, 1.6356417E-002, 2.8428041E-003, 4.6090601E+002
 4.6004486E+001, 6.4785201E-002, 1.1202285E-001, 7.9680842E-002, 9.1383256E-003, 1.5698429E-002, 2.8583884E-003, 4.5486629E+002
 4.7004859E+001, 6.6071481E-002, 1.1108354E-001, 7.9021298E-002, 9.0344313E-003, 1.6279339E-002, 2.8284846E-003, 4.3617278E+002
 4.8005881E+001, 6.6689890E-002, 1.0894626E-001, 7.9003735E-002, 9.9733015E-003, 1.8027099E-002, 3.0147372E-003, 4.2521151E+002
 4.9011168E+001, 6.6860854E-002, 1.0722326E-001, 7.9344526E-002, 1.1007299E-002, 1.8601558E-002, 3.2248424E-003, 4.2862017E+002
 5.0007150E+001, 6.7476227E-002, 1.0457102E-001, 7.9534098E-002, 1.2336601E-002, 2.0094265E-002, 3.4914998E-003, 4.2790019E+002
 5.1010105E+001, 6.7518166E-002, 1.0344150E-001, 7.9855295E-002, 1.3090419E-002, 2.0157186E-002, 3.6456726E-003, 4.2825506E+002
 5.2001205E+001, 6.7331471E-002, 1.0457255E-001, 7.9679462E-002, 1.2449593E-002, 1.9793628E-002, 3.5159585E-003, 4.4091378E+002
 5.3004403E+001, 6.7704932E-002, 1.0268206E-001, 7.9902343E-002, 1.3465330E-002, 2.0585435E-002, 3.7207894E-003, 4.3611978E+002
 5.4004406E+001, 6.8588936E-002, 1.0081497E-001, 7.9645183E-002, 1.4094495E-002, 2.2178532E-002, 3.8421667E-003, 4.3176563E+002
 5.5007953E+001, 6.8846587E-002, 1.0099602E-001, 7.9331733E-002, 1.3768730E-002, 2.2690203E-002, 3.7731147E-003, 4.3958240E+002
 5.6000056E+001, 6.9570475E-002, 9.9007675E-002, 7.9405369E-002, 1.4708139E-002, 2.3140055E-002, 3.9606555E-003, 4.2499788E+002
 5.7011207E+001, 6.8968365E-002, 9.9874861E-002, 7.9639889E-002, 1.4507339E-002, 2.2484896E-002, 3.9240620E-003, 4.2380451E+002
 5.8004938E+001, 6.9238373E-002, 1.0001902E-001, 7.9410171E-002, 1.4261923E-002, 2.2499163E-002, 3.8721012E-003, 4.3748138E+002
 5.9008080E+001, 6.9262104E-002, 1.0014870E-001, 7.9444390E-002, 1.4229142E-002, 2.1932646E-002, 3.8660310E-003, 4.3244863E+002
 6.0002298E+001, 7.0912920E-002, 9.7592291E-002, 7.8869985E-002, 1.4912688E-002, 2.3656687E-002, 3.9937250E-003, 4.1702065E+002
 6.1004613E+001, 7.0057890E-002, 9.8789940E-002, 7.9199274E-002, 1.4639924E-002, 2.2816164E-002, 3.9441728E-003, 4.1747938E+002
 6.2003861E+001, 7.0631852E-002, 9.8592614E-002, 7.8763666E-002, 1.4385641E-002, 2.3513345E-002, 3.8875965E-003, 4.2467715E+002
 6.3000024E+001, 7.1677568E-002, 9.6476135E-002, 7.8524842E-002, 1.5138269E-002, 2.4811140E-002, 4.0337142E-003, 4.1642558E+002
 6.4002129E+001, 7.1238989E-002, 9.6447838E-002, 7.8879771E-002, 1.5430175E-002, 2.4494815E-002, 4.0966487E-003, 4.1120902E+002
 6.5010426E+001, 7.1496770E-002, 9.5630826E-002, 7.8905822E-002, 1.5813701E-002, 2.4870904E-002, 4.1731739E-003, 4.1221242E+002
 6.6007360E+001, 7.1418310E-002, 9.4439588E-002, 7.9303938E-002, 1.6656308E-002, 2.5080446E-002, 4.3460709E-003, 4.2648407E+002
 6.7004100E+001, 7.2742373E-002, 9.3709055E-002, 7.8382894E-002, 1.6257884E-002, 2.6712228E-002, 4.2540955E-003, 4.2382745E+002
 6.8008797E+001, 7.2825022E-002, 9.3952159E-002, 7.8308930E-002, 1.6090257E-002, 2.6346833E-002, 4.2197465E-003, 4.1817628E+002
 6.9001637E+001, 7.2567145E-002, 9.2730222E-002, 7.8776452E-002, 1.7003025E-002, 2.6934173E-002, 4.4075832E-003, 4.1991634E+002
 7.0007457E+001, 7.2559372E-002, 9.3867952E-002, 7.8525968E-002, 1.6298877E-002, 2.6274748E-002, 4.2642194E-003, 4.2251542E+002
 7.1002147E+001, 7.3002705E-002, 9.2212867E-002, 7.8585440E-002, 1.7082388E-002, 2.7323619E-002, 4.4206661E-003, 4.1810954E+002
 7.2002382E+001, 7.3048705E-002, 9.2036810E-002, 7.8582835E-002, 1.7158933E-002, 2.7495345E-002, 4.4358370E-003, 4.3110068E+002
 7.3000143E+001, 7.1708781E-002, 9.3956583E-002, 7.9091439E-002, 1.6706455E-002, 2.6139510E-002, 4.3531072E-003, 4.2550971E+002
 7.4001163E+001, 7.3227581E-002, 9.2277487E-002, 7.8325713E-002, 1.6850754E-002, 2.7868583E-002, 4.3710610E-003, 4.0869758E+002
 7.5004751E+001, 7.1900783E-002, 9.4145733E-002, 7.8657761E-002, 1.6286441E-002, 2.7653395E-002, 4.2637315E-003, 4.3552745E+002
 7.6010175E+001, 7.2829475E-002, 9.2396387E-002, 7.8510765E-002, 1.6945814E-002, 2.8145775E-002, 4.3925706E-003, 4.3497279E+002
 7.7008279E+001, 7.2880657E-002, 9.3357113E-002, 7.8146909E-002, 1.6233813E-002, 2.8292150E-002, 4.2461119E-003, 4.3159501E+002
 7.8010682E+001, 7.4419269E-002, 9.1195989E-002, 7.7483205E-002, 1.6673004E-002, 3.0257214E-002, 4.3240613E-003, 4.1086062E+002
 7.9010126E+001, 7.4088322E-002, 9.1738188E-002, 7.7472713E-002, 1.6426627E-002, 3.0631351E-002, 4.2750417E-003, 4.3064936E+002
 8.0004404E+001, 7.2444365E-002, 9.3853337E-002, 7.8165195E-002, 1.6032091E-002, 2.9017405E-002, 4.2063922E-003, 4.3953539E+002
 8.1006095E+001, 7.3507390E-002, 9.2345881E-002, 7.7795205E-002, 1.6409622E-002, 2.9854723E-002, 4.2761635E-003, 4.2832598E+002
 8.2000982E+001, 7.4367833E-002, 9.1300667E-002, 7.7443061E-002, 1.6596099E-002, 3.0513694E-002, 4.3082502E-003, 4.2067860E+002
 8.3005556E+001, 7.2680175E-002, 9.3157957E-002, 7.8074900E-002, 1.6272331E-002, 2.9965879E-002, 4.2528791E-003, 4.3647372E+002
 8.4005625E+001, 7.4262790E-002, 9.2081556E-002, 7.7269273E-002, 1.6113220E-002, 3.0487910E-002, 4.2099440E-003, 4.2914797E+002
 8.5010201E+001, 7.5638372E-002, 9.0874916E-002, 7.6560766E-002, 1.6090827E-002, 3.1527357E-002, 4.1955631E-003, 4.1435516E+002
 8.6007691E+001, 7.4217461E-002, 9.1689583E-002, 7.7402720E-002, 1.6392707E-002, 3.0622952E-002, 4.2673180E-003, 4.2246805E+002
 8.7001593E+001, 7.3465077E-002, 9.2978715E-002, 7.7594879E-002, 1.5972077E-002, 3.0024024E-002, 4.1864964E-003, 4.3280738E+002
 8.8002420E+001, 7.5191125E-002, 9.1032495E-002, 7.6884175E-002, 1.6275010E-002, 3.1075859E-002, 4.2366586E-003, 4.2698377E+002
 8.9005301E+001, 7.4631345E-002, 9.2971411E-002, 7.6836384E-002, 1.5374591E-002, 2.9879913E-002, 4.0571601E-003, 4.2903069E+002
 9.0002010E+001, 7.4216471E-002, 9.3078954E-002, 7.6976555E-002, 1.5440809E-002, 3.0527358E-002, 4.0723410E-003, 4.3080662E+002
 9.1008112E+001, 7.5134047E-002, 9.1759888E-002, 7.6560819E-002, 1.5701149E-002, 3.1882327E-002, 4.1182476E-003, 4.3370481E+002
 9.2005555E+001, 7.4389765E-002, 9.3994852E-002, 7.6642626E-002, 1.4769618E-002, 3.0068189E-002, 3.9343550E-003, 4.3738467E+002
 9.3009904E+001, 7.4340548E-002, 9.4821621E-002, 7.6457663E-002, 1.4256485E-002, 2.9788661E-002, 3.8298642E-003, 4.3606945E+002
 9.4012557E+001, 7.4205111E-002, 9.4582120E-002, 7.6445706E-002, 1.4357851E-002, 3.0899049E-002, 3.8499082E-003, 4.5167168E+002
 9.5011317E+001, 7.3184873E-002, 9.7284888E-002, 7.6557291E-002, 1.3243224E-002, 2.9127256E-002, 3.6300984E-003, 4.6008294E+002
 9.6000924E+001, 7.5047149E-002, 9.5805095E-002, 7.5535141E-002, 1.3095489E-002, 3.0621316E-002, 3.5864397E-003, 4.5009529E+002
 9.7006870E+001, 7.4426136E-002, 9.5709959E-002, 7.5952452E-002, 1.3468543E-002, 3.0810131E-002, 3.6664061E-003, 4.3589674E+002
 9.8008025E+001, 7.5887831E-002, 9.3542671E-002, 7.5308821E-002, 1.3927264E-002, 3.2983342E-002, 3.7485333E-003, 4.3467970E+002
 9.9005883E+001, 7.4811186E-002, 9.4845663E-002, 7.5596540E-002, 1.3579352E-002, 3.3115565E-002, 3.6835588E-003, 4.4117769E+002
 1.0000150E+002, 7.6629003E-002, 9.2665576E-002, 7.4712250E-002, 1.3853484E-002, 3.5321678E-002, 3.7256456E-003, 4.2893974E+002
 1.0100041E+002, 7.6914812E-002, 9.2993285E-002, 7.4438076E-002, 1.3491062E-002, 3.5183591E-002, 3.6498189E-003, 4.2880861E+002
 1.0200310E+002, 7.6107771E-002, 9.4658122E-002, 7.4673274E-002, 1.2934901E-002, 3.3804833E-002, 3.5426394E-003, 4.2742214E+002
 1.0300096E+002, 7.6545670E-002, 9.4533332E-002, 7.4495934E-002, 1.2847650E-002, 3.3325760E-002, 3.5227720E-003, 4.2229914E+002
 1.0401196E+002, 7.7055130E-002, 9.3946414E-002, 7.4264121E-002, 1.2925856E-002, 3.3797352E-002, 3.5350550E-003, 4.1493385E+002
 1.0500296E+002, 7.6221064E-002, 9.5430857E-002, 7.4529890E-002, 1.2474881E-002, 3.2697479E-002, 3.4492095E-003, 4.1531270E+002
 1.0600249E+002, 7.5640229E-002, 9.6859707E-002, 7.4665647E-002, 1.1945009E-002, 3.1457991E-002, 3.3458529E-003, 4.1376946E+002
 1.0700213E+002, 7.5792702E-002, 9.6421340E-002, 7.4656303E-002, 1.2132718E-002, 3.1745277E-002, 3.3830027E-003, 4.1059526E+002
 1.0800244E+002, 7.6328588E-002, 9.5779680E-002, 7.4459486E-002, 1.2261843E-002, 3.1997973E-002, 3.4058693E-003, 4.0387389E+002
 1.0900723E+002, 7.8214870E-002, 9.2102126E-002, 7.3996814E-002, 1.3531893E-002, 3.4259990E-002, 3.6516030E-003, 4.0075233E+002
 1.1000805E+002, 7.7552543E-002, 9.1710171E-002, 7.4548739E-002, 1.4142346E-002, 3.4372267E-002, 3.7805880E-003, 4.0847832E+002
 1.1101017E+002, 7.8596582E-002, 9.0420295E-002, 7.4110282E-002, 1.4369836E-002, 3.5283743E-002, 3.8196155E-003, 4.0768237E+002
 1.1200023E+002, 7.7138218E-002, 9.1884733E-002, 7.4814510E-002, 1.4274249E-002, 3.4107218E-002, 3.8105068E-003, 4.2647257E+002
 1.1300703E+002, 7.8313391E-002, 9.1061505E-002, 7.4129951E-002, 1.4100965E-002, 3.5076912E-002, 3.7665089E-003, 4.2742703E+002
 1.1400381E+002, 7.8484700E-002, 8.8761843E-002, 7.4436983E-002, 1.5369196E-002, 3.6996157E-002, 4.0227421E-003, 4.3349882E+002
 1.1501160E+002, 7.6358244E-002, 9.1614033E-002, 7.5217381E-002, 1.4718378E-002, 3.5393697E-002, 3.9044686E-003, 4.5056796E+002
 1.1600728E+002, 7.6840718E-002, 9.1951405E-002, 7.4766621E-002, 1.4213115E-002, 3.5511396E-002, 3.7978131E-003, 4.4068360E+002
 1.1701017E+002, 7.6349519E-002, 9.2928452E-002, 7.4890115E-002, 1.3875943E-002, 3.4865467E-002, 3.7325814E-003, 4.2436125E+002
 1.1800429E+002, 7.6011044E-002, 9.3125775E-002, 7.5012357E-002, 1.3886574E-002, 3.5128765E-002, 3.7364432E-003, 4.2212986E+002
 1.1900346E+002, 7.6433313E-002, 9.1350715E-002, 7.4998736E-002, 1.4668754E-002, 3.6954727E-002, 3.8916569E-003, 4.2250942E+002
 1.2001267E+002, 7.8679867E-002, 8.9630124E-002, 7.3777602E-002, 1.4470541E-002, 3.8555854E-002, 3.8351727E-003, 4.1758371E+002
 1.2100398E+002, 7.8294701E-002, 9.0039962E-002, 7.4025142E-002, 1.4481895E-002, 3.7818368E-002, 3.8408664E-003, 4.1449704E+002
 1.2200052E+002, 7.8304327E-002, 8.9718026E-002, 7.4141276E-002, 1.4715565E-002, 3.7693686E-002, 3.8888796E-003, 4.1336207E+002
 1.2300810E+002, 7.7050701E-002, 9.1273331E-002, 7.4777257E-002, 1.4523104E-002, 3.5908075E-002, 3.8595258E-003, 4.2196944E+002
 1.2400698E+002, 7.7477716E-002, 9.2334876E-002, 7.4315766E-002, 1.3684137E-002, 3.4895242E-002, 3.6863873E-003, 4.2512635E+002
 1.2500220E+002, 7.7067562E-002, 9.2373506E-002, 7.4717008E-002, 1.3980706E-002, 3.4041670E-002, 3.7508574E-003, 4.2994416E+002
 1.2600910E+002, 7.6539444E-002, 9.2996649E-002, 7.4935232E-002, 1.3876135E-002, 3.3660525E-002, 3.7331566E-003, 4.4811745E+002
 1.2700004E+002, 7.6124973E-002, 9.4052517E-002, 7.4967528E-002, 1.3432360E-002, 3.3104568E-002, 3.6454829E-003, 4.6461229E+002
 1.2800584E+002, 7.5137399E-002, 9.5884559E-002, 7.5081373E-002, 1.2711472E-002, 3.2899704E-002, 3.5039890E-003, 4.7322306E+002
 1.2900635E+002, 7.4456346E-002, 9.6630214E-002, 7.5236940E-002, 1.2506639E-002, 3.3302049E-002, 3.4655667E-003, 4.7720837E+002
 1.3000125E+002, 7.4659326E-002, 9.6694290E-002, 7.4980792E-002, 1.2278388E-002, 3.3917098E-002, 3.4166898E-003, 4.7520607E+002
 1.3100686E+002, 7.3569924E-002, 9.8879069E-002, 7.5272676E-002, 1.1536289E-002, 3.2337873E-002, 3.2733889E-003, 4.7722191E+002
 1.3200468E+002, 7.3329658E-002, 9.8847273E-002, 7.5373911E-002, 1.1632375E-002, 3.2774091E-002, 3.2939296E-003, 4.6235415E+002
 1.3300751E+002, 7.5099376E-002, 9.6292624E-002, 7.4520605E-002, 1.2099948E-002, 3.5727177E-002, 3.3749133E-003, 4.3840240E+002
 1.3400718E+002, 7.5480266E-002, 9.6101842E-002, 7.4373627E-002, 1.2066693E-002, 3.5427568E-002, 3.3662081E-003, 4.3798012E+002
 1.3501137E+002, 7.5868163E-002, 9.5748047E-002, 7.4180069E-002, 1.2071242E-002, 3.5708764E-002, 3.3643963E-003, 4.3258078E+002
 1.3600933E+002, 7.5071132E-002, 9.7602021E-002, 7.4360085E-002, 1.1387473E-002, 3.4257204E-002, 3.2311014E-003, 4.2841711E+002
 1.3700112E+002, 7.5966043E-002, 9.7234002E-002, 7.3789826E-002, 1.1101398E-002, 3.4788434E-002, 3.1662959E-003, 4.2283736E+002
 1.3801289E+002, 7.7256720E-002, 9.7189908E-002, 7.3023860E-002, 1.0512496E-002, 3.4245029E-002, 3.0385241E-003, 4.1950944E+002
 1.3901126E+002, 7.7402232E-002, 9.7053440E-002, 7.3006078E-002, 1.0557761E-002, 3.4018269E-002, 3.0472381E-003, 4.2695935E+002
 1.4001335E+002, 7.5693351E-002, 9.8968094E-002, 7.3779512E-002, 1.0316648E-002, 3.2568582E-002, 3.0102004E-003, 4.4800562E+002
 1.4100038E+002, 7.6412446E-002, 9.5815161E-002, 7.3731836E-002, 1.1688628E-002, 3.6086316E-002, 3.2821426E-003, 4.4252712E+002
 1.4200118E+002, 7.6424356E-002, 9.5542253E-002, 7.3805242E-002, 1.1867520E-002, 3.6120130E-002, 3.3186918E-003, 4.5787846E+002
 1.4300225E+002, 7.5772937E-002, 9.7357645E-002, 7.3916450E-002, 1.1145912E-002, 3.4564458E-002, 3.1769040E-003, 4.5898973E+002
 1.4400237E+002, 7.5850948E-002, 9.8137801E-002, 7.3731567E-002, 1.0651507E-002, 3.3846485E-002, 3.0760948E-003, 4.5816706E+002
 1.4500645E+002, 7.4238685E-002, 9.8993563E-002, 7.4622455E-002, 1.0975763E-002, 3.3354831E-002, 3.1530180E-003, 4.6261549E+002
 1.4601291E+002, 7.4166189E-002, 9.9932074E-002, 7.4483045E-002, 1.0447462E-002, 3.2669727E-002, 3.0461269E-003, 4.5622212E+002
 1.4701390E+002, 7.5908744E-002, 9.7861076E-002, 7.3695030E-002, 1.0747314E-002, 3.4377787E-002, 3.0946392E-003, 4.3584201E+002
 1.4800256E+002, 7.5713575E-002, 9.8422899E-002, 7.3666112E-002, 1.0475509E-002, 3.4261891E-002, 3.0402703E-003, 4.2943639E+002
 1.4900929E+002, 7.4490035E-002, 1.0039794E-001, 7.4197361E-002, 1.0013251E-002, 3.2172098E-002, 2.9558580E-003, 4.2385879E+002
 1.5000717E+002, 7.5588655E-002, 9.8509335E-002, 7.3750860E-002, 1.0503561E-002, 3.4086718E-002, 3.0470226E-003, 4.1956825E+002
 1.5101015E+002, 7.6588661E-002, 9.6010430E-002, 7.3467679E-002, 1.1395600E-002, 3.6603755E-002, 3.2202865E-003, 4.1136955E+002
 1.5200674E+002, 7.8477985E-002, 9.3643238E-002, 7.2739062E-002, 1.1871655E-002, 3.7916669E-002, 3.3045798E-003, 3.8798036E+002
 1.5300019E+002, 7.9882287E-002, 9.1518150E-002, 7.2377389E-002, 1.2527724E-002, 3.8499054E-002, 3.4297336E-003, 3.7953494E+002
 1.5400409E+002, 8.2865708E-002, 8.6082997E-002, 7.1852135E-002, 1.4522217E-002, 4.0045277E-002, 3.8183147E-003, 3.8605314E+002
