s,,,,,,,
Time,"O2 EXHAUST","CO2 EXHAUST","H2O EXHAUST","CO EXHAUST","FUEL EXHAUST","SOOT EXHAUST","TEMP EXHAUST"
 0.0000000E+000, 2.3099739E-001, 5.9146498E-004, 5.9412092E-003, 0.0000000E+000, 0.0000000E+000, 0.0000000E+000, 2.0000000E+001
 1.0050861E+000, 2.3099739E-001, 5.9146498E-004, 5.9412092E-003, 2.2049483E-032, 4.6261285E-031, 5.1794674E-032, 2.0503227E+001
 2.0008954E+000, 2.2476391E-001, 6.3267677E-003, 7.6033471E-003, 1.9415052E-005, 2.9043400E-004, 3.8216832E-004, 8.1029850E+001
 3.0067123E+000, 2.2149404E-001, 9.3309482E-003, 8.4902308E-003, 5.7912677E-005, 3.1332150E-004, 5.8841924E-004, 1.0790106E+002
 4.0031430E+000, 2.1763433E-001, 1.2882335E-002, 9.5224403E-003, 7.5100619E-005, 4.6518570E-004, 8.2617031E-004, 1.4493178E+002
 5.0003430E+000, 2.1478529E-001, 1.5508978E-002, 1.0292018E-002, 9.8206671E-005, 4.9822423E-004, 1.0042390E-003, 1.6822268E+002
 6.0019679E+000, 2.0930584E-001, 2.0559346E-002, 1.1767743E-002, 1.3581018E-004, 6.0412197E-004, 1.3451586E-003, 2.1176441E+002
 7.0061981E+000, 2.0654780E-001, 2.3120935E-002, 1.2509979E-002, 1.4312705E-004, 6.2852032E-004, 1.5155539E-003, 2.3132122E+002
 8.0016717E+000, 2.0296389E-001, 2.6438308E-002, 1.3477473E-002, 1.6396827E-004, 6.5236966E-004, 1.7386603E-003, 2.5616899E+002
 9.0052866E+000, 1.9724372E-001, 3.1766925E-002, 1.5024756E-002, 1.8413628E-004, 6.0311981E-004, 2.0941736E-003, 2.8994251E+002
 1.0007017E+001, 1.9302200E-001, 3.5695886E-002, 1.6165272E-002, 1.9858121E-004, 5.8657493E-004, 2.3562145E-003, 3.1341554E+002
 1.1002592E+001, 1.8937643E-001, 3.9095703E-002, 1.7150885E-002, 2.0850475E-004, 5.5314607E-004, 2.5824112E-003, 3.3034200E+002
 1.2003200E+001, 1.8254068E-001, 4.5498047E-002, 1.8997959E-002, 2.1038331E-004, 4.5215368E-004, 3.0047663E-003, 3.5764146E+002
 1.3002887E+001, 1.7920795E-001, 4.8613406E-002, 1.9898969E-002, 2.1543667E-004, 4.0910798E-004, 3.2111708E-003, 3.7105657E+002
 1.4004856E+001, 1.7405258E-001, 5.3448489E-002, 2.1290819E-002, 2.1124052E-004, 3.3222283E-004, 3.5289315E-003, 3.8262742E+002
 1.5007762E+001, 1.6879906E-001, 5.8374786E-002, 2.2708827E-002, 2.0682953E-004, 2.5841533E-004, 3.8526580E-003, 3.9659924E+002
 1.6004676E+001, 1.6494116E-001, 6.1982771E-002, 2.3750418E-002, 2.0932615E-004, 2.1842847E-004, 4.0909815E-003, 4.0295500E+002
 1.7007127E+001, 1.6104013E-001, 6.5639088E-002, 2.4802671E-002, 2.0579034E-004, 1.7302277E-004, 4.3311967E-003, 4.0922434E+002
 1.8005490E+001, 1.5676843E-001, 6.9635655E-002, 2.5954715E-002, 2.0549240E-004, 1.3754982E-004, 4.5945313E-003, 4.1463373E+002
 1.9009424E+001, 1.5379588E-001, 7.2420282E-002, 2.6756352E-002, 2.0329471E-004, 1.0706787E-004, 4.7775840E-003, 4.1949298E+002
 2.0004266E+001, 1.5112781E-001, 7.4914217E-002, 2.7475992E-002, 2.0450012E-004, 8.8124991E-005, 4.9422083E-003, 4.2118581E+002
 2.1004210E+001, 1.4792114E-001, 7.7910445E-002, 2.8340774E-002, 2.0635004E-004, 6.8601999E-005, 5.1400752E-003, 4.2510324E+002
 2.2007112E+001, 1.4589225E-001, 7.9807245E-002, 2.8887514E-002, 2.0622397E-004, 5.8204816E-005, 5.2650593E-003, 4.2473665E+002
 2.3002553E+001, 1.4299865E-001, 8.2508340E-002, 2.9667672E-002, 2.0897992E-004, 4.6927452E-005, 5.4436695E-003, 4.2545503E+002
 2.4000297E+001, 1.4183241E-001, 8.3599102E-002, 2.9981874E-002, 2.0853525E-004, 4.0827473E-005, 5.5154623E-003, 4.2444329E+002
 2.5005565E+001, 1.3888350E-001, 8.6350450E-002, 3.0776977E-002, 2.1215069E-004, 3.1460192E-005, 5.6975689E-003, 4.2711053E+002
 2.6005852E+001, 1.3735647E-001, 8.7775141E-002, 3.1188480E-002, 2.1365236E-004, 2.8678228E-005, 5.7917873E-003, 4.2622136E+002
 2.7007415E+001, 1.3485876E-001, 9.0101973E-002, 3.1862247E-002, 2.1920035E-004, 2.3968486E-005, 5.9463302E-003, 4.2846110E+002
 2.8004871E+001, 1.3346661E-001, 9.1401830E-002, 3.2237227E-002, 2.1971711E-004, 2.1312968E-005, 6.0321099E-003, 4.2632112E+002
 2.9006439E+001, 1.3127088E-001, 9.3448630E-002, 3.2829195E-002, 2.2330435E-004, 1.8040569E-005, 6.1677765E-003, 4.2626035E+002
 3.0002825E+001, 1.2993600E-001, 9.4690827E-002, 3.3189289E-002, 2.2701845E-004, 1.7835398E-005, 6.2504418E-003, 4.2435593E+002
 3.1008860E+001, 1.2791713E-001, 9.6574460E-002, 3.3733315E-002, 2.2893974E-004, 1.4245724E-005, 6.3749973E-003, 4.2713367E+002
 3.2008454E+001, 1.2590514E-001, 9.8447852E-002, 3.4275924E-002, 2.3369550E-004, 1.3306632E-005, 6.4994858E-003, 4.2714499E+002
 3.3003640E+001, 1.2448643E-001, 9.9768059E-002, 3.4658611E-002, 2.3760638E-004, 1.3294415E-005, 6.5873347E-003, 4.2739614E+002
 3.4003252E+001, 1.2269679E-001, 1.0143596E-001, 3.5141013E-002, 2.4057920E-004, 1.2019168E-005, 6.6978973E-003, 4.2691049E+002
 3.5001086E+001, 1.2131438E-001, 1.0272375E-001, 3.5513642E-002, 2.4318278E-004, 1.2045462E-005, 6.7833297E-003, 4.2334997E+002
 3.6008690E+001, 1.1923106E-001, 1.0466467E-001, 3.6075345E-002, 2.4725159E-004, 1.0492253E-005, 6.9121216E-003, 4.2749057E+002
 3.7004284E+001, 1.1820049E-001, 1.0562437E-001, 3.6353198E-002, 2.4948665E-004, 1.0523504E-005, 6.9758512E-003, 4.2662475E+002
 3.8006600E+001, 1.1700698E-001, 1.0673633E-001, 3.6674922E-002, 2.5168114E-004, 1.0191710E-005, 7.0496071E-003, 4.2979987E+002
 3.9009529E+001, 1.1484511E-001, 1.0874907E-001, 3.7257930E-002, 2.5686519E-004, 9.7655141E-006, 7.1833716E-003, 4.2866470E+002
 4.0004969E+001, 1.1328178E-001, 1.1020516E-001, 3.7679407E-002, 2.6008676E-004, 9.5137175E-006, 7.2800277E-003, 4.2923441E+002
 4.1002139E+001, 1.1183583E-001, 1.1155024E-001, 3.8069500E-002, 2.6442635E-004, 9.7624978E-006, 7.3696084E-003, 4.2951894E+002
 4.2002739E+001, 1.1055577E-001, 1.1273995E-001, 3.8415023E-002, 2.6916743E-004, 1.0165638E-005, 7.4490346E-003, 4.2839212E+002
 4.3003608E+001, 1.0930265E-001, 1.1390713E-001, 3.8752846E-002, 2.7170063E-004, 1.0074081E-005, 7.5265025E-003, 4.3008097E+002
 4.4000122E+001, 1.0838400E-001, 1.1475376E-001, 3.9001920E-002, 2.8092869E-004, 1.2778577E-005, 7.5842797E-003, 4.2690974E+002
 4.5006565E+001, 1.0685984E-001, 1.1617418E-001, 3.9412681E-002, 2.8335078E-004, 1.2526662E-005, 7.6784142E-003, 4.2812584E+002
 4.6007205E+001, 1.0564292E-001, 1.1730076E-001, 3.9741816E-002, 2.9141787E-004, 1.4673043E-005, 7.7543927E-003, 4.2825234E+002
 4.7007996E+001, 1.0408181E-001, 1.1874273E-001, 4.0164598E-002, 3.0449438E-004, 1.7971056E-005, 7.8522321E-003, 4.2871076E+002
 4.8003302E+001, 1.0363086E-001, 1.1916133E-001, 4.0286420E-002, 3.0661945E-004, 1.8138260E-005, 7.8802762E-003, 4.2789379E+002
 4.9005367E+001, 1.0142813E-001, 1.2118484E-001, 4.0884733E-002, 3.3418844E-004, 2.6009003E-005, 8.0195503E-003, 4.2934523E+002
 5.0009640E+001, 1.0082733E-001, 1.2174461E-001, 4.1046599E-002, 3.3513169E-004, 2.6610703E-005, 8.0566453E-003, 4.3135052E+002
 5.1006794E+001, 9.9742565E-002, 1.2274529E-001, 4.1340550E-002, 3.4522341E-004, 2.9581254E-005, 8.1247611E-003, 4.3057876E+002
 5.2003109E+001, 9.8855726E-002, 1.2355127E-001, 4.1582853E-002, 3.6352303E-004, 3.4975782E-005, 8.1818041E-003, 4.2963181E+002
 5.3005161E+001, 9.8390755E-002, 1.2399140E-001, 4.1706912E-002, 3.5838669E-004, 3.4460998E-005, 8.2097104E-003, 4.3005206E+002
 5.4008618E+001, 9.6968064E-002, 1.2529631E-001, 4.2093616E-002, 3.7776210E-004, 4.0651441E-005, 8.2998670E-003, 4.3047806E+002
 5.5006118E+001, 9.5740739E-002, 1.2642353E-001, 4.2426906E-002, 3.9311397E-004, 4.6196820E-005, 8.3774508E-003, 4.3081366E+002
 5.6004104E+001, 9.5324423E-002, 1.2679865E-001, 4.2541214E-002, 4.0444368E-004, 4.9246419E-005, 8.4046027E-003, 4.2714403E+002
 5.7010126E+001, 9.3914799E-002, 1.2809839E-001, 4.2923229E-002, 4.1795387E-004, 5.3888330E-005, 8.4931614E-003, 4.2903771E+002
 5.8007026E+001, 9.3195734E-002, 1.2876254E-001, 4.3117816E-002, 4.2373765E-004, 5.6860745E-005, 8.5381735E-003, 4.3036823E+002
 5.9004456E+001, 9.2038255E-002, 1.2981774E-001, 4.3433361E-002, 4.4462374E-004, 6.4635165E-005, 8.6121972E-003, 4.3189141E+002
 6.0000627E+001, 9.1190299E-002, 1.3058420E-001, 4.3665581E-002, 4.6533492E-004, 7.2136325E-005, 8.6671530E-003, 4.3201054E+002
 6.1007464E+001, 9.0613045E-002, 1.3110931E-001, 4.3822880E-002, 4.7625329E-004, 7.8622042E-005, 8.7041026E-003, 4.3008075E+002
 6.2002142E+001, 8.9768955E-002, 1.3188208E-001, 4.4052490E-002, 4.8883843E-004, 8.3193403E-005, 8.7577319E-003, 4.2975891E+002
 6.3004614E+001, 8.9611864E-002, 1.3201680E-001, 4.4096622E-002, 4.9856210E-004, 8.7084844E-005, 8.7686961E-003, 4.3088983E+002
 6.4006524E+001, 8.7971388E-002, 1.3351407E-001, 4.4543958E-002, 5.2741912E-004, 9.3974424E-005, 8.8735639E-003, 4.2946310E+002
 6.5002635E+001, 8.7293764E-002, 1.3412580E-001, 4.4729697E-002, 5.4467345E-004, 9.9774377E-005, 8.9175811E-003, 4.3238330E+002
 6.6003930E+001, 8.6144063E-002, 1.3518114E-001, 4.5041865E-002, 5.5930369E-004, 1.0639411E-004, 8.9902724E-003, 4.3216321E+002
 6.7001668E+001, 8.6137656E-002, 1.3517691E-001, 4.5044877E-002, 5.6710006E-004, 1.1242144E-004, 8.9916655E-003, 4.3167676E+002
 6.8000497E+001, 8.5490008E-002, 1.3576712E-001, 4.5221149E-002, 5.7840929E-004, 1.1975416E-004, 9.0329893E-003, 4.3132032E+002
 6.9006925E+001, 8.4183620E-002, 1.3694004E-001, 4.5580740E-002, 6.1778779E-004, 1.2839046E-004, 9.1187366E-003, 4.3309783E+002
 7.0005883E+001, 8.4456216E-002, 1.3670878E-001, 4.5502752E-002, 5.9710534E-004, 1.3011357E-004, 9.0990602E-003, 4.3179424E+002
 7.1006260E+001, 8.3286719E-002, 1.3776892E-001, 4.5822677E-002, 6.2340001E-004, 1.3836308E-004, 9.1745690E-003, 4.3321735E+002
 7.2004449E+001, 8.3195608E-002, 1.3784531E-001, 4.5848501E-002, 6.3039018E-004, 1.4159218E-004, 9.1811022E-003, 4.3205726E+002
 7.3007526E+001, 8.1572279E-002, 1.3933841E-001, 4.6288793E-002, 6.4858578E-004, 1.5005306E-004, 9.2834094E-003, 4.3508681E+002
 7.4006077E+001, 8.0987717E-002, 1.3985033E-001, 4.6451298E-002, 6.7601957E-004, 1.6179290E-004, 9.3230313E-003, 4.3359194E+002
 7.5003346E+001, 8.1058066E-002, 1.3978539E-001, 4.6431778E-002, 6.7459601E-004, 1.6584878E-004, 9.3184465E-003, 4.3198471E+002
 7.6001014E+001, 8.0244927E-002, 1.4053677E-001, 4.6651881E-002, 6.8105335E-004, 1.6808803E-004, 9.3693519E-003, 4.3396134E+002
 7.7007004E+001, 7.9743617E-002, 1.4096792E-001, 4.6793003E-002, 7.1191531E-004, 1.7575797E-004, 9.4043854E-003, 4.3430337E+002
 7.8002879E+001, 7.9625438E-002, 1.4109926E-001, 4.6821040E-002, 6.9394188E-004, 1.7364586E-004, 9.4091877E-003, 4.3578074E+002
 7.9008469E+001, 7.8235697E-002, 1.4237519E-001, 4.7198036E-002, 7.1088801E-004, 1.8439661E-004, 9.4969140E-003, 4.3405177E+002
 8.0003664E+001, 7.8602865E-002, 1.4202136E-001, 4.7101400E-002, 7.2067100E-004, 1.8359594E-004, 9.4756915E-003, 4.3342010E+002
 8.1004834E+001, 7.7688208E-002, 1.4283767E-001, 4.7353685E-002, 7.5181182E-004, 1.9342329E-004, 9.5361696E-003, 4.3281439E+002
 8.2004323E+001, 7.6862709E-002, 1.4361333E-001, 4.7574378E-002, 7.4658267E-004, 1.9848355E-004, 9.5861699E-003, 4.3489306E+002
 8.3005997E+001, 7.6430830E-002, 1.4399418E-001, 4.7694911E-002, 7.6623144E-004, 1.9822998E-004, 9.6154836E-003, 4.3272137E+002
 8.4002232E+001, 7.6387564E-002, 1.4404767E-001, 4.7703513E-002, 7.5382796E-004, 2.0324035E-004, 9.6163495E-003, 4.3550143E+002
 8.5002504E+001, 7.5366352E-002, 1.4495089E-001, 4.7987113E-002, 7.9639645E-004, 2.1089542E-004, 9.6850053E-003, 4.3359204E+002
 8.6003609E+001, 7.5570954E-002, 1.4477924E-001, 4.7928279E-002, 7.7930411E-004, 2.1155817E-004, 9.6700276E-003, 4.3498157E+002
 8.7003158E+001, 7.4446568E-002, 1.4578145E-001, 4.8239161E-002, 8.1957861E-004, 2.1901383E-004, 9.7447162E-003, 4.3324011E+002
 8.8003053E+001, 7.4541432E-002, 1.4568731E-001, 4.8214420E-002, 8.2398381E-004, 2.2148835E-004, 9.7394561E-003, 4.3538308E+002
 8.9002532E+001, 7.4409669E-002, 1.4581878E-001, 4.8248275E-002, 8.1659991E-004, 2.2148802E-004, 9.7465374E-003, 4.3416779E+002
 9.0005321E+001, 7.4112036E-002, 1.4609149E-001, 4.8328662E-002, 8.1991917E-004, 2.2796159E-004, 9.7652228E-003, 4.3449212E+002
 9.1006504E+001, 7.3684777E-002, 1.4647587E-001, 4.8446068E-002, 8.3202969E-004, 2.3125895E-004, 9.7931532E-003, 4.3507728E+002
 9.2002917E+001, 7.3041245E-002, 1.4709590E-001, 4.8616051E-002, 8.1601657E-004, 2.2731550E-004, 9.8305836E-003, 4.3461579E+002
 9.3003653E+001, 7.2930489E-002, 1.4718338E-001, 4.8648777E-002, 8.2975439E-004, 2.2841562E-004, 9.8392945E-003, 4.3412663E+002
 9.4009419E+001, 7.2575566E-002, 1.4750254E-001, 4.8745768E-002, 8.3895912E-004, 2.3631886E-004, 9.8623038E-003, 4.3469388E+002
 9.5004570E+001, 7.2086035E-002, 1.4795425E-001, 4.8878490E-002, 8.4356754E-004, 2.3683531E-004, 9.8930623E-003, 4.3371924E+002
 9.6009278E+001, 7.1826147E-002, 1.4819665E-001, 4.8948309E-002, 8.4348843E-004, 2.3845354E-004, 9.9090213E-003, 4.3590881E+002
 9.7008048E+001, 7.2395627E-002, 1.4767405E-001, 4.8792876E-002, 8.3477004E-004, 2.4231570E-004, 9.8727089E-003, 4.3491994E+002
 9.8006580E+001, 7.0493275E-002, 1.4939847E-001, 4.9313608E-002, 8.7813957E-004, 2.5281681E-004, 9.9956593E-003, 4.3584169E+002
 9.9008066E+001, 7.0273972E-002, 1.4960272E-001, 4.9372948E-002, 8.7896516E-004, 2.5081019E-004, 1.0009298E-002, 4.3527391E+002
 1.0000395E+002, 7.0695750E-002, 1.4922977E-001, 4.9255446E-002, 8.6069411E-004, 2.5087831E-004, 9.9808003E-003, 4.3482320E+002
 1.0100001E+002, 6.9967562E-002, 1.4987963E-001, 4.9456354E-002, 8.8560235E-004, 2.5826036E-004, 1.0028971E-002, 4.3465961E+002
 1.0200235E+002, 7.0256355E-002, 1.4961415E-001, 4.9377541E-002, 8.8144726E-004, 2.6093044E-004, 1.0010584E-002, 4.3610184E+002
 1.0300133E+002, 6.8634756E-002, 1.5111246E-001, 4.9817757E-002, 8.9659380E-004, 2.5392648E-004, 1.0112580E-002, 4.3706884E+002
 1.0400670E+002, 6.9285663E-002, 1.5053429E-001, 4.9636876E-002, 8.7060816E-004, 2.5444177E-004, 1.0068903E-002, 4.3758285E+002
 1.0500978E+002, 6.8674488E-002, 1.5105013E-001, 4.9810308E-002, 9.1596565E-004, 2.6822924E-004, 1.0112626E-002, 4.3756315E+002
 1.0600114E+002, 6.9102482E-002, 1.5068159E-001, 4.9689681E-002, 8.8961120E-004, 2.6376561E-004, 1.0082686E-002, 4.3667484E+002
 1.0700184E+002, 6.8205070E-002, 1.5150101E-001, 4.9934367E-002, 9.0516222E-004, 2.6717470E-004, 1.0140026E-002, 4.3625466E+002
 1.0800896E+002, 6.8622902E-002, 1.5112668E-001, 4.9819400E-002, 8.9219677E-004, 2.6258802E-004, 1.0112575E-002, 4.3518313E+002
 1.0900523E+002, 6.7723181E-002, 1.5194779E-001, 5.0065177E-002, 9.0881292E-004, 2.6250400E-004, 1.0170254E-002, 4.3661849E+002
 1.1000528E+002, 6.7656877E-002, 1.5198725E-001, 5.0086357E-002, 9.2682446E-004, 2.7113135E-004, 1.0176717E-002, 4.3755943E+002
 1.1100418E+002, 6.7575491E-002, 1.5206454E-001, 5.0107875E-002, 9.2544707E-004, 2.7239659E-004, 1.0181516E-002, 4.3653652E+002
 1.1200865E+002, 6.7483327E-002, 1.5216909E-001, 5.0129786E-002, 9.1035827E-004, 2.6664357E-004, 1.0185171E-002, 4.3577029E+002
 1.1300713E+002, 6.7148749E-002, 1.5244102E-001, 5.0226392E-002, 9.4376898E-004, 2.7719273E-004, 1.0210257E-002, 4.3519654E+002
 1.1400707E+002, 6.7498088E-002, 1.5214488E-001, 5.0126921E-002, 9.1796197E-004, 2.7469428E-004, 1.0185205E-002, 4.3587356E+002
 1.1500078E+002, 6.6699790E-002, 1.5289233E-001, 5.0341411E-002, 9.1620072E-004, 2.7442126E-004, 1.0234090E-002, 4.3697559E+002
 1.1600497E+002, 6.6127758E-002, 1.5340302E-001, 5.0499115E-002, 9.3545726E-004, 2.8099422E-004, 1.0271877E-002, 4.3668463E+002
 1.1700656E+002, 6.5792450E-002, 1.5369926E-001, 5.0592704E-002, 9.5042468E-004, 2.7976205E-004, 1.0294611E-002, 4.3623702E+002
 1.1800443E+002, 6.6157732E-002, 1.5338343E-001, 5.0490023E-002, 9.2910527E-004, 2.7571900E-004, 1.0269224E-002, 4.3543625E+002
 1.1900965E+002, 6.5984802E-002, 1.5350658E-001, 5.0542976E-002, 9.6108812E-004, 2.8387182E-004, 1.0284198E-002, 4.3587546E+002
 1.2000457E+002, 6.5250655E-002, 1.5418540E-001, 5.0741427E-002, 9.6621191E-004, 2.8759944E-004, 1.0330036E-002, 4.3894586E+002
 1.2100158E+002, 6.5251799E-002, 1.5422188E-001, 5.0734820E-002, 9.3484190E-004, 2.7978566E-004, 1.0325713E-002, 4.3702898E+002
 1.2200650E+002, 6.5948230E-002, 1.5358042E-001, 5.0545938E-002, 9.2753762E-004, 2.7762822E-004, 1.0281871E-002, 4.3552058E+002
 1.2300089E+002, 6.5105434E-002, 1.5434246E-001, 5.0777064E-002, 9.4854089E-004, 2.8172981E-004, 1.0336598E-002, 4.3612709E+002
 1.2400223E+002, 6.5849008E-002, 1.5366902E-001, 5.0572073E-002, 9.2875798E-004, 2.8990183E-004, 1.0287972E-002, 4.3650912E+002
 1.2500197E+002, 6.5109450E-002, 1.5434718E-001, 5.0774157E-002, 9.4076211E-004, 2.8367181E-004, 1.0335241E-002, 4.3763667E+002
 1.2600534E+002, 6.4659985E-002, 1.5476097E-001, 5.0895672E-002, 9.4491370E-004, 2.8893939E-004, 1.0363403E-002, 4.3767012E+002
 1.2700710E+002, 6.4834089E-002, 1.5457665E-001, 5.0852908E-002, 9.6386135E-004, 2.8940342E-004, 1.0355318E-002, 4.3742984E+002
 1.2800449E+002, 6.4956404E-002, 1.5446917E-001, 5.0818055E-002, 9.5684911E-004, 2.9536016E-004, 1.0346731E-002, 4.3682313E+002
 1.2900330E+002, 6.4564097E-002, 1.5485142E-001, 5.0921152E-002, 9.4384737E-004, 2.9033121E-004, 1.0369136E-002, 4.3639526E+002
 1.3000680E+002, 6.4768429E-002, 1.5466165E-001, 5.0865891E-002, 9.4283381E-004, 2.9101469E-004, 1.0356411E-002, 4.3869857E+002
 1.3100289E+002, 6.4014569E-002, 1.5535524E-001, 5.1070714E-002, 9.5178382E-004, 2.9133090E-004, 1.0404042E-002, 4.3831861E+002
 1.3200354E+002, 6.4554771E-002, 1.5485973E-001, 5.0923594E-002, 9.4394758E-004, 2.9166542E-004, 1.0369705E-002, 4.3638629E+002
 1.3300746E+002, 6.3639932E-002, 1.5567378E-001, 5.1176289E-002, 9.7704081E-004, 3.0243008E-004, 1.0430452E-002, 4.3791400E+002
 1.3400806E+002, 6.3312696E-002, 1.5597053E-001, 5.1266209E-002, 9.8503062E-004, 3.0085418E-004, 1.0451724E-002, 4.4013158E+002
 1.3500070E+002, 6.3489109E-002, 1.5582606E-001, 5.1215007E-002, 9.6754943E-004, 2.9960775E-004, 1.0438454E-002, 4.3810266E+002
 1.3600100E+002, 6.3753727E-002, 1.5557797E-001, 5.1143783E-002, 9.6809614E-004, 3.0141484E-004, 1.0422220E-002, 4.3736721E+002
 1.3700588E+002, 6.3518113E-002, 1.5579631E-001, 5.1207366E-002, 9.6929055E-004, 3.0274823E-004, 1.0436866E-002, 4.3766760E+002
 1.3800387E+002, 6.4070146E-002, 1.5530961E-001, 5.1054104E-002, 9.4551220E-004, 2.9552100E-004, 1.0399690E-002, 4.3945681E+002
 1.3901063E+002, 6.3417370E-002, 1.5591106E-001, 5.1231102E-002, 9.5216767E-004, 2.9758990E-004, 1.0440757E-002, 4.3744351E+002
 1.4000571E+002, 6.3174867E-002, 1.5612454E-001, 5.1298434E-002, 9.6280117E-004, 3.0128169E-004, 1.0457107E-002, 4.3616282E+002
 1.4100285E+002, 6.2696294E-002, 1.5654731E-001, 5.1431581E-002, 9.8344413E-004, 3.0352464E-004, 1.0489397E-002, 4.3890166E+002
 1.4200215E+002, 6.2906402E-002, 1.5636122E-001, 5.1373036E-002, 9.7449050E-004, 3.0419639E-004, 1.0475212E-002, 4.3725821E+002
 1.4300000E+002, 6.2314940E-002, 1.5687073E-001, 5.1540350E-002, 1.0118581E-003, 3.0436362E-004, 1.0516805E-002, 4.3935575E+002
 1.4400556E+002, 6.2596848E-002, 1.5663775E-001, 5.1458991E-002, 9.8587817E-004, 3.0183602E-004, 1.0495879E-002, 4.3879077E+002
 1.4500180E+002, 6.2346684E-002, 1.5686635E-001, 5.1527301E-002, 9.9028979E-004, 3.0155800E-004, 1.0511892E-002, 4.3886923E+002
 1.4600715E+002, 6.2283936E-002, 1.5693046E-001, 5.1542442E-002, 9.8425478E-004, 3.0790253E-004, 1.0514823E-002, 4.3835947E+002
 1.4700221E+002, 6.2631776E-002, 1.5659435E-001, 5.1451151E-002, 9.9445955E-004, 3.0636257E-004, 1.0494859E-002, 4.3818750E+002
 1.4800677E+002, 6.2035291E-002, 1.5714728E-001, 5.1611965E-002, 9.9712678E-004, 3.1085763E-004, 1.0531873E-002, 4.3776380E+002
 1.4900787E+002, 6.2766880E-002, 1.5649324E-001, 5.1409913E-002, 9.7236878E-004, 3.0732103E-004, 1.0483459E-002, 4.3879312E+002
 1.5001140E+002, 6.1957568E-002, 1.5724057E-001, 5.1630051E-002, 9.8092471E-004, 3.0064537E-004, 1.0534547E-002, 4.3887012E+002
 1.5100810E+002, 6.1690607E-002, 1.5750308E-001, 5.1699852E-002, 9.7016318E-004, 2.9632029E-004, 1.0549540E-002, 4.3837974E+002
 1.5200368E+002, 6.1672036E-002, 1.5748893E-001, 5.1709281E-002, 9.9499641E-004, 3.1066581E-004, 1.0553933E-002, 4.3864872E+002
 1.5300864E+002, 6.2068835E-002, 1.5714535E-001, 5.1598276E-002, 9.7303478E-004, 3.0225241E-004, 1.0526580E-002, 4.3994704E+002
 1.5400159E+002, 6.1644985E-002, 1.5752533E-001, 5.1714950E-002, 9.8613040E-004, 3.0598466E-004, 1.0554431E-002, 4.3780191E+002
