s,,,,,,,
Time,"O2 EXHAUST","CO2 EXHAUST","H2O EXHAUST","CO EXHAUST","FUEL EXHAUST","SOOT EXHAUST","TEMP EXHAUST"
 0.0000000E+000, 2.3099739E-001, 5.9146498E-004, 5.9412091E-003, 0.0000000E+000, 0.0000000E+000, 0.0000000E+000, 2.0000000E+001
 1.0046109E+000, 2.3099739E-001, 5.9146498E-004, 5.9412091E-003, 2.7732350E-023, 7.1627356E-023, 2.7085318E-023, 2.1995767E+001
 2.0011943E+000, 2.2052792E-001, 8.9880292E-003, 9.8972566E-003, 1.5639573E-004, 1.0299809E-004, 3.1112248E-004, 1.2021130E+002
 3.0036924E+000, 2.1294370E-001, 1.5043956E-002, 1.2772421E-002, 2.9234774E-004, 1.6221706E-004, 5.4052570E-004, 1.8930431E+002
 4.0027226E+000, 2.0578589E-001, 2.0834723E-002, 1.5470902E-002, 3.6823887E-004, 1.8212102E-004, 7.4817578E-004, 2.4804538E+002
 5.0052922E+000, 1.9766529E-001, 2.7492472E-002, 1.8514344E-002, 3.9260871E-004, 1.6563213E-004, 9.7330721E-004, 3.0768461E+002
 6.0027514E+000, 1.8841730E-001, 3.5114368E-002, 2.1971820E-002, 3.9208396E-004, 1.3154888E-004, 1.2248906E-003, 3.6441488E+002
 7.0048231E+000, 1.7552036E-001, 4.5801959E-002, 2.6782387E-002, 3.5128876E-004, 5.2478568E-005, 1.5689977E-003, 4.2889587E+002
 8.0037123E+000, 1.6782331E-001, 5.2148491E-002, 2.9659485E-002, 3.4888883E-004, 2.2539860E-005, 1.7780591E-003, 4.5047224E+002
 9.0037465E+000, 1.5597066E-001, 6.1873813E-002, 3.4099196E-002, 3.7813074E-004, 8.2911910E-007, 2.1055450E-003, 4.9107455E+002
 1.0000199E+001, 1.4737924E-001, 6.8893116E-002, 3.7323237E-002, 4.2017974E-004, 1.7804987E-007, 2.3464418E-003, 4.9714319E+002
 1.1006068E+001, 1.3701459E-001, 7.7358974E-002, 4.1213172E-002, 4.7246541E-004, 2.5766612E-007, 2.6373232E-003, 5.1617987E+002
 1.2002859E+001, 1.3115337E-001, 8.2147007E-002, 4.3412798E-002, 5.0160799E-004, 1.5879225E-007, 2.8017441E-003, 5.1859028E+002
 1.3000383E+001, 1.2209828E-001, 8.9543235E-002, 4.6811230E-002, 5.4726229E-004, 3.3395721E-007, 3.0558682E-003, 5.3175688E+002
 1.4001581E+001, 1.1534814E-001, 9.5057333E-002, 4.9344493E-002, 5.8091059E-004, 1.2704154E-007, 3.2452408E-003, 5.3664148E+002
 1.5007251E+001, 1.0899991E-001, 1.0024148E-001, 5.1727231E-002, 6.1367640E-004, 8.5688611E-007, 3.4235266E-003, 5.3743638E+002
 1.6008692E+001, 1.0753764E-001, 1.0143729E-001, 5.2275762E-002, 6.2007270E-004, 9.5733466E-008, 3.4643999E-003, 5.3023930E+002
 1.7005483E+001, 1.0248858E-001, 1.0556144E-001, 5.4170691E-002, 6.4548502E-004, 1.4033126E-007, 3.6060903E-003, 5.3551410E+002
 1.8003900E+001, 9.4662450E-002, 1.1194871E-001, 5.7108848E-002, 6.8845565E-004, 3.1752199E-006, 3.8263149E-003, 5.4641185E+002
 1.9002933E+001, 9.2171033E-002, 1.1397475E-001, 5.8045790E-002, 7.0736359E-004, 6.7401207E-006, 3.8973120E-003, 5.4141681E+002
 2.0001892E+001, 8.9315394E-002, 1.1618399E-001, 5.9138913E-002, 8.0425858E-004, 8.8083336E-005, 3.9912355E-003, 5.4182237E+002
 2.1004968E+001, 8.6770404E-002, 1.1833371E-001, 6.0083821E-002, 7.7170075E-004, 2.6877763E-005, 4.0551796E-003, 5.4064260E+002
 2.2006480E+001, 8.2243158E-002, 1.2149192E-001, 6.1880116E-002, 1.1593668E-003, 3.5805705E-004, 4.2433630E-003, 5.4081601E+002
 2.3003342E+001, 8.2189516E-002, 1.2186860E-001, 6.1842692E-002, 9.3703695E-004, 1.3714153E-004, 4.2076900E-003, 5.3863280E+002
 2.4004912E+001, 7.9397669E-002, 1.2370603E-001, 6.2966866E-002, 1.2471150E-003, 4.3266729E-004, 4.3354682E-003, 5.3476546E+002
 2.5006512E+001, 7.7187455E-002, 1.2472700E-001, 6.3930041E-002, 1.7807863E-003, 9.6686711E-004, 4.4846702E-003, 5.2672643E+002
 2.6002810E+001, 7.6708136E-002, 1.2518622E-001, 6.4093214E-002, 1.7328189E-003, 9.5688271E-004, 4.4894555E-003, 5.2152931E+002
 2.7006689E+001, 7.4367539E-002, 1.2658534E-001, 6.5065614E-002, 2.0928822E-003, 1.2601369E-003, 4.6135753E-003, 5.1860854E+002
 2.8005996E+001, 7.1630676E-002, 1.2811017E-001, 6.6197876E-002, 2.5638004E-003, 1.8558135E-003, 4.7658391E-003, 5.2232050E+002
 2.9003031E+001, 7.1819790E-002, 1.2810945E-001, 6.6118582E-002, 2.4786441E-003, 1.6263779E-003, 4.7473845E-003, 5.1869765E+002
 3.0007025E+001, 7.0786299E-002, 1.2845211E-001, 6.6589785E-002, 2.8157707E-003, 1.9828299E-003, 4.8316551E-003, 5.1139343E+002
 3.1007635E+001, 6.9179745E-002, 1.2875826E-001, 6.7335418E-002, 3.4648069E-003, 2.8687391E-003, 4.9822212E-003, 5.0908246E+002
 3.2001857E+001, 6.8426541E-002, 1.2917836E-001, 6.7654623E-002, 3.6019245E-003, 2.9788149E-003, 5.0257660E-003, 5.0676311E+002
 3.3007247E+001, 6.8180943E-002, 1.2909285E-001, 6.7802178E-002, 3.8005184E-003, 3.1275023E-003, 5.0659170E-003, 5.0457665E+002
 3.4007311E+001, 6.7588774E-002, 1.2943263E-001, 6.8050500E-002, 3.9009540E-003, 3.2146811E-003, 5.0988717E-003, 5.0170042E+002
 3.5005329E+001, 6.7170047E-002, 1.2910160E-001, 6.8289870E-002, 4.3183532E-003, 3.8996136E-003, 5.1782705E-003, 4.9498769E+002
 3.6005204E+001, 6.6410428E-002, 1.2926763E-001, 6.8672936E-002, 4.6458422E-003, 4.0658870E-003, 5.2546190E-003, 4.9222048E+002
 3.7008534E+001, 6.6352504E-002, 1.2910727E-001, 6.8729115E-002, 4.7835152E-003, 4.2139638E-003, 5.2791161E-003, 4.9031385E+002
 3.8008252E+001, 6.5860318E-002, 1.2898770E-001, 6.8967339E-002, 5.0974220E-003, 4.8159993E-003, 5.3431028E-003, 4.8756726E+002
 3.9007850E+001, 6.5378676E-002, 1.2871230E-001, 6.9254017E-002, 5.5371918E-003, 5.3277328E-003, 5.4291760E-003, 4.8506353E+002
 4.0004807E+001, 6.5227922E-002, 1.2840651E-001, 6.9364600E-002, 5.8042467E-003, 5.7530224E-003, 5.4768718E-003, 4.8105067E+002
 4.1009361E+001, 6.5043604E-002, 1.2873910E-001, 6.9411454E-002, 5.6927718E-003, 5.5683663E-003, 5.4637301E-003, 4.8438030E+002
 4.2006432E+001, 6.4674300E-002, 1.2849470E-001, 6.9653418E-002, 6.0689084E-003, 5.8683848E-003, 5.5370539E-003, 4.7945270E+002
 4.3002223E+001, 6.4317482E-002, 1.2795338E-001, 6.9912241E-002, 6.6081600E-003, 6.5541937E-003, 5.6358751E-003, 4.7681338E+002
 4.4002186E+001, 6.4070620E-002, 1.2785723E-001, 7.0007671E-002, 6.7589166E-003, 7.0915776E-003, 5.6653311E-003, 4.7785543E+002
 4.5006633E+001, 6.3868589E-002, 1.2824217E-001, 7.0083200E-002, 6.6513085E-003, 6.6824425E-003, 5.6547509E-003, 4.7784326E+002
 4.6008566E+001, 6.3511365E-002, 1.2743143E-001, 7.0304439E-002, 7.2849832E-003, 8.1358334E-003, 5.7651210E-003, 4.7139084E+002
 4.7008418E+001, 6.3662946E-002, 1.2755813E-001, 7.0253597E-002, 7.1669901E-003, 7.6252649E-003, 5.7437637E-003, 4.7156209E+002
 4.8008066E+001, 6.3343723E-002, 1.2748959E-001, 7.0369563E-002, 7.3268727E-003, 8.2677014E-003, 5.7761085E-003, 4.6660057E+002
 4.9005221E+001, 6.3286380E-002, 1.2731061E-001, 7.0497766E-002, 7.5470908E-003, 7.9458201E-003, 5.8178427E-003, 4.7458478E+002
 5.0005286E+001, 6.2945402E-002, 1.2695848E-001, 7.0613455E-002, 7.8469196E-003, 9.2106017E-003, 5.8711161E-003, 4.6874210E+002
 5.1003353E+001, 6.3534562E-002, 1.2644374E-001, 7.0462304E-002, 7.9317434E-003, 8.7852584E-003, 5.8724639E-003, 4.6609929E+002
 5.2008712E+001, 6.3302707E-002, 1.2636504E-001, 7.0573686E-002, 8.0897846E-003, 9.1165504E-003, 5.9040684E-003, 4.6732545E+002
 5.3001259E+001, 6.3149737E-002, 1.2637788E-001, 7.0626931E-002, 8.1415273E-003, 9.3552034E-003, 5.9156934E-003, 4.6638724E+002
 5.4009720E+001, 6.3529727E-002, 1.2580896E-001, 7.0480682E-002, 8.2632525E-003, 9.8639591E-003, 5.9232548E-003, 4.6468015E+002
 5.5006293E+001, 6.3220185E-002, 1.2592406E-001, 7.0653156E-002, 8.3900196E-003, 9.7287896E-003, 5.9544832E-003, 4.6190700E+002
 5.6000768E+001, 6.3155462E-002, 1.2544015E-001, 7.0740037E-002, 8.7185128E-003, 1.0295849E-002, 6.0095936E-003, 4.6253285E+002
 5.7003482E+001, 6.3156597E-002, 1.2554129E-001, 7.0723158E-002, 8.6514668E-003, 1.0219754E-002, 5.9984248E-003, 4.6249091E+002
 5.8002198E+001, 6.3261424E-002, 1.2513105E-001, 7.0714832E-002, 8.8424338E-003, 1.0610357E-002, 6.0262066E-003, 4.6099299E+002
 5.9008407E+001, 6.3130316E-002, 1.2488462E-001, 7.0812359E-002, 9.0664553E-003, 1.0934298E-002, 6.0665491E-003, 4.5768133E+002
 6.0008153E+001, 6.3368805E-002, 1.2450443E-001, 7.0733529E-002, 9.1674483E-003, 1.1206451E-002, 6.0758522E-003, 4.5648782E+002
 6.1008951E+001, 6.3024548E-002, 1.2448206E-001, 7.0893949E-002, 9.3505107E-003, 1.1556279E-002, 6.1147316E-003, 4.6015883E+002
 6.2009750E+001, 6.2973825E-002, 1.2457549E-001, 7.0868209E-002, 9.2795318E-003, 1.1771369E-002, 6.1024626E-003, 4.5765568E+002
 6.3004173E+001, 6.2808005E-002, 1.2436545E-001, 7.0950953E-002, 9.4714317E-003, 1.2274245E-002, 6.1370599E-003, 4.5720157E+002
 6.4007109E+001, 6.2967915E-002, 1.2386214E-001, 7.0987345E-002, 9.7524323E-003, 1.2298657E-002, 6.1812425E-003, 4.5768914E+002
 6.5002320E+001, 6.2842559E-002, 1.2416843E-001, 7.1038504E-002, 9.6568239E-003, 1.1888753E-002, 6.1706612E-003, 4.5740975E+002
 6.6004932E+001, 6.3086108E-002, 1.2362700E-001, 7.0977583E-002, 9.8553545E-003, 1.2316482E-002, 6.1957483E-003, 4.5425968E+002
 6.7001900E+001, 6.2605758E-002, 1.2389296E-001, 7.1160285E-002, 9.9225023E-003, 1.2535903E-002, 6.2190647E-003, 4.5707869E+002
 6.8006237E+001, 6.2515526E-002, 1.2380347E-001, 7.1210677E-002, 1.0020176E-002, 1.2725748E-002, 6.2372480E-003, 4.6031109E+002
 6.9003985E+001, 6.2371338E-002, 1.2331912E-001, 7.1361978E-002, 1.0416506E-002, 1.3173664E-002, 6.3070203E-003, 4.5629548E+002
 7.0004841E+001, 6.2208729E-002, 1.2374621E-001, 7.1349125E-002, 1.0197102E-002, 1.3138786E-002, 6.2736485E-003, 4.5662768E+002
 7.1007184E+001, 6.2472817E-002, 1.2333588E-001, 7.1272833E-002, 1.0314885E-002, 1.3343487E-002, 6.2855883E-003, 4.5946912E+002
 7.2003678E+001, 6.2457440E-002, 1.2337164E-001, 7.1279155E-002, 1.0304098E-002, 1.3296263E-002, 6.2844341E-003, 4.5464773E+002
 7.3003635E+001, 6.2437581E-002, 1.2338078E-001, 7.1253162E-002, 1.0273605E-002, 1.3542787E-002, 6.2781427E-003, 4.5766941E+002
 7.4007629E+001, 6.2316515E-002, 1.2342847E-001, 7.1293702E-002, 1.0294445E-002, 1.3672668E-002, 6.2842294E-003, 4.5681699E+002
 7.5010161E+001, 6.2457733E-002, 1.2340979E-001, 7.1205375E-002, 1.0210123E-002, 1.3738325E-002, 6.2653682E-003, 4.5793644E+002
 7.6002092E+001, 6.2281749E-002, 1.2299379E-001, 7.1386728E-002, 1.0604198E-002, 1.3980637E-002, 6.3369058E-003, 4.5506533E+002
 7.7003740E+001, 6.2192071E-002, 1.2273001E-001, 7.1461796E-002, 1.0812851E-002, 1.4321944E-002, 6.3733502E-003, 4.5414167E+002
 7.8010233E+001, 6.2148040E-002, 1.2268490E-001, 7.1504681E-002, 1.0879867E-002, 1.4289680E-002, 6.3863606E-003, 4.5690958E+002
 7.9001981E+001, 6.2029324E-002, 1.2280872E-001, 7.1590572E-002, 1.0909358E-002, 1.3951163E-002, 6.3968243E-003, 4.5719044E+002
 8.0007409E+001, 6.2055373E-002, 1.2279892E-001, 7.1519100E-002, 1.0840707E-002, 1.4360006E-002, 6.3816540E-003, 4.5507546E+002
 8.1002271E+001, 6.2077297E-002, 1.2246655E-001, 7.1563067E-002, 1.1048672E-002, 1.4583913E-002, 6.4156819E-003, 4.5669017E+002
 8.2002921E+001, 6.1909852E-002, 1.2263367E-001, 7.1619489E-002, 1.1028024E-002, 1.4571956E-002, 6.4167327E-003, 4.6067593E+002
 8.3005649E+001, 6.1997728E-002, 1.2218079E-001, 7.1634873E-002, 1.1264574E-002, 1.4947161E-002, 6.4529695E-003, 4.5573306E+002
 8.4005656E+001, 6.1875235E-002, 1.2217491E-001, 7.1658127E-002, 1.1294218E-002, 1.5303677E-002, 6.4591968E-003, 4.5687835E+002
 8.5003062E+001, 6.2103167E-002, 1.2248662E-001, 7.1499947E-002, 1.0973826E-002, 1.4879412E-002, 6.4001553E-003, 4.5642957E+002
 8.6002140E+001, 6.2117948E-002, 1.2254446E-001, 7.1448050E-002, 1.0892085E-002, 1.5071961E-002, 6.3843822E-003, 4.5717864E+002
 8.7003475E+001, 6.1791988E-002, 1.2208706E-001, 7.1747664E-002, 1.1430800E-002, 1.5188477E-002, 6.4858471E-003, 4.5727659E+002
 8.8006915E+001, 6.2173930E-002, 1.2206514E-001, 7.1506686E-002, 1.1186526E-002, 1.5327131E-002, 6.4322697E-003, 4.5584125E+002
 8.9000946E+001, 6.1934146E-002, 1.2201928E-001, 7.1632120E-002, 1.1342905E-002, 1.5531876E-002, 6.4645968E-003, 4.5703599E+002
 9.0004698E+001, 6.1931579E-002, 1.2202022E-001, 7.1630887E-002, 1.1341249E-002, 1.5549345E-002, 6.4642699E-003, 4.5774543E+002
 9.1008206E+001, 6.1881753E-002, 1.2229740E-001, 7.1612055E-002, 1.1186779E-002, 1.5368988E-002, 6.4399954E-003, 4.5868295E+002
 9.2008270E+001, 6.1690931E-002, 1.2229921E-001, 7.1644630E-002, 1.1223839E-002, 1.5929328E-002, 6.4480851E-003, 4.5717787E+002
 9.3000953E+001, 6.1691274E-002, 1.2237055E-001, 7.1639014E-002, 1.1182970E-002, 1.5833697E-002, 6.4415958E-003, 4.5698441E+002
 9.4005112E+001, 6.1898361E-002, 1.2204647E-001, 7.1613627E-002, 1.1311562E-002, 1.5758339E-002, 6.4587172E-003, 4.5730222E+002
 9.5004312E+001, 6.1865743E-002, 1.2211405E-001, 7.1597760E-002, 1.1262922E-002, 1.5877858E-002, 6.4504264E-003, 4.5856716E+002
 9.6007850E+001, 6.1609544E-002, 1.2195459E-001, 7.1770382E-002, 1.1523743E-002, 1.6033897E-002, 6.5016004E-003, 4.5733691E+002
 9.7009836E+001, 6.1857993E-002, 1.2154044E-001, 7.1728620E-002, 1.1678986E-002, 1.6069728E-002, 6.5215161E-003, 4.5488515E+002
 9.8003774E+001, 6.1820119E-002, 1.2149335E-001, 7.1795570E-002, 1.1771343E-002, 1.5847789E-002, 6.5399409E-003, 4.5592723E+002
 9.9007991E+001, 6.1838228E-002, 1.2130019E-001, 7.1779959E-002, 1.1850126E-002, 1.6242763E-002, 6.5506169E-003, 4.5627570E+002
 1.0000286E+002, 6.1688548E-002, 1.2148814E-001, 7.1829977E-002, 1.1812248E-002, 1.6162886E-002, 6.5486262E-003, 4.5594608E+002
 1.0100089E+002, 6.1394690E-002, 1.2126154E-001, 7.2042428E-002, 1.2147663E-002, 1.6322751E-002, 6.6137238E-003, 4.5782553E+002
 1.0200598E+002, 6.1410614E-002, 1.2137117E-001, 7.2044334E-002, 1.2095211E-002, 1.6038488E-002, 6.6059887E-003, 4.5743107E+002
 1.0300954E+002, 6.1288955E-002, 1.2147765E-001, 7.2013883E-002, 1.2014771E-002, 1.6556050E-002, 6.5921096E-003, 4.5817439E+002
 1.0401022E+002, 6.1133547E-002, 1.2198541E-001, 7.2031287E-002, 1.1786284E-002, 1.6129459E-002, 6.5594287E-003, 4.5960745E+002
 1.0501051E+002, 6.0902658E-002, 1.2215518E-001, 7.2073764E-002, 1.1751705E-002, 1.6472777E-002, 6.5575595E-003, 4.5972152E+002
 1.0600146E+002, 6.1026947E-002, 1.2222589E-001, 7.1991557E-002, 1.1630015E-002, 1.6398797E-002, 6.5335615E-003, 4.5981608E+002
 1.0700545E+002, 6.1003406E-002, 1.2149085E-001, 7.2177611E-002, 1.2182221E-002, 1.6572963E-002, 6.6287788E-003, 4.5894623E+002
 1.0800780E+002, 6.1018315E-002, 1.2194253E-001, 7.2074500E-002, 1.1854313E-002, 1.6385859E-002, 6.5727377E-003, 4.5999681E+002
 1.0900837E+002, 6.0686520E-002, 1.2187799E-001, 7.2278857E-002, 1.2102604E-002, 1.6456412E-002, 6.6243334E-003, 4.5954953E+002
 1.1000527E+002, 6.0796502E-002, 1.2223496E-001, 7.2103422E-002, 1.1745280E-002, 1.6556766E-002, 6.5588052E-003, 4.5768769E+002
 1.1100225E+002, 6.0621924E-002, 1.2201595E-001, 7.2277583E-002, 1.2034967E-002, 1.6475108E-002, 6.6142541E-003, 4.5703214E+002
 1.1200937E+002, 6.0431068E-002, 1.2210041E-001, 7.2345057E-002, 1.2066876E-002, 1.6637643E-002, 6.6239510E-003, 4.5926482E+002
 1.1300015E+002, 6.0622147E-002, 1.2208353E-001, 7.2271721E-002, 1.1995699E-002, 1.6388711E-002, 6.6079874E-003, 4.5975331E+002
 1.1400639E+002, 6.0215171E-002, 1.2185734E-001, 7.2503274E-002, 1.2353200E-002, 1.6883441E-002, 6.6778839E-003, 4.6009939E+002
 1.1500546E+002, 6.0673199E-002, 1.2178570E-001, 7.2255846E-002, 1.2124945E-002, 1.6844671E-002, 6.6261275E-003, 4.5875716E+002
 1.1600782E+002, 6.0478374E-002, 1.2216432E-001, 7.2279928E-002, 1.1967854E-002, 1.6776328E-002, 6.6046378E-003, 4.6093246E+002
 1.1700485E+002, 6.0774689E-002, 1.2160980E-001, 7.2264293E-002, 1.2217663E-002, 1.6693986E-002, 6.6403780E-003, 4.5785553E+002
 1.1800814E+002, 6.0866134E-002, 1.2172512E-001, 7.2183333E-002, 1.2076086E-002, 1.6664020E-002, 6.6135512E-003, 4.5931416E+002
 1.1900164E+002, 6.0583798E-002, 1.2210667E-001, 7.2250288E-002, 1.1963418E-002, 1.6653879E-002, 6.6017719E-003, 4.5897907E+002
 1.2000231E+002, 6.0792168E-002, 1.2162864E-001, 7.2248056E-002, 1.2191400E-002, 1.6699550E-002, 6.6353176E-003, 4.5832337E+002
 1.2100874E+002, 6.0825148E-002, 1.2153345E-001, 7.2216924E-002, 1.2205741E-002, 1.6957964E-002, 6.6352824E-003, 4.6006418E+002
 1.2200553E+002, 6.0922762E-002, 1.2202849E-001, 7.2079132E-002, 1.1819074E-002, 1.6588875E-002, 6.5679555E-003, 4.6002780E+002
 1.2300460E+002, 6.1010741E-002, 1.2184483E-001, 7.2057647E-002, 1.1885449E-002, 1.6717451E-002, 6.5762554E-003, 4.6118944E+002
 1.2400017E+002, 6.0664710E-002, 1.2197723E-001, 7.2214710E-002, 1.1988903E-002, 1.6808674E-002, 6.6030149E-003, 4.6049284E+002
 1.2500122E+002, 6.0968407E-002, 1.2146583E-001, 7.2153227E-002, 1.2170573E-002, 1.6934885E-002, 6.6254391E-003, 4.6007868E+002
 1.2600271E+002, 6.0898609E-002, 1.2155843E-001, 7.2178223E-002, 1.2152176E-002, 1.6876722E-002, 6.6245149E-003, 4.5832179E+002
 1.2701024E+002, 6.0874518E-002, 1.2138193E-001, 7.2240033E-002, 1.2302691E-002, 1.6875452E-002, 6.6512550E-003, 4.5914742E+002
 1.2800652E+002, 6.0774740E-002, 1.2210641E-001, 7.2092516E-002, 1.1798027E-002, 1.6963380E-002, 6.5659816E-003, 4.6002052E+002
 1.2900737E+002, 6.1036614E-002, 1.2149568E-001, 7.2135845E-002, 1.2136458E-002, 1.6717601E-002, 6.6190388E-003, 4.5848971E+002
 1.3000883E+002, 6.0859752E-002, 1.2158630E-001, 7.2187939E-002, 1.2149313E-002, 1.6917889E-002, 6.6248169E-003, 4.6007266E+002
 1.3100146E+002, 6.1026781E-002, 1.2130878E-001, 7.2112499E-002, 1.2204974E-002, 1.7270642E-002, 6.6277030E-003, 4.5814789E+002
 1.3200717E+002, 6.1053564E-002, 1.2164409E-001, 7.2075854E-002, 1.2001811E-002, 1.6788298E-002, 6.5948059E-003, 4.5876873E+002
 1.3300181E+002, 6.0876535E-002, 1.2146367E-001, 7.2197862E-002, 1.2219411E-002, 1.7008403E-002, 6.6359367E-003, 4.5906113E+002
 1.3400360E+002, 6.0855016E-002, 1.2136918E-001, 7.2258784E-002, 1.2328559E-002, 1.6849333E-002, 6.6564312E-003, 4.5903184E+002
 1.3500008E+002, 6.0816128E-002, 1.2129377E-001, 7.2303929E-002, 1.2412673E-002, 1.6836635E-002, 6.6721412E-003, 4.5830113E+002
 1.3600436E+002, 6.0894543E-002, 1.2116910E-001, 7.2250511E-002, 1.2417697E-002, 1.7117298E-002, 6.6691166E-003, 4.5771630E+002
 1.3700671E+002, 6.0989061E-002, 1.2136467E-001, 7.2170841E-002, 1.2237831E-002, 1.6915556E-002, 6.6366515E-003, 4.5853639E+002
 1.3800466E+002, 6.0849991E-002, 1.2135214E-001, 7.2253372E-002, 1.2331566E-002, 1.6939772E-002, 6.6565206E-003, 4.5891770E+002
 1.3900677E+002, 6.0907438E-002, 1.2156668E-001, 7.2127690E-002, 1.2096401E-002, 1.7177156E-002, 6.6127248E-003, 4.5965990E+002
 1.4000353E+002, 6.0731994E-002, 1.2148390E-001, 7.2244251E-002, 1.2260317E-002, 1.7246126E-002, 6.6454608E-003, 4.6021780E+002
 1.4100238E+002, 6.0837140E-002, 1.2149029E-001, 7.2161524E-002, 1.2170253E-002, 1.7375362E-002, 6.6261863E-003, 4.6005682E+002
 1.4200123E+002, 6.1052824E-002, 1.2179248E-001, 7.2027631E-002, 1.1879600E-002, 1.6850261E-002, 6.5732636E-003, 4.5933201E+002
 1.4301053E+002, 6.1039836E-002, 1.2154034E-001, 7.2085281E-002, 1.2062857E-002, 1.6973419E-002, 6.6045928E-003, 4.5886811E+002
 1.4400381E+002, 6.0937363E-002, 1.2166601E-001, 7.2100615E-002, 1.2019142E-002, 1.7056248E-002, 6.5992851E-003, 4.5987533E+002
 1.4501003E+002, 6.1123753E-002, 1.2104866E-001, 7.2119704E-002, 1.2338017E-002, 1.7304781E-002, 6.6479018E-003, 4.5887040E+002
 1.4600962E+002, 6.1269016E-002, 1.2113460E-001, 7.2052044E-002, 1.2223123E-002, 1.7013932E-002, 6.6258733E-003, 4.5698541E+002
 1.4700268E+002, 6.0998735E-002, 1.2138273E-001, 7.2159308E-002, 1.2216945E-002, 1.6922139E-002, 6.6327287E-003, 4.5976446E+002
 1.4800171E+002, 6.0923293E-002, 1.2180559E-001, 7.2078819E-002, 1.1928532E-002, 1.7005613E-002, 6.5842874E-003, 4.5843865E+002
 1.4900492E+002, 6.0968465E-002, 1.2137886E-001, 7.2175016E-002, 1.2235611E-002, 1.6945283E-002, 6.6366402E-003, 4.5901582E+002
 1.5000426E+002, 6.1138904E-002, 1.2120545E-001, 7.2091953E-002, 1.2232134E-002, 1.7142395E-002, 6.6301654E-003, 4.5821064E+002
 1.5100529E+002, 6.0950234E-002, 1.2137677E-001, 7.2152469E-002, 1.2214121E-002, 1.7182011E-002, 6.6319259E-003, 4.5932272E+002
 1.5200345E+002, 6.1013944E-002, 1.2134333E-001, 7.2112567E-002, 1.2188343E-002, 1.7258760E-002, 6.6252453E-003, 4.5891115E+002
 1.5300823E+002, 6.0772272E-002, 1.2148866E-001, 7.2206705E-002, 1.2218712E-002, 1.7332154E-002, 6.6366172E-003, 4.6065778E+002
 1.5400162E+002, 6.0583763E-002, 1.2154451E-001, 7.2334495E-002, 1.2326116E-002, 1.7117769E-002, 6.6616974E-003, 4.5996865E+002
