s,,,,,,,
Time,"O2 EXHAUST","CO2 EXHAUST","H2O EXHAUST","CO EXHAUST","FUEL EXHAUST","SOOT EXHAUST","TEMP EXHAUST"
 0.0000000E+000, 2.3099739E-001, 5.9146498E-004, 5.9412091E-003, 0.0000000E+000, 0.0000000E+000, 0.0000000E+000, 2.0000000E+001
 1.0027611E+000, 2.3099739E-001, 5.9146498E-004, 5.9412091E-003, 2.8071072E-032, 6.1067257E-031, 6.8794941E-032, 2.0398031E+001
 2.0046295E+000, 2.2476811E-001, 6.3536282E-003, 7.5751420E-003, 1.8333085E-005, 2.9421314E-004, 3.8286614E-004, 8.0705224E+001
 3.0004812E+000, 2.2135314E-001, 9.5102106E-003, 8.4862026E-003, 5.7036471E-005, 3.1664332E-004, 5.9880226E-004, 1.0865460E+002
 4.0061777E+000, 2.1781926E-001, 1.2790292E-002, 9.4176701E-003, 6.9363096E-005, 4.2198628E-004, 8.1715361E-004, 1.4088984E+002
 5.0000020E+000, 2.1379749E-001, 1.6511989E-002, 1.0483153E-002, 9.9273331E-005, 5.1067760E-004, 1.0683479E-003, 1.7429173E+002
 6.0024879E+000, 2.0939651E-001, 2.0605813E-002, 1.1651566E-002, 1.2470595E-004, 5.4828424E-004, 1.3430402E-003, 2.0789377E+002
 7.0018887E+000, 2.0647679E-001, 2.3324673E-002, 1.2424424E-002, 1.3586564E-004, 5.8960802E-004, 1.5242337E-003, 2.2962276E+002
 8.0009431E+000, 2.0415298E-001, 2.5470644E-002, 1.3039419E-002, 1.5444517E-004, 6.5459544E-004, 1.6693641E-003, 2.4797984E+002
 9.0042191E+000, 1.9855144E-001, 3.0700283E-002, 1.4528514E-002, 1.7978573E-004, 6.5147890E-004, 2.0187196E-003, 2.8164309E+002
 1.0004241E+001, 1.9453295E-001, 3.4457802E-002, 1.5598879E-002, 1.9850784E-004, 6.1964913E-004, 2.2698432E-003, 3.0375023E+002
 1.1003591E+001, 1.8902771E-001, 3.9637306E-002, 1.7062443E-002, 2.0159061E-004, 5.4747071E-004, 2.6110822E-003, 3.2906642E+002
 1.2006744E+001, 1.8470233E-001, 4.3696272E-002, 1.8213596E-002, 2.1203910E-004, 4.9719802E-004, 2.8802360E-003, 3.4559278E+002
 1.3003965E+001, 1.7842607E-001, 4.9613623E-002, 1.9881467E-002, 2.0749029E-004, 3.9973533E-004, 3.2683389E-003, 3.6860971E+002
 1.4002113E+001, 1.7590093E-001, 5.1987747E-002, 2.0553167E-002, 2.1049385E-004, 3.6574333E-004, 3.4250965E-003, 3.7546191E+002
 1.5000988E+001, 1.7112898E-001, 5.6480664E-002, 2.1821182E-002, 2.1025400E-004, 3.0315792E-004, 3.7204707E-003, 3.8641046E+002
 1.6000019E+001, 1.6680112E-001, 6.0559289E-002, 2.2970838E-002, 2.0729212E-004, 2.4308167E-004, 3.9880145E-003, 3.9758805E+002
 1.7002302E+001, 1.6244642E-001, 6.4662147E-002, 2.4126718E-002, 2.0327572E-004, 1.9294351E-004, 4.2569238E-003, 4.0558860E+002
 1.8005240E+001, 1.5873010E-001, 6.8158529E-002, 2.5113446E-002, 2.0314451E-004, 1.5598834E-004, 4.4867960E-003, 4.0924089E+002
 1.9002998E+001, 1.5403322E-001, 7.2571779E-002, 2.6360635E-002, 2.0629848E-004, 1.1801264E-004, 4.7776673E-003, 4.1843655E+002
 2.0001833E+001, 1.5263623E-001, 7.3886942E-002, 2.6731197E-002, 2.0514357E-004, 1.0602032E-004, 4.8638945E-003, 4.1573353E+002
 2.1003116E+001, 1.4928897E-001, 7.7030160E-002, 2.7619724E-002, 2.0792796E-004, 8.4929345E-005, 5.0711763E-003, 4.2219841E+002
 2.2005314E+001, 1.4664858E-001, 7.9510420E-002, 2.8320363E-002, 2.0922423E-004, 6.9267245E-005, 5.2345440E-003, 4.2190718E+002
 2.3000824E+001, 1.4392740E-001, 8.2066095E-002, 2.9042262E-002, 2.1050328E-004, 5.5556818E-005, 5.4028669E-003, 4.2601146E+002
 2.4005351E+001, 1.4191670E-001, 8.3951318E-002, 2.9575830E-002, 2.1347770E-004, 4.9487160E-005, 5.5274719E-003, 4.2334761E+002
 2.5007388E+001, 1.3887530E-001, 8.6806148E-002, 3.0382599E-002, 2.1563969E-004, 3.7686284E-005, 5.7156566E-003, 4.2819447E+002
 2.6008842E+001, 1.3663402E-001, 8.8905487E-002, 3.0977392E-002, 2.2016561E-004, 3.4155535E-005, 5.8546766E-003, 4.2529464E+002
 2.7003783E+001, 1.3526637E-001, 9.0188636E-002, 3.1340260E-002, 2.2161806E-004, 2.9105796E-005, 5.9393632E-003, 4.2750451E+002
 2.8008814E+001, 1.3402505E-001, 9.1351420E-002, 3.1669537E-002, 2.2382116E-004, 2.8388521E-005, 6.0162981E-003, 4.2395737E+002
 2.9003021E+001, 1.3219379E-001, 9.3069370E-002, 3.2155201E-002, 2.2548137E-004, 2.3857097E-005, 6.1296198E-003, 4.2476418E+002
 3.0003996E+001, 1.2954212E-001, 9.5552006E-002, 3.2858875E-002, 2.3139335E-004, 2.1866684E-005, 6.2941432E-003, 4.2499091E+002
 3.1008638E+001, 1.2766165E-001, 9.7314101E-002, 3.3357718E-002, 2.3444207E-004, 1.9508330E-005, 6.4106682E-003, 4.2638980E+002
 3.2007118E+001, 1.2654521E-001, 9.8357756E-002, 3.3654149E-002, 2.3811220E-004, 1.9947540E-005, 6.4800874E-003, 4.2330527E+002
 3.3009507E+001, 1.2417618E-001, 1.0057752E-001, 3.4282657E-002, 2.4213456E-004, 1.6634921E-005, 6.6269171E-003, 4.2524483E+002
 3.4001015E+001, 1.2379858E-001, 1.0093209E-001, 3.4382588E-002, 2.4191506E-004, 1.7103637E-005, 6.6501841E-003, 4.2300264E+002
 3.5000784E+001, 1.2092805E-001, 1.0361968E-001, 3.5144325E-002, 2.4826306E-004, 1.5009538E-005, 6.8282783E-003, 4.2505881E+002
 3.6003373E+001, 1.2021701E-001, 1.0428569E-001, 3.5332897E-002, 2.4947441E-004, 1.5036440E-005, 6.8723336E-003, 4.2464113E+002
 3.7004164E+001, 1.1814168E-001, 1.0622904E-001, 3.5883525E-002, 2.5374881E-004, 1.3895164E-005, 7.0010417E-003, 4.2641306E+002
 3.8000019E+001, 1.1721612E-001, 1.0709535E-001, 3.6129126E-002, 2.5592168E-004, 1.3774691E-005, 7.0584759E-003, 4.2541578E+002
 3.9009165E+001, 1.1521796E-001, 1.0896524E-001, 3.6659396E-002, 2.6090229E-004, 1.3639840E-005, 7.1825071E-003, 4.2498424E+002
 4.0007819E+001, 1.1458845E-001, 1.0955623E-001, 3.6826163E-002, 2.6090780E-004, 1.3063688E-005, 7.2213683E-003, 4.2521379E+002
 4.1002521E+001, 1.1244601E-001, 1.1156177E-001, 3.7394730E-002, 2.6591485E-004, 1.1737387E-005, 7.3543246E-003, 4.2637111E+002
 4.2008094E+001, 1.1120739E-001, 1.1271789E-001, 3.7723818E-002, 2.7133897E-004, 1.3225247E-005, 7.4315184E-003, 4.2586695E+002
 4.3008415E+001, 1.0932243E-001, 1.1447730E-001, 3.8224840E-002, 2.7995955E-004, 1.3505330E-005, 7.5490732E-003, 4.2600629E+002
 4.4004624E+001, 1.0783239E-001, 1.1587298E-001, 3.8619981E-002, 2.8245289E-004, 1.3817556E-005, 7.6413848E-003, 4.2689251E+002
 4.5006193E+001, 1.0727596E-001, 1.1638798E-001, 3.8768569E-002, 2.8864104E-004, 1.5004603E-005, 7.6765876E-003, 4.2523853E+002
 4.6005926E+001, 1.0666177E-001, 1.1695813E-001, 3.8932201E-002, 2.9385901E-004, 1.6942537E-005, 7.7152069E-003, 4.2551086E+002
 4.7007701E+001, 1.0440170E-001, 1.1905654E-001, 3.9534541E-002, 3.1322708E-004, 2.1415582E-005, 7.8573779E-003, 4.2670080E+002
 4.8005004E+001, 1.0331907E-001, 1.2005894E-001, 3.9823275E-002, 3.2439725E-004, 2.6533373E-005, 7.9257077E-003, 4.2639225E+002
 4.9003022E+001, 1.0251765E-001, 1.2080499E-001, 4.0036648E-002, 3.2979999E-004, 2.6746951E-005, 7.9759329E-003, 4.2702787E+002
 5.0006154E+001, 1.0115235E-001, 1.2206611E-001, 4.0401431E-002, 3.4672314E-004, 3.2195455E-005, 8.0625201E-003, 4.2725750E+002
 5.1009920E+001, 1.0029379E-001, 1.2286986E-001, 4.0628992E-002, 3.4819100E-004, 3.4236766E-005, 8.1156878E-003, 4.2744739E+002
 5.2008655E+001, 9.8866660E-002, 1.2418650E-001, 4.1010687E-002, 3.6746175E-004, 3.8975049E-005, 8.2064336E-003, 4.2557791E+002
 5.3002595E+001, 9.8824297E-002, 1.2423623E-001, 4.1020233E-002, 3.5897169E-004, 3.7423509E-005, 8.2078659E-003, 4.2606179E+002
 5.4007320E+001, 9.6406958E-002, 1.2644684E-001, 4.1669680E-002, 4.0762700E-004, 5.2007625E-005, 8.3637538E-003, 4.2695096E+002
 5.5000602E+001, 9.6019027E-002, 1.2681461E-001, 4.1771575E-002, 4.0409664E-004, 5.3637241E-005, 8.3871721E-003, 4.2622136E+002
 5.6007003E+001, 9.4741316E-002, 1.2798491E-001, 4.2114739E-002, 4.2859469E-004, 5.9160867E-005, 8.4694265E-003, 4.2747296E+002
 5.7008655E+001, 9.3978742E-002, 1.2867570E-001, 4.2320370E-002, 4.4892133E-004, 6.8008973E-005, 8.5192486E-003, 4.2805852E+002
 5.8008059E+001, 9.3406714E-002, 1.2922400E-001, 4.2470052E-002, 4.3938427E-004, 6.5387612E-005, 8.5532375E-003, 4.2804147E+002
 5.9006157E+001, 9.1882650E-002, 1.3061529E-001, 4.2879573E-002, 4.7152103E-004, 7.8189736E-005, 8.6516762E-003, 4.2673628E+002
 6.0007925E+001, 9.1540028E-002, 1.3092776E-001, 4.2971576E-002, 4.7879914E-004, 8.2137648E-005, 8.6737983E-003, 4.2729877E+002
 6.1000684E+001, 9.0226205E-002, 1.3211724E-001, 4.3326545E-002, 5.1542678E-004, 9.2104388E-005, 8.7599389E-003, 4.2833114E+002
 6.2002878E+001, 8.9951057E-002, 1.3238086E-001, 4.3398505E-002, 5.1083053E-004, 9.1386877E-005, 8.7762787E-003, 4.2789526E+002
 6.3008218E+001, 8.9371644E-002, 1.3289954E-001, 4.3555653E-002, 5.3131704E-004, 1.0031655E-004, 8.8148179E-003, 4.2966044E+002
 6.4000283E+001, 8.9393140E-002, 1.3287666E-001, 4.3550055E-002, 5.3297653E-004, 1.0408323E-004, 8.8136729E-003, 4.2739292E+002
 6.5000638E+001, 8.7787136E-002, 1.3436093E-001, 4.3978698E-002, 5.5163323E-004, 1.1327259E-004, 8.9153080E-003, 4.2873255E+002
 6.6002147E+001, 8.7132805E-002, 1.3495708E-001, 4.4154522E-002, 5.6608062E-004, 1.2075067E-004, 8.9576350E-003, 4.3043493E+002
 6.7005170E+001, 8.6329332E-002, 1.3568219E-001, 4.4371986E-002, 5.9044217E-004, 1.2727172E-004, 9.0105868E-003, 4.2767271E+002
 6.8005069E+001, 8.5106462E-002, 1.3680140E-001, 4.4700198E-002, 6.1396620E-004, 1.3611771E-004, 9.0892710E-003, 4.2941712E+002
 6.9005272E+001, 8.5620292E-002, 1.3632210E-001, 4.4563386E-002, 6.1102382E-004, 1.3769732E-004, 9.0571184E-003, 4.2804656E+002
 7.0000377E+001, 8.3901021E-002, 1.3789181E-001, 4.5025583E-002, 6.4755608E-004, 1.4968703E-004, 9.1682401E-003, 4.3093523E+002
 7.1005152E+001, 8.3349599E-002, 1.3839011E-001, 4.5174527E-002, 6.6337237E-004, 1.5583159E-004, 9.2044288E-003, 4.2958798E+002
 7.2000759E+001, 8.3239432E-002, 1.3849644E-001, 4.5202365E-002, 6.5936006E-004, 1.6329471E-004, 9.2105526E-003, 4.3024274E+002
 7.3003486E+001, 8.2406764E-002, 1.3926950E-001, 4.5424598E-002, 6.6708601E-004, 1.6207846E-004, 9.2630566E-003, 4.2878922E+002
 7.4009327E+001, 8.1253862E-002, 1.4030097E-001, 4.5737908E-002, 7.0927507E-004, 1.7506975E-004, 9.3400112E-003, 4.3090676E+002
 7.5006756E+001, 8.1078712E-002, 1.4047674E-001, 4.5782002E-002, 6.9889551E-004, 1.7688195E-004, 9.3493229E-003, 4.2940662E+002
 7.6009430E+001, 8.0233303E-002, 1.4123237E-001, 4.6012065E-002, 7.3080413E-004, 1.8471393E-004, 9.4059148E-003, 4.3001375E+002
 7.7009997E+001, 8.0391866E-002, 1.4109459E-001, 4.5967477E-002, 7.2006988E-004, 1.8985272E-004, 9.3945325E-003, 4.3019950E+002
 7.8002096E+001, 7.9620480E-002, 1.4180179E-001, 4.6174549E-002, 7.3431254E-004, 1.9303483E-004, 9.4441161E-003, 4.3112803E+002
 7.9009247E+001, 7.9184262E-002, 1.4219915E-001, 4.6292090E-002, 7.4456342E-004, 1.9510659E-004, 9.4724633E-003, 4.3164087E+002
 8.0000234E+001, 7.8566634E-002, 1.4277155E-001, 4.6456406E-002, 7.4991976E-004, 2.0084687E-004, 9.5112602E-003, 4.3069092E+002
 8.1006213E+001, 7.8207704E-002, 1.4311276E-001, 4.6550588E-002, 7.4596605E-004, 2.0164466E-004, 9.5328404E-003, 4.3028263E+002
 8.2003892E+001, 7.7600901E-002, 1.4363697E-001, 4.6718705E-002, 7.8422055E-004, 2.1066707E-004, 9.5755892E-003, 4.3094012E+002
 8.3006377E+001, 7.6956470E-002, 1.4422169E-001, 4.6892256E-002, 8.0047387E-004, 2.1857165E-004, 9.6175553E-003, 4.3117352E+002
 8.4007442E+001, 7.6922761E-002, 1.4424887E-001, 4.6902144E-002, 8.0465369E-004, 2.1730529E-004, 9.6202467E-003, 4.3046021E+002
 8.5005747E+001, 7.6057533E-002, 1.4505480E-001, 4.7132170E-002, 8.0961897E-004, 2.1986413E-004, 9.6743149E-003, 4.3244495E+002
 8.6000809E+001, 7.5804384E-002, 1.4527645E-001, 4.7201673E-002, 8.2281673E-004, 2.2443272E-004, 9.6917458E-003, 4.3223159E+002
 8.7004904E+001, 7.4828571E-002, 1.4617029E-001, 4.7463324E-002, 8.4072442E-004, 2.3255380E-004, 9.7543958E-003, 4.3247664E+002
 8.8003442E+001, 7.4527895E-002, 1.4645418E-001, 4.7542313E-002, 8.3865015E-004, 2.3570321E-004, 9.7726138E-003, 4.3181593E+002
 8.9008318E+001, 7.4614978E-002, 1.4634831E-001, 4.7523543E-002, 8.5963925E-004, 2.3719230E-004, 9.7701954E-003, 4.3090037E+002
 9.0004003E+001, 7.4481854E-002, 1.4646537E-001, 4.7559320E-002, 8.6492150E-004, 2.4594614E-004, 9.7790361E-003, 4.3093428E+002
 9.1005719E+001, 7.3485058E-002, 1.4740337E-001, 4.7823172E-002, 8.6333573E-004, 2.4325173E-004, 9.8403699E-003, 4.3144297E+002
 9.2001976E+001, 7.3580840E-002, 1.4731314E-001, 4.7796950E-002, 8.6198661E-004, 2.5176841E-004, 9.8341457E-003, 4.2985817E+002
 9.3001329E+001, 7.2924649E-002, 1.4789355E-001, 4.7976838E-002, 8.9247142E-004, 2.5605538E-004, 9.8789079E-003, 4.3176072E+002
 9.4007339E+001, 7.3383526E-002, 1.4750403E-001, 4.7848222E-002, 8.5708553E-004, 2.5118900E-004, 9.8456365E-003, 4.3188704E+002
 9.5003271E+001, 7.1810571E-002, 1.4893592E-001, 4.8272469E-002, 8.9531280E-004, 2.5651744E-004, 9.9480632E-003, 4.3370988E+002
 9.6002097E+001, 7.2149139E-002, 1.4864185E-001, 4.8178258E-002, 8.7410917E-004, 2.5802840E-004, 9.9241380E-003, 4.3054090E+002
 9.7007014E+001, 7.1423141E-002, 1.4932763E-001, 4.8370010E-002, 8.7076875E-004, 2.5550556E-004, 9.9685074E-003, 4.3167294E+002
 9.8003216E+001, 7.1655882E-002, 1.4910183E-001, 4.8309389E-002, 8.7664162E-004, 2.5861378E-004, 9.9549318E-003, 4.3184291E+002
 9.9000347E+001, 7.1684121E-002, 1.4907941E-001, 4.8301218E-002, 8.7315187E-004, 2.5803780E-004, 9.9527021E-003, 4.3264751E+002
 1.0000707E+002, 7.1134420E-002, 1.4956761E-001, 4.8450818E-002, 8.9564017E-004, 2.6843059E-004, 9.9896706E-003, 4.3053110E+002
 1.0100133E+002, 7.0426085E-002, 1.5023087E-001, 4.8639482E-002, 8.9841342E-004, 2.6129146E-004, 1.0033883E-002, 4.3109494E+002
 1.0200479E+002, 7.0683042E-002, 1.4998715E-001, 4.8571077E-002, 8.9918562E-004, 2.6890948E-004, 1.0018025E-002, 4.2977194E+002
 1.0301053E+002, 7.0458237E-002, 1.5021487E-001, 4.8628421E-002, 8.8603961E-004, 2.6061991E-004, 1.0030153E-002, 4.3096375E+002
 1.0400679E+002, 7.0666887E-002, 1.5001086E-001, 4.8573712E-002, 8.9153322E-004, 2.6953338E-004, 1.0017928E-002, 4.3284640E+002
 1.0500192E+002, 6.9513620E-002, 1.5106567E-001, 4.8883741E-002, 9.1499501E-004, 2.7442958E-004, 1.0092363E-002, 4.3267074E+002
 1.0600480E+002, 6.9312263E-002, 1.5126257E-001, 4.8935480E-002, 9.0779148E-004, 2.7565389E-004, 1.0103752E-002, 4.3214268E+002
 1.0700443E+002, 6.9040251E-002, 1.5153227E-001, 4.9005243E-002, 8.9577525E-004, 2.7214012E-004, 1.0118885E-002, 4.3330188E+002
 1.0800081E+002, 6.9442147E-002, 1.5113995E-001, 4.8901165E-002, 9.0833389E-004, 2.7607954E-004, 1.0095806E-002, 4.3175291E+002
 1.0900635E+002, 6.9077945E-002, 1.5149100E-001, 4.8995859E-002, 9.0009846E-004, 2.7670076E-004, 1.0117107E-002, 4.3114326E+002
 1.1000857E+002, 6.8099563E-002, 1.5237470E-001, 4.9260436E-002, 9.2894800E-004, 2.8547896E-004, 1.0181458E-002, 4.3164401E+002
 1.1100274E+002, 6.8227642E-002, 1.5227002E-001, 4.9224205E-002, 9.1624516E-004, 2.8025896E-004, 1.0171826E-002, 4.3256106E+002
 1.1200406E+002, 6.8271486E-002, 1.5223239E-001, 4.9212103E-002, 9.1342670E-004, 2.7877074E-004, 1.0168741E-002, 4.3413943E+002
 1.1300914E+002, 6.7571016E-002, 1.5287089E-001, 4.9400535E-002, 9.2909857E-004, 2.8428762E-004, 1.0214117E-002, 4.3340766E+002
 1.1400236E+002, 6.7141238E-002, 1.5325259E-001, 4.9517707E-002, 9.4704992E-004, 2.9045661E-004, 1.0243101E-002, 4.3479343E+002
 1.1500669E+002, 6.6962094E-002, 1.5342258E-001, 4.9564781E-002, 9.4536899E-004, 2.9076164E-004, 1.0253915E-002, 4.3483855E+002
 1.1600263E+002, 6.7307160E-002, 1.5309911E-001, 4.9473237E-002, 9.4486250E-004, 2.9145759E-004, 1.0232536E-002, 4.3277133E+002
 1.1700225E+002, 6.7283960E-002, 1.5312087E-001, 4.9478995E-002, 9.4418655E-004, 2.9510314E-004, 1.0233820E-002, 4.3248288E+002
 1.1800608E+002, 6.5821218E-002, 1.5447728E-001, 4.9869233E-002, 9.5836439E-004, 2.9721681E-004, 1.0326079E-002, 4.3432133E+002
 1.1901092E+002, 6.6336629E-002, 1.5397601E-001, 4.9735373E-002, 9.7275168E-004, 3.0264357E-004, 1.0296232E-002, 4.3382870E+002
 1.2000876E+002, 6.6813410E-002, 1.5357770E-001, 4.9601454E-002, 9.3193975E-004, 2.8919598E-004, 1.0261209E-002, 4.3441832E+002
 1.2100701E+002, 6.5843806E-002, 1.5447553E-001, 4.9859629E-002, 9.4115733E-004, 2.9749265E-004, 1.0322240E-002, 4.3354307E+002
 1.2200268E+002, 6.5123737E-002, 1.5511646E-001, 5.0056979E-002, 9.7230513E-004, 2.9575968E-004, 1.0371125E-002, 4.3490971E+002
 1.2300134E+002, 6.5134208E-002, 1.5512242E-001, 5.0051064E-002, 9.5797415E-004, 2.9786747E-004, 1.0368415E-002, 4.3524355E+002
 1.2400171E+002, 6.5534879E-002, 1.5474149E-001, 4.9945360E-002, 9.6139282E-004, 3.0235149E-004, 1.0344108E-002, 4.3474250E+002
 1.2500975E+002, 6.5513125E-002, 1.5475282E-001, 4.9952853E-002, 9.6950325E-004, 3.0185310E-004, 1.0346608E-002, 4.3520252E+002
 1.2600486E+002, 6.5447621E-002, 1.5483293E-001, 4.9967369E-002, 9.5416296E-004, 2.9620359E-004, 1.0348555E-002, 4.3227640E+002
 1.2701094E+002, 6.4783167E-002, 1.5544256E-001, 5.0145103E-002, 9.6504144E-004, 3.0404629E-004, 1.0390995E-002, 4.3294166E+002
 1.2800116E+002, 6.4926653E-002, 1.5528691E-001, 5.0110592E-002, 9.8285529E-004, 3.0758129E-004, 1.0384616E-002, 4.3474129E+002
 1.2900169E+002, 6.4896083E-002, 1.5531269E-001, 5.0118898E-002, 9.8483737E-004, 3.1065387E-004, 1.0386740E-002, 4.3369404E+002
 1.3000256E+002, 6.4660250E-002, 1.5556487E-001, 5.0176848E-002, 9.5976735E-004, 2.9965859E-004, 1.0397896E-002, 4.3360448E+002
 1.3100810E+002, 6.4329763E-002, 1.5584611E-001, 5.0269135E-002, 9.8424666E-004, 3.0515024E-004, 1.0421687E-002, 4.3356722E+002
 1.3200746E+002, 6.4900669E-002, 1.5531220E-001, 5.0117223E-002, 9.8190878E-004, 3.0837692E-004, 1.0386074E-002, 4.3418803E+002
 1.3300431E+002, 6.4364085E-002, 1.5581207E-001, 5.0259748E-002, 9.8472563E-004, 3.1105240E-004, 1.0419553E-002, 4.3393594E+002
 1.3400249E+002, 6.4029909E-002, 1.5612615E-001, 5.0348288E-002, 9.8455112E-004, 3.1003549E-004, 1.0440167E-002, 4.3365700E+002
 1.3500498E+002, 6.4028260E-002, 1.5614064E-001, 5.0346732E-002, 9.7385149E-004, 3.0634328E-004, 1.0438804E-002, 4.3470876E+002
 1.3600816E+002, 6.4135892E-002, 1.5602478E-001, 5.0320493E-002, 9.8608818E-004, 3.1073373E-004, 1.0433834E-002, 4.3459095E+002
 1.3700347E+002, 6.3915148E-002, 1.5622179E-001, 5.0381054E-002, 9.9545734E-004, 3.0871832E-004, 1.0448816E-002, 4.3532719E+002
 1.3800167E+002, 6.3843751E-002, 1.5629835E-001, 5.0397231E-002, 9.8530326E-004, 3.1775771E-004, 1.0451653E-002, 4.3421874E+002
 1.3900193E+002, 6.3551542E-002, 1.5655780E-001, 5.0477478E-002, 9.9858473E-004, 3.1664980E-004, 1.0471588E-002, 4.3351825E+002
 1.4000523E+002, 6.3904020E-002, 1.5623675E-001, 5.0381953E-002, 9.8930296E-004, 3.2003361E-004, 1.0448468E-002, 4.3551588E+002
 1.4100942E+002, 6.2607816E-002, 1.5746056E-001, 5.0725010E-002, 9.8490423E-004, 3.0999047E-004, 1.0527987E-002, 4.3459157E+002
 1.4200960E+002, 6.2405558E-002, 1.5760989E-001, 5.0785201E-002, 1.0190981E-003, 3.1797546E-004, 1.0545207E-002, 4.3536964E+002
 1.4300828E+002, 6.3216588E-002, 1.5686219E-001, 5.0567473E-002, 1.0063958E-003, 3.2192421E-004, 1.0493293E-002, 4.3585251E+002
 1.4400434E+002, 6.3164094E-002, 1.5691509E-001, 5.0580821E-002, 1.0034047E-003, 3.2087246E-004, 1.0496124E-002, 4.3380429E+002
 1.4501078E+002, 6.2686832E-002, 1.5736255E-001, 5.0707406E-002, 1.0040036E-003, 3.2004503E-004, 1.0525676E-002, 4.3303427E+002
 1.4600115E+002, 6.2854443E-002, 1.5720987E-001, 5.0662297E-002, 1.0001624E-003, 3.1873174E-004, 1.0514805E-002, 4.3586093E+002
 1.4700696E+002, 6.3251501E-002, 1.5683468E-001, 5.0557441E-002, 1.0020895E-003, 3.2019516E-004, 1.0490552E-002, 4.3445212E+002
 1.4800687E+002, 6.2746477E-002, 1.5728628E-001, 5.0694405E-002, 1.0201980E-003, 3.2888766E-004, 1.0524166E-002, 4.3422296E+002
 1.4900727E+002, 6.2502458E-002, 1.5749698E-001, 5.0762512E-002, 1.0365373E-003, 3.2803832E-004, 1.0541557E-002, 4.3483271E+002
 1.5000621E+002, 6.2833722E-002, 1.5721614E-001, 5.0669135E-002, 1.0098477E-003, 3.2883717E-004, 1.0517314E-002, 4.3394378E+002
 1.5100308E+002, 6.2219350E-002, 1.5776573E-001, 5.0836767E-002, 1.0335711E-003, 3.2961227E-004, 1.0558586E-002, 4.3537168E+002
 1.5200739E+002, 6.3003531E-002, 1.5706254E-001, 5.0623808E-002, 1.0060224E-003, 3.2215870E-004, 1.0506386E-002, 4.3461458E+002
 1.5300563E+002, 6.2440639E-002, 1.5756201E-001, 5.0777744E-002, 1.0306301E-003, 3.2661647E-004, 1.0544554E-002, 4.3533477E+002
 1.5400335E+002, 6.2063624E-002, 1.5792434E-001, 5.0876147E-002, 1.0233714E-003, 3.2558580E-004, 1.0566808E-002, 4.3538680E+002
