s,,,,,,,
Time,"O2 EXHAUST","CO2 EXHAUST","H2O EXHAUST","CO EXHAUST","FUEL EXHAUST","SOOT EXHAUST","TEMP EXHAUST"
 0.0000000E+000, 2.3099739E-001, 5.9146498E-004, 5.9412091E-003, 0.0000000E+000, 0.0000000E+000, 0.0000000E+000, 2.0000000E+001
 1.0015183E+000, 2.3099739E-001, 5.9146498E-004, 5.9412091E-003, 5.8498419E-030, 7.4102338E-029, 1.7245868E-030, 2.0414509E+001
 2.0040074E+000, 2.2277269E-001, 8.0934367E-003, 9.0970989E-003, 4.5234354E-005, 3.1316078E-004, 5.4963251E-005, 9.9398745E+001
 3.0036496E+000, 2.1622689E-001, 1.4100483E-002, 1.1628426E-002, 8.4874054E-005, 3.7120845E-004, 9.9713054E-005, 1.5703026E+002
 4.0054076E+000, 2.1140014E-001, 1.8530663E-002, 1.3494254E-002, 1.1304323E-004, 4.1701392E-004, 1.3248549E-004, 1.9816192E+002
 5.0007387E+000, 2.0728132E-001, 2.2309844E-002, 1.5080114E-002, 1.3116505E-004, 4.9679400E-004, 1.5916396E-004, 2.3295963E+002
 6.0030862E+000, 2.0000789E-001, 2.9035422E-002, 1.7884177E-002, 1.4331629E-004, 5.1302486E-004, 2.0229274E-004, 2.8773153E+002
 7.0047587E+000, 1.9373466E-001, 3.4868818E-002, 2.0305204E-002, 1.4161229E-004, 4.4677467E-004, 2.3705090E-004, 3.2814621E+002
 8.0058800E+000, 1.8579119E-001, 4.2276416E-002, 2.3369683E-002, 1.2873177E-004, 3.2801506E-004, 2.7887001E-004, 3.6833393E+002
 9.0032515E+000, 1.7791756E-001, 4.9624657E-002, 2.6406197E-002, 1.1229920E-004, 2.0511610E-004, 3.1956312E-004, 4.0425531E+002
 1.0004874E+001, 1.6978097E-001, 5.7209398E-002, 2.9543680E-002, 9.8903821E-005, 9.8412494E-005, 3.6233759E-004, 4.3481417E+002
 1.1007097E+001, 1.6191796E-001, 6.4524048E-002, 3.2575489E-002, 9.2602363E-005, 2.6245123E-005, 4.0502068E-004, 4.5659356E+002
 1.2005795E+001, 1.5483469E-001, 7.1091868E-002, 3.5306496E-002, 9.6503250E-005, 4.7260379E-006, 4.4541421E-004, 4.7358083E+002
 1.3007191E+001, 1.4796004E-001, 7.7457709E-002, 3.7957095E-002, 1.0418705E-004, 5.2781374E-007, 4.8541007E-004, 4.8390954E+002
 1.4007326E+001, 1.3868103E-001, 8.6047345E-002, 4.1534710E-002, 1.1573111E-004, 1.6489803E-007, 5.3963225E-004, 4.9828289E+002
 1.5008002E+001, 1.3501720E-001, 8.9438973E-002, 4.2947329E-002, 1.2028262E-004, 9.2782085E-008, 5.6104050E-004, 4.9982690E+002
 1.6005833E+001, 1.2682435E-001, 9.7022765E-002, 4.6106180E-002, 1.3066289E-004, 4.1708496E-007, 6.0895396E-004, 5.0821759E+002
 1.7009326E+001, 1.2174197E-001, 1.0172766E-001, 4.8065720E-002, 1.3691376E-004, 1.3657521E-007, 6.3863804E-004, 5.1017772E+002
 1.8003479E+001, 1.1601032E-001, 1.0703218E-001, 5.0275740E-002, 1.4476342E-004, 1.7329685E-006, 6.7227882E-004, 5.1331017E+002
 1.9000281E+001, 1.0930455E-001, 1.1324064E-001, 5.2861102E-002, 1.5258736E-004, 4.2353544E-007, 7.1135728E-004, 5.2061624E+002
 2.0001457E+001, 1.0731142E-001, 1.1508565E-001, 5.3629576E-002, 1.5508609E-004, 3.9164053E-007, 7.2300810E-004, 5.1440171E+002
 2.1010629E+001, 1.0332961E-001, 1.1877154E-001, 5.5164807E-002, 1.6008920E-004, 4.1172101E-007, 7.4628601E-004, 5.1101767E+002
 2.2005232E+001, 9.8035130E-002, 1.2365937E-001, 5.7207214E-002, 1.7380248E-004, 2.0105297E-005, 7.7868635E-004, 5.1558206E+002
 2.3003797E+001, 9.4356457E-002, 1.2688043E-001, 5.8640162E-002, 2.7690452E-004, 2.9673115E-004, 8.2039186E-004, 5.1350823E+002
 2.4000937E+001, 9.1108111E-002, 1.2994723E-001, 5.9886343E-002, 2.4743157E-004, 2.1600107E-004, 8.3248192E-004, 5.1270222E+002
 2.5006704E+001, 8.9021579E-002, 1.3168877E-001, 6.0704142E-002, 3.4980592E-004, 5.1170434E-004, 8.6512075E-004, 5.0618822E+002
 2.6001000E+001, 8.6292260E-002, 1.3389224E-001, 6.1763884E-002, 5.0727157E-004, 1.1067593E-003, 9.1246235E-004, 5.0157964E+002
 2.7004376E+001, 8.4419901E-002, 1.3543659E-001, 6.2499407E-002, 6.0919994E-004, 1.3985069E-003, 9.4381730E-004, 5.0141250E+002
 2.8008378E+001, 8.2208649E-002, 1.3719939E-001, 6.3381295E-002, 7.7084979E-004, 1.7839611E-003, 9.8940988E-004, 4.9777453E+002
 2.9006131E+001, 8.1249190E-002, 1.3796587E-001, 6.3749273E-002, 8.2520508E-004, 2.0368516E-003, 1.0057872E-003, 4.9166017E+002
 3.0004364E+001, 7.9947817E-002, 1.3890330E-001, 6.4247536E-002, 9.4438481E-004, 2.5874632E-003, 1.0372210E-003, 4.8555499E+002
 3.1006199E+001, 7.8488368E-002, 1.3989123E-001, 6.4821101E-002, 1.1219310E-003, 3.2410467E-003, 1.0815880E-003, 4.8500160E+002
 3.2001341E+001, 7.7796526E-002, 1.4022052E-001, 6.5082904E-002, 1.2587637E-003, 3.8874321E-003, 1.1131796E-003, 4.7635782E+002
 3.3009007E+001, 7.6427240E-002, 1.4118072E-001, 6.5620689E-002, 1.4098893E-003, 4.4367512E-003, 1.1516627E-003, 4.7218922E+002
 3.4006792E+001, 7.6171300E-002, 1.4126165E-001, 6.5707173E-002, 1.4684023E-003, 4.8196382E-003, 1.1648119E-003, 4.6474643E+002
 3.5003712E+001, 7.5425022E-002, 1.4179533E-001, 6.5979313E-002, 1.5245673E-003, 5.2253921E-003, 1.1801794E-003, 4.6308376E+002
 3.6003937E+001, 7.5099462E-002, 1.4174235E-001, 6.6098603E-002, 1.6792022E-003, 5.9651919E-003, 1.2133213E-003, 4.5683371E+002
 3.7003826E+001, 7.4287270E-002, 1.4208675E-001, 6.6396424E-002, 1.8491808E-003, 6.8652292E-003, 1.2521767E-003, 4.5211882E+002
 3.8007180E+001, 7.3621703E-002, 1.4252173E-001, 6.6641200E-002, 1.9199683E-003, 7.2957720E-003, 1.2701138E-003, 4.5130330E+002
 3.9000708E+001, 7.3862972E-002, 1.4209736E-001, 6.6546020E-002, 2.0085816E-003, 7.7071300E-003, 1.2867330E-003, 4.4368167E+002
 4.0007785E+001, 7.3134922E-002, 1.4247446E-001, 6.6798938E-002, 2.1155385E-003, 8.4635174E-003, 1.3121488E-003, 4.4027910E+002
 4.1004276E+001, 7.2938687E-002, 1.4252096E-001, 6.6836463E-002, 2.1379139E-003, 8.9621490E-003, 1.3172720E-003, 4.3689702E+002
 4.2001754E+001, 7.2709229E-002, 1.4243982E-001, 6.6869066E-002, 2.2139392E-003, 9.8819725E-003, 1.3332362E-003, 4.3172099E+002
 4.3003651E+001, 7.2421853E-002, 1.4237252E-001, 6.6977473E-002, 2.3629366E-003, 1.0556877E-002, 1.3650719E-003, 4.2961097E+002
 4.4006540E+001, 7.2425476E-002, 1.4235988E-001, 6.6937742E-002, 2.3278047E-003, 1.0807345E-002, 1.3573952E-003, 4.2521939E+002
 4.5000555E+001, 7.1958450E-002, 1.4226736E-001, 6.7040025E-002, 2.4864841E-003, 1.2318126E-002, 1.3911768E-003, 4.2232944E+002
 4.6002662E+001, 7.2008389E-002, 1.4214711E-001, 6.6974189E-002, 2.4721780E-003, 1.2746796E-002, 1.3873588E-003, 4.2089160E+002
 4.7007898E+001, 7.1575115E-002, 1.4235379E-001, 6.7133204E-002, 2.5525898E-003, 1.3180611E-002, 1.4060036E-003, 4.1638625E+002
 4.8001220E+001, 7.1558381E-002, 1.4215192E-001, 6.7096922E-002, 2.6072870E-003, 1.3869964E-002, 1.4166254E-003, 4.2139097E+002
 4.9010477E+001, 7.1465327E-002, 1.4196730E-001, 6.7096547E-002, 2.6929376E-003, 1.4625895E-002, 1.4340485E-003, 4.1057869E+002
 5.0009420E+001, 7.1213020E-002, 1.4192271E-001, 6.7125727E-002, 2.7494576E-003, 1.5589260E-002, 1.4460127E-003, 4.1084541E+002
 5.1010243E+001, 7.1231794E-002, 1.4169312E-001, 6.7068986E-002, 2.7948351E-003, 1.6309423E-002, 1.4544510E-003, 4.0637984E+002
 5.2000849E+001, 7.1452275E-002, 1.4141109E-001, 6.6963584E-002, 2.8089585E-003, 1.6587293E-002, 1.4558096E-003, 4.0618980E+002
 5.3005042E+001, 7.1129911E-002, 1.4131386E-001, 6.6994507E-002, 2.8928962E-003, 1.7936414E-002, 1.4733905E-003, 4.0509402E+002
 5.4004916E+001, 7.1388779E-002, 1.4103282E-001, 6.6874007E-002, 2.8901106E-003, 1.8143717E-002, 1.4710962E-003, 3.9764521E+002
 5.5008042E+001, 7.1578348E-002, 1.4074559E-001, 6.6749176E-002, 2.8874368E-003, 1.8678378E-002, 1.4687899E-003, 3.9681421E+002
 5.6004206E+001, 7.1648938E-002, 1.4052234E-001, 6.6671399E-002, 2.9070462E-003, 1.9297332E-002, 1.4716906E-003, 3.9364309E+002
 5.7011820E+001, 7.2181022E-002, 1.3982117E-001, 6.6361632E-002, 2.8936010E-003, 2.0344045E-002, 1.4645630E-003, 3.8705772E+002
 5.8002970E+001, 7.2341624E-002, 1.3945510E-001, 6.6218612E-002, 2.9087309E-003, 2.1265764E-002, 1.4656355E-003, 3.8827006E+002
 5.9001205E+001, 7.2460017E-002, 1.3915725E-001, 6.6103935E-002, 2.9230844E-003, 2.2056663E-002, 1.4669504E-003, 3.8496132E+002
 6.0003851E+001, 7.2885998E-002, 1.3859885E-001, 6.5848606E-002, 2.9034556E-003, 2.2933186E-002, 1.4593440E-003, 3.8270659E+002
 6.1006919E+001, 7.2895576E-002, 1.3859424E-001, 6.5822905E-002, 2.8789331E-003, 2.3057993E-002, 1.4540107E-003, 3.7965515E+002
 6.2002514E+001, 7.3634351E-002, 1.3771355E-001, 6.5459634E-002, 2.8867438E-003, 2.3922756E-002, 1.4504006E-003, 3.7497669E+002
 6.3008955E+001, 7.4132382E-002, 1.3692433E-001, 6.5084602E-002, 2.8471032E-003, 2.5680999E-002, 1.4370773E-003, 3.7439464E+002
 6.4006911E+001, 7.4518377E-002, 1.3644747E-001, 6.4938237E-002, 2.9033326E-003, 2.5902966E-002, 1.4463729E-003, 3.7159435E+002
 6.5004285E+001, 7.4810058E-002, 1.3626691E-001, 6.4822132E-002, 2.8586838E-003, 2.5747824E-002, 1.4356244E-003, 3.6236273E+002
 6.6008156E+001, 7.5605739E-002, 1.3516963E-001, 6.4337582E-002, 2.8387927E-003, 2.7538743E-002, 1.4247194E-003, 3.6774511E+002
 6.7003314E+001, 7.5353819E-002, 1.3530347E-001, 6.4418041E-002, 2.8670376E-003, 2.7836526E-002, 1.4316378E-003, 3.6946633E+002
 6.8002268E+001, 7.6218740E-002, 1.3442932E-001, 6.4006864E-002, 2.8195478E-003, 2.8452559E-002, 1.4161008E-003, 3.5929376E+002
 6.9008950E+001, 7.6677924E-002, 1.3380475E-001, 6.3755346E-002, 2.8329869E-003, 2.9298712E-002, 1.4152506E-003, 3.5536412E+002
 7.0006578E+001, 7.6915488E-002, 1.3360333E-001, 6.3620756E-002, 2.7801892E-003, 2.9522370E-002, 1.4026147E-003, 3.5631337E+002
 7.1003919E+001, 7.7644596E-002, 1.3288764E-001, 6.3234038E-002, 2.6893941E-003, 3.0242480E-002, 1.3786622E-003, 3.5835955E+002
 7.2003715E+001, 7.8541638E-002, 1.3195323E-001, 6.2782301E-002, 2.6267892E-003, 3.1089572E-002, 1.3594927E-003, 3.5589072E+002
 7.3005809E+001, 7.8444447E-002, 1.3191972E-001, 6.2784048E-002, 2.6462208E-003, 3.1550496E-002, 1.3634970E-003, 3.5502724E+002
 7.4010015E+001, 7.8570404E-002, 1.3168425E-001, 6.2712541E-002, 2.6764077E-003, 3.1924920E-002, 1.3686119E-003, 3.4818870E+002
 7.5011092E+001, 7.9132510E-002, 1.3103106E-001, 6.2409135E-002, 2.6469821E-003, 3.2712917E-002, 1.3583145E-003, 3.4926370E+002
 7.6013612E+001, 7.9334748E-002, 1.3083444E-001, 6.2306670E-002, 2.6258633E-003, 3.2879828E-002, 1.3525617E-003, 3.4428395E+002
 7.7013294E+001, 7.9778587E-002, 1.3009195E-001, 6.1995045E-002, 2.6314660E-003, 3.4387477E-002, 1.3493083E-003, 3.4365074E+002
 7.8004266E+001, 7.9992065E-002, 1.2960223E-001, 6.1819275E-002, 2.6677074E-003, 3.5532054E-002, 1.3542049E-003, 3.4547083E+002
 7.9000478E+001, 8.0656322E-002, 1.2903961E-001, 6.1527756E-002, 2.6068477E-003, 3.5642848E-002, 1.3376492E-003, 3.4296806E+002
 8.0003450E+001, 8.0861727E-002, 1.2893407E-001, 6.1458617E-002, 2.5785613E-003, 3.5414349E-002, 1.3308925E-003, 3.3743801E+002
 8.1007315E+001, 8.0804296E-002, 1.2888918E-001, 6.1425130E-002, 2.5659960E-003, 3.5945405E-002, 1.3279053E-003, 3.4159039E+002
 8.2007161E+001, 8.0952321E-002, 1.2851231E-001, 6.1223531E-002, 2.5262288E-003, 3.7295584E-002, 1.3170363E-003, 3.4092387E+002
 8.3005049E+001, 8.1748334E-002, 1.2772190E-001, 6.0897862E-002, 2.5302574E-003, 3.7515254E-002, 1.3131491E-003, 3.3090776E+002
 8.4002723E+001, 8.2021996E-002, 1.2743703E-001, 6.0748786E-002, 2.4995128E-003, 3.7841484E-002, 1.3047827E-003, 3.3045775E+002
 8.5004023E+001, 8.2144202E-002, 1.2712533E-001, 6.0622317E-002, 2.5079493E-003, 3.8715318E-002, 1.3047342E-003, 3.4251294E+002
 8.6010989E+001, 8.2449774E-002, 1.2677953E-001, 6.0420420E-002, 2.4498198E-003, 3.9349059E-002, 1.2900767E-003, 3.3678276E+002
 8.7013840E+001, 8.2669729E-002, 1.2654116E-001, 6.0289752E-002, 2.4182395E-003, 3.9695572E-002, 1.2818095E-003, 3.3741010E+002
 8.8010086E+001, 8.3056651E-002, 1.2587630E-001, 5.9981502E-002, 2.3935547E-003, 4.1266241E-002, 1.2724704E-003, 3.3544007E+002
 8.9000730E+001, 8.2845389E-002, 1.2600062E-001, 6.0048849E-002, 2.4116393E-003, 4.1492804E-002, 1.2771328E-003, 3.3053948E+002
 9.0009709E+001, 8.3495243E-002, 1.2524469E-001, 5.9720476E-002, 2.4009513E-003, 4.2269753E-002, 1.2702710E-003, 3.2767968E+002
 9.1006644E+001, 8.3212002E-002, 1.2552194E-001, 5.9853372E-002, 2.4187861E-003, 4.2096485E-002, 1.2757989E-003, 3.2505812E+002
 9.2001388E+001, 8.3679384E-002, 1.2489600E-001, 5.9569595E-002, 2.3995422E-003, 4.3106503E-002, 1.2678694E-003, 3.2975434E+002
 9.3010132E+001, 8.3839267E-002, 1.2495501E-001, 5.9535098E-002, 2.3333590E-003, 4.2531994E-002, 1.2539027E-003, 3.2945953E+002
 9.4002327E+001, 8.3896310E-002, 1.2473044E-001, 5.9424942E-002, 2.3206856E-003, 4.3406070E-002, 1.2498113E-003, 3.2764752E+002
 9.5010451E+001, 8.3833907E-002, 1.2465741E-001, 5.9403294E-002, 2.3331493E-003, 4.3941925E-002, 1.2520702E-003, 3.2689128E+002
 9.6003116E+001, 8.4279866E-002, 1.2415060E-001, 5.9162282E-002, 2.3043242E-003, 4.4546300E-002, 1.2427836E-003, 3.3064787E+002
 9.7011011E+001, 8.4699274E-002, 1.2345635E-001, 5.8837851E-002, 2.2755363E-003, 4.6137734E-002, 1.2323799E-003, 3.2769494E+002
 9.8002432E+001, 8.4391226E-002, 1.2375085E-001, 5.8951432E-002, 2.2663602E-003, 4.6150635E-002, 1.2321679E-003, 3.2825393E+002
 9.9004136E+001, 8.4495760E-002, 1.2365231E-001, 5.8881589E-002, 2.2367244E-003, 4.6332992E-002, 1.2251629E-003, 3.2363766E+002
 1.0001192E+002, 8.4322367E-002, 1.2370048E-001, 5.8925648E-002, 2.2644742E-003, 4.6693560E-002, 1.2314585E-003, 3.2568571E+002
 1.0100286E+002, 8.4502993E-002, 1.2343273E-001, 5.8771961E-002, 2.2235825E-003, 4.7401583E-002, 1.2210010E-003, 3.2754786E+002
 1.0201107E+002, 8.4697783E-002, 1.2307383E-001, 5.8613083E-002, 2.2183301E-003, 4.8262604E-002, 1.2177063E-003, 3.2621410E+002
 1.0300464E+002, 8.4664809E-002, 1.2308991E-001, 5.8627781E-002, 2.2269553E-003, 4.8279206E-002, 1.2196695E-003, 3.2523223E+002
 1.0400498E+002, 8.4628644E-002, 1.2306008E-001, 5.8637331E-002, 2.2511882E-003, 4.8431235E-002, 1.2247337E-003, 3.2703805E+002
 1.0500025E+002, 8.5063479E-002, 1.2254743E-001, 5.8376967E-002, 2.2054321E-003, 4.9210697E-002, 1.2117492E-003, 3.2808927E+002
 1.0601377E+002, 8.5095424E-002, 1.2237945E-001, 5.8309073E-002, 2.2111030E-003, 4.9821393E-002, 1.2119668E-003, 3.2535730E+002
 1.0701372E+002, 8.5261543E-002, 1.2209799E-001, 5.8186933E-002, 2.2091670E-003, 5.0426074E-002, 1.2098552E-003, 3.2496420E+002
 1.0800164E+002, 8.5335988E-002, 1.2199560E-001, 5.8094118E-002, 2.1584632E-003, 5.0880543E-002, 1.1982695E-003, 3.2585579E+002
 1.0900528E+002, 8.5235800E-002, 1.2207584E-001, 5.8156652E-002, 2.1887845E-003, 5.0760587E-002, 1.2053129E-003, 3.2369491E+002
 1.1001145E+002, 8.5252624E-002, 1.2190490E-001, 5.8097961E-002, 2.2056253E-003, 5.1384468E-002, 1.2079295E-003, 3.2293405E+002
 1.1100678E+002, 8.5168973E-002, 1.2193868E-001, 5.8098079E-002, 2.1925446E-003, 5.1665506E-002, 1.2053037E-003, 3.2533740E+002
 1.1200709E+002, 8.5401473E-002, 1.2149343E-001, 5.7915393E-002, 2.2010467E-003, 5.2684537E-002, 1.2044658E-003, 3.2501412E+002
 1.1300810E+002, 8.5179480E-002, 1.2168381E-001, 5.7999335E-002, 2.2064861E-003, 5.2724487E-002, 1.2067892E-003, 3.3003544E+002
 1.1400513E+002, 8.5081677E-002, 1.2191640E-001, 5.8087422E-002, 2.1939102E-003, 5.2138037E-002, 1.2054667E-003, 3.2817445E+002
 1.1500226E+002, 8.5321712E-002, 1.2123038E-001, 5.7829998E-002, 2.2346729E-003, 5.4055179E-002, 1.2101623E-003, 3.2564797E+002
 1.1601236E+002, 8.5312746E-002, 1.2144618E-001, 5.7896501E-002, 2.2053192E-003, 5.3262373E-002, 1.2051077E-003, 3.2256193E+002
 1.1700341E+002, 8.5325707E-002, 1.2132403E-001, 5.7850501E-002, 2.2131597E-003, 5.3728844E-002, 1.2060703E-003, 3.2865851E+002
 1.1800251E+002, 8.5337642E-002, 1.2128454E-001, 5.7805367E-002, 2.1844497E-003, 5.4030602E-002, 1.1996215E-003, 3.2518400E+002
 1.1900277E+002, 8.5293182E-002, 1.2116350E-001, 5.7759903E-002, 2.1937856E-003, 5.4730978E-002, 1.2009152E-003, 3.2610120E+002
 1.2000746E+002, 8.5238381E-002, 1.2120025E-001, 5.7779207E-002, 2.1983166E-003, 5.4769717E-002, 1.2021170E-003, 3.2369751E+002
 1.2100054E+002, 8.5581679E-002, 1.2066302E-001, 5.7542523E-002, 2.1903118E-003, 5.5836072E-002, 1.1971538E-003, 3.2319480E+002
 1.2201269E+002, 8.5266968E-002, 1.2074123E-001, 5.7628237E-002, 2.2507521E-003, 5.6473988E-002, 1.2107045E-003, 3.2724221E+002
 1.2300337E+002, 8.5552779E-002, 1.2036031E-001, 5.7553330E-002, 2.3393470E-003, 5.6490860E-002, 1.2275800E-003, 3.2922586E+002
 1.2400263E+002, 8.5537306E-002, 1.2047000E-001, 5.7513192E-002, 2.2488316E-003, 5.6581040E-002, 1.2086560E-003, 3.2260708E+002
 1.2500019E+002, 8.5232681E-002, 1.2048200E-001, 5.7626283E-002, 2.3671203E-003, 5.7142349E-002, 1.2343244E-003, 3.2821735E+002
 1.2600431E+002, 8.5284779E-002, 1.2042484E-001, 5.7576230E-002, 2.3403573E-003, 5.7341465E-002, 1.2281902E-003, 3.2845793E+002
 1.2700946E+002, 8.5134542E-002, 1.2077374E-001, 5.7679733E-002, 2.2922014E-003, 5.6649821E-002, 1.2198692E-003, 3.3364613E+002
 1.2800186E+002, 8.4885426E-002, 1.2056984E-001, 5.7680989E-002, 2.3922004E-003, 5.8084576E-002, 1.2402833E-003, 3.3241685E+002
 1.2900397E+002, 8.5168796E-002, 1.2038756E-001, 5.7556881E-002, 2.3403300E-003, 5.8015928E-002, 1.2279622E-003, 3.2461343E+002
 1.3000916E+002, 8.5127681E-002, 1.2015116E-001, 5.7537424E-002, 2.4285570E-003, 5.8773464E-002, 1.2456311E-003, 3.3243146E+002
 1.3100704E+002, 8.5391886E-002, 1.2000987E-001, 5.7414651E-002, 2.3599595E-003, 5.8695418E-002, 1.2299375E-003, 3.2516336E+002
 1.3200867E+002, 8.5483476E-002, 1.1954698E-001, 5.7315118E-002, 2.4653413E-003, 5.9833343E-002, 1.2499556E-003, 3.2489276E+002
 1.3301112E+002, 8.5096666E-002, 1.2007218E-001, 5.7507336E-002, 2.4342677E-003, 5.9241381E-002, 1.2463927E-003, 3.2852038E+002
 1.3400829E+002, 8.5612327E-002, 1.1939698E-001, 5.7195138E-002, 2.4069687E-003, 6.0319812E-002, 1.2364240E-003, 3.2499850E+002
 1.3500962E+002, 8.5381200E-002, 1.1950890E-001, 5.7311769E-002, 2.4817460E-003, 6.0355375E-002, 1.2532777E-003, 3.2635785E+002
 1.3600247E+002, 8.5422021E-002, 1.1939595E-001, 5.7276323E-002, 2.4955467E-003, 6.0623611E-002, 1.2555845E-003, 3.2796767E+002
 1.3700982E+002, 8.5128308E-002, 1.1972359E-001, 5.7398707E-002, 2.4800186E-003, 6.0457807E-002, 1.2541971E-003, 3.2923917E+002
 1.3800959E+002, 8.5285282E-002, 1.1958858E-001, 5.7374143E-002, 2.5120524E-003, 6.0219704E-002, 1.2603144E-003, 3.2919695E+002
 1.3901603E+002, 8.5081639E-002, 1.1956724E-001, 5.7375544E-002, 2.5283013E-003, 6.1102339E-002, 1.2637048E-003, 3.3222421E+002
 1.4000074E+002, 8.5212139E-002, 1.1933999E-001, 5.7255818E-002, 2.5051660E-003, 6.1733455E-002, 1.2573328E-003, 3.2441376E+002
 1.4100155E+002, 8.5114369E-002, 1.1956778E-001, 5.7361911E-002, 2.5132393E-003, 6.1047367E-002, 1.2604489E-003, 3.2970479E+002
 1.4201139E+002, 8.5267115E-002, 1.1913282E-001, 5.7216725E-002, 2.5575728E-003, 6.2151436E-002, 1.2674260E-003, 3.3026919E+002
 1.4300609E+002, 8.4937317E-002, 1.1952567E-001, 5.7429630E-002, 2.6062817E-003, 6.1458821E-002, 1.2803284E-003, 3.2899424E+002
 1.4401131E+002, 8.4810179E-002, 1.1951753E-001, 5.7478958E-002, 2.6637960E-003, 6.1706255E-002, 1.2927246E-003, 3.3048504E+002
 1.4500728E+002, 8.5001018E-002, 1.1904669E-001, 5.7320112E-002, 2.7094153E-003, 6.2805332E-002, 1.2997639E-003, 3.3245511E+002
 1.4600719E+002, 8.4662587E-002, 1.1934220E-001, 5.7471590E-002, 2.7394361E-003, 6.2713451E-002, 1.3080386E-003, 3.2996321E+002
 1.4700888E+002, 8.4958883E-002, 1.1914693E-001, 5.7341567E-002, 2.6870589E-003, 6.2652484E-002, 1.2955296E-003, 3.2862615E+002
 1.4800360E+002, 8.5125242E-002, 1.1887981E-001, 5.7320035E-002, 2.7818479E-003, 6.2618629E-002, 1.3144305E-003, 3.3347525E+002
 1.4900645E+002, 8.4902786E-002, 1.1884082E-001, 5.7315342E-002, 2.8003189E-003, 6.3651553E-002, 1.3181960E-003, 3.2614137E+002
 1.5000832E+002, 8.4913147E-002, 1.1894913E-001, 5.7365093E-002, 2.8020162E-003, 6.3092587E-002, 1.3192134E-003, 3.2699595E+002
 1.5101525E+002, 8.4741423E-002, 1.1888375E-001, 5.7466006E-002, 2.9395335E-003, 6.3326984E-002, 1.3485751E-003, 3.3499788E+002
 1.5201424E+002, 8.5077936E-002, 1.1865193E-001, 5.7267238E-002, 2.8321625E-003, 6.3586958E-002, 1.3239483E-003, 3.2453805E+002
 1.5301157E+002, 8.4641188E-002, 1.1905169E-001, 5.7458507E-002, 2.8582369E-003, 6.3457436E-002, 1.3319968E-003, 3.2675739E+002
 1.5401477E+002, 8.4884915E-002, 1.1867653E-001, 5.7338483E-002, 2.8989901E-003, 6.3911466E-002, 1.3385570E-003, 3.3085745E+002
