s,,,,,,,
Time,"O2 EXHAUST","CO2 EXHAUST","H2O EXHAUST","CO EXHAUST","FUEL EXHAUST","SOOT EXHAUST","TEMP EXHAUST"
 0.0000000E+000, 2.3099739E-001, 5.9146498E-004, 5.9412091E-003, 0.0000000E+000, 0.0000000E+000, 0.0000000E+000, 2.0000000E+001
 1.0053143E+000, 2.3099739E-001, 5.9146498E-004, 5.9412091E-003, 4.4575664E-024, 1.3728962E-023, 1.9048462E-024, 2.2643631E+001
 2.0047837E+000, 2.1854136E-001, 9.8979601E-003, 1.1331780E-002, 1.5036972E-004, 1.3138354E-004, 1.0611996E-004, 1.4208584E+002
 3.0032855E+000, 2.0698571E-001, 1.8670082E-002, 1.6306298E-002, 2.0733128E-004, 1.4394373E-004, 1.8780351E-004, 2.3733783E+002
 4.0033143E+000, 1.9688586E-001, 2.6372207E-002, 2.0644190E-002, 2.3369452E-004, 1.4718926E-004, 2.5440630E-004, 3.1793400E+002
 5.0037781E+000, 1.8399138E-001, 3.6362204E-002, 2.6143873E-002, 1.6729634E-004, 8.0865298E-005, 3.1902756E-004, 3.9349100E+002
 6.0052622E+000, 1.6715071E-001, 4.9395222E-002, 3.3329662E-002, 8.9309835E-005, 3.8328005E-006, 4.0520173E-004, 4.8017590E+002
 7.0027395E+000, 1.5484256E-001, 5.8812698E-002, 3.8607284E-002, 1.0065050E-004, 1.1883726E-007, 4.8211685E-004, 5.1296821E+002
 8.0000892E+000, 1.4018748E-001, 7.0016158E-002, 4.4893598E-002, 1.2034437E-004, 4.0357880E-007, 5.7496067E-004, 5.4777157E+002
 9.0069307E+000, 1.2066838E-001, 8.4936493E-002, 5.3266646E-002, 1.4750857E-004, 1.9695541E-006, 6.9880913E-004, 5.8593887E+002
 1.0005656E+001, 1.0681484E-001, 9.5525915E-002, 5.9209318E-002, 1.6683985E-004, 3.6594707E-006, 7.8671947E-004, 6.0455782E+002
 1.1005671E+001, 9.7213041E-002, 1.0284572E-001, 6.3331785E-002, 1.9187978E-004, 2.1029625E-005, 8.5001310E-004, 6.0816520E+002
 1.2001157E+001, 8.5024363E-002, 1.1159087E-001, 6.8669033E-002, 5.4970315E-004, 4.7618052E-004, 9.9658285E-004, 6.1201464E+002
 1.3008633E+001, 8.0985877E-002, 1.1341036E-001, 7.0603507E-002, 1.2811861E-003, 1.7239489E-003, 1.1692458E-003, 5.9665028E+002
 1.4007785E+001, 7.9097719E-002, 1.1529908E-001, 7.1351700E-002, 1.0358049E-003, 1.2283960E-003, 1.1310839E-003, 5.9127183E+002
 1.5007667E+001, 7.4803205E-002, 1.1714705E-001, 7.3467286E-002, 1.8974845E-003, 2.3643672E-003, 1.3321421E-003, 5.9047669E+002
 1.6007733E+001, 7.2691845E-002, 1.1761928E-001, 7.4529127E-002, 2.5344503E-003, 3.6485751E-003, 1.4737021E-003, 5.7031670E+002
 1.7006573E+001, 7.1839516E-002, 1.1772970E-001, 7.5038428E-002, 2.8893426E-003, 3.8255745E-003, 1.5513639E-003, 5.5291947E+002
 1.8005025E+001, 7.0079268E-002, 1.1849991E-001, 7.5917795E-002, 3.2461110E-003, 4.1902921E-003, 1.6346494E-003, 5.5606610E+002
 1.9005466E+001, 6.9203816E-002, 1.1912717E-001, 7.6285920E-002, 3.2605747E-003, 4.3189793E-003, 1.6427391E-003, 5.5108543E+002
 2.0005791E+001, 6.8306967E-002, 1.1908935E-001, 7.6826079E-002, 3.7066948E-003, 4.7825425E-003, 1.7389692E-003, 5.3977363E+002
 2.1006483E+001, 6.6708598E-002, 1.1977225E-001, 7.7566538E-002, 3.9937673E-003, 5.5057607E-003, 1.8064859E-003, 5.4213824E+002
 2.2006740E+001, 6.5745806E-002, 1.1971197E-001, 7.8078499E-002, 4.4297008E-003, 6.4629050E-003, 1.9003366E-003, 5.3522786E+002
 2.3000829E+001, 6.5215941E-002, 1.1998076E-001, 7.8347655E-002, 4.5238369E-003, 6.4722802E-003, 1.9228301E-003, 5.3022704E+002
 2.4004493E+001, 6.4525460E-002, 1.2001582E-001, 7.8755715E-002, 4.8324031E-003, 6.7509781E-003, 1.9898730E-003, 5.3239945E+002
 2.5002187E+001, 6.4523861E-002, 1.1917950E-001, 7.8827571E-002, 5.2644073E-003, 7.9616215E-003, 2.0767388E-003, 5.1630860E+002
 2.6001074E+001, 6.4357496E-002, 1.1920738E-001, 7.8943006E-002, 5.3430657E-003, 7.8844415E-003, 2.0939782E-003, 5.1885320E+002
 2.7000030E+001, 6.3737704E-002, 1.1804110E-001, 7.9395877E-002, 6.2262369E-003, 9.9600343E-003, 2.2758581E-003, 5.0746818E+002
 2.8003185E+001, 6.3271051E-002, 1.1844964E-001, 7.9594184E-002, 6.2020885E-003, 9.8694716E-003, 2.2738628E-003, 5.0614125E+002
 2.9001695E+001, 6.3519148E-002, 1.1816865E-001, 7.9581545E-002, 6.3145494E-003, 9.4685929E-003, 2.2959724E-003, 5.0354655E+002
 3.0007900E+001, 6.3091437E-002, 1.1787856E-001, 7.9793862E-002, 6.6153932E-003, 1.0506663E-002, 2.3587772E-003, 4.9562808E+002
 3.1000166E+001, 6.2658150E-002, 1.1762520E-001, 8.0037982E-002, 6.9240691E-003, 1.1298523E-002, 2.4235657E-003, 4.8827883E+002
 3.2001768E+001, 6.2660272E-002, 1.1712952E-001, 8.0055054E-002, 7.1605689E-003, 1.2161333E-002, 2.4708220E-003, 4.9195967E+002
 3.3009809E+001, 6.2068688E-002, 1.1719019E-001, 8.0381183E-002, 7.3931988E-003, 1.2485213E-002, 2.5216373E-003, 4.8743609E+002
 3.4000039E+001, 6.2415778E-002, 1.1706563E-001, 8.0166112E-002, 7.2787074E-003, 1.2617599E-002, 2.4958806E-003, 4.7694143E+002
 3.5005836E+001, 6.2847648E-002, 1.1543215E-001, 8.0139611E-002, 7.9870337E-003, 1.4204175E-002, 2.6362330E-003, 4.7613053E+002
 3.6003206E+001, 6.3356586E-002, 1.1546118E-001, 7.9807355E-002, 7.7108118E-003, 1.4085582E-002, 2.5766959E-003, 4.8002625E+002
 3.7001558E+001, 6.3054383E-002, 1.1540694E-001, 7.9941765E-002, 7.8434958E-003, 1.4618491E-002, 2.6049783E-003, 4.7155053E+002
 3.8000901E+001, 6.3230201E-002, 1.1485872E-001, 7.9872494E-002, 8.0345438E-003, 1.5396395E-002, 2.6419844E-003, 4.7499831E+002
 3.9008556E+001, 6.3697192E-002, 1.1461116E-001, 7.9610538E-002, 7.9374973E-003, 1.5562422E-002, 2.6190298E-003, 4.6939790E+002
 4.0001946E+001, 6.3508735E-002, 1.1469327E-001, 7.9734916E-002, 7.9989408E-003, 1.5414901E-002, 2.6329728E-003, 4.6628097E+002
 4.1002015E+001, 6.3308865E-002, 1.1421865E-001, 7.9837826E-002, 8.2952291E-003, 1.6545687E-002, 2.6933333E-003, 4.7024473E+002
 4.2004019E+001, 6.4520415E-002, 1.1358759E-001, 7.9205552E-002, 8.0745489E-003, 1.6661062E-002, 2.6405957E-003, 4.5770264E+002
 4.3004181E+001, 6.4525795E-002, 1.1335326E-001, 7.9109988E-002, 8.1071344E-003, 1.7692707E-002, 2.6457983E-003, 4.5849930E+002
 4.4003743E+001, 6.4639779E-002, 1.1245875E-001, 7.9115699E-002, 8.5127300E-003, 1.8946485E-002, 2.7264901E-003, 4.5667408E+002
 4.5001164E+001, 6.4986743E-002, 1.1211950E-001, 7.9046261E-002, 8.6062617E-003, 1.8600603E-002, 2.7440436E-003, 4.5540096E+002
 4.6004374E+001, 6.4966754E-002, 1.1202911E-001, 7.8998738E-002, 8.6110961E-003, 1.9156474E-002, 2.7443775E-003, 4.5345683E+002
 4.7002868E+001, 6.5029992E-002, 1.1165577E-001, 7.8911079E-002, 8.7113290E-003, 2.0172303E-002, 2.7631178E-003, 4.5388734E+002
 4.8003464E+001, 6.5170879E-002, 1.1132722E-001, 7.8871681E-002, 8.8267879E-003, 2.0477483E-002, 2.7855032E-003, 4.4533919E+002
 4.9002918E+001, 6.5358968E-002, 1.1092333E-001, 7.8788942E-002, 8.9422413E-003, 2.1003102E-002, 2.8072929E-003, 4.4631554E+002
 5.0007449E+001, 6.5379819E-002, 1.1073515E-001, 7.8723479E-002, 8.9767209E-003, 2.1692863E-002, 2.8132685E-003, 4.4678418E+002
 5.1001857E+001, 6.5680847E-002, 1.1044656E-001, 7.8507767E-002, 8.9365527E-003, 2.2344490E-002, 2.8022986E-003, 4.4537296E+002
 5.2008904E+001, 6.5763264E-002, 1.1033250E-001, 7.8472635E-002, 8.9596303E-003, 2.2443793E-002, 2.8063906E-003, 4.4459981E+002
 5.3004027E+001, 6.5878119E-002, 1.0997286E-001, 7.8419765E-002, 9.0792978E-003, 2.3002136E-002, 2.8294421E-003, 4.4085339E+002
 5.4000563E+001, 6.5764325E-002, 1.0998560E-001, 7.8410479E-002, 9.0685675E-003, 2.3508459E-002, 2.8272234E-003, 4.4175976E+002
 5.5005597E+001, 6.6209894E-002, 1.0962503E-001, 7.8115197E-002, 8.9974234E-003, 2.4192972E-002, 2.8089823E-003, 4.4082197E+002
 5.6008509E+001, 6.6228510E-002, 1.0981444E-001, 7.8067748E-002, 8.8754375E-003, 2.4035884E-002, 2.7840851E-003, 4.3506174E+002
 5.7005883E+001, 6.6258816E-002, 1.0967334E-001, 7.8045040E-002, 8.9211622E-003, 2.4328575E-002, 2.7928642E-003, 4.3988716E+002
 5.8000844E+001, 6.6534162E-002, 1.0948852E-001, 7.7727289E-002, 8.7567589E-003, 2.5514644E-002, 2.7558366E-003, 4.3835856E+002
 5.9005002E+001, 6.6600621E-002, 1.0941620E-001, 7.7693284E-002, 8.7621741E-003, 2.5591124E-002, 2.7564368E-003, 4.3896348E+002
 6.0009786E+001, 6.6976913E-002, 1.0913381E-001, 7.7508471E-002, 8.7414157E-003, 2.5725667E-002, 2.7497132E-003, 4.3707015E+002
 6.1005278E+001, 6.6991058E-002, 1.0893146E-001, 7.7440371E-002, 8.7803907E-003, 2.6487627E-002, 2.7565498E-003, 4.3648366E+002
 6.2005102E+001, 6.7347030E-002, 1.0888892E-001, 7.7162740E-002, 8.5809833E-003, 2.6808838E-002, 2.7130692E-003, 4.3256080E+002
 6.3009486E+001, 6.7169821E-002, 1.0874010E-001, 7.7248655E-002, 8.7169731E-003, 2.7308105E-002, 2.7413189E-003, 4.3774007E+002
 6.4008936E+001, 6.7624647E-002, 1.0864805E-001, 7.7043748E-002, 8.5935947E-003, 2.6864734E-002, 2.7138937E-003, 4.3420779E+002
 6.5002967E+001, 6.7834661E-002, 1.0825486E-001, 7.6738933E-002, 8.5342332E-003, 2.8653640E-002, 2.6979492E-003, 4.3608703E+002
 6.6006460E+001, 6.7922192E-002, 1.0832048E-001, 7.6708943E-002, 8.4801264E-003, 2.8345491E-002, 2.6867595E-003, 4.3269305E+002
 6.7003257E+001, 6.8191391E-002, 1.0818600E-001, 7.6496909E-002, 8.3738685E-003, 2.8803018E-002, 2.6627073E-003, 4.3453873E+002
 6.8003867E+001, 6.8579964E-002, 1.0793172E-001, 7.6235005E-002, 8.2813410E-003, 2.9308555E-002, 2.6406790E-003, 4.2906323E+002
 6.9010372E+001, 6.8517444E-002, 1.0803083E-001, 7.6211657E-002, 8.2199775E-003, 2.9518121E-002, 2.6281864E-003, 4.3181108E+002
 7.0006511E+001, 6.9051223E-002, 1.0757175E-001, 7.5864732E-002, 8.1521843E-003, 3.0349435E-002, 2.6098921E-003, 4.2940299E+002
 7.1009740E+001, 6.8791479E-002, 1.0777823E-001, 7.6023097E-002, 8.1848173E-003, 3.0043016E-002, 2.6185840E-003, 4.2743164E+002
 7.2008106E+001, 6.9204108E-002, 1.0760569E-001, 7.5642991E-002, 7.9647240E-003, 3.1019402E-002, 2.5696028E-003, 4.3169137E+002
 7.3003773E+001, 6.9293960E-002, 1.0762682E-001, 7.5552645E-002, 7.8845443E-003, 3.1163205E-002, 2.5524221E-003, 4.2827007E+002
 7.4010073E+001, 6.9577143E-002, 1.0721186E-001, 7.5405981E-002, 7.9544193E-003, 3.1710623E-002, 2.5642625E-003, 4.2867076E+002
 7.5008180E+001, 6.9633574E-002, 1.0745139E-001, 7.5243452E-002, 7.7212544E-003, 3.2010087E-002, 2.5157080E-003, 4.2932304E+002
 7.6007892E+001, 6.9978780E-002, 1.0723039E-001, 7.5057509E-002, 7.6725303E-003, 3.2160055E-002, 2.5034189E-003, 4.2335849E+002
 7.7008173E+001, 7.0019172E-002, 1.0728795E-001, 7.4954801E-002, 7.5673981E-003, 3.2514580E-002, 2.4811282E-003, 4.2527685E+002
 7.8009000E+001, 7.0081865E-002, 1.0717794E-001, 7.4881773E-002, 7.5600729E-003, 3.2922780E-002, 2.4786754E-003, 4.2680750E+002
 7.9006231E+001, 7.0388700E-002, 1.0702483E-001, 7.4630840E-002, 7.4318168E-003, 3.3501274E-002, 2.4497167E-003, 4.2679283E+002
 8.0007904E+001, 7.0077236E-002, 1.0731735E-001, 7.4806757E-002, 7.4400132E-003, 3.3131865E-002, 2.4538013E-003, 4.2508968E+002
 8.1000833E+001, 7.0435970E-002, 1.0690549E-001, 7.4532462E-002, 7.4096282E-003, 3.4149155E-002, 2.4439752E-003, 4.2313904E+002
 8.2001435E+001, 7.0525030E-002, 1.0675586E-001, 7.4507377E-002, 7.4562968E-003, 3.4228701E-002, 2.4528901E-003, 4.2524796E+002
 8.3002999E+001, 7.0708215E-002, 1.0660121E-001, 7.4379838E-002, 7.4252481E-003, 3.4560793E-002, 2.4449509E-003, 4.2665242E+002
 8.4008455E+001, 7.0696693E-002, 1.0671573E-001, 7.4373221E-002, 7.3687698E-003, 3.4423953E-002, 2.4336356E-003, 4.2417944E+002
 8.5002743E+001, 7.0875554E-002, 1.0669969E-001, 7.4259173E-002, 7.2856038E-003, 3.4417168E-002, 2.4155141E-003, 4.2479362E+002
 8.6002708E+001, 7.0901663E-002, 1.0656516E-001, 7.4193778E-002, 7.2958419E-003, 3.4978808E-002, 2.4166683E-003, 4.2094026E+002
 8.7011530E+001, 7.0814007E-002, 1.0672164E-001, 7.4175768E-002, 7.2131514E-003, 3.5146876E-002, 2.4000146E-003, 4.2449178E+002
 8.8001978E+001, 7.0903203E-002, 1.0636754E-001, 7.4146435E-002, 7.3487698E-003, 3.5655355E-002, 2.4265609E-003, 4.2730226E+002
 8.9001308E+001, 7.1232016E-002, 1.0596498E-001, 7.3973788E-002, 7.3923697E-003, 3.6149246E-002, 2.4328140E-003, 4.2273778E+002
 9.0000568E+001, 7.1180697E-002, 1.0622188E-001, 7.3901532E-002, 7.2223008E-003, 3.6304001E-002, 2.3980482E-003, 4.2458417E+002
 9.1001474E+001, 7.1119117E-002, 1.0609431E-001, 7.4025505E-002, 7.3756320E-003, 3.6044035E-002, 2.4302145E-003, 4.2381704E+002
 9.2005568E+001, 7.1457415E-002, 1.0575445E-001, 7.3756340E-002, 7.3170788E-003, 3.6972687E-002, 2.4148625E-003, 4.2535523E+002
 9.3002256E+001, 7.1281507E-002, 1.0604119E-001, 7.3834611E-002, 7.2508110E-003, 3.6655014E-002, 2.4027898E-003, 4.2295328E+002
 9.4002645E+001, 7.1171720E-002, 1.0607606E-001, 7.3875286E-002, 7.2681766E-003, 3.6791514E-002, 2.4068236E-003, 4.2380244E+002
 9.5001305E+001, 7.1383287E-002, 1.0579676E-001, 7.3728493E-002, 7.2781068E-003, 3.7370477E-002, 2.4067666E-003, 4.2528307E+002
 9.6011538E+001, 7.1249822E-002, 1.0606298E-001, 7.3834195E-002, 7.2412517E-003, 3.6746583E-002, 2.4008942E-003, 4.2158006E+002
 9.7000284E+001, 7.1657930E-002, 1.0547931E-001, 7.3601383E-002, 7.3191018E-003, 3.7640048E-002, 2.4131279E-003, 4.2274734E+002
 9.8010049E+001, 7.1528890E-002, 1.0558297E-001, 7.3694671E-002, 7.3459868E-003, 3.7395174E-002, 2.4197635E-003, 4.2341988E+002
 9.9006681E+001, 7.1526988E-002, 1.0549031E-001, 7.3597378E-002, 7.3135057E-003, 3.8188506E-002, 2.4120066E-003, 4.2133405E+002
 1.0000108E+002, 7.1419024E-002, 1.0551912E-001, 7.3692479E-002, 7.3751326E-003, 3.7992210E-002, 2.4255677E-003, 4.2233252E+002
 1.0100184E+002, 7.1506836E-002, 1.0554591E-001, 7.3591661E-002, 7.2844416E-003, 3.8198209E-002, 2.4061577E-003, 4.2112462E+002
 1.0200143E+002, 7.1447659E-002, 1.0554723E-001, 7.3699067E-002, 7.3669623E-003, 3.7776721E-002, 2.4240211E-003, 4.2648027E+002
 1.0300905E+002, 7.1483547E-002, 1.0544327E-001, 7.3612837E-002, 7.3473224E-003, 3.8366404E-002, 2.4189525E-003, 4.2184877E+002
 1.0400849E+002, 7.1398433E-002, 1.0537319E-001, 7.3697013E-002, 7.4447770E-003, 3.8337634E-002, 2.4394845E-003, 4.2199472E+002
 1.0500191E+002, 7.1513396E-002, 1.0518323E-001, 7.3608765E-002, 7.4609168E-003, 3.8780098E-002, 2.4414767E-003, 4.2171262E+002
 1.0600561E+002, 7.1328909E-002, 1.0537788E-001, 7.3719438E-002, 7.4610748E-003, 3.8479021E-002, 2.4430485E-003, 4.2086630E+002
 1.0700596E+002, 7.1416285E-002, 1.0511436E-001, 7.3647196E-002, 7.5231151E-003, 3.9082271E-002, 2.4543914E-003, 4.2415214E+002
 1.0800949E+002, 7.1444737E-002, 1.0504382E-001, 7.3596120E-002, 7.5153907E-003, 3.9419269E-002, 2.4521639E-003, 4.2437109E+002
 1.0900952E+002, 7.1667431E-002, 1.0494161E-001, 7.3424047E-002, 7.4259574E-003, 3.9759292E-002, 2.4320067E-003, 4.2286352E+002
 1.1000940E+002, 7.1538600E-002, 1.0501997E-001, 7.3553551E-002, 7.4919040E-003, 3.9339096E-002, 2.4468931E-003, 4.2364401E+002
 1.1100048E+002, 7.1437282E-002, 1.0499061E-001, 7.3576367E-002, 7.5244359E-003, 3.9677597E-002, 2.4537015E-003, 4.2284897E+002
 1.1200044E+002, 7.1520788E-002, 1.0474488E-001, 7.3561135E-002, 7.6220631E-003, 3.9908730E-002, 2.4728833E-003, 4.2246569E+002
 1.1301163E+002, 7.1221570E-002, 1.0494734E-001, 7.3713800E-002, 7.6528870E-003, 3.9809955E-002, 2.4811529E-003, 4.2358503E+002
 1.1401242E+002, 7.1207659E-002, 1.0506591E-001, 7.3696532E-002, 7.5864925E-003, 3.9741048E-002, 2.4677244E-003, 4.2300828E+002
 1.1500184E+002, 7.1323399E-002, 1.0458395E-001, 7.3705039E-002, 7.8081698E-003, 4.0156695E-002, 2.5118799E-003, 4.2179981E+002
 1.1600469E+002, 7.1191773E-002, 1.0481325E-001, 7.3741015E-002, 7.7346800E-003, 4.0029855E-002, 2.4977913E-003, 4.2145959E+002
 1.1700979E+002, 7.1221726E-002, 1.0470590E-001, 7.3683391E-002, 7.7385292E-003, 4.0473764E-002, 2.4977775E-003, 4.2235269E+002
 1.1801027E+002, 7.1228362E-002, 1.0495630E-001, 7.3729660E-002, 7.6608334E-003, 3.9665753E-002, 2.4829425E-003, 4.2244924E+002
 1.1900289E+002, 7.1533504E-002, 1.0476765E-001, 7.3595787E-002, 7.6380235E-003, 3.9596223E-002, 2.4765152E-003, 4.2292634E+002
 1.2001173E+002, 7.1708954E-002, 1.0426728E-001, 7.3485293E-002, 7.7760212E-003, 4.0536658E-002, 2.5024219E-003, 4.2177846E+002
 1.2100831E+002, 7.1340627E-002, 1.0470785E-001, 7.3674824E-002, 7.7289111E-003, 4.0027806E-002, 2.4957097E-003, 4.2300920E+002
 1.2201148E+002, 7.1341216E-002, 1.0472749E-001, 7.3675510E-002, 7.7205672E-003, 3.9982379E-002, 2.4940594E-003, 4.2113816E+002
 1.2300882E+002, 7.1381895E-002, 1.0448120E-001, 7.3654762E-002, 7.8150244E-003, 4.0427136E-002, 2.5125519E-003, 4.2089941E+002
 1.2400553E+002, 7.1416769E-002, 1.0446725E-001, 7.3591249E-002, 7.7721696E-003, 4.0702852E-002, 2.5031703E-003, 4.1948674E+002
 1.2500376E+002, 7.1408964E-002, 1.0447065E-001, 7.3652416E-002, 7.8174891E-003, 4.0349742E-002, 2.5130014E-003, 4.1902917E+002
 1.2600801E+002, 7.1220670E-002, 1.0456614E-001, 7.3668762E-002, 7.7903943E-003, 4.0844368E-002, 2.5078962E-003, 4.2493416E+002
 1.2700399E+002, 7.1659062E-002, 1.0447988E-001, 7.3434239E-002, 7.6420934E-003, 4.0641482E-002, 2.4751254E-003, 4.2115389E+002
 1.2800589E+002, 7.1313531E-002, 1.0454148E-001, 7.3575684E-002, 7.7287179E-003, 4.1082845E-002, 2.4943574E-003, 4.2050625E+002
 1.2901238E+002, 7.1057602E-002, 1.0452405E-001, 7.3704673E-002, 7.8398119E-003, 4.1384035E-002, 2.5182584E-003, 4.2349210E+002
 1.3000810E+002, 7.1144479E-002, 1.0427591E-001, 7.3781156E-002, 8.0085011E-003, 4.1037746E-002, 2.5527940E-003, 4.2269112E+002
 1.3100844E+002, 7.0927768E-002, 1.0457099E-001, 7.3863040E-002, 7.9419796E-003, 4.0851156E-002, 2.5407331E-003, 4.2432022E+002
 1.3200199E+002, 7.1300181E-002, 1.0433063E-001, 7.3598497E-002, 7.8414635E-003, 4.1412904E-002, 2.5170865E-003, 4.2173285E+002
 1.3300575E+002, 7.0964861E-002, 1.0458159E-001, 7.3809984E-002, 7.8960028E-003, 4.1004456E-002, 2.5308696E-003, 4.2490355E+002
 1.3400181E+002, 7.1258853E-002, 1.0433039E-001, 7.3642743E-002, 7.8761216E-003, 4.1311399E-002, 2.5245832E-003, 4.2097921E+002
 1.3500984E+002, 7.1177103E-002, 1.0435198E-001, 7.3668817E-002, 7.8878099E-003, 4.1447765E-002, 2.5272835E-003, 4.2425427E+002
 1.3600355E+002, 7.1029492E-002, 1.0443824E-001, 7.3789010E-002, 7.9434284E-003, 4.1147879E-002, 2.5399983E-003, 4.2591255E+002
 1.3700086E+002, 7.1168987E-002, 1.0424864E-001, 7.3688708E-002, 7.9497437E-003, 4.1562114E-002, 2.5398676E-003, 4.2554128E+002
 1.3801216E+002, 7.1411365E-002, 1.0409803E-001, 7.3576201E-002, 7.9272624E-003, 4.1546633E-002, 2.5338124E-003, 4.2070830E+002
 1.3900724E+002, 7.1290018E-002, 1.0382931E-001, 7.3663927E-002, 8.1176659E-003, 4.2038449E-002, 2.5728875E-003, 4.2187270E+002
 1.4000081E+002, 7.1205718E-002, 1.0403265E-001, 7.3653715E-002, 8.0197343E-003, 4.2051817E-002, 2.5533060E-003, 4.2269801E+002
 1.4100364E+002, 7.1485238E-002, 1.0407928E-001, 7.3532853E-002, 7.9012449E-003, 4.1544458E-002, 2.5280348E-003, 4.2104739E+002
 1.4201130E+002, 7.1097782E-002, 1.0435544E-001, 7.3712376E-002, 7.9209783E-003, 4.1501458E-002, 2.5344878E-003, 4.2453943E+002
 1.4301032E+002, 7.1015558E-002, 1.0426076E-001, 7.3769508E-002, 8.0088208E-003, 4.1676682E-002, 2.5527464E-003, 4.2443927E+002
 1.4400602E+002, 7.1087104E-002, 1.0376727E-001, 7.3799750E-002, 8.2531110E-003, 4.2164485E-002, 2.6017038E-003, 4.2247764E+002
 1.4500042E+002, 7.1305373E-002, 1.0373995E-001, 7.3630817E-002, 8.1323866E-003, 4.2355797E-002, 2.5753677E-003, 4.2354999E+002
 1.4600470E+002, 7.1018686E-002, 1.0391263E-001, 7.3838776E-002, 8.2186311E-003, 4.1921026E-002, 2.5953916E-003, 4.2474789E+002
 1.4700259E+002, 7.1112482E-002, 1.0382598E-001, 7.3794799E-002, 8.2223882E-003, 4.1973689E-002, 2.5955197E-003, 4.2170212E+002
 1.4800295E+002, 7.1146929E-002, 1.0393419E-001, 7.3750921E-002, 8.1394495E-003, 4.1888656E-002, 2.5784294E-003, 4.2414587E+002
 1.4900126E+002, 7.1233250E-002, 1.0365495E-001, 7.3731990E-002, 8.2493104E-003, 4.2197063E-002, 2.5999936E-003, 4.2231182E+002
 1.5000099E+002, 7.1314637E-002, 1.0371057E-001, 7.3642762E-002, 8.1545865E-003, 4.2301167E-002, 2.5799385E-003, 4.2158466E+002
 1.5100429E+002, 7.1201725E-002, 1.0385080E-001, 7.3689401E-002, 8.1290585E-003, 4.2205980E-002, 2.5755233E-003, 4.2208314E+002
 1.5200400E+002, 7.1240429E-002, 1.0385039E-001, 7.3632091E-002, 8.0847645E-003, 4.2400615E-002, 2.5659371E-003, 4.2053257E+002
 1.5300374E+002, 7.1381551E-002, 1.0359600E-001, 7.3589168E-002, 8.1640842E-003, 4.2580408E-002, 2.5810889E-003, 4.2102258E+002
 1.5400554E+002, 7.1141521E-002, 1.0385340E-001, 7.3682105E-002, 8.1234299E-003, 4.2496786E-002, 2.5743273E-003, 4.2065266E+002
