s,,,,,,,
Time,"O2 EXHAUST","CO2 EXHAUST","H2O EXHAUST","CO EXHAUST","FUEL EXHAUST","SOOT EXHAUST","TEMP EXHAUST"
 0.0000000E+000, 2.3099739E-001, 5.9146498E-004, 5.9412092E-003, 0.0000000E+000, 0.0000000E+000, 0.0000000E+000, 2.0000000E+001
 1.0036870E+000, 2.3099739E-001, 5.9146498E-004, 5.9412092E-003, 3.0635813E-028, 2.0287822E-027, 8.8788973E-029, 2.1411351E+001
 2.0016212E+000, 2.1985771E-001, 9.5735557E-003, 1.1614939E-002, 7.1502574E-005, 2.8287050E-004, 5.2545402E-005, 1.2749350E+002
 3.0046949E+000, 2.0905592E-001, 1.8341661E-002, 1.7132426E-002, 1.2589854E-004, 3.5999444E-004, 1.0053602E-004, 2.2090269E+002
 4.0006743E+000, 2.0321394E-001, 2.3138538E-002, 2.0104784E-002, 1.2340195E-004, 3.4949460E-004, 1.1987503E-004, 2.6915971E+002
 5.0056662E+000, 1.9308709E-001, 3.1466233E-002, 2.5259819E-002, 1.1532881E-004, 2.9330328E-004, 1.5264709E-004, 3.4213217E+002
 6.0053360E+000, 1.8324368E-001, 3.9609729E-002, 3.0263933E-002, 8.1562971E-005, 1.7311762E-004, 1.7914725E-004, 4.0230908E+002
 7.0069273E+000, 1.7410155E-001, 4.7182775E-002, 3.4908729E-002, 4.4044481E-005, 5.5926294E-005, 2.0247937E-004, 4.4029577E+002
 8.0064333E+000, 1.5897342E-001, 5.9617243E-002, 4.2606133E-002, 3.2229645E-005, 1.5284104E-006, 2.5146429E-004, 5.0044521E+002
 9.0012036E+000, 1.5179923E-001, 6.5497245E-002, 4.6258328E-002, 3.5244730E-005, 2.8796693E-007, 2.7647261E-004, 5.1281057E+002
 1.0002992E+001, 1.3541879E-001, 7.8921694E-002, 5.4597020E-002, 4.2472936E-005, 3.8822576E-007, 3.3364221E-004, 5.5412882E+002
 1.1001620E+001, 1.2750016E-001, 8.5410136E-002, 5.8628578E-002, 4.6811025E-005, 5.0080748E-007, 3.6145506E-004, 5.5914013E+002
 1.2001863E+001, 1.1750409E-001, 9.3601611E-002, 6.3717462E-002, 5.1701633E-005, 7.9898733E-007, 3.9644234E-004, 5.6964974E+002
 1.3006210E+001, 1.1073761E-001, 9.9148635E-002, 6.7161479E-002, 5.3605732E-005, 3.4558474E-007, 4.1983288E-004, 5.7376449E+002
 1.4000420E+001, 1.0418451E-001, 1.0451542E-001, 7.0498736E-002, 5.9026715E-005, 1.4144884E-006, 4.4323069E-004, 5.6976261E+002
 1.5009374E+001, 9.7055805E-002, 1.1035741E-001, 7.4127888E-002, 6.2419293E-005, 1.0833428E-006, 4.6816246E-004, 5.7150253E+002
 1.6003279E+001, 8.9813020E-002, 1.1629705E-001, 7.7813489E-002, 6.2941236E-005, 4.8431426E-007, 4.9288334E-004, 5.7806981E+002
 1.7000710E+001, 8.3278215E-002, 1.2164774E-001, 8.1141924E-002, 6.9171559E-005, 1.3353022E-006, 5.1638797E-004, 5.8467955E+002
 1.8008658E+001, 7.9702946E-002, 1.2456520E-001, 8.2966683E-002, 7.9467035E-005, 3.2583290E-006, 5.3068292E-004, 5.7866925E+002
 1.9002505E+001, 7.5743243E-002, 1.2780397E-001, 8.4984576E-002, 8.5461866E-005, 5.4078910E-006, 5.4538700E-004, 5.7500178E+002
 2.0008866E+001, 7.0574902E-002, 1.3203225E-001, 8.7618208E-002, 9.2748872E-005, 7.2908984E-006, 5.6446786E-004, 5.7866427E+002
 2.1003780E+001, 6.7412959E-002, 1.3460768E-001, 8.9233757E-002, 1.0511583E-004, 9.8763019E-006, 5.7778985E-004, 5.7478663E+002
 2.2007610E+001, 6.3096528E-002, 1.3815299E-001, 9.1428341E-002, 1.0173286E-004, 7.8811150E-006, 5.9175337E-004, 5.7938012E+002
 2.3000754E+001, 6.0734414E-002, 1.4007774E-001, 9.2634827E-002, 1.1035645E-004, 1.0235350E-005, 6.0157687E-004, 5.7153849E+002
 2.4009674E+001, 5.7185917E-002, 1.4298685E-001, 9.4440674E-002, 1.1111445E-004, 1.1115864E-005, 6.1379235E-004, 5.7093343E+002
 2.5000061E+001, 5.2542130E-002, 1.4679295E-001, 9.6804818E-002, 1.1312825E-004, 9.6815804E-006, 6.2999346E-004, 5.7838134E+002
 2.6007244E+001, 5.0343326E-002, 1.4857757E-001, 9.7930722E-002, 1.2616199E-004, 1.1988375E-005, 6.4018192E-004, 5.7408960E+002
 2.7004760E+001, 4.5235620E-002, 1.5277479E-001, 1.0052658E-001, 1.2058828E-004, 1.0756669E-005, 6.5637671E-004, 5.8142789E+002
 2.8007534E+001, 4.4383881E-002, 1.5345554E-001, 1.0096686E-001, 1.3306054E-004, 1.2274389E-005, 6.6187124E-004, 5.6998430E+002
 2.9002680E+001, 3.9331343E-002, 1.5760296E-001, 1.0353594E-001, 1.3035673E-004, 1.3726701E-005, 6.7847506E-004, 5.7647073E+002
 3.0003926E+001, 3.8030673E-002, 1.5866162E-001, 1.0420137E-001, 1.3635843E-004, 1.1977449E-005, 6.8414804E-004, 5.7765451E+002
 3.1002252E+001, 3.4911031E-002, 1.6120546E-001, 1.0579438E-001, 1.4668173E-004, 1.3370820E-005, 6.9690096E-004, 5.7297814E+002
 3.2010652E+001, 3.3059426E-002, 1.6272346E-001, 1.0673688E-001, 1.4720575E-004, 1.2731468E-005, 7.0330265E-004, 5.7639787E+002
 3.3002609E+001, 2.8216164E-002, 1.6669524E-001, 1.0920125E-001, 1.4745593E-004, 1.3421355E-005, 7.1981208E-004, 5.7877383E+002
 3.4008526E+001, 2.6489627E-002, 1.6809039E-001, 1.1008772E-001, 1.6200662E-004, 1.5755688E-005, 7.2871212E-004, 5.7668273E+002
 3.5000008E+001, 2.4700022E-002, 1.6952844E-001, 1.1100959E-001, 1.8265947E-004, 1.9348020E-005, 7.3909826E-004, 5.6930293E+002
 3.6007100E+001, 2.1083899E-002, 1.7250648E-001, 1.1284565E-001, 1.7468581E-004, 1.3990706E-005, 7.4972720E-004, 5.7495586E+002
 3.7003106E+001, 1.9873823E-002, 1.7346901E-001, 1.1347263E-001, 1.9541709E-004, 1.8120458E-005, 7.5815999E-004, 5.7657400E+002
 3.8005570E+001, 1.6151044E-002, 1.7641827E-001, 1.1540898E-001, 2.6948970E-004, 1.7609678E-005, 7.8626066E-004, 5.8288667E+002
 3.9001470E+001, 1.3773522E-002, 1.7834914E-001, 1.1662619E-001, 2.8292018E-004, 1.8717323E-005, 7.9714011E-004, 5.7965635E+002
 4.0007888E+001, 1.1961000E-002, 1.7985558E-001, 1.1753991E-001, 2.6845653E-004, 2.1116330E-005, 8.0028051E-004, 5.8171088E+002
 4.1000237E+001, 1.0644551E-002, 1.8074475E-001, 1.1828577E-001, 4.0333481E-004, 2.6068995E-005, 8.3288275E-004, 5.7912255E+002
 4.2000496E+001, 7.7177361E-003, 1.8324490E-001, 1.1973563E-001, 3.3305828E-004, 2.1286881E-005, 8.2817386E-004, 5.8707377E+002
 4.3010230E+001, 6.2550105E-003, 1.8369817E-001, 1.2077257E-001, 8.5796105E-004, 6.6499306E-005, 9.4259238E-004, 5.8041141E+002
 4.4006777E+001, 5.0212101E-003, 1.8404690E-001, 1.2167210E-001, 1.3322345E-003, 4.8283120E-005, 1.0457226E-003, 5.8222142E+002
 4.5003093E+001, 3.4291005E-003, 1.8478308E-001, 1.2271228E-001, 1.7373560E-003, 4.9128479E-005, 1.1356318E-003, 5.8388241E+002
 4.6002716E+001, 4.0856537E-003, 1.8371306E-001, 1.2255655E-001, 2.0908350E-003, 2.3158664E-004, 1.2069857E-003, 5.6966945E+002
 4.7004669E+001, 4.5575323E-003, 1.8432077E-001, 1.2193979E-001, 1.4003475E-003, 1.0444966E-004, 1.0614610E-003, 5.6976653E+002
 4.8001134E+001, 2.7652188E-003, 1.8479062E-001, 1.2324095E-001, 2.1016785E-003, 1.7989621E-004, 1.2137750E-003, 5.7134745E+002
 4.9008672E+001, 1.4361796E-003, 1.8279031E-001, 1.2512972E-001, 4.2754207E-003, 3.6341046E-004, 1.6715435E-003, 5.6612906E+002
 5.0006005E+001, 1.6141850E-003, 1.8222754E-001, 1.2516900E-001, 4.5458466E-003, 5.5628190E-004, 1.7271923E-003, 5.5993713E+002
 5.1006160E+001, 1.7797644E-003, 1.8221100E-001, 1.2502757E-001, 4.4549449E-003, 6.0105624E-004, 1.7076343E-003, 5.5344860E+002
 5.2010819E+001, 1.6317569E-003, 1.8284370E-001, 1.2493543E-001, 4.1176839E-003, 4.0507962E-004, 1.6379456E-003, 5.5528617E+002
 5.3000719E+001, 1.1044501E-003, 1.8107989E-001, 1.2599893E-001, 5.6176333E-003, 8.6774781E-004, 1.9522318E-003, 5.4494828E+002
 5.4005549E+001, 1.0622314E-003, 1.8044051E-001, 1.2627349E-001, 6.0840460E-003, 9.6454989E-004, 2.0495831E-003, 5.4062718E+002
 5.5007291E+001, 1.4019460E-003, 1.8007927E-001, 1.2613961E-001, 6.1465851E-003, 9.3675949E-004, 2.0614948E-003, 5.3853384E+002
 5.6006564E+001, 8.1556021E-004, 1.7946507E-001, 1.2687621E-001, 6.9226701E-003, 9.5909245E-004, 2.2253447E-003, 5.4276622E+002
 5.7008522E+001, 9.6348566E-004, 1.7900367E-001, 1.2691865E-001, 7.1512624E-003, 1.0578225E-003, 2.2724440E-003, 5.3598848E+002
 5.8006973E+001, 8.0093216E-004, 1.7775948E-001, 1.2746017E-001, 8.0650758E-003, 1.5473366E-003, 2.4632142E-003, 5.2694002E+002
 5.9009526E+001, 6.7811069E-004, 1.7824730E-001, 1.2742297E-001, 7.8280222E-003, 1.2638360E-003, 2.4144098E-003, 5.3309227E+002
 6.0010771E+001, 6.7966146E-004, 1.7704593E-001, 1.2782016E-001, 8.6229641E-003, 1.6990511E-003, 2.5798708E-003, 5.2542060E+002
 6.1005073E+001, 6.9121848E-004, 1.7676861E-001, 1.2790317E-001, 8.8004297E-003, 1.7958437E-003, 2.6167711E-003, 5.2680438E+002
 6.2010302E+001, 6.5719856E-004, 1.7679953E-001, 1.2788971E-001, 8.7783352E-003, 1.9433804E-003, 2.6121625E-003, 5.2307329E+002
 6.3008017E+001, 5.7561145E-004, 1.7526330E-001, 1.2852997E-001, 9.8855584E-003, 2.1896475E-003, 2.8431896E-003, 5.2185467E+002
 6.4000845E+001, 6.1833628E-004, 1.7541232E-001, 1.2843890E-001, 9.7580365E-003, 2.1642992E-003, 2.8164660E-003, 5.2584778E+002
 6.5007983E+001, 6.2974707E-004, 1.7437891E-001, 1.2869353E-001, 1.0382937E-002, 2.9308684E-003, 2.9461663E-003, 5.1615290E+002
 6.6008362E+001, 4.9961568E-004, 1.7354376E-001, 1.2914662E-001, 1.1057137E-002, 2.9003522E-003, 3.0872564E-003, 5.2460114E+002
 6.7007901E+001, 5.5738195E-004, 1.7370018E-001, 1.2902717E-001, 1.0906971E-002, 2.9386575E-003, 3.0557085E-003, 5.2214734E+002
 6.8002127E+001, 5.4836632E-004, 1.7294533E-001, 1.2930046E-001, 1.1422634E-002, 3.1355751E-003, 3.1631409E-003, 5.1888961E+002
 6.9007728E+001, 5.2035257E-004, 1.7227789E-001, 1.2948573E-001, 1.1840858E-002, 3.6751830E-003, 3.2500453E-003, 5.1117076E+002
 7.0005976E+001, 5.0634747E-004, 1.7203733E-001, 1.2969065E-001, 1.2084903E-002, 3.1963889E-003, 3.3013713E-003, 5.1354361E+002
 7.1001694E+001, 5.0719777E-004, 1.7165400E-001, 1.2977603E-001, 1.2310631E-002, 3.5402326E-003, 3.3481805E-003, 5.1331636E+002
 7.2000746E+001, 5.6700894E-004, 1.7065522E-001, 1.3004815E-001, 1.2931355E-002, 3.9465486E-003, 3.4771282E-003, 5.1134149E+002
 7.3008009E+001, 5.1098529E-004, 1.6982461E-001, 1.3040841E-001, 1.3539715E-002, 4.0593505E-003, 3.6041210E-003, 5.1188916E+002
 7.4010858E+001, 5.1265198E-004, 1.7038691E-001, 1.3026313E-001, 1.3195018E-002, 3.6428294E-003, 3.5325459E-003, 5.1328169E+002
 7.5001205E+001, 5.0312866E-004, 1.6932075E-001, 1.3057113E-001, 1.3870642E-002, 4.2968659E-003, 3.6729855E-003, 5.1119799E+002
 7.6007932E+001, 5.5222185E-004, 1.6930352E-001, 1.3057216E-001, 1.3878098E-002, 4.1205408E-003, 3.6745122E-003, 5.0742601E+002
 7.7001338E+001, 4.9315686E-004, 1.6825210E-001, 1.3097445E-001, 1.4611704E-002, 4.4819543E-003, 3.8274440E-003, 5.1369725E+002
 7.8007935E+001, 5.2803508E-004, 1.6814419E-001, 1.3092212E-001, 1.4623144E-002, 4.8146282E-003, 3.8294504E-003, 5.0881281E+002
 7.9004096E+001, 5.2038744E-004, 1.6809820E-001, 1.3097301E-001, 1.4677788E-002, 4.6854670E-003, 3.8409753E-003, 5.0646875E+002
 8.0003159E+001, 5.5515117E-004, 1.6721926E-001, 1.3112749E-001, 1.5166957E-002, 5.5423002E-003, 3.9422148E-003, 5.0386005E+002
 8.1000511E+001, 4.9654722E-004, 1.6736967E-001, 1.3117696E-001, 1.5135339E-002, 5.2376416E-003, 3.9360584E-003, 5.0438185E+002
 8.2006530E+001, 4.8283571E-004, 1.6743745E-001, 1.3118826E-001, 1.5113463E-002, 5.1019584E-003, 3.9316486E-003, 5.0621223E+002
 8.3000707E+001, 4.5653324E-004, 1.6610241E-001, 1.3166743E-001, 1.6022819E-002, 5.5144988E-003, 4.1210864E-003, 5.0635686E+002
 8.4002556E+001, 4.3666462E-004, 1.6601895E-001, 1.3159101E-001, 1.6008156E-002, 6.1478445E-003, 4.1175984E-003, 5.0749225E+002
 8.5008136E+001, 4.4480348E-004, 1.6558364E-001, 1.3174013E-001, 1.6299588E-002, 6.2477765E-003, 4.1782788E-003, 5.0881747E+002
 8.6001170E+001, 4.7644319E-004, 1.6585524E-001, 1.3171434E-001, 1.6162553E-002, 5.6956382E-003, 4.1500222E-003, 5.0312448E+002
 8.7010024E+001, 4.6119300E-004, 1.6595438E-001, 1.3161415E-001, 1.6051696E-002, 6.0597177E-003, 4.1266658E-003, 5.0582126E+002
 8.8011512E+001, 4.6257187E-004, 1.6479870E-001, 1.3196053E-001, 1.6792305E-002, 6.6570945E-003, 4.2806675E-003, 5.0558802E+002
 8.9005602E+001, 4.6170563E-004, 1.6467914E-001, 1.3198856E-001, 1.6863678E-002, 6.7620633E-003, 4.2954748E-003, 5.0160834E+002
 9.0010832E+001, 4.9829478E-004, 1.6479831E-001, 1.3194128E-001, 1.6778908E-002, 6.6040912E-003, 4.2777933E-003, 5.0560533E+002
 9.1001980E+001, 4.6163444E-004, 1.6431394E-001, 1.3210275E-001, 1.7100918E-002, 6.9293553E-003, 4.3448271E-003, 5.0324924E+002
 9.2009505E+001, 4.9438425E-004, 1.6395933E-001, 1.3218732E-001, 1.7312985E-002, 7.0854026E-003, 4.3888259E-003, 5.0008419E+002
 9.3002340E+001, 4.7329463E-004, 1.6336738E-001, 1.3238109E-001, 1.7703721E-002, 7.4012298E-003, 4.4701488E-003, 5.0348300E+002
 9.4009623E+001, 4.8905016E-004, 1.6329718E-001, 1.3234790E-001, 1.7711852E-002, 7.6424802E-003, 4.4716019E-003, 5.0191634E+002
 9.5001771E+001, 4.6336305E-004, 1.6285094E-001, 1.3254280E-001, 1.8039523E-002, 7.6778660E-003, 4.5400066E-003, 5.0651598E+002
 9.6006313E+001, 4.5349631E-004, 1.6301204E-001, 1.3249591E-001, 1.7937389E-002, 7.6281998E-003, 4.5187761E-003, 5.0620425E+002
 9.7009971E+001, 4.3741860E-004, 1.6242956E-001, 1.3262889E-001, 1.8282857E-002, 8.2073383E-003, 4.5904334E-003, 5.0484806E+002
 9.8010358E+001, 4.9649134E-004, 1.6276038E-001, 1.3259824E-001, 1.8116127E-002, 7.4448677E-003, 4.5560549E-003, 5.0188020E+002
 9.9009731E+001, 4.5830951E-004, 1.6223496E-001, 1.3277519E-001, 1.8466613E-002, 7.7820478E-003, 4.6290239E-003, 5.0406351E+002
 1.0000584E+002, 4.5669265E-004, 1.6194429E-001, 1.3278640E-001, 1.8601681E-002, 8.3194745E-003, 4.6567799E-003, 5.0033156E+002
 1.0100526E+002, 4.3764487E-004, 1.6201811E-001, 1.3274238E-001, 1.8539901E-002, 8.4701962E-003, 4.6438404E-003, 5.0198817E+002
 1.0200729E+002, 4.2474982E-004, 1.6171443E-001, 1.3278257E-001, 1.8700417E-002, 8.9365654E-003, 4.6769983E-003, 5.0262843E+002
 1.0301189E+002, 4.3433772E-004, 1.6186767E-001, 1.3280509E-001, 1.8648256E-002, 8.4746395E-003, 4.6664486E-003, 5.0121436E+002
 1.0401075E+002, 4.8213731E-004, 1.6176931E-001, 1.3286725E-001, 1.8732577E-002, 8.1622782E-003, 4.6841189E-003, 5.0263553E+002
 1.0500643E+002, 4.3554805E-004, 1.6106668E-001, 1.3299931E-001, 1.9130619E-002, 9.1164740E-003, 4.7665513E-003, 5.0307788E+002
 1.0600849E+002, 4.5049272E-004, 1.6096491E-001, 1.3309661E-001, 1.9240685E-002, 8.7734082E-003, 4.7897274E-003, 5.0414450E+002
 1.0700271E+002, 4.8711858E-004, 1.6110944E-001, 1.3299719E-001, 1.9109594E-002, 8.8244349E-003, 4.7622200E-003, 5.0222832E+002
 1.0800845E+002, 4.4822049E-004, 1.6011422E-001, 1.3325120E-001, 1.9718138E-002, 9.7280841E-003, 4.8885721E-003, 5.0104650E+002
 1.0900381E+002, 4.2512177E-004, 1.6139362E-001, 1.3294794E-001, 1.8952729E-002, 8.7568917E-003, 4.7297649E-003, 5.0310911E+002
 1.1000584E+002, 4.5383256E-004, 1.6103446E-001, 1.3298738E-001, 1.9136398E-002, 9.1643808E-003, 4.7676570E-003, 5.0112320E+002
 1.1100749E+002, 4.3003426E-004, 1.6092701E-001, 1.3310661E-001, 1.9264390E-002, 8.8858187E-003, 4.7946530E-003, 4.9901672E+002
 1.1200229E+002, 4.0884827E-004, 1.6037018E-001, 1.3322515E-001, 1.9588946E-002, 9.5067305E-003, 4.8619329E-003, 5.0390043E+002
 1.1300155E+002, 4.3302076E-004, 1.6047513E-001, 1.3327773E-001, 1.9578015E-002, 8.9310193E-003, 4.8600229E-003, 5.0079316E+002
 1.1400160E+002, 4.3209649E-004, 1.6009958E-001, 1.3328068E-001, 1.9744723E-002, 9.6781164E-003, 4.8942112E-003, 5.0113712E+002
 1.1500607E+002, 4.2429402E-004, 1.6000459E-001, 1.3334737E-001, 1.9831526E-002, 9.5695999E-003, 4.9124281E-003, 5.0187662E+002
 1.1600908E+002, 4.4225484E-004, 1.6071599E-001, 1.3306408E-001, 1.9328025E-002, 9.4727836E-003, 4.8074235E-003, 5.0249859E+002
 1.1700347E+002, 4.7783951E-004, 1.6024506E-001, 1.3322758E-001, 1.9644335E-002, 9.4576743E-003, 4.8732900E-003, 5.0362933E+002
 1.1800451E+002, 4.2845293E-004, 1.5966940E-001, 1.3338005E-001, 2.0000513E-002, 1.0065487E-002, 4.9472720E-003, 5.0437085E+002
 1.1901008E+002, 4.7644725E-004, 1.5993926E-001, 1.3323429E-001, 1.9783000E-002, 1.0047156E-002, 4.9017547E-003, 4.9889808E+002
 1.2000388E+002, 5.0061571E-004, 1.6000482E-001, 1.3329696E-001, 1.9796159E-002, 9.5005964E-003, 4.9048463E-003, 5.0171525E+002
 1.2100419E+002, 4.8423074E-004, 1.6018512E-001, 1.3320193E-001, 1.9653206E-002, 9.6798622E-003, 4.8749443E-003, 5.0245720E+002
 1.2201099E+002, 4.7287832E-004, 1.5990545E-001, 1.3328604E-001, 1.9832814E-002, 9.8720362E-003, 4.9122943E-003, 5.0709256E+002
 1.2300672E+002, 5.3295594E-004, 1.6012901E-001, 1.3320540E-001, 1.9679364E-002, 9.5713547E-003, 4.8803199E-003, 5.0235229E+002
 1.2400096E+002, 5.5660846E-004, 1.6012170E-001, 1.3303245E-001, 1.9565445E-002, 1.0350323E-002, 4.8558670E-003, 5.0293794E+002
 1.2501048E+002, 6.4512283E-004, 1.5955071E-001, 1.3310046E-001, 1.9860323E-002, 1.0791841E-002, 4.9167248E-003, 5.0095046E+002
 1.2600792E+002, 6.1549546E-004, 1.6009322E-001, 1.3299117E-001, 1.9549114E-002, 1.0366855E-002, 4.8522476E-003, 5.0595510E+002
 1.2700499E+002, 5.9059286E-004, 1.6086183E-001, 1.3276075E-001, 1.9056909E-002, 1.0070457E-002, 4.7499014E-003, 5.1084879E+002
 1.2800218E+002, 6.9299758E-004, 1.5973825E-001, 1.3295955E-001, 1.9682190E-002, 1.0915947E-002, 4.8793100E-003, 5.0358156E+002
 1.2900751E+002, 7.0301079E-004, 1.6060093E-001, 1.3280782E-001, 1.9201277E-002, 9.8903321E-003, 4.7797728E-003, 5.0338002E+002
 1.3000637E+002, 7.2774532E-004, 1.6031562E-001, 1.3297064E-001, 1.9435896E-002, 9.5495404E-003, 4.8288928E-003, 5.0410503E+002
 1.3100078E+002, 6.7733148E-004, 1.6044724E-001, 1.3285057E-001, 1.9297949E-002, 1.0094873E-002, 4.7998632E-003, 5.1034549E+002
 1.3200299E+002, 7.3415574E-004, 1.6092706E-001, 1.3258965E-001, 1.8910479E-002, 1.0190698E-002, 4.7187768E-003, 5.0758645E+002
 1.3300202E+002, 8.8216905E-004, 1.5933507E-001, 1.3293849E-001, 1.9841718E-002, 1.1041122E-002, 4.9118431E-003, 5.0234234E+002
 1.3400121E+002, 9.2443627E-004, 1.6063831E-001, 1.3275851E-001, 1.9148002E-002, 9.1321051E-003, 4.7685035E-003, 5.0272825E+002
 1.3500856E+002, 8.4912149E-004, 1.5986984E-001, 1.3300327E-001, 1.9651455E-002, 9.7770681E-003, 4.8732627E-003, 5.0644102E+002
 1.3600018E+002, 9.2151664E-004, 1.6056717E-001, 1.3262446E-001, 1.9088761E-002, 9.9571702E-003, 4.7555093E-003, 5.0534571E+002
 1.3701052E+002, 8.8851672E-004, 1.5960362E-001, 1.3294075E-001, 1.9725365E-002, 1.0461240E-002, 4.8880079E-003, 5.0593418E+002
 1.3800869E+002, 9.3376582E-004, 1.5948320E-001, 1.3295632E-001, 1.9787953E-002, 1.0436676E-002, 4.9009280E-003, 5.0627885E+002
 1.3900058E+002, 9.9935249E-004, 1.5958251E-001, 1.3302202E-001, 1.9787680E-002, 9.6330668E-003, 4.9012790E-003, 5.0870041E+002
 1.4000026E+002, 1.0199318E-003, 1.5941612E-001, 1.3302363E-001, 1.9861404E-002, 9.8744953E-003, 4.9163968E-003, 5.0932559E+002
 1.4100833E+002, 1.1551015E-003, 1.5705142E-001, 1.3345316E-001, 2.1186191E-002, 1.1935512E-002, 5.1906420E-003, 5.0155499E+002
 1.4200598E+002, 1.1784760E-003, 1.5753217E-001, 1.3335171E-001, 2.0906500E-002, 1.1373659E-002, 5.1326661E-003, 4.9834922E+002
 1.4301126E+002, 1.2028783E-003, 1.5811635E-001, 1.3329872E-001, 2.0614139E-002, 1.0356846E-002, 5.0724009E-003, 5.0137877E+002
 1.4400697E+002, 1.1216810E-003, 1.5771648E-001, 1.3345755E-001, 2.0898036E-002, 1.0711558E-002, 5.1316133E-003, 5.0275464E+002
 1.4501033E+002, 1.0938286E-003, 1.5813943E-001, 1.3329259E-001, 2.0601648E-002, 1.0798363E-002, 5.0698197E-003, 5.0794312E+002
 1.4600482E+002, 1.2836429E-003, 1.5802119E-001, 1.3312856E-001, 2.0539705E-002, 1.1059549E-002, 5.0560497E-003, 5.0717871E+002
 1.4700159E+002, 1.3722195E-003, 1.5874506E-001, 1.3287194E-001, 2.0047585E-002, 1.0508161E-002, 4.9535357E-003, 5.0156572E+002
 1.4800562E+002, 1.3607720E-003, 1.5807903E-001, 1.3318529E-001, 2.0551377E-002, 1.0336010E-002, 5.0587901E-003, 5.0225319E+002
 1.4900978E+002, 1.4350380E-003, 1.5650385E-001, 1.3347979E-001, 2.1439756E-002, 1.1733242E-002, 5.2427379E-003, 5.0289098E+002
 1.5000017E+002, 1.4009303E-003, 1.5648880E-001, 1.3359711E-001, 2.1526108E-002, 1.1320977E-002, 5.2611885E-003, 5.0419806E+002
 1.5100745E+002, 1.4962585E-003, 1.5662500E-001, 1.3345893E-001, 2.1371551E-002, 1.1336022E-002, 5.2286155E-003, 5.0291660E+002
 1.5200012E+002, 1.5193471E-003, 1.5694828E-001, 1.3350460E-001, 2.1260229E-002, 1.0358680E-002, 5.2060848E-003, 5.0014949E+002
 1.5300366E+002, 1.4093568E-003, 1.5740615E-001, 1.3345153E-001, 2.1025392E-002, 1.0161024E-002, 5.1576318E-003, 5.0316439E+002
 1.5400610E+002, 1.4556042E-003, 1.5611567E-001, 1.3376432E-001, 2.1801720E-002, 1.1009913E-002, 5.3187337E-003, 5.0497324E+002
