s,,,,,,,
Time,"O2 EXHAUST","CO2 EXHAUST","H2O EXHAUST","CO EXHAUST","FUEL EXHAUST","SOOT EXHAUST","TEMP EXHAUST"
 0.0000000E+000, 2.3099739E-001, 5.9146498E-004, 5.9412091E-003, 0.0000000E+000, 0.0000000E+000, 0.0000000E+000, 2.0000000E+001
 1.0050886E+000, 2.3099739E-001, 5.9146498E-004, 5.9412091E-003, 3.1043286E-032, 2.1767225E-031, 4.1542059E-032, 2.0404758E+001
 2.0009161E+000, 2.2499743E-001, 6.1659213E-003, 7.5223680E-003, 1.7368563E-005, 1.7256848E-004, 3.7031013E-004, 7.8543857E+001
 3.0040747E+000, 2.2178494E-001, 9.1424891E-003, 8.3779791E-003, 4.7276453E-005, 1.9470407E-004, 5.7250593E-004, 1.0461066E+002
 4.0000827E+000, 2.1704706E-001, 1.3551106E-002, 9.6306549E-003, 6.4621295E-005, 2.8104107E-004, 8.6614862E-004, 1.4802937E+002
 5.0028282E+000, 2.1461282E-001, 1.5805366E-002, 1.0277229E-002, 8.4809280E-005, 3.1630130E-004, 1.0187465E-003, 1.6881096E+002
 6.0043841E+000, 2.1060416E-001, 1.9515057E-002, 1.1342328E-002, 1.2007274E-004, 3.7572093E-004, 1.2703088E-003, 2.0149077E+002
 7.0001137E+000, 2.0798895E-001, 2.1943066E-002, 1.2036635E-002, 1.3776385E-004, 4.0614069E-004, 1.4337908E-003, 2.2061639E+002
 8.0035076E+000, 2.0452386E-001, 2.5188888E-002, 1.2954337E-002, 1.4132581E-004, 4.1777905E-004, 1.6479889E-003, 2.4536836E+002
 9.0062057E+000, 2.0032734E-001, 2.9096635E-002, 1.4071778E-002, 1.6922333E-004, 4.1566829E-004, 1.9109777E-003, 2.7191789E+002
 1.0000128E+001, 1.9779057E-001, 3.1460465E-002, 1.4746030E-002, 1.8298860E-004, 4.2313522E-004, 2.0693891E-003, 2.8655234E+002
 1.1008365E+001, 1.9329453E-001, 3.5669028E-002, 1.5941700E-002, 1.9806032E-004, 3.9739251E-004, 2.3493811E-003, 3.1092087E+002
 1.2002784E+001, 1.8964046E-001, 3.9088898E-002, 1.6913580E-002, 2.1083560E-004, 3.7629914E-004, 2.5770163E-003, 3.2871297E+002
 1.3003306E+001, 1.8519381E-001, 4.3274141E-002, 1.8094360E-002, 2.0996206E-004, 3.2777958E-004, 2.8520230E-003, 3.4581786E+002
 1.4003422E+001, 1.8155499E-001, 4.6690169E-002, 1.9060998E-002, 2.1480946E-004, 2.9990230E-004, 3.0776895E-003, 3.5669988E+002
 1.5000883E+001, 1.7887898E-001, 4.9216169E-002, 1.9770930E-002, 2.0906208E-004, 2.6432238E-004, 3.2425396E-003, 3.6761239E+002
 1.6007536E+001, 1.7464655E-001, 5.3192202E-002, 2.0894711E-002, 2.1221034E-004, 2.3229221E-004, 3.5046609E-003, 3.7417484E+002
 1.7003601E+001, 1.7091958E-001, 5.6697503E-002, 2.1883850E-002, 2.1193990E-004, 2.0103718E-004, 3.7350898E-003, 3.8609691E+002
 1.8006137E+001, 1.6837489E-001, 5.9096436E-002, 2.2558925E-002, 2.0815703E-004, 1.7274918E-004, 3.8920101E-003, 3.9123587E+002
 1.9008450E+001, 1.6566929E-001, 6.1643582E-002, 2.3276535E-002, 2.0578317E-004, 1.5007264E-004, 4.0589812E-003, 3.9653794E+002
 2.0006905E+001, 1.6458608E-001, 6.2667371E-002, 2.3563480E-002, 2.0197826E-004, 1.3739151E-004, 4.1254757E-003, 3.9573467E+002
 2.1000573E+001, 1.6277877E-001, 6.4370148E-002, 2.4042794E-002, 1.9959399E-004, 1.2034582E-004, 4.2369239E-003, 3.9923742E+002
 2.2003015E+001, 1.6015207E-001, 6.6843402E-002, 2.4739183E-002, 1.9654928E-004, 1.0041102E-004, 4.3988912E-003, 4.0039135E+002
 2.3003965E+001, 1.5885228E-001, 6.8066489E-002, 2.5083888E-002, 1.9565759E-004, 9.0894925E-005, 4.4791211E-003, 4.0276128E+002
 2.4000185E+001, 1.5769897E-001, 6.9152534E-002, 2.5389737E-002, 1.9441087E-004, 8.1173858E-005, 4.5502630E-003, 4.0241804E+002
 2.5004387E+001, 1.5567554E-001, 7.1051607E-002, 2.5926555E-002, 1.9611953E-004, 7.2990970E-005, 4.6755047E-003, 4.0379368E+002
 2.6003481E+001, 1.5436635E-001, 7.2281632E-002, 2.6273613E-002, 1.9602314E-004, 6.7958004E-005, 4.7563631E-003, 4.0338244E+002
 2.7004273E+001, 1.5339514E-001, 7.3195364E-002, 2.6531221E-002, 1.9552356E-004, 6.0755108E-005, 4.8163365E-003, 4.0502452E+002
 2.8004355E+001, 1.5251827E-001, 7.4017849E-002, 2.6763921E-002, 1.9665271E-004, 5.7428051E-005, 4.8706626E-003, 4.0181153E+002
 2.9004897E+001, 1.5137499E-001, 7.5092188E-002, 2.7067064E-002, 1.9658216E-004, 5.2115268E-005, 4.9412896E-003, 4.0400506E+002
 3.0003795E+001, 1.5010201E-001, 7.6287818E-002, 2.7404522E-002, 1.9669431E-004, 4.7919372E-005, 5.0199315E-003, 4.0465375E+002
 3.1006282E+001, 1.4977683E-001, 7.6592847E-002, 2.7490810E-002, 1.9709126E-004, 4.6702579E-005, 5.0400743E-003, 4.0087841E+002
 3.2007306E+001, 1.4841940E-001, 7.7866620E-002, 2.7850889E-002, 1.9827627E-004, 4.2059948E-005, 5.1240866E-003, 4.0256964E+002
 3.3009007E+001, 1.4731664E-001, 7.8900898E-002, 2.8143291E-002, 1.9931015E-004, 4.0320015E-005, 5.1923185E-003, 4.0306051E+002
 3.4001691E+001, 1.4566885E-001, 8.0443455E-002, 2.8580660E-002, 2.0325964E-004, 3.8527972E-005, 5.2946029E-003, 4.0375016E+002
 3.5002859E+001, 1.4641418E-001, 7.9743966E-002, 2.8382822E-002, 2.0242980E-004, 4.2430320E-005, 5.2484291E-003, 3.9933163E+002
 3.6006647E+001, 1.4535202E-001, 8.0741650E-002, 2.8664511E-002, 2.0269986E-004, 3.7719758E-005, 5.3140894E-003, 4.0489616E+002
 3.7006122E+001, 1.4317001E-001, 8.2785706E-002, 2.9243513E-002, 2.0686628E-004, 3.4440036E-005, 5.4493964E-003, 4.0276186E+002
 3.8000475E+001, 1.4335481E-001, 8.2609140E-002, 2.9194756E-002, 2.0891711E-004, 3.8068543E-005, 5.4382304E-003, 4.0170393E+002
 3.9006539E+001, 1.4201137E-001, 8.3871410E-002, 2.9550833E-002, 2.0867588E-004, 3.3385483E-005, 5.5211777E-003, 4.0232547E+002
 4.0002475E+001, 1.4133573E-001, 8.4502885E-002, 2.9730254E-002, 2.1101071E-004, 3.3559593E-005, 5.5632052E-003, 4.0287052E+002
 4.1002659E+001, 1.4077177E-001, 8.5031477E-002, 2.9879784E-002, 2.1171764E-004, 3.3343653E-005, 5.5981154E-003, 4.0298129E+002
 4.2003754E+001, 1.3932932E-001, 8.6383050E-002, 3.0262512E-002, 2.1424401E-004, 3.0917943E-005, 5.6875338E-003, 4.0345644E+002
 4.3002221E+001, 1.3807505E-001, 8.7556942E-002, 3.0595422E-002, 2.1738796E-004, 3.0078094E-005, 5.7654026E-003, 4.0613569E+002
 4.4008388E+001, 1.3909502E-001, 8.6603021E-002, 3.0324528E-002, 2.1414527E-004, 3.1176478E-005, 5.7019765E-003, 4.0530380E+002
 4.5007546E+001, 1.3774193E-001, 8.7870571E-002, 3.0683461E-002, 2.1652340E-004, 3.0211437E-005, 5.7858380E-003, 4.0290391E+002
 4.6008273E+001, 1.3714376E-001, 8.8429596E-002, 3.0842277E-002, 2.1855857E-004, 3.0765514E-005, 5.8230368E-003, 4.0476798E+002
 4.7008773E+001, 1.3664421E-001, 8.8897537E-002, 3.0974746E-002, 2.1936834E-004, 3.0851379E-005, 5.8539811E-003, 4.0091663E+002
 4.8007165E+001, 1.3541497E-001, 9.0050186E-002, 3.1300765E-002, 2.2080379E-004, 2.8619061E-005, 5.9300833E-003, 4.0550893E+002
 4.9002946E+001, 1.3424855E-001, 9.1140474E-002, 3.1610594E-002, 2.2491450E-004, 2.8023682E-005, 6.0026641E-003, 4.0435677E+002
 5.0000949E+001, 1.3441920E-001, 9.0982366E-002, 3.1565064E-002, 2.2317876E-004, 2.7590076E-005, 5.9918921E-003, 4.0614731E+002
 5.1009478E+001, 1.3476462E-001, 9.0655465E-002, 3.1473436E-002, 2.2440404E-004, 3.3541499E-005, 5.9706624E-003, 4.0458694E+002
 5.2007256E+001, 1.3354448E-001, 9.1800598E-002, 3.1797164E-002, 2.2548658E-004, 2.8417553E-005, 6.0461939E-003, 4.0419716E+002
 5.3006052E+001, 1.3270679E-001, 9.2585767E-002, 3.2019352E-002, 2.2667314E-004, 2.7256095E-005, 6.0980789E-003, 4.0320378E+002
 5.4008888E+001, 1.3143561E-001, 9.3775340E-002, 3.2356784E-002, 2.3000093E-004, 2.6389094E-005, 6.1770186E-003, 4.0691880E+002
 5.5004060E+001, 1.3247914E-001, 9.2796871E-002, 3.2079825E-002, 2.2841209E-004, 3.0042421E-005, 6.1123363E-003, 4.0531053E+002
 5.6009132E+001, 1.3144602E-001, 9.3766193E-002, 3.2353778E-002, 2.2921178E-004, 2.7620535E-005, 6.1762464E-003, 4.0343699E+002
 5.7002569E+001, 1.3090876E-001, 9.4268913E-002, 3.2496382E-002, 2.3062560E-004, 2.7438031E-005, 6.2096084E-003, 4.0428966E+002
 5.8007254E+001, 1.3001056E-001, 9.5109807E-002, 3.2734778E-002, 2.3272737E-004, 2.6475716E-005, 6.2653556E-003, 4.0637935E+002
 5.9000524E+001, 1.3005296E-001, 9.5069481E-002, 3.2723535E-002, 2.3299668E-004, 2.7499458E-005, 6.2627623E-003, 4.0416126E+002
 6.0004013E+001, 1.2964212E-001, 9.5454665E-002, 3.2832500E-002, 2.3351027E-004, 2.6820347E-005, 6.2882010E-003, 4.0301589E+002
 6.1005460E+001, 1.2862753E-001, 9.6403425E-002, 3.3101878E-002, 2.3665327E-004, 2.6768768E-005, 6.3512662E-003, 4.0702869E+002
 6.2005139E+001, 1.2795554E-001, 9.7031589E-002, 3.3280337E-002, 2.3893358E-004, 2.6708270E-005, 6.3930642E-003, 4.0623855E+002
 6.3002445E+001, 1.2766232E-001, 9.7306502E-002, 3.3357988E-002, 2.3908875E-004, 2.7335357E-005, 6.4111745E-003, 4.0628596E+002
 6.4004736E+001, 1.2793506E-001, 9.7052641E-002, 3.3285469E-002, 2.3740320E-004, 2.6311306E-005, 6.3941172E-003, 4.0592354E+002
 6.5008009E+001, 1.2744942E-001, 9.7507934E-002, 3.3414242E-002, 2.3796676E-004, 2.5812268E-005, 6.4241767E-003, 4.0546336E+002
 6.6009261E+001, 1.2737165E-001, 9.7580298E-002, 3.3434867E-002, 2.3836488E-004, 2.6649489E-005, 6.4290211E-003, 4.0530559E+002
 6.7003815E+001, 1.2790241E-001, 9.7083479E-002, 3.3293901E-002, 2.3691115E-004, 2.7969739E-005, 6.3960385E-003, 4.0467411E+002
 6.8001489E+001, 1.2690045E-001, 9.8023389E-002, 3.3559612E-002, 2.3781982E-004, 2.5765646E-005, 6.4580382E-003, 4.0512903E+002
 6.9004068E+001, 1.2667763E-001, 9.8230548E-002, 3.3618764E-002, 2.3915986E-004, 2.7894801E-005, 6.4719500E-003, 4.0277317E+002
 7.0008536E+001, 1.2730769E-001, 9.7639874E-002, 3.3451865E-002, 2.3872189E-004, 2.6902597E-005, 6.4330158E-003, 4.0557334E+002
 7.1000578E+001, 1.2487052E-001, 9.9921941E-002, 3.4098567E-002, 2.4392365E-004, 2.5107029E-005, 6.5841971E-003, 4.0548002E+002
 7.2005355E+001, 1.2486930E-001, 9.9921924E-002, 3.4099019E-002, 2.4479604E-004, 2.5874378E-005, 6.5843849E-003, 4.0364830E+002
 7.3006808E+001, 1.2476953E-001, 1.0001539E-001, 3.4125406E-002, 2.4483007E-004, 2.6556687E-005, 6.5905378E-003, 4.0502104E+002
 7.4000457E+001, 1.2419043E-001, 1.0055781E-001, 3.4279094E-002, 2.4601166E-004, 2.5591454E-005, 6.6264602E-003, 4.0595604E+002
 7.5005111E+001, 1.2558649E-001, 9.9248344E-002, 3.3908679E-002, 2.4432484E-004, 3.0229036E-005, 6.5399923E-003, 4.0337975E+002
 7.6004922E+001, 1.2381414E-001, 1.0090952E-001, 3.4378975E-002, 2.4722428E-004, 2.6108417E-005, 6.6498488E-003, 4.0389951E+002
 7.7001435E+001, 1.2454688E-001, 1.0022286E-001, 3.4184602E-002, 2.4606859E-004, 2.7017392E-005, 6.6044482E-003, 4.0390850E+002
 7.8002800E+001, 1.2429326E-001, 1.0046180E-001, 3.4251714E-002, 2.4547195E-004, 2.6060623E-005, 6.6200302E-003, 4.0501390E+002
 7.9007624E+001, 1.2451451E-001, 1.0025630E-001, 3.4192709E-002, 2.4354715E-004, 2.6108499E-005, 6.6061014E-003, 4.0350541E+002
 8.0007431E+001, 1.2441197E-001, 1.0035060E-001, 3.4220065E-002, 2.4497475E-004, 2.7623664E-005, 6.6126111E-003, 4.0384892E+002
 8.1004154E+001, 1.2305625E-001, 1.0161927E-001, 3.4579956E-002, 2.4856342E-004, 2.6538954E-005, 6.6968082E-003, 4.0372175E+002
 8.2004943E+001, 1.2308076E-001, 1.0159735E-001, 3.4573370E-002, 2.4779581E-004, 2.5532756E-005, 6.6952008E-003, 4.0617971E+002
 8.3000757E+001, 1.2348534E-001, 1.0121824E-001, 3.4466011E-002, 2.4707960E-004, 2.6346491E-005, 6.6701176E-003, 4.0466036E+002
 8.4001920E+001, 1.2351864E-001, 1.0118823E-001, 3.4457075E-002, 2.4618406E-004, 2.5282496E-005, 6.6679503E-003, 4.0694039E+002
 8.5003693E+001, 1.2193067E-001, 1.0267452E-001, 3.4878583E-002, 2.5016809E-004, 2.3856750E-005, 6.7665425E-003, 4.0604699E+002
 8.6005073E+001, 1.2275594E-001, 1.0189925E-001, 3.4659644E-002, 2.4987968E-004, 2.8405224E-005, 6.7155028E-003, 4.0441305E+002
 8.7005000E+001, 1.2364262E-001, 1.0107255E-001, 3.4424130E-002, 2.4560913E-004, 2.5112881E-005, 6.6602195E-003, 4.0681313E+002
 8.8002760E+001, 1.2186160E-001, 1.0273983E-001, 3.4896719E-002, 2.4962245E-004, 2.4484594E-005, 6.7707188E-003, 4.0576284E+002
 8.9003455E+001, 1.2195800E-001, 1.0264746E-001, 3.4871429E-002, 2.5109300E-004, 2.5506265E-005, 6.7649637E-003, 4.0765042E+002
 9.0003818E+001, 1.2235509E-001, 1.0227585E-001, 3.4765994E-002, 2.5001516E-004, 2.6059029E-005, 6.7402949E-003, 4.0624901E+002
 9.1004866E+001, 1.2304029E-001, 1.0163477E-001, 3.4584070E-002, 2.4807925E-004, 2.6702566E-005, 6.6977222E-003, 4.0278741E+002
 9.2000279E+001, 1.2193918E-001, 1.0266590E-001, 3.4876266E-002, 2.5040348E-004, 2.5546317E-005, 6.7660267E-003, 4.0642157E+002
 9.3006268E+001, 1.2272443E-001, 1.0192930E-001, 3.4667996E-002, 2.4963144E-004, 2.7526634E-005, 6.7174250E-003, 4.0442271E+002
 9.4004391E+001, 1.2273473E-001, 1.0192233E-001, 3.4664872E-002, 2.4743251E-004, 2.6540854E-005, 6.7164910E-003, 4.0652709E+002
 9.5001641E+001, 1.2157833E-001, 1.0300448E-001, 3.4971799E-002, 2.5040043E-004, 2.6097287E-005, 6.7882891E-003, 4.0617920E+002
 9.6003953E+001, 1.2144687E-001, 1.0312699E-001, 3.5006796E-002, 2.5120745E-004, 2.5958507E-005, 6.7965194E-003, 4.0729078E+002
 9.7005095E+001, 1.2109569E-001, 1.0345554E-001, 3.5100066E-002, 2.5226202E-004, 2.5396919E-005, 6.8183512E-003, 4.0653995E+002
 9.8000591E+001, 1.2088916E-001, 1.0364863E-001, 3.5154834E-002, 2.5280507E-004, 2.6061350E-005, 6.8311652E-003, 4.0544452E+002
 9.9007710E+001, 1.2225256E-001, 1.0237487E-001, 3.4792699E-002, 2.4767282E-004, 2.5469268E-005, 6.7462990E-003, 4.0628240E+002
 1.0000631E+002, 1.2133330E-001, 1.0323667E-001, 3.5036587E-002, 2.4899387E-004, 2.3343458E-005, 6.8032518E-003, 4.0461890E+002
 1.0100279E+002, 1.2124552E-001, 1.0331712E-001, 3.5059966E-002, 2.5029393E-004, 2.5472618E-005, 6.8088237E-003, 4.0721731E+002
 1.0200193E+002, 1.2134211E-001, 1.0322703E-001, 3.5034316E-002, 2.4986090E-004, 2.5117172E-005, 6.8028057E-003, 4.0540822E+002
 1.0300764E+002, 1.2171591E-001, 1.0287712E-001, 3.4935069E-002, 2.4889919E-004, 2.5754828E-005, 6.7795898E-003, 4.0559571E+002
 1.0400222E+002, 1.2108848E-001, 1.0346320E-001, 3.5101776E-002, 2.5141587E-004, 2.5727547E-005, 6.8186714E-003, 4.0540069E+002
 1.0500804E+002, 1.1995333E-001, 1.0452561E-001, 3.5403067E-002, 2.5425665E-004, 2.4997728E-005, 6.8891442E-003, 4.0875861E+002
 1.0600241E+002, 1.2078859E-001, 1.0374406E-001, 3.5181352E-002, 2.5202342E-004, 2.5378731E-005, 6.8372710E-003, 4.0523129E+002
 1.0700677E+002, 1.2065377E-001, 1.0387109E-001, 3.5217023E-002, 2.5169225E-004, 2.4906741E-005, 6.8455518E-003, 4.0598664E+002
 1.0800508E+002, 1.2004660E-001, 1.0443715E-001, 3.5378528E-002, 2.5505125E-004, 2.5007637E-005, 6.8834999E-003, 4.0907507E+002
 1.0900763E+002, 1.2020639E-001, 1.0428803E-001, 3.5336048E-002, 2.5429193E-004, 2.5038134E-005, 6.8735302E-003, 4.0611289E+002
 1.1000695E+002, 1.1996993E-001, 1.0451026E-001, 3.5398718E-002, 2.5421059E-004, 2.4129013E-005, 6.8881252E-003, 4.0697964E+002
 1.1100693E+002, 1.1987283E-001, 1.0460105E-001, 3.5424450E-002, 2.5442966E-004, 2.4612919E-005, 6.8941426E-003, 4.0679382E+002
 1.1200436E+002, 1.1940533E-001, 1.0503949E-001, 3.5548435E-002, 2.5492960E-004, 2.3685722E-005, 6.9230799E-003, 4.0563367E+002
 1.1300046E+002, 1.2007687E-001, 1.0440907E-001, 3.5370346E-002, 2.5457475E-004, 2.5976303E-005, 6.8815502E-003, 4.0336386E+002
 1.1400984E+002, 1.1996829E-001, 1.0451188E-001, 3.5399114E-002, 2.5409793E-004, 2.4336579E-005, 6.8882073E-003, 4.0715892E+002
 1.1500481E+002, 1.2110336E-001, 1.0345045E-001, 3.5097701E-002, 2.5050081E-004, 2.4870057E-005, 6.8176355E-003, 4.0710569E+002
 1.1600116E+002, 1.2074264E-001, 1.0378922E-001, 3.5193256E-002, 2.5042671E-004, 2.4386788E-005, 6.8398950E-003, 4.0604714E+002
 1.1700207E+002, 1.2047226E-001, 1.0404016E-001, 3.5265333E-002, 2.5282965E-004, 2.4927922E-005, 6.8569153E-003, 4.0427173E+002
 1.1800700E+002, 1.2006693E-001, 1.0441891E-001, 3.5372852E-002, 2.5406817E-004, 2.6305624E-005, 6.8820876E-003, 4.0658534E+002
 1.1900764E+002, 1.1983390E-001, 1.0463750E-001, 3.5434676E-002, 2.5433095E-004, 2.5561770E-005, 6.8965176E-003, 4.0785034E+002
 1.2000369E+002, 1.2004029E-001, 1.0444373E-001, 3.5379988E-002, 2.5430977E-004, 2.5878654E-005, 6.8837722E-003, 4.0696730E+002
 1.2100801E+002, 1.1982568E-001, 1.0464562E-001, 3.5436835E-002, 2.5407227E-004, 2.5032962E-005, 6.8969960E-003, 4.0456658E+002
 1.2200543E+002, 1.1906961E-001, 1.0535243E-001, 3.5637583E-002, 2.5654068E-004, 2.5268896E-005, 6.9440059E-003, 4.0749553E+002
 1.2300189E+002, 1.1979478E-001, 1.0467522E-001, 3.5444997E-002, 2.5370296E-004, 2.4196467E-005, 6.8988624E-003, 4.0891953E+002
 1.2400538E+002, 1.1927793E-001, 1.0515670E-001, 3.5582410E-002, 2.5665124E-004, 2.5587679E-005, 6.9311598E-003, 4.0801431E+002
 1.2500456E+002, 1.1900529E-001, 1.0541216E-001, 3.5654793E-002, 2.5721127E-004, 2.4740872E-005, 6.9480782E-003, 4.0791894E+002
 1.2600305E+002, 1.1939655E-001, 1.0504619E-001, 3.5550884E-002, 2.5599834E-004, 2.5179848E-005, 6.9237521E-003, 4.0757105E+002
 1.2700257E+002, 1.2014736E-001, 1.0434234E-001, 3.5351667E-002, 2.5486688E-004, 2.7048822E-005, 6.8772261E-003, 4.0549930E+002
 1.2800664E+002, 1.1943207E-001, 1.0501294E-001, 3.5541371E-002, 2.5576454E-004, 2.6028981E-005, 6.9215147E-003, 4.0659797E+002
 1.2900639E+002, 1.1994013E-001, 1.0453596E-001, 3.5406737E-002, 2.5568980E-004, 2.6850833E-005, 6.8901354E-003, 4.0641893E+002
 1.3000043E+002, 1.2015564E-001, 1.0433654E-001, 3.5349164E-002, 2.5322796E-004, 2.6546601E-005, 6.8764896E-003, 4.0630063E+002
 1.3100379E+002, 1.1934327E-001, 1.0509394E-001, 3.5565043E-002, 2.5733100E-004, 2.8624403E-005, 6.9271804E-003, 4.0880832E+002
 1.3200549E+002, 1.1833544E-001, 1.0604070E-001, 3.5832284E-002, 2.5745929E-004, 2.4323143E-005, 6.9894610E-003, 4.0744265E+002
 1.3300940E+002, 1.1852190E-001, 1.0586467E-001, 3.5783003E-002, 2.5820325E-004, 2.5093062E-005, 6.9780474E-003, 4.0748875E+002
 1.3400862E+002, 1.1919361E-001, 1.0523487E-001, 3.5604799E-002, 2.5729256E-004, 2.6736410E-005, 6.9364384E-003, 4.0752784E+002
 1.3500041E+002, 1.2040407E-001, 1.0410208E-001, 3.5283369E-002, 2.5393968E-004, 2.8754667E-005, 6.8612268E-003, 4.0579460E+002
 1.3600240E+002, 1.1898776E-001, 1.0542829E-001, 3.5659354E-002, 2.5724134E-004, 2.6073141E-005, 6.9491455E-003, 4.0688106E+002
 1.3700478E+002, 1.1920401E-001, 1.0522669E-001, 3.5601902E-002, 2.5616695E-004, 2.5360741E-005, 6.9356567E-003, 4.0612160E+002
 1.3800091E+002, 1.1894840E-001, 1.0546511E-001, 3.5669875E-002, 2.5748394E-004, 2.5357923E-005, 6.9516189E-003, 4.0828433E+002
 1.3900792E+002, 1.1944542E-001, 1.0500205E-001, 3.5537740E-002, 2.5468478E-004, 2.4085076E-005, 6.9205652E-003, 4.0737031E+002
 1.4000318E+002, 1.1871761E-001, 1.0568261E-001, 3.5730939E-002, 2.5689002E-004, 2.4438335E-005, 6.9657919E-003, 4.0717656E+002
 1.4100117E+002, 1.1905448E-001, 1.0536714E-001, 3.5641530E-002, 2.5615583E-004, 2.4952981E-005, 6.9448894E-003, 4.0817856E+002
 1.4200370E+002, 1.1979627E-001, 1.0467313E-001, 3.5444614E-002, 2.5411000E-004, 2.5303754E-005, 6.8988125E-003, 4.0929841E+002
 1.4300803E+002, 1.2008098E-001, 1.0440674E-001, 3.5369106E-002, 2.5346145E-004, 2.4776527E-005, 6.8811559E-003, 4.0655841E+002
 1.4400698E+002, 1.1974554E-001, 1.0472026E-001, 3.5458022E-002, 2.5432751E-004, 2.6375807E-005, 6.9019588E-003, 4.0570242E+002
 1.4500321E+002, 1.1981980E-001, 1.0465020E-001, 3.5438472E-002, 2.5473449E-004, 2.5908546E-005, 6.8974403E-003, 4.0744198E+002
 1.4600643E+002, 1.1966783E-001, 1.0479335E-001, 3.5478640E-002, 2.5430757E-004, 2.5759871E-005, 6.9067607E-003, 4.0569754E+002
 1.4700358E+002, 1.1931084E-001, 1.0512835E-001, 3.5573329E-002, 2.5459659E-004, 2.4596832E-005, 6.9288511E-003, 4.0615811E+002
 1.4800639E+002, 1.1909659E-001, 1.0532772E-001, 3.5630323E-002, 2.5599899E-004, 2.5279911E-005, 6.9422637E-003, 4.0515294E+002
 1.4900553E+002, 1.1891227E-001, 1.0549830E-001, 3.5679419E-002, 2.5783801E-004, 2.6856792E-005, 6.9538779E-003, 4.0537963E+002
 1.5000698E+002, 1.1941978E-001, 1.0502677E-001, 3.5544390E-002, 2.5407614E-004, 2.4260385E-005, 6.9220585E-003, 4.0690395E+002
 1.5100390E+002, 1.1993432E-001, 1.0454449E-001, 3.5407799E-002, 2.5313826E-004, 2.6007505E-005, 6.8901441E-003, 4.0494711E+002
 1.5200044E+002, 1.1998415E-001, 1.0449834E-001, 3.5394546E-002, 2.5269675E-004, 2.5440930E-005, 6.8870140E-003, 4.0533250E+002
 1.5300175E+002, 1.1915404E-001, 1.0527646E-001, 3.5614815E-002, 2.5400520E-004, 2.3392775E-005, 6.9384618E-003, 4.0811448E+002
 1.5400832E+002, 1.1885210E-001, 1.0555645E-001, 3.5695208E-002, 2.5664869E-004, 2.5353027E-005, 6.9574444E-003, 4.0765275E+002
