s,,,,,,,
Time,"O2 EXHAUST","CO2 EXHAUST","H2O EXHAUST","CO EXHAUST","FUEL EXHAUST","SOOT EXHAUST","TEMP EXHAUST"
 0.0000000E+000, 2.3099739E-001, 5.9146498E-004, 5.9412091E-003, 0.0000000E+000, 0.0000000E+000, 0.0000000E+000, 2.0000000E+001
 1.0039061E+000, 2.3099739E-001, 5.9146498E-004, 5.9412091E-003, 9.0876611E-031, 5.5834801E-030, 2.9153710E-031, 2.0388948E+001
 2.0032002E+000, 2.2271794E-001, 7.3573339E-003, 9.7551343E-003, 4.2460130E-005, 1.8250537E-004, 5.4618600E-005, 9.9576123E+001
 3.0044204E+000, 2.1866793E-001, 1.0663764E-002, 1.1631242E-002, 7.2702820E-005, 2.2047860E-004, 8.3364047E-005, 1.3715158E+002
 4.0038130E+000, 2.1384388E-001, 1.4623598E-002, 1.3854997E-002, 9.0697594E-005, 2.8304058E-004, 1.1384692E-004, 1.8323703E+002
 5.0005702E+000, 2.0837645E-001, 1.9123443E-002, 1.6381572E-002, 1.1054080E-004, 2.9596783E-004, 1.4835555E-004, 2.2675745E+002
 6.0053627E+000, 2.0424275E-001, 2.2521112E-002, 1.8290036E-002, 1.2619248E-004, 3.2444468E-004, 1.7455654E-004, 2.6026343E+002
 7.0005536E+000, 2.0008707E-001, 2.5938744E-002, 2.0208184E-002, 1.4071806E-004, 3.5180153E-004, 2.0064792E-004, 2.9213084E+002
 8.0058372E+000, 1.9489656E-001, 3.0258294E-002, 2.2601858E-002, 1.3437913E-004, 2.9649226E-004, 2.2828061E-004, 3.2524599E+002
 9.0047977E+000, 1.8981196E-001, 3.4487063E-002, 2.4945927E-002, 1.2877008E-004, 2.5174018E-004, 2.5546170E-004, 3.5726718E+002
 1.0001940E+001, 1.8489122E-001, 3.8587756E-002, 2.7213243E-002, 1.1872658E-004, 1.9875782E-004, 2.8082329E-004, 3.8112714E+002
 1.1000447E+001, 1.8140121E-001, 4.1502658E-002, 2.8820295E-002, 1.0788935E-004, 1.5394749E-004, 2.9805094E-004, 3.9710171E+002
 1.2004836E+001, 1.7718680E-001, 4.5021102E-002, 3.0761570E-002, 9.5975409E-005, 9.9138256E-005, 3.1909818E-004, 4.1418956E+002
 1.3004708E+001, 1.7172529E-001, 4.9568626E-002, 3.3277445E-002, 8.6075967E-005, 5.1309663E-005, 3.4749129E-004, 4.3686261E+002
 1.4002606E+001, 1.6784139E-001, 5.2796100E-002, 3.5067180E-002, 8.2391292E-005, 2.6851948E-005, 3.6836545E-004, 4.4625042E+002
 1.5000954E+001, 1.6532387E-001, 5.4885035E-002, 3.6227545E-002, 8.1599674E-005, 1.5663586E-005, 3.8222069E-004, 4.5020316E+002
 1.6005872E+001, 1.6317112E-001, 5.6668100E-002, 3.7220022E-002, 8.2545343E-005, 1.1155613E-005, 3.9439802E-004, 4.5037212E+002
 1.7002432E+001, 1.5950293E-001, 5.9705561E-002, 3.8911244E-002, 8.4580602E-005, 4.6122443E-006, 4.1523400E-004, 4.5855701E+002
 1.8006059E+001, 1.5874076E-001, 6.0336774E-002, 3.9262617E-002, 8.4941037E-005, 3.2126747E-006, 4.1955038E-004, 4.5846959E+002
 1.9003575E+001, 1.5827122E-001, 6.0724575E-002, 3.9479178E-002, 8.5713918E-005, 3.8953937E-006, 4.2232158E-004, 4.5264077E+002
 2.0005255E+001, 1.5702462E-001, 6.1756454E-002, 4.0053971E-002, 8.6609808E-005, 2.1848944E-006, 4.2944417E-004, 4.6119346E+002
 2.1000574E+001, 1.5667297E-001, 6.2046925E-002, 4.0216161E-002, 8.7172736E-005, 2.6454222E-006, 4.3151640E-004, 4.5569074E+002
 2.2001151E+001, 1.5593413E-001, 6.2657120E-002, 4.0556940E-002, 8.8408597E-005, 3.7431220E-006, 4.3588108E-004, 4.5149405E+002
 2.3002405E+001, 1.5565052E-001, 6.2892329E-002, 4.0687673E-002, 8.8382783E-005, 2.6464789E-006, 4.3745485E-004, 4.5166682E+002
 2.4005514E+001, 1.5458588E-001, 6.3772707E-002, 4.1178638E-002, 8.9598988E-005, 2.5090608E-006, 4.4362947E-004, 4.5068678E+002
 2.5006780E+001, 1.5369253E-001, 6.4511809E-002, 4.1590566E-002, 9.0419331E-005, 1.9511320E-006, 4.4876982E-004, 4.5484171E+002
 2.6001646E+001, 1.5288073E-001, 6.5183285E-002, 4.1964909E-002, 9.1249741E-005, 1.5945614E-006, 4.5345824E-004, 4.5402625E+002
 2.7005453E+001, 1.5271661E-001, 6.5318721E-002, 4.2040617E-002, 9.1580045E-005, 2.0338220E-006, 4.5443913E-004, 4.5227981E+002
 2.8001369E+001, 1.5201692E-001, 6.5897777E-002, 4.2363231E-002, 9.2131374E-005, 1.2750960E-006, 4.5844660E-004, 4.5272251E+002
 2.9000876E+001, 1.5153339E-001, 6.6297576E-002, 4.2586221E-002, 9.2709073E-005, 1.2749486E-006, 4.6125613E-004, 4.5501155E+002
 3.0003686E+001, 1.5175458E-001, 6.6114245E-002, 4.2484256E-002, 9.2675901E-005, 1.9542569E-006, 4.6001794E-004, 4.4853027E+002
 3.1003021E+001, 1.5135452E-001, 6.6445363E-002, 4.2668739E-002, 9.2993667E-005, 1.3599907E-006, 4.6231005E-004, 4.5339404E+002
 3.2003171E+001, 1.5151174E-001, 6.6315604E-002, 4.2596188E-002, 9.2664052E-005, 1.1405718E-006, 4.6136744E-004, 4.5333060E+002
 3.3000216E+001, 1.5161398E-001, 6.6230882E-002, 4.2549071E-002, 9.2651424E-005, 1.3400449E-006, 4.6079582E-004, 4.4663302E+002
 3.4002001E+001, 1.4966375E-001, 6.7843908E-002, 4.3448375E-002, 9.4688400E-005, 7.1968660E-007, 4.7206754E-004, 4.5227538E+002
 3.5002238E+001, 1.4994727E-001, 6.7609261E-002, 4.3317654E-002, 9.4472628E-005, 1.0176499E-006, 4.7044527E-004, 4.5126942E+002
 3.6002524E+001, 1.4808945E-001, 6.9145498E-002, 4.4174393E-002, 9.6610350E-005, 8.9021541E-007, 4.8122318E-004, 4.5185439E+002
 3.7004660E+001, 1.4875258E-001, 6.8597080E-002, 4.3868596E-002, 9.5886595E-005, 1.0372218E-006, 4.7738412E-004, 4.5325329E+002
 3.8005209E+001, 1.4829364E-001, 6.8976495E-002, 4.4080244E-002, 9.6457459E-005, 1.1524164E-006, 4.8005529E-004, 4.5072153E+002
 3.9006494E+001, 1.4853293E-001, 6.8778950E-002, 4.3969852E-002, 9.6003296E-005, 7.5926214E-007, 4.7863057E-004, 4.5598669E+002
 4.0002364E+001, 1.4843596E-001, 6.8858981E-002, 4.4014590E-002, 9.6198869E-005, 9.3907883E-007, 4.7921027E-004, 4.5135719E+002
 4.1006627E+001, 1.4944087E-001, 6.8028097E-002, 4.3551165E-002, 9.5000701E-005, 8.8232288E-007, 4.7337189E-004, 4.5022509E+002
 4.2003224E+001, 1.4856293E-001, 6.8754087E-002, 4.3956032E-002, 9.6005069E-005, 8.1180999E-007, 4.7846400E-004, 4.5055354E+002
 4.3005539E+001, 1.4832795E-001, 6.8948343E-002, 4.4064398E-002, 9.6300742E-005, 8.6961075E-007, 4.7983235E-004, 4.4863812E+002
 4.4006996E+001, 1.4740429E-001, 6.9712212E-002, 4.4490349E-002, 9.7324172E-005, 6.1059512E-007, 4.8518294E-004, 4.5390187E+002
 4.5003580E+001, 1.4857931E-001, 6.8740528E-002, 4.3948475E-002, 9.5990069E-005, 8.2439321E-007, 4.7836972E-004, 4.5306533E+002
 4.6005060E+001, 1.4799716E-001, 6.9221855E-002, 4.4216939E-002, 9.6687080E-005, 8.8643193E-007, 4.8175250E-004, 4.4632567E+002
 4.7003175E+001, 1.4716523E-001, 6.9909915E-002, 4.4600573E-002, 9.7573772E-005, 6.3653261E-007, 4.8656446E-004, 4.5075225E+002
 4.8005170E+001, 1.4680184E-001, 7.0210366E-002, 4.4768147E-002, 9.8005435E-005, 7.3375907E-007, 4.8867530E-004, 4.5157942E+002
 4.9006193E+001, 1.4593059E-001, 7.0930828E-002, 4.5169935E-002, 9.9004168E-005, 5.6819053E-007, 4.9372908E-004, 4.5362553E+002
 5.0004616E+001, 1.4667552E-001, 7.0314833E-002, 4.4826412E-002, 9.8154799E-005, 6.0410649E-007, 4.8940908E-004, 4.5257908E+002
 5.1004148E+001, 1.4698992E-001, 7.0054855E-002, 4.4681431E-002, 9.7796999E-005, 5.9844785E-007, 4.8758599E-004, 4.5029140E+002
 5.2002941E+001, 1.4713086E-001, 6.9937980E-002, 4.4616482E-002, 9.7818659E-005, 1.0347451E-006, 4.8680590E-004, 4.4359680E+002
 5.3003610E+001, 1.4660821E-001, 7.0370375E-002, 4.4857467E-002, 9.8296033E-005, 7.5917606E-007, 4.8981259E-004, 4.4679393E+002
 5.4001885E+001, 1.4763863E-001, 6.9518302E-002, 4.4382291E-002, 9.7120881E-005, 8.1483791E-007, 4.8383691E-004, 4.4553792E+002
 5.5006466E+001, 1.4683927E-001, 7.0179490E-002, 4.4750892E-002, 9.7933086E-005, 5.3604642E-007, 4.8845232E-004, 4.5637379E+002
 5.6004703E+001, 1.4625800E-001, 7.0660018E-002, 4.5018954E-002, 9.8664832E-005, 6.9703756E-007, 4.9183725E-004, 4.4870642E+002
 5.7004710E+001, 1.4672513E-001, 7.0273555E-002, 4.4803560E-002, 9.8231998E-005, 9.9412899E-007, 4.8914862E-004, 4.4666090E+002
 5.8003043E+001, 1.4630104E-001, 7.0624408E-002, 4.4999125E-002, 9.8638649E-005, 6.7320163E-007, 4.9159248E-004, 4.4704145E+002
 5.9003821E+001, 1.4620900E-001, 7.0700590E-002, 4.5041553E-002, 9.8699097E-005, 6.1375429E-007, 4.9211709E-004, 4.5205824E+002
 6.0002270E+001, 1.4737418E-001, 6.9736981E-002, 4.4504234E-002, 9.7416355E-005, 8.6002953E-007, 4.8536920E-004, 4.5253511E+002
 6.1005600E+001, 1.4686371E-001, 7.0159088E-002, 4.4739647E-002, 9.8011425E-005, 7.8731860E-007, 4.8833228E-004, 4.4529477E+002
 6.2004201E+001, 1.4517750E-001, 7.1553280E-002, 4.5517262E-002, 1.0002579E-004, 8.8975734E-007, 4.9812971E-004, 4.4991425E+002
 6.3004534E+001, 1.4609305E-001, 7.0796352E-002, 4.5095039E-002, 9.8896523E-005, 7.5130483E-007, 4.9280282E-004, 4.4708659E+002
 6.4006833E+001, 1.4619222E-001, 7.0714518E-002, 4.5049287E-002, 9.8691389E-005, 5.2542590E-007, 4.9220895E-004, 4.5160892E+002
 6.5005137E+001, 1.4624973E-001, 7.0667047E-002, 4.5022750E-002, 9.8574777E-005, 4.1702580E-007, 4.9186496E-004, 4.5874325E+002
 6.6002966E+001, 1.4628866E-001, 7.0634557E-002, 4.5004838E-002, 9.8695557E-005, 8.0685993E-007, 4.9167294E-004, 4.5203774E+002
 6.7000005E+001, 1.4638701E-001, 7.0553461E-002, 4.4959456E-002, 9.8457966E-005, 5.1103789E-007, 4.9107699E-004, 4.5024851E+002
 6.8005786E+001, 1.4517954E-001, 7.1551827E-002, 4.5516303E-002, 9.9903726E-005, 5.4062964E-007, 4.9809354E-004, 4.5514613E+002
 6.9006345E+001, 1.4628501E-001, 7.0637676E-002, 4.5006496E-002, 9.8635130E-005, 7.5854761E-007, 4.9168080E-004, 4.4858520E+002
 7.0000520E+001, 1.4483109E-001, 7.1839983E-002, 4.5676981E-002, 1.0028710E-004, 5.2663184E-007, 5.0011137E-004, 4.5570681E+002
 7.1001981E+001, 1.4434259E-001, 7.2243931E-002, 4.5902255E-002, 1.0084705E-004, 4.9019523E-007, 5.0294491E-004, 4.5324289E+002
 7.2000690E+001, 1.4441983E-001, 7.2179963E-002, 4.5866654E-002, 1.0081643E-004, 5.8081599E-007, 5.0250876E-004, 4.5438569E+002
 7.3000671E+001, 1.4476053E-001, 7.1898241E-002, 4.5709525E-002, 1.0041153E-004, 6.7067239E-007, 5.0052948E-004, 4.5058050E+002
 7.4004846E+001, 1.4656541E-001, 7.0405862E-002, 4.4877184E-002, 9.8287087E-005, 6.9389477E-007, 4.9004893E-004, 4.4547965E+002
 7.5005997E+001, 1.4503269E-001, 7.1673233E-002, 4.5584014E-002, 1.0007656E-004, 6.0700461E-007, 4.9894614E-004, 4.4961913E+002
 7.6000697E+001, 1.4529362E-001, 7.1457396E-002, 4.5463693E-002, 9.9815425E-005, 7.1394339E-007, 4.9744036E-004, 4.4879828E+002
 7.7006083E+001, 1.4555413E-001, 7.1241951E-002, 4.5343551E-002, 9.9523438E-005, 8.2933073E-007, 4.9593053E-004, 4.4882348E+002
 7.8003419E+001, 1.4487237E-001, 7.1805765E-002, 4.5657956E-002, 1.0028552E-004, 6.1834818E-007, 4.9988127E-004, 4.4979490E+002
 7.9001428E+001, 1.4483593E-001, 7.1835896E-002, 4.5674755E-002, 1.0032433E-004, 6.5529340E-007, 5.0009198E-004, 4.4893347E+002
 8.0006839E+001, 1.4523716E-001, 7.1504194E-002, 4.5489716E-002, 9.9820027E-005, 5.7835709E-007, 4.9775559E-004, 4.4720494E+002
 8.1002841E+001, 1.4590024E-001, 7.0956006E-002, 4.5183913E-002, 9.8988914E-005, 5.1078747E-007, 4.9389484E-004, 4.5027965E+002
 8.2000539E+001, 1.4512982E-001, 7.1593044E-002, 4.5539202E-002, 9.9891827E-005, 4.8031650E-007, 4.9836772E-004, 4.5290944E+002
 8.3000742E+001, 1.4525782E-001, 7.1487075E-002, 4.5480187E-002, 9.9811152E-005, 6.5929932E-007, 4.9763871E-004, 4.5202000E+002
 8.4002095E+001, 1.4611911E-001, 7.0774878E-002, 4.5083000E-002, 9.8816786E-005, 6.9767008E-007, 4.9264138E-004, 4.4977517E+002
 8.5000263E+001, 1.4528496E-001, 7.1464710E-002, 4.5467671E-002, 9.9744556E-005, 5.2193153E-007, 4.9747413E-004, 4.5190584E+002
 8.6007402E+001, 1.4405135E-001, 7.2484750E-002, 4.6036561E-002, 1.0118602E-004, 4.6189774E-007, 5.0463528E-004, 4.5246433E+002
 8.7002256E+001, 1.4595030E-001, 7.0914540E-002, 4.5160855E-002, 9.8984177E-005, 5.0119562E-007, 4.9361538E-004, 4.5194389E+002
 8.8000345E+001, 1.4509743E-001, 7.1619619E-002, 4.5554177E-002, 1.0005252E-004, 6.8865336E-007, 4.9858093E-004, 4.5189160E+002
 8.9005850E+001, 1.4589687E-001, 7.0958642E-002, 4.5185487E-002, 9.9075480E-005, 6.9775858E-007, 4.9393127E-004, 4.5436933E+002
 9.0005433E+001, 1.4500976E-001, 7.1692130E-002, 4.5594574E-002, 1.0012152E-004, 8.0576495E-007, 4.9908275E-004, 4.5305974E+002
 9.1005103E+001, 1.4547662E-001, 7.1306007E-002, 4.5379321E-002, 9.9649321E-005, 7.7606538E-007, 4.9638789E-004, 4.4901707E+002
 9.2006494E+001, 1.4625615E-001, 7.0661610E-002, 4.5019782E-002, 9.8619232E-005, 7.2941165E-007, 4.9183807E-004, 4.5336299E+002
 9.3006122E+001, 1.4583161E-001, 7.1012517E-002, 4.5215597E-002, 9.9201980E-005, 7.7493827E-007, 4.9432040E-004, 4.4681574E+002
 9.4006297E+001, 1.4435919E-001, 7.2230096E-002, 4.5894615E-002, 1.0088878E-004, 5.9681915E-007, 5.0286104E-004, 4.4960859E+002
 9.5006507E+001, 1.4445886E-001, 7.2147661E-002, 4.5848653E-002, 1.0078263E-004, 6.3140375E-007, 5.0228455E-004, 4.4965213E+002
 9.6001755E+001, 1.4446798E-001, 7.2140121E-002, 4.5844443E-002, 1.0076820E-004, 6.4696156E-007, 5.0223080E-004, 4.4827684E+002
 9.7003712E+001, 1.4478065E-001, 7.1881769E-002, 4.5700223E-002, 1.0029583E-004, 4.5148164E-007, 5.0039384E-004, 4.5504825E+002
 9.8005759E+001, 1.4462367E-001, 7.2011476E-002, 4.5772633E-002, 1.0053617E-004, 5.4881512E-007, 5.0131678E-004, 4.5158869E+002
 9.9004260E+001, 1.4429625E-001, 7.2282215E-002, 4.5923622E-002, 1.0091413E-004, 5.6929001E-007, 5.0321649E-004, 4.5317578E+002
 1.0000238E+002, 1.4544168E-001, 7.1335077E-002, 4.5395406E-002, 9.9588138E-005, 5.4996045E-007, 4.9656984E-004, 4.5355887E+002
 1.0100728E+002, 1.4682439E-001, 7.0191646E-002, 4.4757751E-002, 9.8014310E-005, 8.3503839E-007, 4.8855152E-004, 4.4978310E+002
 1.0200276E+002, 1.4477928E-001, 7.1882763E-002, 4.5700871E-002, 1.0037285E-004, 6.4928939E-007, 5.0041718E-004, 4.4926354E+002
 1.0300652E+002, 1.4670448E-001, 7.0290784E-002, 4.4813064E-002, 9.8172043E-005, 7.7335390E-007, 4.8925133E-004, 4.4418797E+002
 1.0400535E+002, 1.4548038E-001, 7.1303064E-002, 4.5377564E-002, 9.9552359E-005, 5.7626955E-007, 4.9634714E-004, 4.5275430E+002
 1.0500223E+002, 1.4493264E-001, 7.1756054E-002, 4.5630143E-002, 1.0014491E-004, 4.9348402E-007, 4.9951705E-004, 4.5001669E+002
 1.0600145E+002, 1.4469315E-001, 7.1954074E-002, 4.5740580E-002, 1.0042395E-004, 5.3752906E-007, 5.0090707E-004, 4.5110514E+002
 1.0700289E+002, 1.4444387E-001, 7.2160268E-002, 4.5855529E-002, 1.0067653E-004, 4.1024523E-007, 5.0234624E-004, 4.5474374E+002
 1.0800000E+002, 1.4410167E-001, 7.2443152E-002, 4.6013346E-002, 1.0111510E-004, 4.8715383E-007, 5.0434062E-004, 4.5000582E+002
 1.0900701E+002, 1.4437997E-001, 7.2212943E-002, 4.5885020E-002, 1.0084151E-004, 6.1668689E-007, 5.0273564E-004, 4.4873832E+002
 1.1000310E+002, 1.4541516E-001, 7.1356816E-002, 4.5407622E-002, 9.9693345E-005, 1.0111832E-006, 4.9673858E-004, 4.4909829E+002
 1.1100166E+002, 1.4519565E-001, 7.1538452E-002, 4.5508864E-002, 9.9902598E-005, 6.9231647E-007, 4.9800348E-004, 4.5539557E+002
 1.1200081E+002, 1.4469364E-001, 7.1953551E-002, 4.5740373E-002, 1.0049088E-004, 6.6101081E-007, 5.0091804E-004, 4.5046254E+002
 1.1300263E+002, 1.4479260E-001, 7.1871685E-002, 4.5694738E-002, 1.0039341E-004, 7.4117010E-007, 5.0034724E-004, 4.4563853E+002
 1.1400614E+002, 1.4577662E-001, 7.1057961E-002, 4.5240949E-002, 9.9272782E-005, 8.8954401E-007, 4.9464086E-004, 4.4220263E+002
 1.1500650E+002, 1.4506252E-001, 7.1648619E-002, 4.5570236E-002, 1.0000234E-004, 6.3917480E-007, 4.9876480E-004, 4.5546684E+002
 1.1600355E+002, 1.4444036E-001, 7.2163112E-002, 4.5857162E-002, 1.0071759E-004, 4.6529737E-007, 5.0237422E-004, 4.5063482E+002
 1.1700401E+002, 1.4460207E-001, 7.2029324E-002, 4.5782602E-002, 1.0057289E-004, 5.4547063E-007, 5.0144457E-004, 4.5355997E+002
 1.1800224E+002, 1.4442997E-001, 7.2171569E-002, 4.5861973E-002, 1.0080531E-004, 6.1510047E-007, 5.0244999E-004, 4.5211844E+002
 1.1900735E+002, 1.4575459E-001, 7.1076313E-002, 4.5251106E-002, 9.9235533E-005, 6.3789944E-007, 4.9475603E-004, 4.5077691E+002
 1.2000331E+002, 1.4500913E-001, 7.1692735E-002, 4.5594883E-002, 1.0009850E-004, 5.5480814E-007, 4.9908183E-004, 4.5090693E+002
 1.2100704E+002, 1.4542581E-001, 7.1348086E-002, 4.5402732E-002, 9.9663370E-005, 7.4264837E-007, 4.9667347E-004, 4.5019112E+002
 1.2200194E+002, 1.4467083E-001, 7.1972636E-002, 4.5750864E-002, 1.0039508E-004, 3.7616269E-007, 5.0102546E-004, 4.5815399E+002
 1.2300613E+002, 1.4417176E-001, 7.2385219E-002, 4.5981023E-002, 1.0102291E-004, 4.8377991E-007, 5.0393167E-004, 4.5308552E+002
 1.2400552E+002, 1.4499552E-001, 7.1704012E-002, 4.5601145E-002, 1.0009329E-004, 5.7979017E-007, 4.9915643E-004, 4.5156723E+002
 1.2500445E+002, 1.4380869E-001, 7.2685281E-002, 4.6148456E-002, 1.0151479E-004, 7.3749227E-007, 5.0605292E-004, 4.4752455E+002
 1.2600525E+002, 1.4468478E-001, 7.1960880E-002, 4.5744460E-002, 1.0050064E-004, 6.3596724E-007, 5.0096936E-004, 4.5031496E+002
 1.2700383E+002, 1.4574994E-001, 7.1080151E-002, 4.5253248E-002, 9.9242133E-005, 6.5004153E-007, 4.9478322E-004, 4.5019276E+002
 1.2800092E+002, 1.4499225E-001, 7.1706680E-002, 4.5602648E-002, 1.0010896E-004, 6.7847047E-007, 4.9917773E-004, 4.5637519E+002
 1.2900056E+002, 1.4408950E-001, 7.2453134E-002, 4.6018981E-002, 1.0118307E-004, 5.4982331E-007, 5.0442235E-004, 4.4880312E+002
 1.3000249E+002, 1.4430096E-001, 7.2278047E-002, 4.5921486E-002, 1.0105910E-004, 9.0641815E-007, 5.0321987E-004, 4.4685776E+002
 1.3100528E+002, 1.4471956E-001, 7.1931973E-002, 4.5728445E-002, 1.0054479E-004, 8.2100175E-007, 5.0078481E-004, 4.5007483E+002
 1.3200482E+002, 1.4454896E-001, 7.2073278E-002, 4.5807091E-002, 1.0061573E-004, 4.7035431E-007, 5.0174897E-004, 4.5415969E+002
 1.3300222E+002, 1.4479483E-001, 7.1869848E-002, 4.5693716E-002, 1.0039238E-004, 6.8751317E-007, 5.0033468E-004, 4.5209236E+002
 1.3400100E+002, 1.4510024E-001, 7.1617274E-002, 4.5552875E-002, 1.0005442E-004, 7.6689586E-007, 4.9856560E-004, 4.4742748E+002
 1.3500173E+002, 1.4324821E-001, 7.3148873E-002, 4.6406924E-002, 1.0210280E-004, 4.4596859E-007, 5.0929303E-004, 4.5547857E+002
 1.3600278E+002, 1.4419677E-001, 7.2364287E-002, 4.5969517E-002, 1.0112819E-004, 8.1611801E-007, 5.0381390E-004, 4.4181849E+002
 1.3700466E+002, 1.4454467E-001, 7.2076763E-002, 4.5809066E-002, 1.0064565E-004, 6.3107100E-007, 5.0177886E-004, 4.4969380E+002
 1.3800120E+002, 1.4586190E-001, 7.0987548E-002, 4.5201605E-002, 9.9114198E-005, 7.5993031E-007, 4.9413374E-004, 4.5060571E+002
 1.3900252E+002, 1.4582452E-001, 7.1018252E-002, 4.5218897E-002, 9.9290998E-005, 8.8645953E-007, 4.9437817E-004, 4.4631720E+002
 1.4000298E+002, 1.4445213E-001, 7.2153273E-002, 4.5851757E-002, 1.0076962E-004, 5.2139059E-007, 5.0231942E-004, 4.5069152E+002
 1.4100584E+002, 1.4542516E-001, 7.1348811E-002, 4.5403005E-002, 9.9559205E-005, 5.0958536E-007, 4.9665580E-004, 4.5298262E+002
 1.4200456E+002, 1.4516696E-001, 7.1562293E-002, 4.5522093E-002, 9.9881519E-005, 4.6958094E-007, 4.9815901E-004, 4.5266802E+002
 1.4300181E+002, 1.4584236E-001, 7.1003665E-002, 4.5210649E-002, 9.9180667E-005, 6.8084427E-007, 4.9425635E-004, 4.5101599E+002
 1.4400245E+002, 1.4410982E-001, 7.2436242E-002, 4.6009610E-002, 1.0119964E-004, 7.2867772E-007, 5.0431251E-004, 4.5048377E+002
 1.4500207E+002, 1.4608033E-001, 7.0806731E-002, 4.5100892E-002, 9.8964033E-005, 1.0718527E-006, 4.9288712E-004, 4.4868486E+002
 1.4600187E+002, 1.4621839E-001, 7.0692806E-002, 4.5037206E-002, 9.8683465E-005, 7.1935036E-007, 4.9206144E-004, 4.5145544E+002
 1.4700225E+002, 1.4536839E-001, 7.1395554E-002, 4.5429204E-002, 9.9729261E-005, 7.9317448E-007, 4.9700646E-004, 4.5009617E+002
 1.4800522E+002, 1.4495788E-001, 7.1735203E-002, 4.5618494E-002, 1.0009956E-004, 5.0101649E-007, 4.9936722E-004, 4.5497615E+002
 1.4900400E+002, 1.4559778E-001, 7.1205833E-002, 4.5323443E-002, 9.9499619E-005, 7.8836799E-007, 4.9568286E-004, 4.4870415E+002
 1.5000274E+002, 1.4539150E-001, 7.1376388E-002, 4.5418522E-002, 9.9709115E-005, 1.0587885E-006, 4.9687341E-004, 4.5618654E+002
 1.5100198E+002, 1.4648826E-001, 7.0469646E-002, 4.4912769E-002, 9.8386397E-005, 6.5408399E-007, 4.9049871E-004, 4.4937746E+002
 1.5200321E+002, 1.4567086E-001, 7.1145714E-002, 4.5289698E-002, 9.9242498E-005, 4.1712772E-007, 4.9522354E-004, 4.5980343E+002
 1.5300399E+002, 1.4596038E-001, 7.0906216E-002, 4.5156185E-002, 9.8951215E-005, 6.0257263E-007, 4.9355236E-004, 4.5129758E+002
 1.5400095E+002, 1.4577705E-001, 7.1057839E-002, 4.5240733E-002, 9.9154143E-005, 4.9611921E-007, 4.9461437E-004, 4.5055709E+002
