s,,,,,,,
Time,"O2 EXHAUST","CO2 EXHAUST","H2O EXHAUST","CO EXHAUST","FUEL EXHAUST","SOOT EXHAUST","TEMP EXHAUST"
 0.0000000E+000, 2.3099739E-001, 5.9146498E-004, 5.9412092E-003, 0.0000000E+000, 0.0000000E+000, 0.0000000E+000, 2.0000000E+001
 1.0040418E+000, 2.3099739E-001, 5.9146498E-004, 5.9412092E-003, 1.7350534E-033, 2.9791400E-032, 5.4885413E-034, 2.0480730E+001
 2.0003433E+000, 2.2379137E-001, 6.2149020E-003, 1.0640755E-002, 1.1218295E-005, 1.7261481E-004, 3.5029565E-005, 9.3679153E+001
 3.0022476E+000, 2.1939737E-001, 9.6472544E-003, 1.3523226E-002, 2.5160827E-005, 2.0348674E-004, 5.7931414E-005, 1.3582472E+002
 4.0050485E+000, 2.1534382E-001, 1.2817899E-002, 1.6172248E-002, 3.1012477E-005, 2.6399514E-004, 7.7580371E-005, 1.7570221E+002
 5.0039174E+000, 2.1096489E-001, 1.6246931E-002, 1.9043694E-002, 4.0616151E-005, 2.8220271E-004, 9.9532639E-005, 2.1273675E+002
 6.0068052E+000, 2.0546103E-001, 2.0578820E-002, 2.2652239E-002, 4.2761406E-005, 2.6297602E-004, 1.2512347E-004, 2.5825352E+002
 7.0024839E+000, 2.0089375E-001, 2.4181980E-002, 2.5650406E-002, 4.2719622E-005, 2.1515369E-004, 1.4601766E-004, 2.9371037E+002
 8.0018394E+000, 1.9500657E-001, 2.8836759E-002, 2.9513647E-002, 3.7428868E-005, 1.3812189E-004, 1.7188718E-004, 3.2964817E+002
 9.0057325E+000, 1.8941625E-001, 3.3255934E-002, 3.3181700E-002, 3.2598694E-005, 6.8288968E-005, 1.9648866E-004, 3.6228379E+002
 1.0000748E+001, 1.8475985E-001, 3.6931946E-002, 3.6235734E-002, 3.0096788E-005, 2.5009321E-005, 2.1727804E-004, 3.8305737E+002
 1.1006306E+001, 1.7831067E-001, 4.2010409E-002, 4.0463120E-002, 3.1009379E-005, 1.0827825E-006, 2.4693572E-004, 4.1002850E+002
 1.2003475E+001, 1.7239921E-001, 4.6658039E-002, 4.4336565E-002, 3.4346081E-005, 2.6971121E-008, 2.7461381E-004, 4.3090724E+002
 1.3007561E+001, 1.6685076E-001, 5.1019905E-002, 4.7972094E-002, 3.7609564E-005, 2.8001982E-008, 3.0061837E-004, 4.4411665E+002
 1.4000697E+001, 1.6232587E-001, 5.4577121E-002, 5.0936936E-002, 4.0256554E-005, 2.6959451E-008, 3.2182267E-004, 4.5463488E+002
 1.5005672E+001, 1.5720166E-001, 5.8605464E-002, 5.4294487E-002, 4.3273587E-005, 4.2589876E-008, 3.4583950E-004, 4.6025109E+002
 1.6002749E+001, 1.5260717E-001, 6.2217408E-002, 5.7304939E-002, 4.5959309E-005, 3.9177414E-008, 3.6736960E-004, 4.6688160E+002
 1.7007575E+001, 1.4843412E-001, 6.5498020E-002, 6.0039252E-002, 4.8407314E-005, 4.2809659E-008, 3.8692655E-004, 4.6944909E+002
 1.8003436E+001, 1.4277841E-001, 6.9944176E-002, 6.3745070E-002, 5.1751727E-005, 6.6708161E-008, 4.1343746E-004, 4.7844561E+002
 1.9004640E+001, 1.3916089E-001, 7.2788101E-002, 6.6115367E-002, 5.3848515E-005, 4.7466560E-008, 4.3038572E-004, 4.7813807E+002
 2.0005039E+001, 1.3505111E-001, 7.6018991E-002, 6.8808213E-002, 5.6246194E-005, 3.4925072E-008, 4.4964343E-004, 4.7892692E+002
 2.1008162E+001, 1.3155188E-001, 7.8769855E-002, 7.1101039E-002, 5.8322588E-005, 5.1435151E-008, 4.6604744E-004, 4.8126776E+002
 2.2002793E+001, 1.2882834E-001, 8.0910943E-002, 7.2885581E-002, 5.9918078E-005, 4.9988757E-008, 4.7881079E-004, 4.8345798E+002
 2.3006483E+001, 1.2464925E-001, 8.4196343E-002, 7.5623840E-002, 6.2345766E-005, 3.8068822E-008, 4.9839116E-004, 4.8258463E+002
 2.4006680E+001, 1.2231466E-001, 8.6031649E-002, 7.7153547E-002, 6.3727078E-005, 4.9509622E-008, 5.0933463E-004, 4.8184444E+002
 2.5001745E+001, 1.2006383E-001, 8.7801167E-002, 7.8628343E-002, 6.5018345E-005, 2.7230590E-008, 5.1987714E-004, 4.7974237E+002
 2.6001609E+001, 1.1714107E-001, 9.0098882E-002, 8.0543426E-002, 6.6728709E-005, 2.8323783E-008, 5.3357377E-004, 4.7821679E+002
 2.7000378E+001, 1.1489441E-001, 9.1865071E-002, 8.2015512E-002, 6.8050993E-005, 3.4617428E-008, 5.4410361E-004, 4.8056878E+002
 2.8007676E+001, 1.1223202E-001, 9.3958078E-002, 8.3759992E-002, 6.9616547E-005, 3.7400717E-008, 5.5658162E-004, 4.7397276E+002
 2.9005241E+001, 1.0850208E-001, 9.6890176E-002, 8.6204028E-002, 7.1909958E-005, 1.2510744E-007, 5.7408356E-004, 4.8409525E+002
 3.0002918E+001, 1.0661472E-001, 9.8374050E-002, 8.7440640E-002, 7.2932547E-005, 5.0217178E-008, 5.8291132E-004, 4.7986895E+002
 3.1000299E+001, 1.0380003E-001, 1.0058679E-001, 8.9284912E-002, 7.4585575E-005, 7.1432234E-008, 5.9610270E-004, 4.8405239E+002
 3.2005630E+001, 1.0053537E-001, 1.0315326E-001, 9.1424025E-002, 7.6512905E-005, 8.1942913E-008, 6.1140499E-004, 4.8051051E+002
 3.3003881E+001, 9.7922739E-002, 1.0520719E-001, 9.3135898E-002, 7.8028695E-005, 4.9753500E-008, 6.2364563E-004, 4.8231862E+002
 3.4008135E+001, 9.6925785E-002, 1.0599101E-001, 9.3789103E-002, 7.8566315E-005, 2.3624492E-008, 6.2830814E-004, 4.7565048E+002
 3.5000464E+001, 9.3308554E-002, 1.0883468E-001, 9.6159224E-002, 8.0681932E-005, 2.0855317E-008, 6.4525896E-004, 4.7874001E+002
 3.6007959E+001, 9.1408390E-002, 1.1032838E-001, 9.7404308E-002, 8.1859897E-005, 7.4280334E-008, 6.5417704E-004, 4.7757449E+002
 3.7008052E+001, 8.9846259E-002, 1.1155647E-001, 9.8427860E-002, 8.2761152E-005, 4.7299668E-008, 6.6149487E-004, 4.7454162E+002
 3.8003311E+001, 8.6775931E-002, 1.1397019E-001, 1.0043963E-001, 8.4556885E-005, 4.5930035E-008, 6.7588282E-004, 4.7947930E+002
 3.9001037E+001, 8.4909721E-002, 1.1543728E-001, 1.0166244E-001, 8.5662732E-005, 6.9484037E-008, 6.8463106E-004, 4.7977250E+002
 4.0004639E+001, 8.2367467E-002, 1.1743591E-001, 1.0332818E-001, 8.7113993E-005, 3.9607992E-008, 6.9653708E-004, 4.7899842E+002
 4.1004205E+001, 8.0275253E-002, 1.1908070E-001, 1.0469906E-001, 8.8339297E-005, 3.9288282E-008, 7.0634180E-004, 4.7774165E+002
 4.2008968E+001, 7.7162557E-002, 1.2152246E-001, 1.0674057E-001, 9.3479512E-005, 2.7472241E-006, 7.2160953E-004, 4.7821558E+002
 4.3002286E+001, 7.4706033E-002, 1.2344106E-001, 1.0835522E-001, 1.0301906E-004, 7.9415864E-006, 7.3478538E-004, 4.8005049E+002
 4.4003611E+001, 7.3462030E-002, 1.2441004E-001, 1.0917400E-001, 1.0956655E-004, 1.1385861E-005, 7.4181062E-004, 4.7796951E+002
 4.5006269E+001, 7.1828038E-002, 1.2569080E-001, 1.1024592E-001, 1.1283810E-004, 1.3958039E-005, 7.4994224E-004, 4.7525507E+002
 4.6004348E+001, 6.9709694E-002, 1.2734072E-001, 1.1164001E-001, 1.2394139E-004, 2.0702739E-005, 7.6189470E-004, 4.7789878E+002
 4.7005959E+001, 6.7495148E-002, 1.2906817E-001, 1.1309587E-001, 1.3362285E-004, 2.8674660E-005, 7.7399210E-004, 4.7786196E+002
 4.8001994E+001, 6.5816764E-002, 1.3036436E-001, 1.1420561E-001, 1.4991982E-004, 3.5607431E-005, 7.8500594E-004, 4.7324715E+002
 4.9001269E+001, 6.3760227E-002, 1.3196370E-001, 1.1555973E-001, 1.6213041E-004, 4.4278943E-005, 7.9690237E-004, 4.7995541E+002
 5.0008249E+001, 6.2638826E-002, 1.3283558E-001, 1.1629793E-001, 1.6879357E-004, 5.0162590E-005, 8.0338912E-004, 4.7522253E+002
 5.1004875E+001, 6.0119821E-002, 1.3480302E-001, 1.1795250E-001, 1.7796883E-004, 6.0014546E-005, 8.1677025E-004, 4.8194396E+002
 5.2001365E+001, 5.8593444E-002, 1.3597710E-001, 1.1896281E-001, 1.9541146E-004, 7.1500103E-005, 8.2732138E-004, 4.8084772E+002
 5.3008043E+001, 5.6583726E-002, 1.3754105E-001, 1.2028614E-001, 2.0691587E-004, 7.7767841E-005, 8.3886106E-004, 4.8192572E+002
 5.4007322E+001, 5.5774664E-002, 1.3816782E-001, 1.2081962E-001, 2.1316924E-004, 8.3051450E-005, 8.4383798E-004, 4.7926210E+002
 5.5007583E+001, 5.4216748E-002, 1.3937586E-001, 1.2184706E-001, 2.2479989E-004, 9.0183226E-005, 8.5334002E-004, 4.7777074E+002
 5.6008551E+001, 5.2531527E-002, 1.4068263E-001, 1.2295836E-001, 2.3732694E-004, 9.8282469E-005, 8.6360698E-004, 4.7875694E+002
 5.7007660E+001, 5.0825275E-002, 1.4201993E-001, 1.2407783E-001, 2.4086162E-004, 1.0058279E-004, 8.7212302E-004, 4.7914349E+002
 5.8009065E+001, 4.9388158E-002, 1.4314278E-001, 1.2502097E-001, 2.4551026E-004, 1.0860681E-004, 8.7963381E-004, 4.8243111E+002
 5.9003755E+001, 4.7693701E-002, 1.4444902E-001, 1.2614193E-001, 2.6329982E-004, 1.1798039E-004, 8.9102604E-004, 4.8089658E+002
 6.0006270E+001, 4.5800839E-002, 1.4592106E-001, 1.2738826E-001, 2.7453762E-004, 1.2602399E-004, 9.0197539E-004, 4.7828510E+002
 6.1007251E+001, 4.3449818E-002, 1.4776498E-001, 1.2893098E-001, 2.7895885E-004, 1.2573811E-004, 9.1362061E-004, 4.8093600E+002
 6.2006957E+001, 4.3632763E-002, 1.4760865E-001, 1.2881523E-001, 2.8644935E-004, 1.3451364E-004, 9.1431967E-004, 4.8068432E+002
 6.3005719E+001, 4.1229384E-002, 1.4946319E-001, 1.3040648E-001, 3.1155673E-004, 1.3896428E-004, 9.3046173E-004, 4.7877689E+002
 6.4003266E+001, 4.0102715E-002, 1.5035120E-001, 1.3114295E-001, 3.1031802E-004, 1.4135249E-004, 9.3534787E-004, 4.8060109E+002
 6.5008460E+001, 3.9216220E-002, 1.5104190E-001, 1.3172697E-001, 3.1517423E-004, 1.4126262E-004, 9.4039608E-004, 4.7625291E+002
 6.6005167E+001, 3.7800658E-002, 1.5213963E-001, 1.3266060E-001, 3.2574560E-004, 1.4734009E-004, 9.4903101E-004, 4.8065483E+002
 6.7001131E+001, 3.6525403E-002, 1.5310745E-001, 1.3351036E-001, 3.4895925E-004, 1.6071031E-004, 9.5962285E-004, 4.8222165E+002
 6.8001675E+001, 3.5049753E-002, 1.5426159E-001, 1.3448090E-001, 3.5428780E-004, 1.5807613E-004, 9.6746092E-004, 4.8589998E+002
 6.9005661E+001, 3.3551304E-002, 1.5540616E-001, 1.3547812E-001, 3.7767841E-004, 1.6399494E-004, 9.7911611E-004, 4.7962537E+002
 7.0002640E+001, 3.2594658E-002, 1.5617404E-001, 1.3609828E-001, 3.6789561E-004, 1.5872106E-004, 9.8147340E-004, 4.8063547E+002
 7.1008344E+001, 3.0390413E-002, 1.5780386E-001, 1.3759187E-001, 4.3953897E-004, 1.6943167E-004, 1.0062894E-003, 4.8323245E+002
 7.2008566E+001, 2.8947667E-002, 1.5898125E-001, 1.3851619E-001, 4.1072175E-004, 1.6634519E-004, 1.0069413E-003, 4.8521780E+002
 7.3006141E+001, 2.8898751E-002, 1.5902652E-001, 1.3854261E-001, 4.0488948E-004, 1.7513833E-004, 1.0059535E-003, 4.8014593E+002
 7.4002249E+001, 2.8778842E-002, 1.5912637E-001, 1.3861887E-001, 4.0133775E-004, 1.7308454E-004, 1.0057712E-003, 4.7871271E+002
 7.5007365E+001, 2.6177884E-002, 1.6108871E-001, 1.4036188E-001, 4.5878941E-004, 1.8422228E-004, 1.0294735E-003, 4.8196259E+002
 7.6003704E+001, 2.6389468E-002, 1.6092434E-001, 1.4022043E-001, 4.5636437E-004, 1.9153871E-004, 1.0280000E-003, 4.7766621E+002
 7.7001182E+001, 2.5304230E-002, 1.6179073E-001, 1.4092706E-001, 4.4892548E-004, 1.8259419E-004, 1.0314313E-003, 4.8156467E+002
 7.8009287E+001, 2.3932781E-002, 1.6285248E-001, 1.4183442E-001, 4.6138406E-004, 1.8070639E-004, 1.0402621E-003, 4.8359714E+002
 7.9005659E+001, 2.2284900E-002, 1.6399446E-001, 1.4298706E-001, 5.6687610E-004, 1.9890247E-004, 1.0695052E-003, 4.8323343E+002
 8.0005839E+001, 2.1928297E-002, 1.6430425E-001, 1.4319970E-001, 5.4344457E-004, 2.2362818E-004, 1.0662787E-003, 4.8548446E+002
 8.1001715E+001, 2.1118286E-002, 1.6497891E-001, 1.4371465E-001, 5.1924902E-004, 2.1034585E-004, 1.0650049E-003, 4.8271744E+002
 8.2002801E+001, 2.0145157E-002, 1.6575307E-001, 1.4434974E-001, 5.1451507E-004, 2.0199326E-004, 1.0684811E-003, 4.8196640E+002
 8.3005691E+001, 1.9514165E-002, 1.6618782E-001, 1.4479246E-001, 5.5670831E-004, 2.0862800E-004, 1.0800498E-003, 4.8314225E+002
 8.4008397E+001, 1.7954813E-002, 1.6734319E-001, 1.4584554E-001, 6.0454837E-004, 2.2552915E-004, 1.0970097E-003, 4.8407042E+002
 8.5010416E+001, 1.7578228E-002, 1.6760004E-001, 1.4611177E-001, 6.3190118E-004, 2.2669281E-004, 1.1043645E-003, 4.8045805E+002
 8.6004430E+001, 1.6197644E-002, 1.6866330E-001, 1.4703029E-001, 6.4949638E-004, 2.1554995E-004, 1.1143052E-003, 4.7940852E+002
 8.7007235E+001, 1.5561055E-002, 1.6912492E-001, 1.4746229E-001, 6.7449737E-004, 2.3441319E-004, 1.1223437E-003, 4.7859222E+002
 8.8009686E+001, 1.4382202E-002, 1.6996477E-001, 1.4827429E-001, 7.3350672E-004, 2.5148355E-004, 1.1398680E-003, 4.8544639E+002
 8.9008792E+001, 1.5068808E-002, 1.6954729E-001, 1.4776824E-001, 6.5079966E-004, 2.2933997E-004, 1.1197131E-003, 4.8115345E+002
 9.0007961E+001, 1.3396974E-002, 1.7073773E-001, 1.4892434E-001, 7.3706417E-004, 2.3658637E-004, 1.1451149E-003, 4.8130034E+002
 9.1002932E+001, 1.2281024E-002, 1.7146668E-001, 1.4972838E-001, 8.3995538E-004, 2.4457753E-004, 1.1714043E-003, 4.8581227E+002
 9.2006631E+001, 1.1652425E-002, 1.7191943E-001, 1.5016007E-001, 8.6859890E-004, 2.4892577E-004, 1.1801722E-003, 4.8015520E+002
 9.3005340E+001, 1.1841760E-002, 1.7168755E-001, 1.5007474E-001, 9.2467588E-004, 2.6155523E-004, 1.1908502E-003, 4.7515780E+002
 9.4008341E+001, 1.1065660E-002, 1.7233922E-001, 1.5056675E-001, 8.9847737E-004, 2.4376272E-004, 1.1890136E-003, 4.8609484E+002
 9.5008069E+001, 9.8882889E-003, 1.7312590E-001, 1.5140084E-001, 9.9206571E-004, 2.7355449E-004, 1.2136434E-003, 4.8108297E+002
 9.6009077E+001, 9.3902632E-003, 1.7315783E-001, 1.5190308E-001, 1.2398499E-003, 2.9545244E-004, 1.2669550E-003, 4.8336043E+002
 9.7005638E+001, 9.1601848E-003, 1.7299037E-001, 1.5222431E-001, 1.4797690E-003, 3.1642901E-004, 1.3174235E-003, 4.7848225E+002
 9.8000394E+001, 8.1164786E-003, 1.7390942E-001, 1.5285623E-001, 1.4106483E-003, 3.2539786E-004, 1.3079355E-003, 4.8055077E+002
 9.9008183E+001, 7.8961591E-003, 1.7375244E-001, 1.5316058E-001, 1.6372497E-003, 3.5170560E-004, 1.3556094E-003, 4.7888740E+002
 1.0000347E+002, 7.6266974E-003, 1.7420964E-001, 1.5322631E-001, 1.4732199E-003, 2.9982698E-004, 1.3230927E-003, 4.8044039E+002
 1.0100090E+002, 7.4544345E-003, 1.7394500E-001, 1.5352018E-001, 1.7411715E-003, 3.8329966E-004, 1.3790080E-003, 4.7496486E+002
 1.0200682E+002, 7.1743087E-003, 1.7408709E-001, 1.5374805E-001, 1.7982192E-003, 3.6353113E-004, 1.3920636E-003, 4.7816239E+002
 1.0300769E+002, 7.2577141E-003, 1.7420358E-001, 1.5360361E-001, 1.6724927E-003, 3.5537402E-004, 1.3657829E-003, 4.7488158E+002
 1.0400158E+002, 6.5397710E-003, 1.7419801E-001, 1.5435014E-001, 2.0638245E-003, 4.0103095E-004, 1.4496544E-003, 4.7038503E+002
 1.0500455E+002, 6.4368686E-003, 1.7444964E-001, 1.5433373E-001, 1.9462144E-003, 3.9190537E-004, 1.4258979E-003, 4.7641380E+002
 1.0600928E+002, 6.2570253E-003, 1.7415968E-001, 1.5465212E-001, 2.2378682E-003, 4.6015171E-004, 1.4867481E-003, 4.7179963E+002
 1.0700388E+002, 5.3920862E-003, 1.7491900E-001, 1.5518532E-001, 2.1864530E-003, 4.3411685E-004, 1.4801294E-003, 4.7741955E+002
 1.0800204E+002, 5.6142778E-003, 1.7345951E-001, 1.5564465E-001, 3.0585774E-003, 6.0727478E-004, 1.6586511E-003, 4.6813498E+002
 1.0900676E+002, 4.9364238E-003, 1.7373391E-001, 1.5621895E-001, 3.2387695E-003, 6.0817935E-004, 1.6988772E-003, 4.7364877E+002
 1.1000731E+002, 5.0049102E-003, 1.7416509E-001, 1.5595421E-001, 2.9137714E-003, 5.0877598E-004, 1.6316969E-003, 4.7348180E+002
 1.1100608E+002, 4.6871854E-003, 1.7404879E-001, 1.5632881E-001, 3.1594681E-003, 5.8191668E-004, 1.6837012E-003, 4.6919490E+002
 1.1200288E+002, 4.4081254E-003, 1.7353814E-001, 1.5686370E-001, 3.6594928E-003, 6.4689008E-004, 1.7879468E-003, 4.6883712E+002
 1.1300551E+002, 4.5054812E-003, 1.7334979E-001, 1.5684659E-001, 3.7323074E-003, 6.8589242E-004, 1.8024661E-003, 4.6854917E+002
 1.1400783E+002, 4.2553049E-003, 1.7387079E-001, 1.5685929E-001, 3.5130194E-003, 6.3625864E-004, 1.7584720E-003, 4.7125288E+002
 1.1500015E+002, 4.1696829E-003, 1.7297480E-001, 1.5736759E-001, 4.1663688E-003, 7.7148412E-004, 1.8933560E-003, 4.6720969E+002
 1.1600118E+002, 4.2069139E-003, 1.7303726E-001, 1.5730972E-001, 4.1090227E-003, 7.2013236E-004, 1.8814229E-003, 4.6574926E+002
 1.1700124E+002, 4.2597388E-003, 1.7329932E-001, 1.5713196E-001, 3.9027755E-003, 6.8009074E-004, 1.8387226E-003, 4.6579939E+002
 1.1800385E+002, 4.4814391E-003, 1.7207786E-001, 1.5743666E-001, 4.5916317E-003, 9.9399688E-004, 1.9793320E-003, 4.6260200E+002
 1.1900067E+002, 3.9431524E-003, 1.7311864E-001, 1.5752269E-001, 4.1849351E-003, 8.1402592E-004, 1.8981714E-003, 4.6430519E+002
 1.2001056E+002, 4.0260634E-003, 1.7290821E-001, 1.5754732E-001, 4.2888838E-003, 7.9115930E-004, 1.9192377E-003, 4.6587708E+002
 1.2100120E+002, 3.8635435E-003, 1.7171815E-001, 1.5826043E-001, 5.1765995E-003, 1.0242580E-003, 2.1026655E-003, 4.6141317E+002
 1.2200365E+002, 3.7472636E-003, 1.7203367E-001, 1.5824192E-001, 5.0300285E-003, 9.5066795E-004, 2.0730701E-003, 4.6216601E+002
 1.2300141E+002, 3.8222745E-003, 1.7146548E-001, 1.5838338E-001, 5.3506654E-003, 1.2164881E-003, 2.1385209E-003, 4.6242785E+002
 1.2400448E+002, 3.5880356E-003, 1.7096623E-001, 1.5881983E-001, 5.7949974E-003, 1.4642429E-003, 2.2308926E-003, 4.5920937E+002
 1.2500785E+002, 3.8769439E-003, 1.7157865E-001, 1.5830785E-001, 5.2618435E-003, 1.0597839E-003, 2.1201331E-003, 4.6111779E+002
 1.2600284E+002, 3.7349279E-003, 1.7095427E-001, 1.5873540E-001, 5.7554838E-003, 1.2072686E-003, 2.2223504E-003, 4.6223002E+002
 1.2700826E+002, 3.2750289E-003, 1.7012635E-001, 1.5961332E-001, 6.5717160E-003, 1.3011105E-003, 2.3925522E-003, 4.6088332E+002
 1.2800877E+002, 3.4280638E-003, 1.7034974E-001, 1.5933240E-001, 6.3286977E-003, 1.3303477E-003, 2.3417439E-003, 4.5662195E+002
 1.2900829E+002, 3.4534022E-003, 1.6981505E-001, 1.5953246E-001, 6.6650692E-003, 1.5028703E-003, 2.4107623E-003, 4.5325179E+002
 1.3000971E+002, 3.2456014E-003, 1.6944239E-001, 1.5989986E-001, 7.0183338E-003, 1.6598957E-003, 2.4843427E-003, 4.5525025E+002
 1.3100814E+002, 3.3858017E-003, 1.6983831E-001, 1.5960396E-001, 6.6920829E-003, 1.4541944E-003, 2.4166890E-003, 4.5998161E+002
 1.3200307E+002, 3.0912950E-003, 1.6999112E-001, 1.5984841E-001, 6.7530442E-003, 1.4069540E-003, 2.4306458E-003, 4.6041951E+002
 1.3300845E+002, 3.2216008E-003, 1.6934215E-001, 1.6000282E-001, 7.1150828E-003, 1.5508970E-003, 2.5045043E-003, 4.5767752E+002
 1.3400842E+002, 3.6067439E-003, 1.6895957E-001, 1.5973291E-001, 7.1409489E-003, 1.7828665E-003, 2.5078315E-003, 4.5460926E+002
 1.3500626E+002, 3.1300876E-003, 1.6918456E-001, 1.6016856E-001, 7.2697962E-003, 1.5910341E-003, 2.5367616E-003, 4.5943363E+002
 1.3600603E+002, 3.3017771E-003, 1.6842753E-001, 1.6031439E-001, 7.6744130E-003, 1.8135059E-003, 2.6191225E-003, 4.5386685E+002
 1.3700129E+002, 3.1599675E-003, 1.6772421E-001, 1.6076558E-001, 8.2147487E-003, 2.0250457E-003, 2.7308939E-003, 4.5318141E+002
 1.3800571E+002, 3.4335021E-003, 1.6856404E-001, 1.6013364E-001, 7.5208181E-003, 1.7065678E-003, 2.5869826E-003, 4.5727866E+002
 1.3900949E+002, 3.1696089E-003, 1.6728397E-001, 1.6090324E-001, 8.4780485E-003, 2.3230138E-003, 2.7847939E-003, 4.5317623E+002
 1.4000371E+002, 3.0933760E-003, 1.6780453E-001, 1.6081135E-001, 8.2035947E-003, 1.9598504E-003, 2.7289682E-003, 4.5974619E+002
 1.4100307E+002, 3.5301654E-003, 1.6742614E-001, 1.6052427E-001, 8.2182603E-003, 2.0342835E-003, 2.7299176E-003, 4.4972673E+002
 1.4200175E+002, 3.3269836E-003, 1.6678143E-001, 1.6101713E-001, 8.7548267E-003, 2.2189724E-003, 2.8412208E-003, 4.5068115E+002
 1.4300062E+002, 3.4260485E-003, 1.6672201E-001, 1.6096729E-001, 8.7543415E-003, 2.1211415E-003, 2.8407717E-003, 4.4902849E+002
 1.4400014E+002, 3.3141893E-003, 1.6643976E-001, 1.6114956E-001, 8.9724554E-003, 2.4331018E-003, 2.8859001E-003, 4.5476618E+002
 1.4500401E+002, 3.1284724E-003, 1.6659100E-001, 1.6126581E-001, 8.9674951E-003, 2.4443404E-003, 2.8857140E-003, 4.5202369E+002
 1.4600863E+002, 3.1578569E-003, 1.6639006E-001, 1.6135240E-001, 9.0994731E-003, 2.3795837E-003, 2.9128449E-003, 4.5178391E+002
 1.4700871E+002, 2.9896779E-003, 1.6616409E-001, 1.6166083E-001, 9.3578196E-003, 2.3090773E-003, 2.9669246E-003, 4.4952998E+002
 1.4800447E+002, 3.2226123E-003, 1.6531706E-001, 1.6171467E-001, 9.7543565E-003, 2.8243777E-003, 3.0470320E-003, 4.5116050E+002
 1.4900992E+002, 3.0880365E-003, 1.6554101E-001, 1.6181166E-001, 9.7070492E-003, 2.5498407E-003, 3.0381873E-003, 4.5349497E+002
 1.5000734E+002, 2.9067664E-003, 1.6564221E-001, 1.6202242E-001, 9.7721453E-003, 2.2643352E-003, 3.0527304E-003, 4.5713842E+002
 1.5100286E+002, 3.1165890E-003, 1.6518809E-001, 1.6197103E-001, 9.9428418E-003, 2.5041788E-003, 3.0866949E-003, 4.5249192E+002
 1.5200838E+002, 3.0210223E-003, 1.6454504E-001, 1.6228748E-001, 1.0387525E-002, 2.9392495E-003, 3.1783083E-003, 4.4620517E+002
 1.5301041E+002, 2.9828353E-003, 1.6528093E-001, 1.6207403E-001, 9.9561485E-003, 2.4674562E-003, 3.0900864E-003, 4.5052870E+002
 1.5400926E+002, 3.0714373E-003, 1.6481450E-001, 1.6217672E-001, 1.0212194E-002, 2.6254978E-003, 3.1422785E-003, 4.5027243E+002
