s,,,,,,,
Time,"O2 EXHAUST","CO2 EXHAUST","H2O EXHAUST","CO EXHAUST","FUEL EXHAUST","SOOT EXHAUST","TEMP EXHAUST"
 0.0000000E+000, 2.3099739E-001, 5.9146498E-004, 5.9412092E-003, 0.0000000E+000, 0.0000000E+000, 0.0000000E+000, 2.0000000E+001
 1.0006492E+000, 2.3099739E-001, 5.9146498E-004, 5.9412092E-003, 8.8815954E-032, 1.0848868E-030, 2.7501944E-032, 2.0521233E+001
 2.0033058E+000, 2.2331318E-001, 6.8519781E-003, 9.4708793E-003, 3.6310488E-005, 2.7131948E-004, 4.9850907E-005, 9.5557459E+001
 3.0061189E+000, 2.1911312E-001, 1.0267543E-002, 1.1417974E-002, 7.2465853E-005, 3.3457550E-004, 8.0552370E-005, 1.3381863E+002
 4.0004505E+000, 2.1253678E-001, 1.5647845E-002, 1.4452253E-002, 1.0382604E-004, 4.4795883E-004, 1.2342710E-004, 1.9269126E+002
 5.0042645E+000, 2.0805459E-001, 1.9331797E-002, 1.6522941E-002, 1.1968353E-004, 4.7686397E-004, 1.5157979E-004, 2.2962800E+002
 6.0028027E+000, 2.0023652E-001, 2.5795634E-002, 2.0133350E-002, 1.2939174E-004, 4.5865036E-004, 1.9709206E-004, 2.9005106E+002
 7.0055958E+000, 1.9390918E-001, 3.1051109E-002, 2.3056043E-002, 1.2707588E-004, 3.9167895E-004, 2.3190709E-004, 3.2995301E+002
 8.0045838E+000, 1.8704427E-001, 3.6768392E-002, 2.6225100E-002, 1.1630027E-004, 2.9900633E-004, 2.6801112E-004, 3.7099649E+002
 9.0014152E+000, 1.7934063E-001, 4.3191182E-002, 2.9781213E-002, 1.0101156E-004, 1.8175877E-004, 3.0788777E-004, 4.0749037E+002
 1.0005212E+001, 1.7319193E-001, 4.8313732E-002, 3.2619001E-002, 9.0098527E-005, 9.8804520E-005, 3.3996634E-004, 4.3032529E+002
 1.1000785E+001, 1.6619431E-001, 5.4126129E-002, 3.5848447E-002, 8.5288187E-005, 4.0005427E-005, 3.7798855E-004, 4.5387188E+002
 1.2001941E+001, 1.5796119E-001, 6.0948374E-002, 3.9647475E-002, 8.6435628E-005, 7.0246050E-006, 4.2407347E-004, 4.7527878E+002
 1.3004670E+001, 1.5150190E-001, 6.6289724E-002, 4.2628448E-002, 9.2571959E-005, 7.6456362E-007, 4.6127792E-004, 4.8632786E+002
 1.4003949E+001, 1.4609104E-001, 7.0761711E-002, 4.5125572E-002, 9.8773778E-005, 3.0174135E-007, 4.9265513E-004, 4.9028926E+002
 1.5002711E+001, 1.3868812E-001, 7.6880017E-002, 4.8541990E-002, 1.0726212E-004, 8.5086272E-008, 5.3558429E-004, 5.0061795E+002
 1.6003559E+001, 1.3412711E-001, 8.0649494E-002, 5.0646892E-002, 1.1253376E-004, 6.4683208E-008, 5.6204187E-004, 5.0203326E+002
 1.7006788E+001, 1.2801822E-001, 8.5697947E-002, 5.3466207E-002, 1.1976935E-004, 1.3060234E-007, 5.9751403E-004, 5.0836718E+002
 1.8000579E+001, 1.2359146E-001, 8.9356516E-002, 5.5509125E-002, 1.2484601E-004, 1.3889476E-007, 6.2318461E-004, 5.0780481E+002
 1.9004168E+001, 1.1764530E-001, 9.4270635E-002, 5.8253297E-002, 1.3179206E-004, 1.6649827E-007, 6.5769210E-004, 5.1246169E+002
 2.0007483E+001, 1.1440498E-001, 9.6948550E-002, 5.9748730E-002, 1.3558912E-004, 1.0935074E-007, 6.7649926E-004, 5.1109577E+002
 2.1008820E+001, 1.1318012E-001, 9.7961027E-002, 6.0313943E-002, 1.3687893E-004, 7.6581062E-008, 6.8357868E-004, 5.0225412E+002
 2.2002238E+001, 1.0786283E-001, 1.0235545E-001, 6.2767878E-002, 1.4306961E-004, 1.1099142E-007, 7.1443237E-004, 5.1400720E+002
 2.3006011E+001, 1.0458428E-001, 1.0506507E-001, 6.4280910E-002, 1.4682855E-004, 7.7908157E-008, 7.3344439E-004, 5.0784701E+002
 2.4007121E+001, 1.0133031E-001, 1.0775424E-001, 6.5782639E-002, 1.5065166E-004, 8.2135962E-008, 7.5233274E-004, 5.0684566E+002
 2.5002330E+001, 9.9432428E-002, 1.0932284E-001, 6.6658479E-002, 1.5278766E-004, 5.3075386E-008, 7.6333018E-004, 5.0555382E+002
 2.6007447E+001, 9.6814278E-002, 1.1148590E-001, 6.7866979E-002, 1.5630398E-004, 2.2448373E-007, 7.7861786E-004, 5.0565333E+002
 2.7001886E+001, 9.2681866E-002, 1.1489228E-001, 6.9776959E-002, 1.6719670E-004, 2.2044653E-006, 8.0384094E-004, 5.0675639E+002
 2.8001347E+001, 9.1173806E-002, 1.1613521E-001, 7.0473861E-002, 1.7116238E-004, 3.9134456E-006, 8.1304251E-004, 5.0253282E+002
 2.9005634E+001, 8.8243420E-002, 1.1854845E-001, 7.1828878E-002, 1.8036729E-004, 6.5984359E-006, 8.3123075E-004, 5.0317512E+002
 3.0010242E+001, 8.6430390E-002, 1.2003436E-001, 7.2669506E-002, 1.9096178E-004, 1.0106775E-005, 8.4348620E-004, 5.0274045E+002
 3.1004702E+001, 8.3108175E-002, 1.2276614E-001, 7.4206927E-002, 2.0415528E-004, 1.4743101E-005, 8.6466994E-004, 5.0151857E+002
 3.2003810E+001, 7.9448986E-002, 1.2577548E-001, 7.5900551E-002, 2.1867864E-004, 1.7481440E-005, 8.8800370E-004, 5.0335880E+002
 3.3009014E+001, 7.6042981E-002, 1.2857254E-001, 7.7477918E-002, 2.3469806E-004, 2.3069956E-005, 9.1023193E-004, 5.0715022E+002
 3.4007640E+001, 7.4332112E-002, 1.2998103E-001, 7.8269153E-002, 2.4036364E-004, 2.4844373E-005, 9.2091041E-004, 5.0188878E+002
 3.5005388E+001, 7.2129484E-002, 1.3178625E-001, 7.9290407E-002, 2.5322376E-004, 2.9190107E-005, 9.3579704E-004, 5.0486514E+002
 3.6001514E+001, 6.9855713E-002, 1.3366261E-001, 8.0340977E-002, 2.5802755E-004, 2.8067041E-005, 9.4943436E-004, 5.0564550E+002
 3.7006701E+001, 6.7944267E-002, 1.3522370E-001, 8.1229030E-002, 2.7298712E-004, 3.2932313E-005, 9.6313080E-004, 5.0082526E+002
 3.8003520E+001, 6.4681424E-002, 1.3790439E-001, 8.2739977E-002, 2.8771024E-004, 3.6544020E-005, 9.8429922E-004, 5.0413891E+002
 3.9006259E+001, 6.2518790E-002, 1.3968186E-001, 8.3741247E-002, 2.9701422E-004, 3.8623202E-005, 9.9823697E-004, 5.0188656E+002
 4.0007364E+001, 6.0031315E-002, 1.4172308E-001, 8.4894442E-002, 3.1030795E-004, 3.9125011E-005, 1.0148023E-003, 5.0357778E+002
 4.1002357E+001, 5.8387322E-002, 1.4308821E-001, 8.5650734E-002, 3.0752943E-004, 3.9413817E-005, 1.0233789E-003, 5.0382097E+002
 4.2007890E+001, 5.6189560E-002, 1.4488648E-001, 8.6671081E-002, 3.2269176E-004, 4.2276576E-005, 1.0387125E-003, 5.0408063E+002
 4.3004492E+001, 5.3847607E-002, 1.4680504E-001, 8.7757502E-002, 3.3717465E-004, 4.5491843E-005, 1.0547085E-003, 5.0362729E+002
 4.4006920E+001, 5.2701927E-002, 1.4774966E-001, 8.8286580E-002, 3.3974988E-004, 4.8030813E-005, 1.0616077E-003, 5.0104375E+002
 4.5006622E+001, 5.1358348E-002, 1.4883597E-001, 8.8914905E-002, 3.5824953E-004, 5.1013425E-005, 1.0728730E-003, 4.9724301E+002
 4.6009938E+001, 4.8879950E-002, 1.5085701E-001, 9.0068041E-002, 3.8028566E-004, 5.4300215E-005, 1.0911771E-003, 4.9877315E+002
 4.7008718E+001, 4.5534054E-002, 1.5363558E-001, 9.1608196E-002, 3.7522831E-004, 4.9296313E-005, 1.1087622E-003, 5.0743376E+002
 4.8001348E+001, 4.4476727E-002, 1.5449626E-001, 9.2100291E-002, 3.8542248E-004, 5.2972621E-005, 1.1167308E-003, 5.0360263E+002
 4.9010047E+001, 4.3031481E-002, 1.5568731E-001, 9.2768373E-002, 3.8942441E-004, 5.3674505E-005, 1.1255916E-003, 4.9932679E+002
 5.0002849E+001, 4.0254077E-002, 1.5792668E-001, 9.4069007E-002, 4.3176941E-004, 6.2519537E-005, 1.1497170E-003, 5.0450106E+002
 5.1003998E+001, 3.9351946E-002, 1.5869533E-001, 9.4477810E-002, 4.1687640E-004, 5.7539222E-005, 1.1516885E-003, 5.1031691E+002
 5.2001218E+001, 3.8380954E-002, 1.5949136E-001, 9.4928214E-002, 4.2259446E-004, 5.7885288E-005, 1.1582630E-003, 5.0205579E+002
 5.3000749E+001, 3.5654379E-002, 1.6172888E-001, 9.6191879E-002, 4.3683997E-004, 6.0326961E-005, 1.1763513E-003, 5.0476190E+002
 5.4005945E+001, 3.3207923E-002, 1.6374018E-001, 9.7325478E-002, 4.4781978E-004, 5.6522526E-005, 1.1922194E-003, 5.0851086E+002
 5.5000242E+001, 3.2648704E-002, 1.6418916E-001, 9.7587939E-002, 4.5763122E-004, 5.8908326E-005, 1.1973398E-003, 5.0630004E+002
 5.6001475E+001, 3.0509858E-002, 1.6596921E-001, 9.8571057E-002, 4.5161457E-004, 5.5755119E-005, 1.2080101E-003, 5.1293224E+002
 5.7007110E+001, 2.9925498E-002, 1.6640734E-001, 9.8855461E-002, 4.8331287E-004, 6.4862541E-005, 1.2177501E-003, 5.0506489E+002
 5.8003223E+001, 2.8212852E-002, 1.6780544E-001, 9.9652391E-002, 4.9793520E-004, 6.3701055E-005, 1.2302791E-003, 5.0448470E+002
 5.9001682E+001, 2.6686593E-002, 1.6905645E-001, 1.0036025E-001, 5.0694290E-004, 6.5338472E-005, 1.2406160E-003, 5.0529783E+002
 6.0004930E+001, 2.5039884E-002, 1.7038445E-001, 1.0113153E-001, 5.3203296E-004, 6.9207639E-005, 1.2549183E-003, 5.0872357E+002
 6.1001432E+001, 2.4080048E-002, 1.7117452E-001, 1.0157527E-001, 5.3513916E-004, 7.1360127E-005, 1.2608928E-003, 5.0201338E+002
 6.2002633E+001, 2.2156926E-002, 1.7273036E-001, 1.0247435E-001, 5.6099406E-004, 7.5143451E-005, 1.2768900E-003, 5.0654916E+002
 6.3008499E+001, 2.0807380E-002, 1.7383614E-001, 1.0310041E-001, 5.6925048E-004, 7.6507483E-005, 1.2860900E-003, 5.0899249E+002
 6.4008213E+001, 1.9598408E-002, 1.7479221E-001, 1.0367522E-001, 6.0253405E-004, 7.0358871E-005, 1.2996500E-003, 5.0716263E+002
 6.5006845E+001, 1.8554617E-002, 1.7560969E-001, 1.0417169E-001, 6.3494305E-004, 7.9991714E-005, 1.3120913E-003, 5.0806913E+002
 6.6003646E+001, 1.6749886E-002, 1.7700734E-001, 1.0503770E-001, 7.0374858E-004, 8.6474537E-005, 1.3362344E-003, 5.0954147E+002
 6.7006214E+001, 1.6662407E-002, 1.7710469E-001, 1.0506832E-001, 6.8535641E-004, 8.9733026E-005, 1.3329452E-003, 5.0843804E+002
 6.8010064E+001, 1.5148978E-002, 1.7824194E-001, 1.0580740E-001, 7.6822500E-004, 9.4472024E-005, 1.3583538E-003, 5.0436822E+002
 6.9002310E+001, 1.4323174E-002, 1.7896430E-001, 1.0617571E-001, 7.4180896E-004, 8.4722547E-005, 1.3575436E-003, 5.0553495E+002
 7.0008076E+001, 1.2727157E-002, 1.8018332E-001, 1.0694759E-001, 8.1474811E-004, 9.1594325E-005, 1.3813727E-003, 5.0934813E+002
 7.1000400E+001, 1.2342031E-002, 1.8034350E-001, 1.0718117E-001, 9.2760050E-004, 1.0227447E-004, 1.4066450E-003, 5.0879645E+002
 7.2003344E+001, 1.1112279E-002, 1.8140332E-001, 1.0773502E-001, 8.9937555E-004, 9.0166542E-005, 1.4077144E-003, 5.0628974E+002
 7.3006871E+001, 9.8054457E-003, 1.8219883E-001, 1.0843925E-001, 1.1036393E-003, 1.0602311E-004, 1.4568544E-003, 5.0849534E+002
 7.4002183E+001, 9.2618264E-003, 1.8275757E-001, 1.0865064E-001, 1.0258275E-003, 1.0307393E-004, 1.4439255E-003, 5.0820625E+002
 7.5006188E+001, 9.5600762E-003, 1.8200420E-001, 1.0869627E-001, 1.3890400E-003, 1.1430031E-004, 1.5167377E-003, 5.0595642E+002
 7.6003678E+001, 8.4885664E-003, 1.8279031E-001, 1.0922514E-001, 1.4604077E-003, 1.2517626E-004, 1.5373212E-003, 5.0459055E+002
 7.7011233E+001, 7.4857564E-003, 1.8363888E-001, 1.0968079E-001, 1.4473777E-003, 1.2464713E-004, 1.5402291E-003, 5.0841167E+002
 7.8003319E+001, 7.3264015E-003, 1.8341124E-001, 1.0988205E-001, 1.7036254E-003, 1.4469289E-004, 1.5936401E-003, 5.0503188E+002
 7.9002044E+001, 6.4919177E-003, 1.8419502E-001, 1.1023191E-001, 1.6361593E-003, 1.4932832E-004, 1.5844414E-003, 5.0143659E+002
 8.0004314E+001, 5.7620518E-003, 1.8399514E-001, 1.1085828E-001, 2.2123823E-003, 1.7162906E-004, 1.7066429E-003, 4.9941087E+002
 8.1010548E+001, 5.5917774E-003, 1.8448656E-001, 1.1081352E-001, 1.9636586E-003, 1.4496579E-004, 1.6566173E-003, 5.0410040E+002
 8.2006266E+001, 5.2146339E-003, 1.8404520E-001, 1.1124814E-001, 2.4953568E-003, 2.2576925E-004, 1.7676502E-003, 4.9859903E+002
 8.3009377E+001, 4.8495944E-003, 1.8339994E-001, 1.1175281E-001, 3.1702944E-003, 2.8059743E-004, 1.9080240E-003, 4.9761446E+002
 8.4002886E+001, 4.7738040E-003, 1.8405819E-001, 1.1158191E-001, 2.7503610E-003, 2.1546528E-004, 1.8224112E-003, 4.9801752E+002
 8.5001317E+001, 4.4218638E-003, 1.8374127E-001, 1.1196622E-001, 3.1883112E-003, 2.1723590E-004, 1.9141800E-003, 4.9606679E+002
 8.6002326E+001, 4.1158166E-003, 1.8359266E-001, 1.1223963E-001, 3.4668170E-003, 2.9742184E-004, 1.9728945E-003, 4.8988487E+002
 8.7003663E+001, 4.1458383E-003, 1.8346566E-001, 1.1225980E-001, 3.5378638E-003, 3.1567083E-004, 1.9872740E-003, 4.8915166E+002
 8.8007066E+001, 3.4918587E-003, 1.8356920E-001, 1.1272304E-001, 3.8546306E-003, 3.0647376E-004, 2.0558855E-003, 4.9222428E+002
 8.9000693E+001, 3.6066860E-003, 1.8322327E-001, 1.1275055E-001, 4.0267717E-003, 3.6826006E-004, 2.0904692E-003, 4.8878338E+002
 9.0008380E+001, 4.1121210E-003, 1.8288966E-001, 1.1249275E-001, 3.9703080E-003, 3.3423050E-004, 2.0761215E-003, 4.8818974E+002
 9.1006260E+001, 3.4202589E-003, 1.8266850E-001, 1.1308128E-001, 4.5266257E-003, 4.4748745E-004, 2.1939125E-003, 4.8167312E+002
 9.2000259E+001, 3.3113984E-003, 1.8191080E-001, 1.1342822E-001, 5.1273293E-003, 5.1985391E-004, 2.3176149E-003, 4.8136354E+002
 9.3008569E+001, 3.2828585E-003, 1.8187931E-001, 1.1347087E-001, 5.1741071E-003, 4.6868939E-004, 2.3274324E-003, 4.8426367E+002
 9.4003838E+001, 3.6715521E-003, 1.8157895E-001, 1.1326784E-001, 5.1464958E-003, 5.5640336E-004, 2.3194947E-003, 4.8444557E+002
 9.5001745E+001, 2.8621673E-003, 1.8141270E-001, 1.1392873E-001, 5.7353929E-003, 6.5494963E-004, 2.4446397E-003, 4.8392198E+002
 9.6002440E+001, 3.0134959E-003, 1.8076632E-001, 1.1404217E-001, 6.1051855E-003, 6.9501063E-004, 2.5195817E-003, 4.7875264E+002
 9.7000205E+001, 2.9064376E-003, 1.8132930E-001, 1.1391211E-001, 5.7589966E-003, 7.2777957E-004, 2.4491404E-003, 4.8091183E+002
 9.8003651E+001, 2.6103547E-003, 1.8109840E-001, 1.1422998E-001, 6.1074684E-003, 6.8758376E-004, 2.5223025E-003, 4.7935390E+002
 9.9003327E+001, 2.6959652E-003, 1.8090126E-001, 1.1423457E-001, 6.1968131E-003, 6.9909390E-004, 2.5401338E-003, 4.7796597E+002
 1.0000362E+002, 2.7768517E-003, 1.8033239E-001, 1.1434001E-001, 6.5274576E-003, 9.2247757E-004, 2.6072038E-003, 4.7922791E+002
 1.0101032E+002, 2.0927267E-003, 1.8050558E-001, 1.1482703E-001, 6.8318870E-003, 7.6960637E-004, 2.6736376E-003, 4.8154345E+002
 1.0200924E+002, 2.3774860E-003, 1.7894796E-001, 1.1511617E-001, 7.7364063E-003, 1.1140336E-003, 2.8571055E-003, 4.7287578E+002
 1.0300823E+002, 2.5157720E-003, 1.7999215E-001, 1.1467070E-001, 6.9334977E-003, 8.8457629E-004, 2.6919740E-003, 4.7360962E+002
 1.0400126E+002, 2.3453632E-003, 1.7931317E-001, 1.1504207E-001, 7.5189162E-003, 9.2289740E-004, 2.8129280E-003, 4.7181295E+002
 1.0500089E+002, 2.3031785E-003, 1.7907108E-001, 1.1516191E-001, 7.7177854E-003, 9.2772862E-004, 2.8539397E-003, 4.7794818E+002
 1.0600422E+002, 2.2120196E-003, 1.7960537E-001, 1.1502323E-001, 7.3774986E-003, 9.9873173E-004, 2.7845711E-003, 4.8314961E+002
 1.0700303E+002, 2.3324710E-003, 1.7756005E-001, 1.1559830E-001, 8.7177948E-003, 1.4409466E-003, 3.0581947E-003, 4.6692873E+002
 1.0800745E+002, 2.2639834E-003, 1.7725219E-001, 1.1577069E-001, 8.9861028E-003, 1.3996758E-003, 3.1136523E-003, 4.6994923E+002
 1.0900961E+002, 2.3799202E-003, 1.7834454E-001, 1.1530597E-001, 8.1476803E-003, 1.2726377E-003, 2.9412304E-003, 4.7343426E+002
 1.1000638E+002, 2.2484868E-003, 1.7765621E-001, 1.1566421E-001, 8.7265843E-003, 1.2386297E-003, 3.0607245E-003, 4.7385382E+002
 1.1100484E+002, 2.2786049E-003, 1.7668153E-001, 1.1594956E-001, 9.3743434E-003, 1.5015863E-003, 3.1930586E-003, 4.6474423E+002
 1.1200677E+002, 2.1372346E-003, 1.7598051E-001, 1.1625230E-001, 9.9170498E-003, 1.8385215E-003, 3.3047080E-003, 4.6700748E+002
 1.1300030E+002, 1.9349581E-003, 1.7743759E-001, 1.1597032E-001, 9.0610327E-003, 1.3111963E-003, 3.1309629E-003, 4.7618421E+002
 1.1400828E+002, 2.0269840E-003, 1.7616639E-001, 1.1631516E-001, 9.8842127E-003, 1.5831237E-003, 3.2989156E-003, 4.7050753E+002
 1.1500805E+002, 1.9350651E-003, 1.7621461E-001, 1.1636165E-001, 9.8997079E-003, 1.6164200E-003, 3.3025619E-003, 4.6709258E+002
 1.1600071E+002, 1.9675624E-003, 1.7475103E-001, 1.1684698E-001, 1.0915666E-002, 1.7530635E-003, 3.5105538E-003, 4.7086787E+002
 1.1700808E+002, 2.0191177E-003, 1.7574417E-001, 1.1646831E-001, 1.0187568E-002, 1.6227013E-003, 3.3611194E-003, 4.7090551E+002
 1.1800517E+002, 1.9203877E-003, 1.7533744E-001, 1.1668032E-001, 1.0530271E-002, 1.6889022E-003, 3.4318637E-003, 4.6925050E+002
 1.1900844E+002, 1.8880214E-003, 1.7420632E-001, 1.1705554E-001, 1.1316605E-002, 2.0342565E-003, 3.5928578E-003, 4.6341801E+002
 1.2000911E+002, 1.9101502E-003, 1.7470693E-001, 1.1691088E-001, 1.0984651E-002, 1.7315098E-003, 3.5250480E-003, 4.7461051E+002
 1.2100675E+002, 1.9844455E-003, 1.7458207E-001, 1.1686477E-001, 1.1003763E-002, 1.9233643E-003, 3.5283076E-003, 4.6560549E+002
 1.2200704E+002, 1.9783458E-003, 1.7431799E-001, 1.1694319E-001, 1.1180359E-002, 2.0482282E-003, 3.5643966E-003, 4.7200709E+002
 1.2300869E+002, 2.1302037E-003, 1.7330574E-001, 1.1713960E-001, 1.1775228E-002, 2.3643202E-003, 3.6851386E-003, 4.6307418E+002
 1.2400939E+002, 2.0319510E-003, 1.7336889E-001, 1.1717727E-001, 1.1777543E-002, 2.4424826E-003, 3.6860594E-003, 4.6280770E+002
 1.2500389E+002, 1.9993096E-003, 1.7439067E-001, 1.1689649E-001, 1.1112388E-002, 2.0707848E-003, 3.5503116E-003, 4.7088947E+002
 1.2600608E+002, 2.0904637E-003, 1.7281102E-001, 1.1735452E-001, 1.2158080E-002, 2.3440697E-003, 3.7638994E-003, 4.6174507E+002
 1.2700755E+002, 1.9326747E-003, 1.7250988E-001, 1.1757967E-001, 1.2464991E-002, 2.3738859E-003, 3.8276788E-003, 4.6395544E+002
 1.2800806E+002, 1.9634798E-003, 1.7253427E-001, 1.1757983E-001, 1.2453728E-002, 2.1953053E-003, 3.8254272E-003, 4.6354328E+002
 1.2901008E+002, 1.8587407E-003, 1.7239689E-001, 1.1768195E-001, 1.2593892E-002, 2.3491678E-003, 3.8545564E-003, 4.6301251E+002
 1.3000943E+002, 1.9129469E-003, 1.7113767E-001, 1.1799696E-001, 1.3389870E-002, 2.9187077E-003, 4.0167586E-003, 4.6330334E+002
 1.3100783E+002, 1.8444721E-003, 1.7249085E-001, 1.1765553E-001, 1.2532473E-002, 2.3654176E-003, 3.8420194E-003, 4.6684645E+002
 1.3200015E+002, 2.0239733E-003, 1.7184159E-001, 1.1774401E-001, 1.2884130E-002, 2.4301304E-003, 3.9130539E-003, 4.6695251E+002
 1.3300722E+002, 1.9413265E-003, 1.7158450E-001, 1.1792560E-001, 1.3137146E-002, 2.2960492E-003, 3.9655734E-003, 4.6528065E+002
 1.3400231E+002, 1.9282961E-003, 1.7187962E-001, 1.1779705E-001, 1.2909168E-002, 2.4636791E-003, 3.9186776E-003, 4.6040880E+002
 1.3500279E+002, 1.8834961E-003, 1.7083515E-001, 1.1817584E-001, 1.3660002E-002, 2.6679220E-003, 4.0726422E-003, 4.6589267E+002
 1.3600240E+002, 1.8911931E-003, 1.7090110E-001, 1.1813576E-001, 1.3600269E-002, 2.7231713E-003, 4.0602787E-003, 4.5973954E+002
 1.3700746E+002, 2.0944879E-003, 1.7078701E-001, 1.1797107E-001, 1.3522468E-002, 3.0034092E-003, 4.0428324E-003, 4.6437950E+002
 1.3800250E+002, 1.8745655E-003, 1.7004842E-001, 1.1844217E-001, 1.4210725E-002, 2.8219957E-003, 4.1854337E-003, 4.6505548E+002
 1.3900988E+002, 1.9021294E-003, 1.6997849E-001, 1.1838916E-001, 1.4201102E-002, 3.1371291E-003, 4.1829019E-003, 4.6638611E+002
 1.4000638E+002, 2.0638809E-003, 1.6964788E-001, 1.1843768E-001, 1.4381504E-002, 2.8568151E-003, 4.2193584E-003, 4.6601537E+002
 1.4100994E+002, 2.0438934E-003, 1.6991261E-001, 1.1830793E-001, 1.4166231E-002, 3.1209778E-003, 4.1749827E-003, 4.6075674E+002
 1.4200314E+002, 1.9224844E-003, 1.7003853E-001, 1.1838390E-001, 1.4170117E-002, 2.9605318E-003, 4.1766615E-003, 4.6617871E+002
 1.4300004E+002, 1.8806315E-003, 1.6915850E-001, 1.1871341E-001, 1.4810653E-002, 3.0930985E-003, 4.3080823E-003, 4.6727086E+002
 1.4400677E+002, 1.9500532E-003, 1.6905847E-001, 1.1865221E-001, 1.4807414E-002, 3.3382733E-003, 4.3067168E-003, 4.5838383E+002
 1.4500420E+002, 1.9420978E-003, 1.6916857E-001, 1.1866785E-001, 1.4770570E-002, 3.0653503E-003, 4.2995560E-003, 4.5910725E+002
 1.4600128E+002, 1.8245991E-003, 1.6912121E-001, 1.1875042E-001, 1.4856243E-002, 3.1993908E-003, 4.3176068E-003, 4.6143360E+002
 1.4700765E+002, 1.8914654E-003, 1.6885831E-001, 1.1879799E-001, 1.5007633E-002, 3.1856401E-003, 4.3482989E-003, 4.6898596E+002
 1.4800348E+002, 2.0299994E-003, 1.6804009E-001, 1.1896962E-001, 1.5497925E-002, 3.3046443E-003, 4.4479220E-003, 4.5834869E+002
 1.4900982E+002, 1.7765508E-003, 1.6916630E-001, 1.1880418E-001, 1.4877818E-002, 3.0156384E-003, 4.3225347E-003, 4.6440777E+002
 1.5000816E+002, 1.7712323E-003, 1.6843642E-001, 1.1903012E-001, 1.5372685E-002, 3.2619889E-003, 4.4237330E-003, 4.6399250E+002
 1.5100603E+002, 1.9574450E-003, 1.6816221E-001, 1.1895693E-001, 1.5435479E-002, 3.4331195E-003, 4.4353545E-003, 4.5511531E+002
 1.5200480E+002, 1.8901283E-003, 1.6779448E-001, 1.1910510E-001, 1.5711988E-002, 3.6394739E-003, 4.4921692E-003, 4.5820474E+002
 1.5301058E+002, 1.6944038E-003, 1.6840662E-001, 1.1911117E-001, 1.5448671E-002, 3.1990304E-003, 4.4398241E-003, 4.6705633E+002
 1.5400503E+002, 1.7593241E-003, 1.6762661E-001, 1.1925332E-001, 1.5901047E-002, 3.7109340E-003, 4.5315764E-003, 4.6150759E+002
