s,,,,,,,
Time,O2 EXHAUST,CO2 EXHAUST,H2O EXHAUST,CO EXHAUST,FUEL EXHAUST,SOOT EXHAUST,TEMP EXHAUST
 0.0000000E+000, 2.3099739E-001, 5.9146498E-004, 5.9412092E-003, 0.0000000E+000, 0.0000000E+000, 0.0000000E+000, 2.0000000E+001
 1.0007438E+000, 2.3099739E-001, 5.9146498E-004, 5.9412092E-003, 1.1586190E-021, 2.4284666E-021, 1.6769102E-021, 2.2923679E+001
 2.0046491E+000, 2.1504435E-001, 1.2616026E-002, 1.2822805E-002, 1.1877135E-004, 1.2767172E-004, 1.2060787E-004, 1.7689844E+002
 3.0018265E+000, 2.0131620E-001, 2.3056588E-002, 1.8730056E-002, 1.6856324E-004, 1.4245243E-004, 2.1389268E-004, 2.9808143E+002
 4.0011301E+000, 1.8652009E-001, 3.4467397E-002, 2.5060282E-002, 1.2431010E-004, 6.9171840E-005, 2.9469044E-004, 4.0556518E+002
 5.0001900E+000, 1.7046735E-001, 4.6835217E-002, 3.1929874E-002, 8.3000973E-005, 3.0506398E-006, 3.8369163E-004, 4.9792810E+002
 6.0026731E+000, 1.5731204E-001, 5.6891430E-002, 3.7576829E-002, 9.7473543E-005, 1.5597882E-007, 4.6636268E-004, 5.4366855E+002
 7.0039797E+000, 1.3970705E-001, 7.0341826E-002, 4.5135488E-002, 1.2132472E-004, 4.0959609E-007, 5.7790045E-004, 5.9289823E+002
 8.0057191E+000, 1.3064331E-001, 7.7267490E-002, 4.9026737E-002, 1.3303059E-004, 2.8752445E-007, 6.3520839E-004, 6.1101954E+002
 9.0001358E+000, 1.1881386E-001, 8.6304783E-002, 5.4105862E-002, 1.4942830E-004, 4.2602915E-007, 7.1023017E-004, 6.2864026E+002
 1.0002538E+001, 1.1258360E-001, 9.1064813E-002, 5.6780798E-002, 1.5784021E-004, 5.0732153E-007, 7.4969665E-004, 6.2795270E+002
 1.1004167E+001, 1.0591380E-001, 9.6160636E-002, 5.9644464E-002, 1.6686700E-004, 5.1769817E-007, 7.9195188E-004, 6.2555110E+002
 1.2005636E+001, 1.0014924E-001, 1.0056401E-001, 6.2119726E-002, 1.7523651E-004, 6.0418477E-007, 8.2858727E-004, 6.3206925E+002
 1.3000004E+001, 9.5846221E-002, 1.0385461E-001, 6.3966290E-002, 1.7901215E-004, 3.1532426E-007, 8.5543308E-004, 6.3294886E+002
 1.4003119E+001, 9.2871270E-002, 1.0612731E-001, 6.5243648E-002, 1.8317796E-004, 2.9679000E-007, 8.7430866E-004, 6.3414294E+002
 1.5003706E+001, 8.7829384E-002, 1.0997923E-001, 6.7408399E-002, 1.9009089E-004, 4.5907558E-007, 9.0626847E-004, 6.3606778E+002
 1.6002325E+001, 8.5684033E-002, 1.1161865E-001, 6.8329401E-002, 1.9276786E-004, 4.0978591E-007, 9.1981405E-004, 6.3432005E+002
 1.7006811E+001, 8.3604206E-002, 1.1320647E-001, 6.9222748E-002, 1.9640157E-004, 4.8234690E-007, 9.3315646E-004, 6.2854245E+002
 1.8000865E+001, 8.1659689E-002, 1.1469375E-001, 7.0057113E-002, 1.9791919E-004, 3.6654956E-007, 9.4524969E-004, 6.2520820E+002
 1.9006253E+001, 7.8490220E-002, 1.1711470E-001, 7.1418093E-002, 2.0259318E-004, 4.3144890E-007, 9.6540719E-004, 6.3439239E+002
 2.0001246E+001, 7.4285744E-002, 1.2032537E-001, 7.3223773E-002, 2.0937496E-004, 5.9478891E-007, 9.9226510E-004, 6.3622267E+002
 2.1006925E+001, 7.2155528E-002, 1.2195399E-001, 7.4138016E-002, 2.1149491E-004, 6.2804626E-007, 1.0056058E-003, 6.4114128E+002
 2.2005231E+001, 7.0936027E-002, 1.2288500E-001, 7.4661849E-002, 2.1364000E-004, 5.3645907E-007, 1.0134322E-003, 6.2987783E+002
 2.3002257E+001, 6.9211750E-002, 1.2420299E-001, 7.5401954E-002, 2.1554318E-004, 6.1547146E-007, 1.0242686E-003, 6.3767023E+002
 2.4000821E+001, 6.7103754E-002, 1.2581357E-001, 7.6307018E-002, 2.1837588E-004, 5.3837227E-007, 1.0376194E-003, 6.3619674E+002
 2.5002386E+001, 6.5926588E-002, 1.2671336E-001, 7.6812301E-002, 2.1968325E-004, 5.0624517E-007, 1.0450192E-003, 6.3585358E+002
 2.6000670E+001, 6.3383971E-002, 1.2865511E-001, 7.7904246E-002, 2.2370919E-004, 4.8572177E-007, 1.0612461E-003, 6.3655176E+002
 2.7000302E+001, 6.1743936E-002, 1.2990811E-001, 7.8608368E-002, 2.2591735E-004, 6.6786757E-007, 1.0716337E-003, 6.3891970E+002
 2.8003148E+001, 6.1879361E-002, 1.2980597E-001, 7.8549828E-002, 2.2484620E-004, 4.7631509E-007, 1.0705958E-003, 6.3483773E+002
 2.9006117E+001, 5.9551632E-002, 1.3158122E-001, 7.9550189E-002, 2.3012467E-004, 8.9104259E-007, 1.0857740E-003, 6.4188011E+002
 3.0002382E+001, 5.9502716E-002, 1.3162109E-001, 7.9570441E-002, 2.2851704E-004, 5.5042305E-007, 1.0857447E-003, 6.3527869E+002
 3.1004436E+001, 5.7423252E-002, 1.3321010E-001, 8.0463177E-002, 2.3115237E-004, 4.9818125E-007, 1.0988825E-003, 6.3595230E+002
 3.2007172E+001, 5.8120949E-002, 1.3267734E-001, 8.0163514E-002, 2.2999349E-004, 5.7329997E-007, 1.0944187E-003, 6.3266459E+002
 3.3001774E+001, 5.6125292E-002, 1.3420045E-001, 8.1020858E-002, 2.3379421E-004, 6.1296479E-007, 1.1072850E-003, 6.3491378E+002
 3.4005870E+001, 5.4932303E-002, 1.3511286E-001, 8.1532780E-002, 2.3477398E-004, 5.0270829E-007, 1.1147143E-003, 6.3617234E+002
 3.5000286E+001, 5.5230028E-002, 1.3488519E-001, 8.1404999E-002, 2.3449702E-004, 6.1542866E-007, 1.1128535E-003, 6.3622115E+002
 3.6004688E+001, 5.4739037E-002, 1.3525989E-001, 8.1615936E-002, 2.3544945E-004, 6.5375657E-007, 1.1160224E-003, 6.3084107E+002
 3.7001392E+001, 5.3626487E-002, 1.3611163E-001, 8.2093081E-002, 2.3578488E-004, 4.4168822E-007, 1.1228336E-003, 6.3419087E+002
 3.8004349E+001, 5.2962699E-002, 1.3661823E-001, 8.2378223E-002, 2.3703385E-004, 6.2126480E-007, 1.1271098E-003, 6.3875773E+002
 3.9001508E+001, 5.3448439E-002, 1.3624564E-001, 8.2170147E-002, 2.3739211E-004, 6.2760860E-007, 1.1242386E-003, 6.3397367E+002
 4.0001347E+001, 5.1086390E-002, 1.3804866E-001, 8.3184777E-002, 2.4167979E-004, 8.5484547E-007, 1.1394239E-003, 6.3862859E+002
 4.1003469E+001, 5.2264754E-002, 1.3715100E-001, 8.2678050E-002, 2.3831482E-004, 5.4882505E-007, 1.1315999E-003, 6.3695719E+002
 4.2002441E+001, 5.2114979E-002, 1.3726707E-001, 8.2741848E-002, 2.3740295E-004, 4.1311334E-007, 1.1323228E-003, 6.4006087E+002
 4.3007502E+001, 5.0006777E-002, 1.3887406E-001, 8.3648159E-002, 2.4278188E-004, 6.6339602E-007, 1.1461910E-003, 6.3134688E+002
 4.4007307E+001, 4.9877382E-002, 1.3897345E-001, 8.3703536E-002, 2.4258493E-004, 7.0398714E-007, 1.1469352E-003, 6.3589780E+002
 4.5006773E+001, 4.9447961E-002, 1.3929921E-001, 8.3888623E-002, 2.4474095E-004, 9.2439761E-007, 1.1499750E-003, 6.4111612E+002
 4.6003726E+001, 4.9685077E-002, 1.3912255E-001, 8.3785430E-002, 2.4137122E-004, 5.1138631E-007, 1.1478547E-003, 6.3147657E+002
 4.7004624E+001, 5.0615404E-002, 1.3841304E-001, 8.3385606E-002, 2.3924975E-004, 3.6971740E-007, 1.1417860E-003, 6.3057484E+002
 4.8007049E+001, 4.9961711E-002, 1.3891240E-001, 8.3666297E-002, 2.4018703E-004, 3.3627092E-007, 1.1459381E-003, 6.2430733E+002
 4.9005550E+001, 4.8808174E-002, 1.3979124E-001, 8.4162320E-002, 2.4342193E-004, 6.3114611E-007, 1.1535853E-003, 6.3715633E+002
 5.0002506E+001, 4.8285059E-002, 1.4019144E-001, 8.4386757E-002, 2.4376953E-004, 5.6262428E-007, 1.1568264E-003, 6.3169572E+002
 5.1007166E+001, 4.9153406E-002, 1.3952532E-001, 8.4014753E-002, 2.4441037E-004, 8.6876954E-007, 1.1516932E-003, 6.3856835E+002
 5.2002102E+001, 4.7070026E-002, 1.4111690E-001, 8.4909320E-002, 2.4735306E-004, 7.3805578E-007, 1.1649172E-003, 6.3560970E+002
 5.3000307E+001, 5.0003000E-002, 1.3887944E-001, 8.3648986E-002, 2.4107598E-004, 5.8865125E-007, 1.1458679E-003, 6.3842894E+002
 5.4005565E+001, 4.9049630E-002, 1.3960684E-001, 8.4058626E-002, 2.4303967E-004, 6.2550007E-007, 1.1520444E-003, 6.2750711E+002
 5.5002528E+001, 4.8713851E-002, 1.3986360E-001, 8.4202715E-002, 2.4334102E-004, 6.7118120E-007, 1.1541405E-003, 6.3386756E+002
 5.6006722E+001, 4.8871081E-002, 1.3974456E-001, 8.4134881E-002, 2.4239853E-004, 5.3231315E-007, 1.1529965E-003, 6.3728788E+002
 5.7002294E+001, 4.8147174E-002, 1.4029686E-001, 8.4445945E-002, 2.4391459E-004, 4.9173543E-007, 1.1576916E-003, 6.3299766E+002
 5.8006942E+001, 4.7134623E-002, 1.4106788E-001, 8.4881467E-002, 2.4702516E-004, 7.9195468E-007, 1.1644591E-003, 6.3682406E+002
 5.9007351E+001, 4.8426496E-002, 1.4008261E-001, 8.4326267E-002, 2.4409799E-004, 6.3724094E-007, 1.1560357E-003, 6.3536920E+002
 6.0003955E+001, 4.8801521E-002, 1.3979848E-001, 8.4164516E-002, 2.4197256E-004, 4.1072712E-007, 1.1533319E-003, 6.2853498E+002
 6.1002353E+001, 4.8421440E-002, 1.4008616E-001, 8.4328536E-002, 2.4431915E-004, 6.5778118E-007, 1.1561112E-003, 6.3464960E+002
 6.2004755E+001, 4.7103849E-002, 1.4109278E-001, 8.4894243E-002, 2.4611922E-004, 7.2527338E-007, 1.1644619E-003, 6.3749290E+002
 6.3003345E+001, 4.8449147E-002, 1.4006839E-001, 8.4315597E-002, 2.4198333E-004, 3.2696671E-007, 1.1554698E-003, 6.2731824E+002
 6.4005763E+001, 4.6723017E-002, 1.4138344E-001, 8.5057870E-002, 2.4685939E-004, 6.1055067E-007, 1.1669204E-003, 6.3671925E+002
 6.5006111E+001, 4.7354631E-002, 1.4090286E-001, 8.4786064E-002, 2.4465159E-004, 5.0494892E-007, 1.1626445E-003, 6.3524363E+002
 6.6002237E+001, 4.6679262E-002, 1.4141796E-001, 8.5076305E-002, 2.4617003E-004, 6.1167860E-007, 1.1670457E-003, 6.3889482E+002
 6.7000298E+001, 4.7114092E-002, 1.4108720E-001, 8.4889174E-002, 2.4460087E-004, 3.9080388E-007, 1.1640922E-003, 6.2989832E+002
 6.8003785E+001, 4.6934978E-002, 1.4122352E-001, 8.4966211E-002, 2.4517954E-004, 6.1110385E-007, 1.1652949E-003, 6.3601412E+002
 6.9002917E+001, 4.7541218E-002, 1.4076043E-001, 8.4705904E-002, 2.4430449E-004, 5.4808624E-007, 1.1614432E-003, 6.3325770E+002
 7.0001004E+001, 4.7165787E-002, 1.4104671E-001, 8.4867276E-002, 2.4519904E-004, 5.4908659E-007, 1.1639000E-003, 6.3059305E+002
 7.1005354E+001, 4.7325074E-002, 1.4092478E-001, 8.4798955E-002, 2.4513778E-004, 5.8321638E-007, 1.1629222E-003, 6.3673858E+002
 7.2006885E+001, 4.7708424E-002, 1.4063435E-001, 8.4633614E-002, 2.4295999E-004, 3.1501844E-007, 1.1601573E-003, 6.3159500E+002
 7.3002235E+001, 4.7242925E-002, 1.4098512E-001, 8.4834976E-002, 2.4689518E-004, 7.9185216E-007, 1.1637764E-003, 6.3232868E+002
 7.4004678E+001, 4.6564783E-002, 1.4150319E-001, 8.5126140E-002, 2.4783229E-004, 8.3587972E-007, 1.1680765E-003, 6.3825245E+002
 7.5003870E+001, 4.7046237E-002, 1.4113830E-001, 8.4918519E-002, 2.4518499E-004, 5.8119070E-007, 1.1646217E-003, 6.3830512E+002
 7.6004968E+001, 4.6268208E-002, 1.4173185E-001, 8.5252837E-002, 2.4683376E-004, 6.4339691E-007, 1.1696716E-003, 6.3634054E+002
 7.7007620E+001, 4.7524920E-002, 1.4077399E-001, 8.4712569E-002, 2.4358264E-004, 3.8725542E-007, 1.1613957E-003, 6.3726000E+002
 7.8006295E+001, 4.7243686E-002, 1.4098595E-001, 8.4834215E-002, 2.4593769E-004, 6.5360430E-007, 1.1635776E-003, 6.3297823E+002
 7.9002499E+001, 4.7172521E-002, 1.4103905E-001, 8.4865178E-002, 2.4690858E-004, 6.6740177E-007, 1.1642059E-003, 6.3558346E+002
 8.0003954E+001, 4.7435430E-002, 1.4084110E-001, 8.4751384E-002, 2.4456185E-004, 4.8750455E-007, 1.1621366E-003, 6.3074633E+002
 8.1005595E+001, 4.5952199E-002, 1.4197191E-001, 8.5388928E-002, 2.4818402E-004, 8.3464860E-007, 1.1718605E-003, 6.3782565E+002
 8.2004624E+001, 4.7931686E-002, 1.4046319E-001, 8.4537935E-002, 2.4305313E-004, 3.8334967E-007, 1.1588230E-003, 6.2946338E+002
 8.3002328E+001, 4.6560909E-002, 1.4151065E-001, 8.5126426E-002, 2.4479555E-004, 3.5947715E-007, 1.1674844E-003, 6.3240480E+002
 8.4007176E+001, 4.7252604E-002, 1.4098126E-001, 8.4829748E-002, 2.4449798E-004, 3.5658537E-007, 1.1632319E-003, 6.2879033E+002
 8.5003773E+001, 4.5973746E-002, 1.4195759E-001, 8.5379035E-002, 2.4671692E-004, 5.2577092E-007, 1.1714327E-003, 6.3482388E+002
 8.6003320E+001, 4.7050313E-002, 1.4113313E-001, 8.4917438E-002, 2.4659623E-004, 5.3845236E-007, 1.1648834E-003, 6.3549760E+002
 8.7004535E+001, 4.6686857E-002, 1.4141107E-001, 8.5073382E-002, 2.4689507E-004, 6.7776067E-007, 1.1671467E-003, 6.3450278E+002
 8.8004656E+001, 4.9124531E-002, 1.3955001E-001, 8.4026347E-002, 2.4267443E-004, 5.9458286E-007, 1.1515164E-003, 6.3870449E+002
 8.9003098E+001, 4.8029619E-002, 1.4038744E-001, 8.4496157E-002, 2.4353774E-004, 5.7244546E-007, 1.1583275E-003, 6.3434779E+002
 9.0006090E+001, 4.8134371E-002, 1.4030632E-001, 8.4451530E-002, 2.4414122E-004, 5.9321645E-007, 1.1578150E-003, 6.3788895E+002
 9.1006408E+001, 4.6846383E-002, 1.4128941E-001, 8.5004825E-002, 2.4653274E-004, 6.3609324E-007, 1.1661063E-003, 6.3643193E+002
 9.2003175E+001, 4.6671810E-002, 1.4142276E-001, 8.5079773E-002, 2.4678008E-004, 7.3558668E-007, 1.1672144E-003, 6.3875572E+002
 9.3004735E+001, 4.6684228E-002, 1.4141421E-001, 8.5074170E-002, 2.4613911E-004, 5.2702122E-007, 1.1670094E-003, 6.3544813E+002
 9.4004788E+001, 4.8186660E-002, 1.4026824E-001, 8.4428501E-002, 2.4280242E-004, 4.3731536E-007, 1.1572267E-003, 6.3987982E+002
 9.5005341E+001, 4.6710936E-002, 1.4139411E-001, 8.5062599E-002, 2.4588814E-004, 5.6012585E-007, 1.1667966E-003, 6.3497062E+002
 9.6000074E+001, 4.6060842E-002, 1.4188828E-001, 8.5342503E-002, 2.4848133E-004, 7.1640078E-007, 1.1712626E-003, 6.3640075E+002
 9.7001920E+001, 4.7346603E-002, 1.4090979E-001, 8.4789271E-002, 2.4412557E-004, 3.9125903E-007, 1.1625866E-003, 6.3321858E+002
 9.8005366E+001, 4.6065761E-002, 1.4188522E-001, 8.5340169E-002, 2.4799753E-004, 7.0170401E-007, 1.1711346E-003, 6.3115828E+002
 9.9003005E+001, 4.5898124E-002, 1.4200951E-001, 8.5413323E-002, 2.5079583E-004, 9.5706237E-007, 1.1727180E-003, 6.4292851E+002
 1.0000292E+002, 4.6767388E-002, 1.4135244E-001, 8.5037909E-002, 2.4482097E-004, 4.3744582E-007, 1.1662381E-003, 6.3161595E+002
 1.0100649E+002, 4.5933834E-002, 1.4198878E-001, 8.5395948E-002, 2.4629405E-004, 5.1520036E-007, 1.1715888E-003, 6.3581686E+002
 1.0200178E+002, 4.6298896E-002, 1.4170708E-001, 8.5240087E-002, 2.4770217E-004, 6.5557174E-007, 1.1696618E-003, 6.3805828E+002
 1.0300329E+002, 4.6698273E-002, 1.4140440E-001, 8.5067845E-002, 2.4548770E-004, 5.0856845E-007, 1.1667921E-003, 6.2840678E+002
 1.0400112E+002, 4.6459123E-002, 1.4158617E-001, 8.5170825E-002, 2.4646193E-004, 5.4462369E-007, 1.1684392E-003, 6.3551208E+002
 1.0500218E+002, 4.6547610E-002, 1.4151749E-001, 8.5133161E-002, 2.4706739E-004, 6.6484548E-007, 1.1680256E-003, 6.3566144E+002
 1.0600433E+002, 4.4725532E-002, 1.4290895E-001, 8.5915659E-002, 2.4996040E-004, 7.4594097E-007, 1.1796555E-003, 6.4008193E+002
 1.0700332E+002, 4.7507649E-002, 1.4078540E-001, 8.4720544E-002, 2.4482447E-004, 5.0318383E-007, 1.1617522E-003, 6.3557085E+002
 1.0800196E+002, 4.6372310E-002, 1.4165398E-001, 8.5207631E-002, 2.4556648E-004, 4.6804351E-007, 1.1687837E-003, 6.3702293E+002
 1.0900254E+002, 4.5710128E-002, 1.4215415E-001, 8.5493702E-002, 2.5034719E-004, 1.0257932E-006, 1.1737663E-003, 6.3815207E+002
 1.1000193E+002, 4.5439449E-002, 1.4236515E-001, 8.5608638E-002, 2.4788448E-004, 5.7226895E-007, 1.1749077E-003, 6.3501678E+002
 1.1100133E+002, 4.6095011E-002, 1.4186411E-001, 8.5327232E-002, 2.4712228E-004, 5.6469160E-007, 1.1707799E-003, 6.3412526E+002
 1.1200497E+002, 4.6344574E-002, 1.4167144E-001, 8.5220692E-002, 2.4813025E-004, 7.7436548E-007, 1.1694716E-003, 6.3979488E+002
 1.1300289E+002, 4.7478248E-002, 1.4080655E-001, 8.4733562E-002, 2.4574702E-004, 6.8866861E-007, 1.1621173E-003, 6.3761047E+002
 1.1400129E+002, 4.5522176E-002, 1.4229996E-001, 8.5573726E-002, 2.4911079E-004, 7.7164137E-007, 1.1746549E-003, 6.3864148E+002
 1.1500061E+002, 4.6134231E-002, 1.4183426E-001, 8.5310369E-002, 2.4699853E-004, 4.8318694E-007, 1.1705172E-003, 6.3389121E+002
 1.1600578E+002, 4.6221588E-002, 1.4176364E-001, 8.5274055E-002, 2.4950631E-004, 8.5659136E-007, 1.1704961E-003, 6.4063146E+002
 1.1700146E+002, 4.5667189E-002, 1.4219235E-001, 8.5510485E-002, 2.4675930E-004, 4.7223693E-007, 1.1732993E-003, 6.3622623E+002
 1.1800507E+002, 4.6193982E-002, 1.4178874E-001, 8.5284638E-002, 2.4679864E-004, 6.8795225E-007, 1.1701142E-003, 6.3831343E+002
 1.1900281E+002, 4.6287552E-002, 1.4171971E-001, 8.5243726E-002, 2.4502324E-004, 3.4961551E-007, 1.1691874E-003, 6.3574650E+002
 1.2000725E+002, 4.6651207E-002, 1.4144120E-001, 8.5087795E-002, 2.4498194E-004, 4.2326825E-007, 1.1669749E-003, 6.3781757E+002
 1.2100182E+002, 4.6110120E-002, 1.4185225E-001, 8.5320823E-002, 2.4730023E-004, 7.1791812E-007, 1.1707242E-003, 6.4073249E+002
 1.2200680E+002, 4.6958889E-002, 1.4120361E-001, 8.4956482E-002, 2.4628250E-004, 5.6991841E-007, 1.1653738E-003, 6.3374054E+002
 1.2300555E+002, 4.6652484E-002, 1.4143931E-001, 8.5087516E-002, 2.4559106E-004, 5.8220740E-007, 1.1670905E-003, 6.3378137E+002
 1.2400657E+002, 4.5850991E-002, 1.4204974E-001, 8.5432243E-002, 2.4798928E-004, 6.7058198E-007, 1.1724346E-003, 6.3171284E+002
 1.2500644E+002, 4.6888443E-002, 1.4125787E-001, 8.4986581E-002, 2.4607264E-004, 6.0002183E-007, 1.1657581E-003, 6.3460091E+002
 1.2600313E+002, 4.7765657E-002, 1.4059087E-001, 8.4608970E-002, 2.4271849E-004, 2.6423180E-007, 1.1597615E-003, 6.2797355E+002
 1.2700263E+002, 4.7191566E-002, 1.4102603E-001, 8.4856524E-002, 2.4584040E-004, 5.5497907E-007, 1.1638739E-003, 6.3689411E+002
 1.2800601E+002, 4.7158323E-002, 1.4105225E-001, 8.4870520E-002, 2.4531028E-004, 6.2861958E-007, 1.1639677E-003, 6.3980118E+002
 1.2900751E+002, 4.4899325E-002, 1.4277364E-001, 8.5841815E-002, 2.5143435E-004, 1.0178953E-006, 1.1789009E-003, 6.4113542E+002
 1.3000468E+002, 4.8495299E-002, 1.4003115E-001, 8.4296388E-002, 2.4325781E-004, 5.2711475E-007, 1.1554484E-003, 6.3478989E+002
 1.3100453E+002, 4.5697381E-002, 1.4216460E-001, 8.5498963E-002, 2.4988938E-004, 9.1882660E-007, 1.1737508E-003, 6.3661464E+002
 1.3200213E+002, 4.5820831E-002, 1.4207318E-001, 8.5445072E-002, 2.4776541E-004, 6.3177366E-007, 1.1725720E-003, 6.3326187E+002
 1.3300445E+002, 4.5399377E-002, 1.4239476E-001, 8.5626142E-002, 2.4860808E-004, 7.0650430E-007, 1.1752972E-003, 6.3697929E+002
 1.3400292E+002, 4.6242892E-002, 1.4175176E-001, 8.5263536E-002, 2.4648385E-004, 5.5577314E-007, 1.1697541E-003, 6.3473698E+002
 1.3500075E+002, 4.6735452E-002, 1.4137569E-001, 8.5051980E-002, 2.4564832E-004, 5.1839246E-007, 1.1665994E-003, 6.3933533E+002
 1.3600200E+002, 4.6394461E-002, 1.4163538E-001, 8.5198616E-002, 2.4665340E-004, 7.4384576E-007, 1.1688696E-003, 6.3512466E+002
 1.3700189E+002, 4.6748959E-002, 1.4136643E-001, 8.5045851E-002, 2.4490863E-004, 4.4268935E-007, 1.1663675E-003, 6.3586232E+002
 1.3800685E+002, 4.7250574E-002, 1.4098144E-001, 8.4831017E-002, 2.4540939E-004, 6.2658588E-007, 1.1634287E-003, 6.3866437E+002
 1.3900437E+002, 4.6771198E-002, 1.4134939E-001, 8.5036326E-002, 2.4491987E-004, 4.0325541E-007, 1.1662351E-003, 6.2853232E+002
 1.4000012E+002, 4.6120575E-002, 1.4184233E-001, 8.5316944E-002, 2.4860477E-004, 7.9628720E-007, 1.1709255E-003, 6.3483956E+002
 1.4100150E+002, 4.5367532E-002, 1.4241831E-001, 8.5640066E-002, 2.4919186E-004, 7.3399886E-007, 1.1756086E-003, 6.3538629E+002
 1.4200667E+002, 4.5660479E-002, 1.4219520E-001, 8.5514065E-002, 2.4831212E-004, 7.0930153E-007, 1.1736547E-003, 6.3470655E+002
 1.4300689E+002, 4.7097710E-002, 1.4109959E-001, 8.4896247E-002, 2.4470953E-004, 4.0397418E-007, 1.1642135E-003, 6.3240455E+002
 1.4400721E+002, 4.7653437E-002, 1.4067494E-001, 8.4657665E-002, 2.4400039E-004, 4.1414091E-007, 1.1607015E-003, 6.2962676E+002
 1.4500704E+002, 4.6365506E-002, 1.4165699E-001, 8.5211228E-002, 2.4705827E-004, 6.5754442E-007, 1.1691274E-003, 6.3343344E+002
 1.4600673E+002, 4.7534615E-002, 1.4076430E-001, 8.4709084E-002, 2.4509921E-004, 7.7272900E-007, 1.1616441E-003, 6.3799513E+002
 1.4700119E+002, 4.6545120E-002, 1.4152018E-001, 8.5133983E-002, 2.4653046E-004, 6.0289580E-007, 1.1679318E-003, 6.3498064E+002
 1.4800334E+002, 4.7041624E-002, 1.4114170E-001, 8.4920526E-002, 2.4526502E-004, 6.5894106E-007, 1.1646658E-003, 6.4216812E+002
 1.4900424E+002, 4.7032418E-002, 1.4114999E-001, 8.4924108E-002, 2.4443721E-004, 4.3539202E-007, 1.1645539E-003, 6.3381900E+002
 1.5000256E+002, 4.6141662E-002, 1.4182789E-001, 8.5307379E-002, 2.4744944E-004, 6.2909427E-007, 1.1705635E-003, 6.2972367E+002
 1.5100717E+002, 4.6572863E-002, 1.4149977E-001, 8.5121836E-002, 2.4596728E-004, 4.9571180E-007, 1.1676495E-003, 6.2998513E+002
 1.5200503E+002, 4.6285542E-002, 1.4171536E-001, 8.5246393E-002, 2.4900574E-004, 9.5002960E-007, 1.1700068E-003, 6.3917550E+002
 1.5300215E+002, 4.6934087E-002, 1.4122321E-001, 8.4966908E-002, 2.4585683E-004, 6.3494661E-007, 1.1654377E-003, 6.3793732E+002
 1.5400548E+002, 4.6815289E-002, 1.4131400E-001, 8.5017922E-002, 2.4601564E-004, 5.4712608E-007, 1.1661900E-003, 6.3219168E+002
