s,,,,,,,
Time,"O2 EXHAUST","CO2 EXHAUST","H2O EXHAUST","CO EXHAUST","FUEL EXHAUST","SOOT EXHAUST","TEMP EXHAUST"
 0.0000000E+000, 2.3099739E-001, 5.9146498E-004, 5.9412091E-003, 0.0000000E+000, 0.0000000E+000, 0.0000000E+000, 2.0000000E+001
 1.0038808E+000, 2.3099739E-001, 5.9146498E-004, 5.9412091E-003, 4.4301094E-027, 2.8606626E-026, 1.1731070E-027, 2.0886854E+001
 2.0004077E+000, 2.2054276E-001, 1.0147250E-002, 9.9809222E-003, 7.7423538E-005, 1.8813337E-004, 7.4295066E-005, 1.1798650E+002
 3.0024531E+000, 2.1324992E-001, 1.6822061E-002, 1.2804761E-002, 1.3336997E-004, 2.6613824E-004, 1.2659432E-004, 1.8316189E+002
 4.0060125E+000, 2.0616791E-001, 2.3335693E-002, 1.5542526E-002, 1.6873567E-004, 3.0576610E-004, 1.7346981E-004, 2.4201098E+002
 5.0005454E+000, 2.0093193E-001, 2.8163861E-002, 1.7563646E-002, 1.8617237E-004, 3.2871456E-004, 2.0631655E-004, 2.8263422E+002
 6.0040004E+000, 1.9152639E-001, 3.6923051E-002, 2.1184543E-002, 1.6846309E-004, 2.5778177E-004, 2.5522995E-004, 3.4397714E+002
 7.0011959E+000, 1.8238149E-001, 4.5453714E-002, 2.4703090E-002, 1.4274450E-004, 1.7288347E-004, 3.0103420E-004, 4.0253762E+002
 8.0040873E+000, 1.7508118E-001, 5.2277673E-002, 2.7509570E-002, 1.1345823E-004, 9.1567660E-005, 3.3578923E-004, 4.2960312E+002
 9.0041951E+000, 1.6610885E-001, 6.0638833E-002, 3.0961994E-002, 9.2370555E-005, 2.3473921E-005, 3.8157482E-004, 4.6297187E+002
 1.0007600E+001, 1.5899855E-001, 6.7235993E-002, 3.3701583E-002, 9.2459539E-005, 4.5006741E-006, 4.2132027E-004, 4.8584778E+002
 1.1000409E+001, 1.4937512E-001, 7.6147825E-002, 3.7411539E-002, 1.0244101E-004, 2.2337960E-007, 4.7714452E-004, 5.0468273E+002
 1.2007543E+001, 1.4108207E-001, 8.3824555E-002, 4.0609011E-002, 1.1285182E-004, 2.7777541E-007, 5.2562423E-004, 5.2168309E+002
 1.3002568E+001, 1.3543427E-001, 8.9052604E-002, 4.2786586E-002, 1.1995635E-004, 3.0283122E-007, 5.5864330E-004, 5.2465690E+002
 1.4002488E+001, 1.3158289E-001, 9.2617842E-002, 4.4271500E-002, 1.2472629E-004, 2.8012972E-007, 5.8114424E-004, 5.2858205E+002
 1.5002838E+001, 1.2833033E-001, 9.5628261E-002, 4.5525644E-002, 1.2908718E-004, 6.2593949E-007, 6.0021571E-004, 5.3322006E+002
 1.6000064E+001, 1.2478479E-001, 9.8910776E-002, 4.6892578E-002, 1.3323571E-004, 2.4915841E-007, 6.2087972E-004, 5.3423795E+002
 1.7008224E+001, 1.2356837E-001, 1.0003670E-001, 4.7361596E-002, 1.3482122E-004, 3.1369324E-007, 6.2800277E-004, 5.2703045E+002
 1.8000029E+001, 1.2169468E-001, 1.0177124E-001, 4.8084010E-002, 1.3712359E-004, 2.1144787E-007, 6.3894583E-004, 5.2893830E+002
 1.9006479E+001, 1.1925585E-001, 1.0402874E-001, 4.9024342E-002, 1.4023490E-004, 2.5885666E-007, 6.5321311E-004, 5.2784288E+002
 2.0003180E+001, 1.1843539E-001, 1.0478841E-001, 4.9340632E-002, 1.4113502E-004, 1.8268495E-007, 6.5798236E-004, 5.2497309E+002
 2.1006827E+001, 1.1548267E-001, 1.0752143E-001, 5.0479124E-002, 1.4499840E-004, 4.6040939E-007, 6.7527578E-004, 5.2913462E+002
 2.2000233E+001, 1.1414135E-001, 1.0876327E-001, 5.0996259E-002, 1.4656579E-004, 2.3863875E-007, 6.8309292E-004, 5.2534793E+002
 2.3001290E+001, 1.1490845E-001, 1.0805329E-001, 5.0700466E-002, 1.4552157E-004, 1.9008516E-007, 6.7859169E-004, 5.2020982E+002
 2.4006824E+001, 1.1400251E-001, 1.0889190E-001, 5.1049772E-002, 1.4667281E-004, 1.1675869E-007, 6.8389064E-004, 5.2953260E+002
 2.5007231E+001, 1.1109774E-001, 1.1158066E-001, 5.2169764E-002, 1.5040562E-004, 2.5722369E-007, 7.0088931E-004, 5.2981030E+002
 2.6004968E+001, 1.1059380E-001, 1.1204721E-001, 5.2364057E-002, 1.5100654E-004, 1.8980578E-007, 7.0382872E-004, 5.2715101E+002
 2.7003890E+001, 1.0901941E-001, 1.1350470E-001, 5.2971051E-002, 1.5290523E-004, 1.2938626E-007, 7.1301615E-004, 5.2662843E+002
 2.8004698E+001, 1.0726458E-001, 1.1512898E-001, 5.3647659E-002, 1.5518497E-004, 3.1343204E-007, 7.2329037E-004, 5.2820624E+002
 2.9000332E+001, 1.0718362E-001, 1.1520395E-001, 5.3678884E-002, 1.5528614E-004, 2.2597563E-007, 7.2376370E-004, 5.2110465E+002
 3.0003226E+001, 1.0701364E-001, 1.1536136E-001, 5.3744407E-002, 1.5545460E-004, 1.8384370E-007, 7.2474805E-004, 5.2112606E+002
 3.1000810E+001, 1.0613710E-001, 1.1617290E-001, 5.4082339E-002, 1.5646406E-004, 6.6951761E-008, 7.2985332E-004, 5.2157969E+002
 3.2004110E+001, 1.0382314E-001, 1.1831444E-001, 5.4974605E-002, 1.5966667E-004, 3.7771935E-007, 7.4344207E-004, 5.2618264E+002
 3.3003318E+001, 1.0465049E-001, 1.1754886E-001, 5.4655556E-002, 1.5844609E-004, 1.8255032E-007, 7.3856783E-004, 5.2150228E+002
 3.4005000E+001, 1.0401997E-001, 1.1813243E-001, 5.4898680E-002, 1.5929626E-004, 2.1097562E-007, 7.4226591E-004, 5.2500213E+002
 3.5000936E+001, 1.0288864E-001, 1.1917963E-001, 5.5334879E-002, 1.6074671E-004, 3.1412606E-007, 7.4888565E-004, 5.2154442E+002
 3.6005067E+001, 1.0228813E-001, 1.1973533E-001, 5.5566439E-002, 1.6161002E-004, 5.4127339E-007, 7.5241872E-004, 5.2260558E+002
 3.7000060E+001, 1.0191466E-001, 1.2008152E-001, 5.5710348E-002, 1.6177294E-004, 9.2337047E-008, 7.5453866E-004, 5.1897025E+002
 3.8003492E+001, 1.0201624E-001, 1.1998737E-001, 5.5671209E-002, 1.6172593E-004, 1.7310775E-007, 7.5396155E-004, 5.2439060E+002
 3.9004949E+001, 9.9431500E-002, 1.2237337E-001, 5.6668940E-002, 1.6917588E-004, 6.3554597E-006, 7.6994129E-004, 5.2212694E+002
 4.0000087E+001, 1.0021109E-001, 1.2165843E-001, 5.6367186E-002, 1.6394636E-004, 1.6112472E-007, 7.6450461E-004, 5.1798159E+002
 4.1007575E+001, 9.8050680E-002, 1.2365677E-001, 5.7200475E-002, 1.6767430E-004, 1.2323372E-006, 7.7734467E-004, 5.2789954E+002
 4.2002907E+001, 9.6428268E-002, 1.2515990E-001, 5.7825743E-002, 1.6884677E-004, 3.1132890E-007, 7.8664980E-004, 5.3371548E+002
 4.3008630E+001, 9.5723894E-002, 1.2580130E-001, 5.8099182E-002, 1.7645735E-004, 1.0108686E-005, 7.9215886E-004, 5.2325140E+002
 4.4000168E+001, 9.4714158E-002, 1.2672218E-001, 5.8490605E-002, 1.8614961E-004, 2.4714972E-005, 7.9980132E-004, 5.2526915E+002
 4.5004685E+001, 9.5663994E-002, 1.2586538E-001, 5.8120785E-002, 1.7108907E-004, 2.0421130E-006, 7.9138317E-004, 5.2686628E+002
 4.6000659E+001, 9.4590149E-002, 1.2685622E-001, 5.8535528E-002, 1.7461860E-004, 4.0884923E-006, 7.9811340E-004, 5.1979956E+002
 4.7003883E+001, 9.6294404E-002, 1.2528317E-001, 5.7877481E-002, 1.6943652E-004, 8.3051122E-007, 7.8751970E-004, 5.1815017E+002
 4.8000783E+001, 9.5896730E-002, 1.2565054E-001, 5.8030972E-002, 1.7044199E-004, 1.3235350E-006, 7.8994948E-004, 5.1432899E+002
 4.9006339E+001, 9.4534412E-002, 1.2691297E-001, 5.8555956E-002, 1.7126081E-004, 2.9653219E-007, 7.9772861E-004, 5.2340744E+002
 5.0005206E+001, 9.4567359E-002, 1.2687840E-001, 5.8543988E-002, 1.7381759E-004, 3.9143575E-006, 7.9807368E-004, 5.2446513E+002
 5.1000186E+001, 9.2923856E-002, 1.2839160E-001, 5.9179260E-002, 1.8122404E-004, 1.0386540E-005, 8.0878831E-004, 5.2158507E+002
 5.2004222E+001, 9.2762895E-002, 1.2854176E-001, 5.9241123E-002, 1.8069610E-004, 9.2778913E-006, 8.0957831E-004, 5.2020727E+002
 5.3000655E+001, 9.2308065E-002, 1.2896047E-001, 5.9416929E-002, 1.8277489E-004, 1.1214555E-005, 8.1254941E-004, 5.2230101E+002
 5.4003079E+001, 9.0897953E-002, 1.3021735E-001, 5.9970396E-002, 2.1654071E-004, 4.7953744E-005, 8.2742402E-004, 5.2399577E+002
 5.5002820E+001, 9.0260358E-002, 1.3080664E-001, 6.0214639E-002, 2.1612506E-004, 5.9391394E-005, 8.3088271E-004, 5.2113043E+002
 5.6004855E+001, 9.2159605E-002, 1.2909181E-001, 5.9475035E-002, 1.8660743E-004, 1.8031763E-005, 8.1416959E-004, 5.2321215E+002
 5.7007276E+001, 9.0114731E-002, 1.3090514E-001, 6.0276809E-002, 2.3894417E-004, 9.4857497E-005, 8.3641334E-004, 5.3038002E+002
 5.8002201E+001, 9.0238439E-002, 1.3083363E-001, 6.0222058E-002, 2.1205886E-004, 5.2373845E-005, 8.3016538E-004, 5.2262400E+002
 5.9008308E+001, 9.0611688E-002, 1.3050584E-001, 6.0075310E-002, 2.0064216E-004, 3.4431199E-005, 8.2572127E-004, 5.2500214E+002
 6.0003897E+001, 9.0026614E-002, 1.3104485E-001, 6.0301103E-002, 2.0276583E-004, 3.8277051E-005, 8.2942653E-004, 5.2072636E+002
 6.1004431E+001, 8.9470873E-002, 1.3156434E-001, 6.0514795E-002, 2.0057840E-004, 3.1772689E-005, 8.3208145E-004, 5.2929746E+002
 6.2006231E+001, 9.0754199E-002, 1.3031012E-001, 6.0031500E-002, 2.4081559E-004, 9.3425128E-005, 8.3323517E-004, 5.1822054E+002
 6.3000039E+001, 8.9668673E-002, 1.3137433E-001, 6.0439873E-002, 2.0484208E-004, 3.7350400E-005, 8.3185978E-004, 5.2403666E+002
 6.4009197E+001, 8.8944992E-002, 1.3200283E-001, 6.0725651E-002, 2.3144657E-004, 7.8472819E-005, 8.4140101E-004, 5.2708396E+002
 6.5002950E+001, 9.0523044E-002, 1.3056827E-001, 6.0112636E-002, 2.1288144E-004, 5.4259919E-005, 8.2874548E-004, 5.1969218E+002
 6.6006674E+001, 8.8854325E-002, 1.3210423E-001, 6.0757875E-002, 2.2083671E-004, 6.0416312E-005, 8.3971588E-004, 5.2313951E+002
 6.7009006E+001, 8.8570262E-002, 1.3235207E-001, 6.0870413E-002, 2.3113735E-004, 7.2112559E-005, 8.4343708E-004, 5.2247719E+002
 6.8003485E+001, 8.8481385E-002, 1.3245300E-001, 6.0901151E-002, 2.1916996E-004, 5.6507391E-005, 8.4145542E-004, 5.2385339E+002
 6.9001604E+001, 8.8701421E-002, 1.3226492E-001, 6.0813470E-002, 2.0890022E-004, 4.2800163E-005, 8.3810077E-004, 5.2790994E+002
 7.0007248E+001, 8.8327827E-002, 1.3257544E-001, 6.0964329E-002, 2.3237109E-004, 7.1512918E-005, 8.4504909E-004, 5.2265899E+002
 7.1003620E+001, 8.8782314E-002, 1.3214230E-001, 6.0790230E-002, 2.3859506E-004, 8.9258324E-005, 8.4378763E-004, 5.2099085E+002
 7.2000536E+001, 8.8939975E-002, 1.3203444E-001, 6.0723706E-002, 2.1524758E-004, 4.8536975E-005, 8.3808628E-004, 5.2016424E+002
 7.3006130E+001, 8.9413609E-002, 1.3160428E-001, 6.0538919E-002, 2.0867615E-004, 4.5302152E-005, 8.3407407E-004, 5.2582308E+002
 7.4005868E+001, 8.6856978E-002, 1.3392634E-001, 6.1532579E-002, 2.4021797E-004, 8.5639002E-005, 8.5488172E-004, 5.2321571E+002
 7.5002257E+001, 8.7764930E-002, 1.3308390E-001, 6.1182755E-002, 2.4022152E-004, 8.8036337E-005, 8.4980956E-004, 5.1397835E+002
 7.6007027E+001, 8.9787672E-002, 1.3127098E-001, 6.0392704E-002, 2.0028607E-004, 3.1666838E-005, 8.3025164E-004, 5.2448233E+002
 7.7005761E+001, 8.7991153E-002, 1.3291919E-001, 6.1088717E-002, 2.1268099E-004, 4.0728124E-005, 8.4285863E-004, 5.2679011E+002
 7.8006364E+001, 8.8102046E-002, 1.3277069E-001, 6.1053552E-002, 2.4111226E-004, 8.5601585E-005, 8.4811625E-004, 5.2822610E+002
 7.9000512E+001, 8.7413779E-002, 1.3338907E-001, 6.1321282E-002, 2.5289560E-004, 1.0844095E-004, 8.5438956E-004, 5.2392648E+002
 8.0006176E+001, 8.8736836E-002, 1.3219951E-001, 6.0805547E-002, 2.2952807E-004, 7.2752417E-005, 8.4217022E-004, 5.2371321E+002
 8.1007805E+001, 8.6270406E-002, 1.3440552E-001, 6.1769556E-002, 2.8097169E-004, 1.4654091E-004, 8.6658535E-004, 5.2872541E+002
 8.2003473E+001, 8.6941740E-002, 1.3382980E-001, 6.1503276E-002, 2.5177054E-004, 1.0099353E-004, 8.5680009E-004, 5.2310205E+002
 8.3003983E+001, 8.8067794E-002, 1.3280843E-001, 6.1066330E-002, 2.3798184E-004, 7.6241397E-005, 8.4766614E-004, 5.2260080E+002
 8.4007797E+001, 8.6741813E-002, 1.3401636E-001, 6.1580011E-002, 2.5098973E-004, 1.0016636E-004, 8.5775453E-004, 5.1924363E+002
 8.5004796E+001, 8.6776658E-002, 1.3397856E-001, 6.1565706E-002, 2.5256543E-004, 1.1640904E-004, 8.5786792E-004, 5.2686639E+002
 8.6000293E+001, 8.6587895E-002, 1.3418737E-001, 6.1634755E-002, 2.3352543E-004, 7.1478147E-005, 8.5500550E-004, 5.2229979E+002
 8.7002260E+001, 8.6375955E-002, 1.3433998E-001, 6.1722096E-002, 2.5932129E-004, 1.2377928E-004, 8.6150607E-004, 5.2667935E+002
 8.8008773E+001, 8.6762111E-002, 1.3399640E-001, 6.1572270E-002, 2.5157880E-004, 1.0195130E-004, 8.5776185E-004, 5.2228847E+002
 8.9001048E+001, 8.6956322E-002, 1.3380597E-001, 6.1499279E-002, 2.5810221E-004, 1.1162616E-004, 8.5802662E-004, 5.1869743E+002
 9.0002913E+001, 8.6227431E-002, 1.3442577E-001, 6.1789062E-002, 2.9289457E-004, 1.6746546E-004, 8.6928709E-004, 5.2037820E+002
 9.1005960E+001, 8.6194317E-002, 1.3451872E-001, 6.1792084E-002, 2.5469945E-004, 1.0304858E-004, 8.6158227E-004, 5.2311588E+002
 9.2006153E+001, 8.9610108E-002, 1.3141803E-001, 6.0463733E-002, 2.1099410E-004, 5.0432891E-005, 8.3345409E-004, 5.2245282E+002
 9.3006893E+001, 8.7715113E-002, 1.3313552E-001, 6.1201163E-002, 2.3696783E-004, 8.1964484E-005, 8.4941639E-004, 5.2259071E+002
 9.4008394E+001, 8.5904730E-002, 1.3477716E-001, 6.1905415E-002, 2.6114535E-004, 1.1195092E-004, 8.6453329E-004, 5.2397856E+002
 9.5006535E+001, 8.6906639E-002, 1.3385839E-001, 6.1517271E-002, 2.5405612E-004, 1.0593144E-004, 8.5746681E-004, 5.2035102E+002
 9.6007576E+001, 8.6067907E-002, 1.3466472E-001, 6.1836024E-002, 2.3679265E-004, 7.4663915E-005, 8.5858689E-004, 5.2873367E+002
 9.7002826E+001, 8.7621096E-002, 1.3320833E-001, 6.1239739E-002, 2.4591877E-004, 9.6052573E-005, 8.5179160E-004, 5.2003413E+002
 9.8007292E+001, 8.6515750E-002, 1.3423119E-001, 6.1666202E-002, 2.4775404E-004, 9.5001412E-005, 8.5834806E-004, 5.2368746E+002
 9.9007753E+001, 8.6629819E-002, 1.3408636E-001, 6.1628325E-002, 2.7165867E-004, 1.3578650E-004, 8.6264834E-004, 5.1948832E+002
 1.0000250E+002, 8.6238274E-002, 1.3445901E-001, 6.1777559E-002, 2.6575270E-004, 1.2605851E-004, 8.6361439E-004, 5.2261208E+002
 1.0100198E+002, 8.6839438E-002, 1.3392588E-001, 6.1542336E-002, 2.5087957E-004, 1.0058255E-004, 8.5718588E-004, 5.2006813E+002
 1.0200735E+002, 8.6158727E-002, 1.3452272E-001, 6.1810710E-002, 2.7289537E-004, 1.3069829E-004, 8.6554353E-004, 5.2595556E+002
 1.0300381E+002, 8.6506056E-002, 1.3422366E-001, 6.1672572E-002, 2.5794859E-004, 1.1176067E-004, 8.6050857E-004, 5.2076591E+002
 1.0400421E+002, 8.5704202E-002, 1.3497809E-001, 6.1979895E-002, 2.5155004E-004, 9.8797182E-005, 8.6366705E-004, 5.2147967E+002
 1.0500338E+002, 8.7214915E-002, 1.3361565E-001, 6.1391447E-002, 2.2720213E-004, 6.3655157E-005, 8.5019453E-004, 5.2244587E+002
 1.0600483E+002, 8.5694286E-002, 1.3489657E-001, 6.1998247E-002, 3.0758424E-004, 1.9053558E-004, 8.7530060E-004, 5.2559081E+002
 1.0700596E+002, 8.6544400E-002, 1.3417083E-001, 6.1660491E-002, 2.6853160E-004, 1.2974739E-004, 8.6248035E-004, 5.2540973E+002
 1.0800111E+002, 8.4694718E-002, 1.3585727E-001, 6.2377854E-002, 2.8684548E-004, 1.5540349E-004, 8.7659831E-004, 5.2549286E+002
 1.0900090E+002, 8.4662044E-002, 1.3589701E-001, 6.2388943E-002, 2.8103434E-004, 1.4573006E-004, 8.7558022E-004, 5.2574187E+002
 1.1000164E+002, 8.5222554E-002, 1.3535275E-001, 6.2175600E-002, 2.9468584E-004, 1.7930175E-004, 8.7525674E-004, 5.1656111E+002
 1.1100293E+002, 8.5843540E-002, 1.3483265E-001, 6.1928784E-002, 2.6151730E-004, 1.1559562E-004, 8.6494790E-004, 5.2295611E+002
 1.1200613E+002, 8.5182022E-002, 1.3537697E-001, 6.2193669E-002, 3.0327118E-004, 1.9087899E-004, 8.7726023E-004, 5.2622308E+002
 1.1300163E+002, 8.6838527E-002, 1.3392256E-001, 6.1543350E-002, 2.5344607E-004, 1.0481305E-004, 8.5772124E-004, 5.2015933E+002
 1.1400112E+002, 8.5500479E-002, 1.3515106E-001, 6.2061875E-002, 2.6240426E-004, 1.0894647E-004, 8.6705720E-004, 5.2614253E+002
 1.1500146E+002, 8.6578145E-002, 1.3408647E-001, 6.1656043E-002, 3.0135384E-004, 1.8315623E-004, 8.6907432E-004, 5.1909184E+002
 1.1600757E+002, 8.5107074E-002, 1.3530928E-001, 6.2248060E-002, 3.9166042E-004, 3.0811318E-004, 8.9597777E-004, 5.2351695E+002
 1.1700162E+002, 8.5070357E-002, 1.3544126E-001, 6.2244300E-002, 3.2890191E-004, 2.2242800E-004, 8.8319318E-004, 5.2123723E+002
 1.1800494E+002, 8.6487106E-002, 1.3422653E-001, 6.1682629E-002, 2.6744523E-004, 1.2417783E-004, 8.6258069E-004, 5.2070660E+002
 1.1900196E+002, 8.5480066E-002, 1.3515518E-001, 6.2071677E-002, 2.7110996E-004, 1.2652800E-004, 8.6896572E-004, 5.2460431E+002
 1.2000624E+002, 8.4758736E-002, 1.3581296E-001, 6.2351410E-002, 2.7818344E-004, 1.3646067E-004, 8.7445718E-004, 5.2311316E+002
 1.2100176E+002, 8.5289324E-002, 1.3524388E-001, 6.2153830E-002, 3.2001278E-004, 2.4848300E-004, 8.8008140E-004, 5.2482984E+002
 1.2200004E+002, 8.6366566E-002, 1.3433876E-001, 6.1727592E-002, 2.6575044E-004, 1.3205431E-004, 8.6288983E-004, 5.1656124E+002
 1.2300264E+002, 8.6082361E-002, 1.3458303E-001, 6.1840441E-002, 2.7799203E-004, 1.4953148E-004, 8.6700952E-004, 5.2134488E+002
 1.2400291E+002, 8.5636412E-002, 1.3504348E-001, 6.2005214E-002, 2.4960194E-004, 9.8535278E-005, 8.6363927E-004, 5.2263965E+002
 1.2500457E+002, 8.5869514E-002, 1.3480851E-001, 6.1919155E-002, 2.6192012E-004, 1.1343901E-004, 8.6488974E-004, 5.1920225E+002
 1.2600698E+002, 8.6472041E-002, 1.3425389E-001, 6.1685427E-002, 2.5829126E-004, 1.1582277E-004, 8.6076480E-004, 5.1836282E+002
 1.2700114E+002, 8.5455520E-002, 1.3518424E-001, 6.2081309E-002, 2.6844070E-004, 1.1295439E-004, 8.6856311E-004, 5.2530804E+002
 1.2800431E+002, 8.7395726E-002, 1.3338913E-001, 6.1331359E-002, 2.6366310E-004, 1.2256115E-004, 8.5671975E-004, 5.2023608E+002
 1.2900371E+002, 8.7753956E-002, 1.3308712E-001, 6.1188688E-002, 2.4512605E-004, 9.1476772E-005, 8.5089017E-004, 5.2061370E+002
 1.3000447E+002, 8.6203441E-002, 1.3445506E-001, 6.1801579E-002, 2.9306858E-004, 1.3365540E-004, 8.6950097E-004, 5.2295201E+002
 1.3100057E+002, 8.6605649E-002, 1.3416240E-001, 6.1629756E-002, 2.3926872E-004, 7.7217581E-005, 8.5609781E-004, 5.2040529E+002
 1.3200373E+002, 8.5452357E-002, 1.3513857E-001, 6.2090243E-002, 2.9838921E-004, 1.6253575E-004, 8.7476824E-004, 5.2245444E+002
 1.3300455E+002, 8.5987067E-002, 1.3471091E-001, 6.1872093E-002, 2.5490606E-004, 1.0174294E-004, 8.6278432E-004, 5.2876808E+002
 1.3400709E+002, 8.5179007E-002, 1.3536402E-001, 6.2199181E-002, 3.1487547E-004, 1.9573744E-004, 8.7969306E-004, 5.2830204E+002
 1.3500453E+002, 8.7275877E-002, 1.3351815E-001, 6.1375624E-002, 2.5362166E-004, 9.8507600E-005, 8.5532395E-004, 5.1932543E+002
 1.3600392E+002, 8.5905311E-002, 1.3477690E-001, 6.1905589E-002, 2.6142717E-004, 1.0898973E-004, 8.6459270E-004, 5.2135620E+002
 1.3700457E+002, 8.5798852E-002, 1.3480022E-001, 6.1960230E-002, 3.0960967E-004, 1.7573687E-004, 8.7515860E-004, 5.1968734E+002
 1.3800572E+002, 8.5233906E-002, 1.3540538E-001, 6.2163893E-002, 2.5852959E-004, 9.8585997E-005, 8.6775026E-004, 5.2443943E+002
 1.3900332E+002, 8.6562690E-002, 1.3415134E-001, 6.1653122E-002, 2.6934106E-004, 1.3672347E-004, 8.6253819E-004, 5.1596721E+002
 1.4000039E+002, 8.6859297E-002, 1.3387189E-001, 6.1539857E-002, 2.7230718E-004, 1.3978007E-004, 8.6149720E-004, 5.1869019E+002
 1.4100415E+002, 8.7520346E-002, 1.3329012E-001, 6.1280938E-002, 2.5366056E-004, 1.0452975E-004, 8.5395924E-004, 5.1758588E+002
 1.4200124E+002, 8.5617084E-002, 1.3502277E-001, 6.2019309E-002, 2.7393954E-004, 1.3480004E-004, 8.6878062E-004, 5.2869781E+002
 1.4300220E+002, 8.6356050E-002, 1.3431163E-001, 6.1739757E-002, 2.9079502E-004, 1.5598089E-004, 8.6814546E-004, 5.2043293E+002
 1.4400716E+002, 8.5149640E-002, 1.3543031E-001, 6.2204882E-002, 2.9141518E-004, 1.5228220E-004, 8.7501602E-004, 5.2132150E+002
 1.4500023E+002, 8.6420753E-002, 1.3427657E-001, 6.1710891E-002, 2.7543693E-004, 1.3052081E-004, 8.6461118E-004, 5.1958544E+002
 1.4600321E+002, 8.5207481E-002, 1.3539121E-001, 6.2179685E-002, 2.8182657E-004, 1.4120394E-004, 8.7270582E-004, 5.2222499E+002
 1.4700714E+002, 8.4497509E-002, 1.3603602E-001, 6.2455678E-002, 2.9065247E-004, 1.5212112E-004, 8.7849838E-004, 5.2476880E+002
 1.4800574E+002, 8.5392764E-002, 1.3519990E-001, 6.2109573E-002, 2.9192568E-004, 1.7239387E-004, 8.7373909E-004, 5.2469691E+002
 1.4900564E+002, 8.5473859E-002, 1.3515877E-001, 6.2073339E-002, 2.7134445E-004, 1.3522875E-004, 8.6903811E-004, 5.2407644E+002
 1.5000154E+002, 8.5235745E-002, 1.3533614E-001, 6.2172562E-002, 2.9876877E-004, 1.7563974E-004, 8.7604008E-004, 5.2463788E+002
 1.5100345E+002, 8.8918472E-002, 1.3204733E-001, 6.0732249E-002, 2.1871236E-004, 6.0902055E-005, 8.3891363E-004, 5.2214581E+002
 1.5200595E+002, 8.5515563E-002, 1.3515770E-001, 6.2052635E-002, 2.4953416E-004, 8.8869172E-005, 8.6431238E-004, 5.2334316E+002
 1.5300305E+002, 8.4694635E-002, 1.3587963E-001, 6.2376667E-002, 2.7549506E-004, 1.1863475E-004, 8.7427692E-004, 5.3286352E+002
 1.5400311E+002, 8.5052218E-002, 1.3547423E-001, 6.2247969E-002, 3.1818051E-004, 2.1050761E-004, 8.8107186E-004, 5.2304911E+002
