s,,,,,,,
Time,O2 EXHAUST,CO2 EXHAUST,H2O EXHAUST,CO EXHAUST,FUEL EXHAUST,SOOT EXHAUST,TEMP EXHAUST
 0.0000000E+000, 2.3099739E-001, 5.9146498E-004, 5.9412092E-003, 0.0000000E+000, 0.0000000E+000, 0.0000000E+000, 2.0000000E+001
 1.0028575E+000, 2.3099739E-001, 5.9146498E-004, 5.9412092E-003, 2.4208405E-025, 1.3419826E-023, 7.1816544E-024, 2.0237969E+001
 2.0056222E+000, 2.2541747E-001, 5.7224973E-003, 7.4248233E-003, 1.1619774E-005, 3.0401410E-004, 3.4067197E-004, 8.0786597E+001
 3.0033949E+000, 2.2194782E-001, 8.9327849E-003, 8.3535197E-003, 1.8753700E-005, 4.0216238E-004, 5.5378441E-004, 1.1423662E+002
 4.0015929E+000, 2.1811499E-001, 1.2468419E-002, 9.3768770E-003, 2.8046929E-005, 5.5253263E-004, 7.8880439E-004, 1.5259528E+002
 5.0043156E+000, 2.1546465E-001, 1.4913975E-002, 1.0084913E-002, 3.4773423E-005, 6.5160059E-004, 9.5142864E-004, 1.7442753E+002
 6.0055572E+000, 2.1255665E-001, 1.7600088E-002, 1.0861254E-002, 3.9709244E-005, 7.6022909E-004, 1.1295237E-003, 1.9983373E+002
 7.0016347E+000, 2.0961678E-001, 2.0319434E-002, 1.1648151E-002, 4.6176196E-005, 8.4467490E-004, 1.3101363E-003, 2.2453028E+002
 8.0001477E+000, 2.0617275E-001, 2.3514336E-002, 1.2573929E-002, 5.5540719E-005, 8.9159301E-004, 1.5227110E-003, 2.5003203E+002
 9.0049309E+000, 2.0207706E-001, 2.7333931E-002, 1.3680369E-002, 6.5187116E-005, 8.6197338E-004, 1.7765146E-003, 2.7793909E+002
 1.0001744E+001, 1.9787771E-001, 3.1243316E-002, 1.4813560E-002, 7.6660087E-005, 8.5502336E-004, 2.0366284E-003, 3.0543276E+002
 1.1003015E+001, 1.9377506E-001, 3.5079000E-002, 1.5924895E-002, 8.6308836E-005, 7.8106583E-004, 2.2914910E-003, 3.2463352E+002
 1.2005791E+001, 1.8956039E-001, 3.9019330E-002, 1.7067270E-002, 9.7471240E-005, 6.9884351E-004, 2.5535748E-003, 3.4268461E+002
 1.3005336E+001, 1.8514211E-001, 4.3152875E-002, 1.8264756E-002, 1.0748056E-004, 6.0836760E-004, 2.8281452E-003, 3.6242188E+002
 1.4003460E+001, 1.8124475E-001, 4.6803911E-002, 1.9322232E-002, 1.1570701E-004, 5.0939892E-004, 3.0705324E-003, 3.7589091E+002
 1.5006344E+001, 1.7765310E-001, 5.0163571E-002, 2.0295572E-002, 1.2395016E-004, 4.3775537E-004, 3.2937207E-003, 3.8529547E+002
 1.6000112E+001, 1.7448118E-001, 5.3133008E-002, 2.1155294E-002, 1.3014809E-004, 3.6908693E-004, 3.4907523E-003, 3.9259493E+002
 1.7007571E+001, 1.7133300E-001, 5.6081309E-002, 2.2008442E-002, 1.3546412E-004, 3.0032278E-004, 3.6862018E-003, 3.9977289E+002
 1.8001984E+001, 1.6832377E-001, 5.8898933E-002, 2.2823543E-002, 1.4016715E-004, 2.3916418E-004, 3.8729077E-003, 4.0517116E+002
 1.9001632E+001, 1.6620992E-001, 6.0877405E-002, 2.3395839E-002, 1.4342002E-004, 2.0009030E-004, 4.0039979E-003, 4.0662233E+002
 2.0007334E+001, 1.6337280E-001, 6.3530014E-002, 2.4163237E-002, 1.4808290E-004, 1.5905333E-004, 4.1798204E-003, 4.1030264E+002
 2.1004195E+001, 1.6132118E-001, 6.5447290E-002, 2.4718014E-002, 1.5168742E-004, 1.3237927E-004, 4.3069533E-003, 4.1408372E+002
 2.2004085E+001, 1.5986919E-001, 6.6804140E-002, 2.5110485E-002, 1.5399280E-004, 1.1512922E-004, 4.3968722E-003, 4.1297219E+002
 2.3002919E+001, 1.5823069E-001, 6.8334270E-002, 2.5553190E-002, 1.5683605E-004, 9.9002610E-005, 4.4983268E-003, 4.1344610E+002
 2.4006508E+001, 1.5687435E-001, 6.9600392E-002, 2.5919543E-002, 1.5926694E-004, 8.7615091E-005, 4.5822933E-003, 4.1475025E+002
 2.5006218E+001, 1.5586334E-001, 7.0544845E-002, 2.6192717E-002, 1.6086807E-004, 7.7046265E-005, 4.6448818E-003, 4.1528773E+002
 2.6005782E+001, 1.5427031E-001, 7.2030915E-002, 2.6622822E-002, 1.6395608E-004, 6.7055249E-005, 4.7434853E-003, 4.1706372E+002
 2.7007246E+001, 1.5348015E-001, 7.2767831E-002, 2.6836113E-002, 1.6551472E-004, 6.2805654E-005, 4.7923869E-003, 4.1626360E+002
 2.8002826E+001, 1.5216923E-001, 7.3990446E-002, 2.7189934E-002, 1.6801118E-004, 5.6181807E-005, 4.8735003E-003, 4.1695190E+002
 2.9005889E+001, 1.5111137E-001, 7.4976144E-002, 2.7475291E-002, 1.7023718E-004, 5.3853382E-005, 4.9389415E-003, 4.1635788E+002
 3.0009720E+001, 1.5012821E-001, 7.5893023E-002, 2.7740595E-002, 1.7204598E-004, 4.9453195E-005, 4.9997574E-003, 4.1589727E+002
 3.1006837E+001, 1.4925125E-001, 7.6710270E-002, 2.7977179E-002, 1.7387479E-004, 4.7107676E-005, 5.0540114E-003, 4.1779270E+002
 3.2008582E+001, 1.4828536E-001, 7.7610288E-002, 2.8237687E-002, 1.7582870E-004, 4.5310846E-005, 5.1137474E-003, 4.1506551E+002
 3.3003468E+001, 1.4792273E-001, 7.7948450E-002, 2.8335513E-002, 1.7645752E-004, 4.4011206E-005, 5.1361692E-003, 4.1483494E+002
 3.4002701E+001, 1.4666372E-001, 7.9121008E-002, 2.8675023E-002, 1.7923108E-004, 4.3223737E-005, 5.2140432E-003, 4.1488768E+002
 3.5005145E+001, 1.4583834E-001, 7.9890023E-002, 2.8897602E-002, 1.8088538E-004, 4.2122072E-005, 5.2650809E-003, 4.1422543E+002
 3.6004352E+001, 1.4502163E-001, 8.0651230E-002, 2.9117908E-002, 1.8248836E-004, 4.0003631E-005, 5.3155931E-003, 4.1574908E+002
 3.7008603E+001, 1.4385860E-001, 8.1734333E-002, 2.9431527E-002, 1.8507340E-004, 3.9456258E-005, 5.3875309E-003, 4.1515896E+002
 3.8008217E+001, 1.4338886E-001, 8.2171928E-002, 2.9558169E-002, 1.8599586E-004, 3.9245723E-005, 5.4165691E-003, 4.1523637E+002
 3.9001599E+001, 1.4242104E-001, 8.3073006E-002, 2.9819103E-002, 1.8819088E-004, 3.9607085E-005, 5.4764267E-003, 4.1471572E+002
 4.0004312E+001, 1.4157273E-001, 8.3863555E-002, 3.0047913E-002, 1.8988306E-004, 3.7763320E-005, 5.5288918E-003, 4.1529056E+002
 4.1006913E+001, 1.4080198E-001, 8.4581373E-002, 3.0255718E-002, 1.9151686E-004, 3.7654969E-005, 5.5765511E-003, 4.1439700E+002
 4.2003286E+001, 1.4028829E-001, 8.5059507E-002, 3.0394166E-002, 1.9267262E-004, 3.8518829E-005, 5.6083111E-003, 4.1427094E+002
 4.3007072E+001, 1.3930055E-001, 8.5979966E-002, 3.0660571E-002, 1.9463230E-004, 3.6539392E-005, 5.6693955E-003, 4.1486258E+002
 4.4006497E+001, 1.3882433E-001, 8.6423288E-002, 3.0788955E-002, 1.9572931E-004, 3.6880810E-005, 5.6988485E-003, 4.1557673E+002
 4.5000653E+001, 1.3794910E-001, 8.7238791E-002, 3.1025050E-002, 1.9758617E-004, 3.4995079E-005, 5.7529936E-003, 4.1531393E+002
 4.6003388E+001, 1.3773004E-001, 8.7442213E-002, 3.1084007E-002, 1.9819493E-004, 3.6949168E-005, 5.7665310E-003, 4.1290737E+002
 4.7006168E+001, 1.3705800E-001, 8.8068060E-002, 3.1265231E-002, 1.9969893E-004, 3.6639236E-005, 5.8081009E-003, 4.1393640E+002
 4.8003598E+001, 1.3657488E-001, 8.8517652E-002, 3.1395403E-002, 2.0076837E-004, 3.7936285E-005, 5.8379613E-003, 4.1451017E+002
 4.9003905E+001, 1.3611535E-001, 8.8945399E-002, 3.1519254E-002, 2.0178850E-004, 3.8675634E-005, 5.8663714E-003, 4.1464458E+002
 5.0007782E+001, 1.3517745E-001, 8.9818958E-002, 3.1772116E-002, 2.0372326E-004, 3.8502804E-005, 5.9243595E-003, 4.1492049E+002
 5.1007869E+001, 1.3471187E-001, 9.0252394E-002, 3.1897610E-002, 2.0474619E-004, 3.8998632E-005, 5.9531451E-003, 4.1400445E+002
 5.2000898E+001, 1.3433040E-001, 9.0607697E-002, 3.2000430E-002, 2.0548830E-004, 3.9171005E-005, 5.9767210E-003, 4.1340872E+002
 5.3008903E+001, 1.3391816E-001, 9.0991715E-002, 3.2111623E-002, 2.0639605E-004, 3.8527775E-005, 6.0022250E-003, 4.1385089E+002
 5.4001983E+001, 1.3351387E-001, 9.1368402E-002, 3.2220667E-002, 2.0723794E-004, 3.7792129E-005, 6.0272316E-003, 4.1486438E+002
 5.5001160E+001, 1.3280665E-001, 9.2026551E-002, 3.2411311E-002, 2.0895458E-004, 3.8867667E-005, 6.0709760E-003, 4.1352438E+002
 5.6005823E+001, 1.3250484E-001, 9.2307854E-002, 3.2492671E-002, 2.0945396E-004, 3.8552591E-005, 6.0896228E-003, 4.1354638E+002
 5.7007873E+001, 1.3179167E-001, 9.2972339E-002, 3.2685067E-002, 2.1100850E-004, 3.6868677E-005, 6.1337500E-003, 4.1460109E+002
 5.8000407E+001, 1.3120908E-001, 9.3515371E-002, 3.2842153E-002, 2.1201700E-004, 3.5905809E-005, 6.1697555E-003, 4.1769545E+002
 5.9005759E+001, 1.3073409E-001, 9.3957676E-002, 3.2970222E-002, 2.1306966E-004, 3.5901726E-005, 6.1991321E-003, 4.1585846E+002
 6.0008886E+001, 1.3019574E-001, 9.4458811E-002, 3.3115330E-002, 2.1427736E-004, 3.6590184E-005, 6.2324191E-003, 4.1579087E+002
 6.1002531E+001, 1.3011890E-001, 9.4530196E-002, 3.3135951E-002, 2.1436953E-004, 3.7769378E-005, 6.2371436E-003, 4.1524116E+002
 6.2009454E+001, 1.3000917E-001, 9.4632568E-002, 3.3165534E-002, 2.1450369E-004, 3.7470887E-005, 6.2439194E-003, 4.1520270E+002
 6.3007029E+001, 1.2947637E-001, 9.5129169E-002, 3.3309275E-002, 2.1557658E-004, 3.5870557E-005, 6.2768786E-003, 4.1608252E+002
 6.4002094E+001, 1.2905308E-001, 9.5522986E-002, 3.3423402E-002, 2.1669753E-004, 3.6490003E-005, 6.3030741E-003, 4.1499512E+002
 6.5000337E+001, 1.2894050E-001, 9.5628352E-002, 3.3453835E-002, 2.1679267E-004, 3.4859555E-005, 6.3100388E-003, 4.1519972E+002
 6.6002089E+001, 1.2832322E-001, 9.6203161E-002, 3.3620303E-002, 2.1821652E-004, 3.4515278E-005, 6.3482277E-003, 4.1546152E+002
 6.7008524E+001, 1.2810427E-001, 9.6406402E-002, 3.3679263E-002, 2.1892278E-004, 3.6286249E-005, 6.3617741E-003, 4.1595038E+002
 6.8006998E+001, 1.2812976E-001, 9.6382656E-002, 3.3672317E-002, 2.1874495E-004, 3.7013378E-005, 6.3601710E-003, 4.1427458E+002
 6.9007394E+001, 1.2761471E-001, 9.6862884E-002, 3.3811275E-002, 2.1969835E-004, 3.5107882E-005, 6.3920255E-003, 4.1485246E+002
 7.0008315E+001, 1.2724824E-001, 9.7204003E-002, 3.3910061E-002, 2.2054201E-004, 3.5546697E-005, 6.4146884E-003, 4.1524114E+002
 7.1003290E+001, 1.2694921E-001, 9.7482677E-002, 3.3990697E-002, 2.2110273E-004, 3.5068576E-005, 6.4331751E-003, 4.1592948E+002
 7.2004234E+001, 1.2674976E-001, 9.7668820E-002, 3.4044510E-002, 2.2137885E-004, 3.3991096E-005, 6.4455023E-003, 4.1487689E+002
 7.3006654E+001, 1.2678412E-001, 9.7636238E-002, 3.4035161E-002, 2.2147593E-004, 3.5813892E-005, 6.4433758E-003, 4.1713741E+002
 7.4005460E+001, 1.2678891E-001, 9.7630591E-002, 3.4033654E-002, 2.2173919E-004, 3.9834625E-005, 6.4430602E-003, 4.1483051E+002
 7.5001918E+001, 1.2636088E-001, 9.8029493E-002, 3.4149122E-002, 2.2261408E-004, 3.8726912E-005, 6.4695380E-003, 4.1433697E+002
 7.6001625E+001, 1.2597270E-001, 9.8391528E-002, 3.4253904E-002, 2.2337137E-004, 3.6654476E-005, 6.4935608E-003, 4.1479923E+002
 7.7008449E+001, 1.2571164E-001, 9.8634709E-002, 3.4324315E-002, 2.2394192E-004, 3.6262492E-005, 6.5097104E-003, 4.1596178E+002
 7.8005598E+001, 1.2556368E-001, 9.8772046E-002, 3.4364145E-002, 2.2440020E-004, 3.7634852E-005, 6.5188601E-003, 4.1584687E+002
 7.9005877E+001, 1.2558285E-001, 9.8754425E-002, 3.4358974E-002, 2.2422787E-004, 3.7265411E-005, 6.5176618E-003, 4.1539619E+002
 8.0007222E+001, 1.2518721E-001, 9.9122893E-002, 3.4465668E-002, 2.2510979E-004, 3.6989909E-005, 6.5421353E-003, 4.1335103E+002
 8.1003995E+001, 1.2493681E-001, 9.9356566E-002, 3.4533261E-002, 2.2552556E-004, 3.5379104E-005, 6.5576250E-003, 4.1622976E+002
 8.2007458E+001, 1.2451352E-001, 9.9750546E-002, 3.4647387E-002, 2.2655626E-004, 3.5722061E-005, 6.5838119E-003, 4.1666650E+002
 8.3003442E+001, 1.2444120E-001, 9.9817723E-002, 3.4666835E-002, 2.2671937E-004, 3.6463354E-005, 6.5882743E-003, 4.1653927E+002
 8.4002850E+001, 1.2441037E-001, 9.9846172E-002, 3.4675091E-002, 2.2682966E-004, 3.7433785E-005, 6.5901730E-003, 4.1572429E+002
 8.5002690E+001, 1.2424564E-001, 9.9999881E-002, 3.4719543E-002, 2.2708726E-004, 3.6570236E-005, 6.6003586E-003, 4.1491598E+002
 8.6008136E+001, 1.2393869E-001, 1.0028611E-001, 3.4802369E-002, 2.2766227E-004, 3.5265680E-005, 6.6193461E-003, 4.1665619E+002
 8.7008546E+001, 1.2376100E-001, 1.0045103E-001, 3.4850221E-002, 2.2824971E-004, 3.6730728E-005, 6.6303415E-003, 4.1500521E+002
 8.8010268E+001, 1.2381629E-001, 1.0039975E-001, 3.4835302E-002, 2.2799668E-004, 3.6481806E-005, 6.6269074E-003, 4.1557859E+002
 8.9006225E+001, 1.2384595E-001, 1.0037277E-001, 3.4827384E-002, 2.2771756E-004, 3.4625790E-005, 6.6250696E-003, 4.1578922E+002
 9.0004872E+001, 1.2346554E-001, 1.0072695E-001, 3.4929976E-002, 2.2862969E-004, 3.4517742E-005, 6.6486080E-003, 4.1745856E+002
 9.1007301E+001, 1.2345989E-001, 1.0073190E-001, 3.4931416E-002, 2.2866943E-004, 3.5826879E-005, 6.6489426E-003, 4.1633353E+002
 9.2007270E+001, 1.2339499E-001, 1.0079222E-001, 3.4948896E-002, 2.2884189E-004, 3.6206816E-005, 6.6529552E-003, 4.1474326E+002
 9.3006121E+001, 1.2296576E-001, 1.0119266E-001, 3.5064737E-002, 2.2957645E-004, 3.3881115E-005, 6.6795042E-003, 4.1626459E+002
 9.4004689E+001, 1.2287320E-001, 1.0127851E-001, 3.5089628E-002, 2.2985602E-004, 3.5065169E-005, 6.6852219E-003, 4.1483786E+002
 9.5005668E+001, 1.2285336E-001, 1.0129642E-001, 3.5094846E-002, 2.2997615E-004, 3.7248260E-005, 6.6864288E-003, 4.1720152E+002
 9.6007305E+001, 1.2279109E-001, 1.0135416E-001, 3.5111598E-002, 2.3018742E-004, 3.8035593E-005, 6.6902790E-003, 4.1608260E+002
 9.7006573E+001, 1.2256024E-001, 1.0156925E-001, 3.5173806E-002, 2.3056709E-004, 3.8107608E-005, 6.7045366E-003, 4.1668293E+002
 9.8000923E+001, 1.2252156E-001, 1.0160556E-001, 3.5184291E-002, 2.3059226E-004, 3.7113610E-005, 6.7069348E-003, 4.1601255E+002
 9.9008770E+001, 1.2265088E-001, 1.0148499E-001, 3.5149443E-002, 2.3042250E-004, 3.7203366E-005, 6.6989519E-003, 4.1607057E+002
 1.0000680E+002, 1.2241728E-001, 1.0170259E-001, 3.5212396E-002, 2.3084352E-004, 3.7329495E-005, 6.7133836E-003, 4.1610797E+002
 1.0100558E+002, 1.2223198E-001, 1.0187504E-001, 3.5262366E-002, 2.3131889E-004, 3.7418275E-005, 6.7248515E-003, 4.1551809E+002
 1.0200284E+002, 1.2213142E-001, 1.0196878E-001, 3.5289494E-002, 2.3151437E-004, 3.7115266E-005, 6.7310713E-003, 4.1689310E+002
 1.0300239E+002, 1.2199938E-001, 1.0209125E-001, 3.5324979E-002, 2.3186866E-004, 3.9026773E-005, 6.7392190E-003, 4.1701050E+002
 1.0400855E+002, 1.2184879E-001, 1.0223201E-001, 3.5365685E-002, 2.3209034E-004, 3.7137017E-005, 6.7485436E-003, 4.1702870E+002
 1.0500271E+002, 1.2182471E-001, 1.0225448E-001, 3.5372183E-002, 2.3213109E-004, 3.7035883E-005, 6.7500326E-003, 4.1731935E+002
 1.0600553E+002, 1.2166554E-001, 1.0240272E-001, 3.5415072E-002, 2.3242325E-004, 3.7213410E-005, 6.7598655E-003, 4.1634108E+002
 1.0700842E+002, 1.2180240E-001, 1.0227471E-001, 3.5378116E-002, 2.3233464E-004, 3.8742508E-005, 6.7514097E-003, 4.1682587E+002
 1.0800694E+002, 1.2159127E-001, 1.0247160E-001, 3.5435098E-002, 2.3274043E-004, 3.7731490E-005, 6.7644732E-003, 4.1589588E+002
 1.0900669E+002, 1.2146068E-001, 1.0259343E-001, 3.5470361E-002, 2.3299937E-004, 3.6823688E-005, 6.7725580E-003, 4.1578796E+002
 1.1000844E+002, 1.2165167E-001, 1.0241541E-001, 3.5418864E-002, 2.3266582E-004, 3.7127058E-005, 6.7607540E-003, 4.1733436E+002
 1.1100934E+002, 1.2158661E-001, 1.0247619E-001, 3.5436446E-002, 2.3277582E-004, 3.6445992E-005, 6.7647830E-003, 4.1657435E+002
 1.1200619E+002, 1.2156707E-001, 1.0249423E-001, 3.5441668E-002, 2.3281764E-004, 3.7138338E-005, 6.7659815E-003, 4.1434996E+002
 1.1300463E+002, 1.2122027E-001, 1.0281823E-001, 3.5535325E-002, 2.3327060E-004, 3.3905646E-005, 6.7874319E-003, 4.1648869E+002
 1.1400041E+002, 1.2121718E-001, 1.0281970E-001, 3.5535971E-002, 2.3372215E-004, 3.8057280E-005, 6.7876255E-003, 4.1668859E+002
 1.1500580E+002, 1.2113807E-001, 1.0289424E-001, 3.5557373E-002, 2.3354151E-004, 3.5846071E-005, 6.7925000E-003, 4.1654374E+002
 1.1600652E+002, 1.2110727E-001, 1.0292309E-001, 3.5565698E-002, 2.3355671E-004, 3.5382424E-005, 6.7944040E-003, 4.1722137E+002
 1.1700391E+002, 1.2083927E-001, 1.0317260E-001, 3.5638003E-002, 2.3425579E-004, 3.5070290E-005, 6.8109983E-003, 4.1670745E+002
 1.1800583E+002, 1.2087757E-001, 1.0313665E-001, 3.5627609E-002, 2.3420958E-004, 3.6180189E-005, 6.8086191E-003, 4.1678276E+002
 1.1900321E+002, 1.2105735E-001, 1.0296922E-001, 3.5579126E-002, 2.3380207E-004, 3.6307516E-005, 6.7974975E-003, 4.1587023E+002
 1.2000723E+002, 1.2079493E-001, 1.0321420E-001, 3.5649997E-002, 2.3424684E-004, 3.4145641E-005, 6.8137385E-003, 4.1774341E+002
 1.2100516E+002, 1.2102843E-001, 1.0299607E-001, 3.5586909E-002, 2.3388829E-004, 3.6590569E-005, 6.7992852E-003, 4.1575600E+002
 1.2200592E+002, 1.2072426E-001, 1.0327974E-001, 3.5669008E-002, 2.3447831E-004, 3.5026644E-005, 6.8181072E-003, 4.1531127E+002
 1.2300769E+002, 1.2072751E-001, 1.0327699E-001, 3.5668191E-002, 2.3441892E-004, 3.3979635E-005, 6.8179137E-003, 4.1712067E+002
 1.2400015E+002, 1.2067316E-001, 1.0332652E-001, 3.5682712E-002, 2.3489909E-004, 3.7075607E-005, 6.8212809E-003, 4.1563838E+002
 1.2500002E+002, 1.2056384E-001, 1.0342888E-001, 3.5712243E-002, 2.3493133E-004, 3.5604422E-005, 6.8280339E-003, 4.1641310E+002
 1.2600959E+002, 1.2058997E-001, 1.0340457E-001, 3.5705187E-002, 2.3484150E-004, 3.5642539E-005, 6.8264128E-003, 4.1698118E+002
 1.2700946E+002, 1.2035634E-001, 1.0362211E-001, 3.5768201E-002, 2.3540298E-004, 3.5464589E-005, 6.8408704E-003, 4.1693554E+002
 1.2800932E+002, 1.2042159E-001, 1.0356142E-001, 3.5750620E-002, 2.3524574E-004, 3.5272511E-005, 6.8368364E-003, 4.1701295E+002
 1.2900548E+002, 1.2066004E-001, 1.0333925E-001, 3.5686313E-002, 2.3475757E-004, 3.5625405E-005, 6.8220897E-003, 4.1593848E+002
 1.3000134E+002, 1.2064890E-001, 1.0334957E-001, 3.5689315E-002, 2.3481028E-004, 3.5726039E-005, 6.8227809E-003, 4.1528294E+002
 1.3100595E+002, 1.2058644E-001, 1.0340788E-001, 3.5706130E-002, 2.3482540E-004, 3.5698866E-005, 6.8266269E-003, 4.1601623E+002
 1.3200230E+002, 1.2024528E-001, 1.0372556E-001, 3.5798147E-002, 2.3563442E-004, 3.5407482E-005, 6.8477381E-003, 4.1792765E+002
 1.3300518E+002, 1.2040594E-001, 1.0357578E-001, 3.5754769E-002, 2.3527444E-004, 3.6273656E-005, 6.8377889E-003, 4.1835946E+002
 1.3400715E+002, 1.2036444E-001, 1.0361408E-001, 3.5765925E-002, 2.3549048E-004, 3.7196485E-005, 6.8403601E-003, 4.1672998E+002
 1.3500800E+002, 1.2055619E-001, 1.0343552E-001, 3.5714170E-002, 2.3498026E-004, 3.7709518E-005, 6.8284818E-003, 4.1603025E+002
 1.3600179E+002, 1.2062828E-001, 1.0336826E-001, 3.5694710E-002, 2.3484882E-004, 3.8105310E-005, 6.8240211E-003, 4.1613215E+002
 1.3700746E+002, 1.2045100E-001, 1.0353325E-001, 3.5742460E-002, 2.3520449E-004, 3.8702274E-005, 6.8349716E-003, 4.1635166E+002
 1.3800536E+002, 1.2027617E-001, 1.0369682E-001, 3.5789728E-002, 2.3539757E-004, 3.6216376E-005, 6.8457929E-003, 4.1655441E+002
 1.3900529E+002, 1.2012977E-001, 1.0383220E-001, 3.5829095E-002, 2.3605575E-004, 3.8810857E-005, 6.8548565E-003, 4.1770205E+002
 1.4000480E+002, 1.2045301E-001, 1.0353075E-001, 3.5741838E-002, 2.3540549E-004, 4.0573790E-005, 6.8348497E-003, 4.1575469E+002
 1.4100479E+002, 1.2008231E-001, 1.0387614E-001, 3.5841815E-002, 2.3616400E-004, 3.9944865E-005, 6.8577760E-003, 4.1531963E+002
 1.4200362E+002, 1.2019629E-001, 1.0377010E-001, 3.5811068E-002, 2.3583416E-004, 3.9918434E-005, 6.8507162E-003, 4.1412359E+002
 1.4300440E+002, 1.2021242E-001, 1.0375575E-001, 3.5806848E-002, 2.3565800E-004, 3.7590581E-005, 6.8497325E-003, 4.1846335E+002
 1.4400371E+002, 1.2009447E-001, 1.0386614E-001, 3.5838712E-002, 2.3572278E-004, 3.6045762E-005, 6.8570218E-003, 4.1707875E+002
 1.4500374E+002, 1.2011310E-001, 1.0384876E-001, 3.5833722E-002, 2.3575624E-004, 3.5815820E-005, 6.8558835E-003, 4.1571651E+002
 1.4600585E+002, 1.2025171E-001, 1.0371950E-001, 3.5796329E-002, 2.3551314E-004, 3.6315389E-005, 6.8473127E-003, 4.1761833E+002
 1.4700849E+002, 1.2005742E-001, 1.0390043E-001, 3.5848739E-002, 2.3598195E-004, 3.6090048E-005, 6.8593375E-003, 4.1517216E+002
 1.4800044E+002, 1.1991260E-001, 1.0403572E-001, 3.5887857E-002, 2.3618981E-004, 3.4664819E-005, 6.8682983E-003, 4.1694639E+002
 1.4900484E+002, 1.2008599E-001, 1.0387386E-001, 3.5841030E-002, 2.3589111E-004, 3.6050288E-005, 6.8575669E-003, 4.1548283E+002
 1.5000845E+002, 1.1998703E-001, 1.0396643E-001, 3.5867775E-002, 2.3599071E-004, 3.4765660E-005, 6.8636892E-003, 4.1658447E+002
 1.5100655E+002, 1.1985719E-001, 1.0408716E-001, 3.5902777E-002, 2.3636365E-004, 3.5106087E-005, 6.8717259E-003, 4.1677932E+002
 1.5200130E+002, 1.2019218E-001, 1.0377466E-001, 3.5812308E-002, 2.3567325E-004, 3.7437056E-005, 6.8509821E-003, 4.1686648E+002
 1.5300322E+002, 1.2007835E-001, 1.0388116E-001, 3.5843091E-002, 2.3580842E-004, 3.5706636E-005, 6.8580303E-003, 4.1708411E+002
 1.5400194E+002, 1.1998380E-001, 1.0396926E-001, 3.5868590E-002, 2.3599877E-004, 3.5573189E-005, 6.8638773E-003, 4.1621718E+002
