s,,,,,,,
Time,"O2 EXHAUST","CO2 EXHAUST","H2O EXHAUST","CO EXHAUST","FUEL EXHAUST","SOOT EXHAUST","TEMP EXHAUST"
 0.0000000E+000, 2.3099745E-001, 5.9146511E-004, 5.9409840E-003, 0.0000000E+000, 0.0000000E+000, 0.0000000E+000, 2.0000000E+001
 1.0014900E+000, 2.3099745E-001, 5.9146511E-004, 5.9409840E-003, 2.1560414E-030, 3.3092265E-029, 8.5622768E-031, 2.0305259E+001
 2.0051070E+000, 2.2476420E-001, 5.6576236E-003, 8.8204968E-003, 5.0626463E-005, 1.4729945E-004, 4.4972372E-005, 8.5256734E+001
 3.0006748E+000, 2.1892786E-001, 1.0407311E-002, 1.1521551E-002, 9.9038387E-005, 2.4608655E-004, 8.7340385E-005, 1.4119839E+002
 4.0010269E+000, 2.1314272E-001, 1.5107884E-002, 1.4203956E-002, 1.5424542E-004, 3.3108235E-004, 1.3084881E-004, 1.8820896E+002
 5.0061369E+000, 2.0936065E-001, 1.8172582E-002, 1.5955913E-002, 1.9278873E-004, 4.1244757E-004, 1.5976729E-004, 2.2134584E+002
 6.0004449E+000, 2.0132731E-001, 2.4846314E-002, 1.9656038E-002, 1.8469952E-004, 3.7501739E-004, 2.0282896E-004, 2.8135741E+002
 7.0076526E+000, 1.9394676E-001, 3.0987769E-002, 2.3055503E-002, 1.7277033E-004, 3.2062946E-004, 2.4148563E-004, 3.2749400E+002
 8.0071486E+000, 1.8754333E-001, 3.6329265E-002, 2.6003010E-002, 1.5507165E-004, 2.5775556E-004, 2.7352243E-004, 3.6016222E+002
 9.0036604E+000, 1.8246875E-001, 4.0574713E-002, 2.8338207E-002, 1.3497243E-004, 1.8672401E-004, 2.9768017E-004, 3.8564414E+002
 1.0002074E+001, 1.7327821E-001, 4.8253211E-002, 3.2566641E-002, 1.0261140E-004, 8.3358947E-005, 3.4223658E-004, 4.2489334E+002
 1.1000188E+001, 1.6412508E-001, 5.5861950E-002, 3.6782493E-002, 9.1232327E-005, 3.1531970E-005, 3.9086466E-004, 4.4915733E+002
 1.2000102E+001, 1.6055548E-001, 5.8829960E-002, 3.8426531E-002, 8.6412168E-005, 1.0383183E-005, 4.0975092E-004, 4.5226432E+002
 1.3001835E+001, 1.5502060E-001, 6.3413236E-002, 4.0978077E-002, 8.9199270E-005, 2.0438991E-006, 4.4112924E-004, 4.6769701E+002
 1.4002046E+001, 1.5016594E-001, 6.7428756E-002, 4.3216614E-002, 9.4095246E-005, 5.1400492E-007, 4.6915158E-004, 4.6717831E+002
 1.5007060E+001, 1.4169032E-001, 7.4437322E-002, 4.7125130E-002, 1.0379363E-004, 1.3481055E-007, 5.1831042E-004, 4.8283522E+002
 1.6007625E+001, 1.3684220E-001, 7.8446100E-002, 4.9360859E-002, 1.0944087E-004, 1.1250363E-007, 5.4645004E-004, 4.9431747E+002
 1.7004700E+001, 1.3418039E-001, 8.0647074E-002, 5.0588351E-002, 1.1253439E-004, 1.6415499E-007, 5.6189826E-004, 4.8841630E+002
 1.8009473E+001, 1.2685077E-001, 8.6707602E-002, 5.3968467E-002, 1.2115903E-004, 2.3422288E-007, 6.0445899E-004, 5.0058290E+002
 1.9000639E+001, 1.2344803E-001, 8.9521540E-002, 5.5537566E-002, 1.2491797E-004, 9.4025575E-008, 6.2416705E-004, 4.9788892E+002
 2.0004088E+001, 1.2122276E-001, 9.1361592E-002, 5.6563747E-002, 1.2748578E-004, 5.8053759E-008, 6.3707804E-004, 4.9393927E+002
 2.1009559E+001, 1.1013745E-001, 1.0052710E-001, 6.1675898E-002, 1.4077186E-004, 6.1936990E-007, 7.0149640E-004, 5.2153165E+002
 2.2002755E+001, 1.1206021E-001, 9.8936858E-002, 6.0789292E-002, 1.3876083E-004, 9.2888439E-007, 6.9038325E-004, 5.0274258E+002
 2.3006144E+001, 1.1051817E-001, 1.0021303E-001, 6.1500172E-002, 1.3987909E-004, 3.8231477E-008, 6.9919432E-004, 4.9173319E+002
 2.4005921E+001, 1.0673120E-001, 1.0334434E-001, 6.3246552E-002, 1.4431094E-004, 7.0719222E-008, 7.2117900E-004, 4.9716954E+002
 2.5010577E+001, 1.0393609E-001, 1.0565138E-001, 6.4536456E-002, 1.5014676E-004, 3.1907680E-006, 7.3793280E-004, 5.0166528E+002
 2.6007121E+001, 9.8665055E-002, 1.1001402E-001, 6.6966269E-002, 1.5369084E-004, 1.0138234E-007, 7.6799343E-004, 5.0549042E+002
 2.7008989E+001, 9.8544355E-002, 1.1011380E-001, 6.7021934E-002, 1.5384451E-004, 1.2763767E-007, 7.6869667E-004, 4.8928253E+002
 2.8000527E+001, 9.5304143E-002, 1.1278578E-001, 6.8517805E-002, 1.6213596E-004, 5.5616232E-006, 7.8843227E-004, 4.9638957E+002
 2.9010874E+001, 9.2227074E-002, 1.1526003E-001, 6.9950023E-002, 2.0735609E-004, 7.2310366E-005, 8.1483065E-004, 5.0065533E+002
 3.0007072E+001, 9.0509303E-002, 1.1652341E-001, 7.0774582E-002, 3.0475724E-004, 2.0639651E-004, 8.4438915E-004, 4.8983710E+002
 3.1001062E+001, 8.8021980E-002, 1.1847023E-001, 7.1940315E-002, 3.7136686E-004, 3.2216193E-004, 8.7187426E-004, 4.8388579E+002
 3.2009700E+001, 8.6330493E-002, 1.1977609E-001, 7.2741828E-002, 4.3150457E-004, 3.8859867E-004, 8.9365501E-004, 4.9047417E+002
 3.3005676E+001, 8.5872238E-002, 1.2020635E-001, 7.2945088E-002, 4.0278227E-004, 3.3081903E-004, 8.9032920E-004, 4.8225354E+002
 3.4001322E+001, 8.3398441E-002, 1.2204986E-001, 7.4129110E-002, 5.2959096E-004, 4.9494242E-004, 9.3014609E-004, 4.8189831E+002
 3.5011656E+001, 8.2186335E-002, 1.2294561E-001, 7.4710288E-002, 5.9589720E-004, 5.8464713E-004, 9.5050788E-004, 4.8038177E+002
 3.6000135E+001, 7.8774782E-002, 1.2511106E-001, 7.6381351E-002, 9.6941481E-004, 1.3506741E-003, 1.0458694E-003, 4.8587464E+002
 3.7007375E+001, 7.7856620E-002, 1.2562298E-001, 7.6852809E-002, 1.1184517E-003, 1.5783522E-003, 1.0815549E-003, 4.7964430E+002
 3.8003573E+001, 7.8331627E-002, 1.2541385E-001, 7.6554608E-002, 9.7463892E-004, 1.6484386E-003, 1.0490341E-003, 4.7134410E+002
 3.9007509E+001, 7.6221469E-002, 1.2671063E-001, 7.7624769E-002, 1.2528836E-003, 2.0059511E-003, 1.1179468E-003, 4.7411276E+002
 4.0010788E+001, 7.4844651E-002, 1.2731433E-001, 7.8293642E-002, 1.5207710E-003, 2.8831613E-003, 1.1799669E-003, 4.6991459E+002
 4.1004033E+001, 7.3816620E-002, 1.2767244E-001, 7.8818116E-002, 1.7816437E-003, 3.5846993E-003, 1.2388195E-003, 4.7385270E+002
 4.2004626E+001, 7.3740753E-002, 1.2815248E-001, 7.8818837E-002, 1.5679653E-003, 2.9429215E-003, 1.1958065E-003, 4.6349938E+002
 4.3005535E+001, 7.4048368E-002, 1.2774483E-001, 7.8646111E-002, 1.6127729E-003, 3.4177638E-003, 1.2027662E-003, 4.6541196E+002
 4.4000863E+001, 7.2255212E-002, 1.2888147E-001, 7.9591637E-002, 1.8613743E-003, 3.4537663E-003, 1.2641886E-003, 4.6639965E+002
 4.5000761E+001, 7.1688529E-002, 1.2919110E-001, 7.9836331E-002, 1.9206671E-003, 3.8615391E-003, 1.2790984E-003, 4.5897688E+002
 4.6001363E+001, 7.1689660E-002, 1.2906213E-001, 7.9851339E-002, 1.9901022E-003, 4.0308360E-003, 1.2932569E-003, 4.5314641E+002
 4.7009281E+001, 7.0916094E-002, 1.2853376E-001, 8.0129680E-002, 2.4555207E-003, 6.7861419E-003, 1.3904227E-003, 4.5287034E+002
 4.8005216E+001, 7.1528754E-002, 1.2872597E-001, 7.9847342E-002, 2.1410396E-003, 5.3946897E-003, 1.3236634E-003, 4.3996928E+002
 4.9003031E+001, 7.0734381E-002, 1.2863786E-001, 8.0235926E-002, 2.4936977E-003, 6.7544545E-003, 1.3993820E-003, 4.4924902E+002
 5.0002865E+001, 7.0342901E-002, 1.2918428E-001, 8.0424409E-002, 2.4002098E-003, 6.2675768E-003, 1.3828211E-003, 4.4352512E+002
 5.1000043E+001, 6.9616921E-002, 1.2939241E-001, 8.0839678E-002, 2.6390070E-003, 6.6050650E-003, 1.4358886E-003, 4.4401505E+002
 5.2008472E+001, 6.9323964E-002, 1.2920900E-001, 8.0860488E-002, 2.7428221E-003, 8.0807783E-003, 1.4571254E-003, 4.4239457E+002
 5.3000821E+001, 6.8949321E-002, 1.2974816E-001, 8.0980543E-002, 2.5997499E-003, 7.9144105E-003, 1.4297885E-003, 4.4884584E+002
 5.4010589E+001, 6.9755971E-002, 1.2939881E-001, 8.0643070E-002, 2.4826143E-003, 7.0924803E-003, 1.4020947E-003, 4.3115959E+002
 5.5007216E+001, 6.9241906E-002, 1.2945211E-001, 8.0895885E-002, 2.6623102E-003, 7.7455086E-003, 1.4413361E-003, 4.3795028E+002
 5.6009235E+001, 6.9464549E-002, 1.2917552E-001, 8.0706683E-002, 2.6371770E-003, 8.4056358E-003, 1.4340434E-003, 4.2871949E+002
 5.7000233E+001, 6.8986133E-002, 1.2924931E-001, 8.0907369E-002, 2.7669845E-003, 9.1555968E-003, 1.4626284E-003, 4.2781302E+002
 5.8003597E+001, 6.9278260E-002, 1.2895279E-001, 8.0801505E-002, 2.8134862E-003, 9.1062260E-003, 1.4706987E-003, 4.2989946E+002
 5.9003547E+001, 6.9192368E-002, 1.2910337E-001, 8.0766785E-002, 2.7207866E-003, 9.3568926E-003, 1.4516534E-003, 4.2759180E+002
 6.0007538E+001, 6.8811419E-002, 1.2846586E-001, 8.0995986E-002, 3.1902080E-003, 1.0957608E-002, 1.5489479E-003, 4.2953252E+002
 6.1000461E+001, 6.9330157E-002, 1.2876440E-001, 8.0607236E-002, 2.7480165E-003, 1.0332881E-002, 1.4552729E-003, 4.2702807E+002
 6.2008191E+001, 6.9296263E-002, 1.2846464E-001, 8.0598506E-002, 2.8766002E-003, 1.1119087E-002, 1.4810850E-003, 4.2009014E+002
 6.3005843E+001, 6.9466844E-002, 1.2821826E-001, 8.0498058E-002, 2.9069970E-003, 1.1448526E-002, 1.4860088E-003, 4.2507782E+002
 6.4005790E+001, 7.0055058E-002, 1.2778751E-001, 8.0102856E-002, 2.7861725E-003, 1.2019785E-002, 1.4569759E-003, 4.1827185E+002
 6.5002424E+001, 6.9623278E-002, 1.2803733E-001, 8.0352033E-002, 2.8732669E-003, 1.1957670E-002, 1.4774978E-003, 4.1466703E+002
 6.6005069E+001, 6.9368158E-002, 1.2800610E-001, 8.0366045E-002, 2.9027948E-003, 1.3009737E-002, 1.4836812E-003, 4.2305696E+002
 6.7011191E+001, 6.9987174E-002, 1.2724192E-001, 8.0009526E-002, 2.9608788E-003, 1.3902761E-002, 1.4911212E-003, 4.1227523E+002
 6.8002891E+001, 6.9951972E-002, 1.2735703E-001, 8.0053384E-002, 2.9434907E-003, 1.3579647E-002, 1.4881306E-003, 4.1657536E+002
 6.9011141E+001, 6.9976767E-002, 1.2745730E-001, 8.0019390E-002, 2.8718913E-003, 1.3463481E-002, 1.4733114E-003, 4.1297270E+002
 7.0007098E+001, 6.9929456E-002, 1.2726388E-001, 7.9939436E-002, 2.8982783E-003, 1.4486096E-002, 1.4777261E-003, 4.1228816E+002
 7.1007444E+001, 7.0428771E-002, 1.2659648E-001, 7.9487716E-002, 2.8420250E-003, 1.6210980E-002, 1.4610800E-003, 4.1155177E+002
 7.2009002E+001, 7.0482335E-002, 1.2640409E-001, 7.9452443E-002, 2.9003777E-003, 1.6563828E-002, 1.4724153E-003, 4.1824383E+002
 7.3001649E+001, 7.1073348E-002, 1.2578929E-001, 7.9135904E-002, 2.9225673E-003, 1.7056769E-002, 1.4730903E-003, 4.0439000E+002
 7.4003341E+001, 7.0568250E-002, 1.2605568E-001, 7.9448562E-002, 3.0523144E-003, 1.6919067E-002, 1.5029519E-003, 4.0833221E+002
 7.5008028E+001, 7.0950632E-002, 1.2621892E-001, 7.9245363E-002, 2.8158795E-003, 1.6112955E-002, 1.4528873E-003, 4.1189441E+002
 7.6006094E+001, 7.1069147E-002, 1.2590012E-001, 7.9157447E-002, 2.8893960E-003, 1.6735295E-002, 1.4666559E-003, 4.0072498E+002
 7.7005844E+001, 7.1059726E-002, 1.2570298E-001, 7.9012602E-002, 2.8669354E-003, 1.7963875E-002, 1.4604773E-003, 4.1104431E+002
 7.8004245E+001, 7.1150962E-002, 1.2552186E-001, 7.8886265E-002, 2.8496162E-003, 1.8637759E-002, 1.4555164E-003, 4.0586745E+002
 7.9003079E+001, 7.1459452E-002, 1.2519626E-001, 7.8807387E-002, 2.9295939E-003, 1.8429336E-002, 1.4706341E-003, 3.9850093E+002
 8.0008149E+001, 7.1206727E-002, 1.2536648E-001, 7.8832574E-002, 2.8771631E-003, 1.9009094E-002, 1.4604349E-003, 4.0404960E+002
 8.1009391E+001, 7.1733101E-002, 1.2507565E-001, 7.8557084E-002, 2.7865312E-003, 1.8901933E-002, 1.4388716E-003, 3.9955528E+002
 8.2006397E+001, 7.1750009E-002, 1.2429642E-001, 7.8407299E-002, 3.0212789E-003, 2.1205760E-002, 1.4844408E-003, 4.0223621E+002
 8.3007668E+001, 7.2951054E-002, 1.2325673E-001, 7.7645565E-002, 2.8812271E-003, 2.2442120E-002, 1.4471615E-003, 3.9723291E+002
 8.4007405E+001, 7.2718859E-002, 1.2397569E-001, 7.7936126E-002, 2.7856317E-003, 2.0384110E-002, 1.4312969E-003, 3.9833932E+002
 8.5001726E+001, 7.2127382E-002, 1.2389770E-001, 7.8183562E-002, 3.0216149E-003, 2.1651727E-002, 1.4818381E-003, 3.9923334E+002
 8.6006981E+001, 7.1861692E-002, 1.2468694E-001, 7.8341022E-002, 2.7928935E-003, 2.0326292E-002, 1.4376437E-003, 4.0575433E+002
 8.7010240E+001, 7.3142435E-002, 1.2332153E-001, 7.7593521E-002, 2.8086069E-003, 2.1799085E-002, 1.4318812E-003, 3.9107077E+002
 8.8007734E+001, 7.2588557E-002, 1.2395243E-001, 7.7904841E-002, 2.7744843E-003, 2.1147490E-002, 1.4287318E-003, 3.9552209E+002
 8.9001355E+001, 7.3201375E-002, 1.2330262E-001, 7.7528805E-002, 2.7663234E-003, 2.1946256E-002, 1.4226059E-003, 3.9766565E+002
 9.0003879E+001, 7.3479696E-002, 1.2293563E-001, 7.7279500E-002, 2.7346216E-003, 2.2884053E-002, 1.4132860E-003, 3.9406533E+002
 9.1008988E+001, 7.3651796E-002, 1.2247288E-001, 7.7100712E-002, 2.8020454E-003, 2.4068664E-002, 1.4247720E-003, 3.8798234E+002
 9.2003645E+001, 7.3188123E-002, 1.2330364E-001, 7.7415624E-002, 2.6792253E-003, 2.2622372E-002, 1.4037700E-003, 3.9471665E+002
 9.3005441E+001, 7.4069906E-002, 1.2228209E-001, 7.6855189E-002, 2.6914944E-003, 2.4050395E-002, 1.3995709E-003, 3.9446945E+002
 9.4000211E+001, 7.3154499E-002, 1.2313934E-001, 7.7355702E-002, 2.7076540E-003, 2.3419592E-002, 1.4088211E-003, 3.9488668E+002
 9.5002645E+001, 7.4071649E-002, 1.2213751E-001, 7.6861359E-002, 2.7611462E-003, 2.4296823E-002, 1.4136717E-003, 4.0103549E+002
 9.6002398E+001, 7.4425361E-002, 1.2181537E-001, 7.6687601E-002, 2.7658883E-003, 2.4414400E-002, 1.4125351E-003, 3.8665119E+002
 9.7004876E+001, 7.4250545E-002, 1.2193619E-001, 7.6806342E-002, 2.8060228E-003, 2.4251873E-002, 1.4220297E-003, 3.8280964E+002
 9.8011565E+001, 7.4357829E-002, 1.2138815E-001, 7.6546062E-002, 2.8504060E-003, 2.6325632E-002, 1.4279612E-003, 4.0376573E+002
 9.9000914E+001, 7.4943969E-002, 1.2120139E-001, 7.6359029E-002, 2.7798194E-003, 2.5274759E-002, 1.4114302E-003, 3.7975257E+002
 1.0000283E+002, 7.4417326E-002, 1.2169315E-001, 7.6583831E-002, 2.7412795E-003, 2.5262118E-002, 1.4063932E-003, 3.8281887E+002
 1.0100304E+002, 7.4641429E-002, 1.2151686E-001, 7.6362711E-002, 2.6465584E-003, 2.5892184E-002, 1.3847171E-003, 3.8748158E+002
 1.0201075E+002, 7.4566223E-002, 1.2136712E-001, 7.6368735E-002, 2.7198441E-003, 2.6471502E-002, 1.3995709E-003, 3.9750845E+002
 1.0300406E+002, 7.4817353E-002, 1.2110394E-001, 7.6212272E-002, 2.7132887E-003, 2.6805663E-002, 1.3963866E-003, 3.8590517E+002
 1.0400114E+002, 7.4664437E-002, 1.2111435E-001, 7.6322586E-002, 2.7961402E-003, 2.6817576E-002, 1.4143832E-003, 3.8631640E+002
 1.0500935E+002, 7.5308217E-002, 1.2053072E-001, 7.5877925E-002, 2.7049929E-003, 2.7732742E-002, 1.3907463E-003, 3.8148024E+002
 1.0600498E+002, 7.5453202E-002, 1.2030600E-001, 7.5717742E-002, 2.6802768E-003, 2.8454791E-002, 1.3838924E-003, 3.8468717E+002
 1.0700793E+002, 7.5714515E-002, 1.2021205E-001, 7.5618522E-002, 2.6414500E-003, 2.8094684E-002, 1.3748592E-003, 3.7417468E+002
 1.0801159E+002, 7.5070085E-002, 1.2072799E-001, 7.6070963E-002, 2.7689956E-003, 2.7274137E-002, 1.4059174E-003, 3.8392623E+002
 1.0900752E+002, 7.5371719E-002, 1.2034787E-001, 7.5866167E-002, 2.7769251E-003, 2.7895652E-002, 1.4050832E-003, 3.8374592E+002
 1.1001130E+002, 7.5711773E-002, 1.2017872E-001, 7.5674948E-002, 2.6997909E-003, 2.7862013E-002, 1.3872577E-003, 3.7644105E+002
 1.1100482E+002, 7.5530838E-002, 1.2004860E-001, 7.5675174E-002, 2.7617816E-003, 2.8876425E-002, 1.3998010E-003, 3.8966696E+002
 1.1200762E+002, 7.5701333E-002, 1.1982210E-001, 7.5465579E-002, 2.6994570E-003, 2.9767178E-002, 1.3847984E-003, 3.8221778E+002
 1.1300450E+002, 7.6333677E-002, 1.1887749E-001, 7.4991654E-002, 2.7482174E-003, 3.1609422E-002, 1.3890133E-003, 3.8209280E+002
 1.1400481E+002, 7.5772951E-002, 1.1980393E-001, 7.5472520E-002, 2.7116154E-003, 2.9465600E-002, 1.3873060E-003, 3.8433658E+002
 1.1501037E+002, 7.6381386E-002, 1.1924920E-001, 7.5167308E-002, 2.7151933E-003, 2.9703851E-002, 1.3843562E-003, 3.8249423E+002
 1.1600936E+002, 7.5508425E-002, 1.1954600E-001, 7.5546015E-002, 2.8888228E-003, 3.0680811E-002, 1.4239213E-003, 3.9173747E+002
 1.1700816E+002, 7.5757945E-002, 1.1948547E-001, 7.5403656E-002, 2.8020910E-003, 3.0540899E-002, 1.4047481E-003, 3.8821772E+002
 1.1800049E+002, 7.5776859E-002, 1.1934565E-001, 7.5360925E-002, 2.8317426E-003, 3.0975081E-002, 1.4102267E-003, 3.8961425E+002
 1.1900472E+002, 7.5817632E-002, 1.1946364E-001, 7.5399166E-002, 2.8073413E-003, 3.0359399E-002, 1.4057368E-003, 3.8017468E+002
 1.2000016E+002, 7.6576159E-002, 1.1834906E-001, 7.4852412E-002, 2.8741962E-003, 3.2412762E-002, 1.4127263E-003, 3.8823190E+002
 1.2100689E+002, 7.6658178E-002, 1.1863094E-001, 7.4915937E-002, 2.7948110E-003, 3.1159358E-002, 1.3974375E-003, 3.7250218E+002
 1.2200382E+002, 7.6365560E-002, 1.1869965E-001, 7.5080092E-002, 2.8954033E-003, 3.1343328E-002, 1.4196648E-003, 3.7350998E+002
 1.2300757E+002, 7.6214902E-002, 1.1881524E-001, 7.5125905E-002, 2.8814498E-003, 3.1491411E-002, 1.4174224E-003, 3.8183308E+002
 1.2400067E+002, 7.6245218E-002, 1.1862826E-001, 7.5102780E-002, 2.9471288E-003, 3.1863881E-002, 1.4303793E-003, 3.7752941E+002
 1.2500001E+002, 7.6293296E-002, 1.1803760E-001, 7.4971456E-002, 3.1107562E-003, 3.3560561E-002, 1.4618241E-003, 3.8048707E+002
 1.2600595E+002, 7.6346491E-002, 1.1839744E-001, 7.5002393E-002, 2.9718705E-003, 3.2451891E-002, 1.4341852E-003, 3.8582813E+002
 1.2700257E+002, 7.5776452E-002, 1.1883786E-001, 7.5281954E-002, 2.9992376E-003, 3.2421627E-002, 1.4430637E-003, 3.8672048E+002
 1.2800391E+002, 7.5928995E-002, 1.1909158E-001, 7.5199311E-002, 2.8189800E-003, 3.1733490E-002, 1.4057623E-003, 3.8619033E+002
 1.2900431E+002, 7.6655406E-002, 1.1789171E-001, 7.4713916E-002, 2.9718529E-003, 3.3753296E-002, 1.4307907E-003, 3.7954161E+002
 1.3001156E+002, 7.5980309E-002, 1.1892988E-001, 7.5180909E-002, 2.8765377E-003, 3.1941850E-002, 1.4171311E-003, 3.7608338E+002
 1.3100793E+002, 7.6259349E-002, 1.1845240E-001, 7.4967857E-002, 2.9222870E-003, 3.2897019E-002, 1.4238276E-003, 3.8482043E+002
 1.3201291E+002, 7.6220415E-002, 1.1826414E-001, 7.4947787E-002, 2.9921748E-003, 3.3544860E-002, 1.4376877E-003, 3.9282320E+002
 1.3300706E+002, 7.6295626E-002, 1.1789428E-001, 7.4721519E-002, 2.9832237E-003, 3.5211112E-002, 1.4332741E-003, 3.8760678E+002
 1.3401276E+002, 7.6365565E-002, 1.1798806E-001, 7.4666258E-002, 2.8973725E-003, 3.5036049E-002, 1.4153274E-003, 3.9017506E+002
 1.3500231E+002, 7.6490007E-002, 1.1817338E-001, 7.4756451E-002, 2.8810481E-003, 3.3650608E-002, 1.4130342E-003, 3.8408369E+002
 1.3600307E+002, 7.6253821E-002, 1.1820238E-001, 7.4917113E-002, 2.9957523E-003, 3.3696799E-002, 1.4380476E-003, 3.7856718E+002
 1.3700277E+002, 7.5763316E-002, 1.1843220E-001, 7.5148743E-002, 3.0794520E-003, 3.4016639E-002, 1.4577022E-003, 3.9329626E+002
 1.3801044E+002, 7.6029887E-002, 1.1819818E-001, 7.5026650E-002, 3.0858931E-003, 3.4039096E-002, 1.4575246E-003, 3.7994007E+002
 1.3900599E+002, 7.5895945E-002, 1.1842874E-001, 7.5130944E-002, 3.0648740E-003, 3.3566732E-002, 1.4545229E-003, 3.7636784E+002
 1.4000986E+002, 7.5945924E-002, 1.1811859E-001, 7.5051886E-002, 3.1425820E-003, 3.4409782E-002, 1.4692574E-003, 3.8418918E+002
 1.4101090E+002, 7.6740453E-002, 1.1733836E-001, 7.4476174E-002, 3.0363378E-003, 3.5806630E-002, 1.4410359E-003, 3.7757771E+002
 1.4201206E+002, 7.5950544E-002, 1.1817697E-001, 7.4936675E-002, 3.0278212E-003, 3.4908168E-002, 1.4448206E-003, 3.8825042E+002
 1.4300330E+002, 7.5951345E-002, 1.1772274E-001, 7.4857079E-002, 3.1707518E-003, 3.6246528E-002, 1.4727019E-003, 3.8465378E+002
 1.4401109E+002, 7.6490051E-002, 1.1781229E-001, 7.4671394E-002, 2.9779626E-003, 3.4836877E-002, 1.4315836E-003, 3.8360072E+002
 1.4500393E+002, 7.5852842E-002, 1.1817458E-001, 7.4994205E-002, 3.0748786E-003, 3.5005044E-002, 1.4549867E-003, 3.7461187E+002
 1.4600763E+002, 7.5799742E-002, 1.1821200E-001, 7.5051788E-002, 3.1032601E-003, 3.4835854E-002, 1.4613783E-003, 3.7860799E+002
 1.4700499E+002, 7.5657894E-002, 1.1823279E-001, 7.5123481E-002, 3.1515987E-003, 3.4993313E-002, 1.4719775E-003, 3.7929713E+002
 1.4800096E+002, 7.6349088E-002, 1.1765962E-001, 7.4762570E-002, 3.1191609E-003, 3.5228568E-002, 1.4611112E-003, 3.7146217E+002
 1.4900984E+002, 7.5765176E-002, 1.1771491E-001, 7.5120118E-002, 3.3796615E-003, 3.5593529E-002, 1.5178486E-003, 3.8446461E+002
 1.5000242E+002, 7.6857085E-002, 1.1708809E-001, 7.4465283E-002, 3.1382339E-003, 3.5876706E-002, 1.4614030E-003, 3.7387476E+002
 1.5100662E+002, 7.7208377E-002, 1.1636985E-001, 7.4380650E-002, 3.3893829E-003, 3.6302174E-002, 1.5109231E-003, 3.7791655E+002
 1.5200848E+002, 7.6765466E-002, 1.1686489E-001, 7.4489843E-002, 3.2590610E-003, 3.6568880E-002, 1.4860504E-003, 3.8127769E+002
 1.5300119E+002, 7.6114117E-002, 1.1756679E-001, 7.4842412E-002, 3.2265247E-003, 3.5956746E-002, 1.4837211E-003, 3.8801412E+002
 1.5400542E+002, 7.7129804E-002, 1.1614722E-001, 7.4117031E-002, 3.2884748E-003, 3.8524168E-002, 1.4876035E-003, 3.7861519E+002
