s,,,,,,,
Time,"O2 EXHAUST","CO2 EXHAUST","H2O EXHAUST","CO EXHAUST","FUEL EXHAUST","SOOT EXHAUST","TEMP EXHAUST"
 0.0000000E+000, 2.3099739E-001, 5.9146498E-004, 5.9412092E-003, 0.0000000E+000, 0.0000000E+000, 0.0000000E+000, 2.0000000E+001
 1.0017461E+000, 2.3099739E-001, 5.9146498E-004, 5.9412092E-003, 2.4165433E-033, 3.9913276E-032, 7.6713412E-034, 2.0471850E+001
 2.0044518E+000, 2.2384798E-001, 6.1709617E-003, 1.0603970E-002, 1.1094220E-005, 1.7023687E-004, 3.4748040E-005, 9.3193853E+001
 3.0053007E+000, 2.1892912E-001, 1.0018809E-002, 1.3829357E-002, 2.3576514E-005, 1.9924127E-004, 5.9747244E-005, 1.3991130E+002
 4.0007534E+000, 2.1425252E-001, 1.3673420E-002, 1.6890350E-002, 3.4257579E-005, 2.5661299E-004, 8.3239317E-005, 1.8434213E+002
 5.0029642E+000, 2.1078039E-001, 1.6402087E-002, 1.9168025E-002, 3.8037223E-005, 2.4795311E-004, 9.9879702E-005, 2.1353038E+002
 6.0003083E+000, 2.0541757E-001, 2.0612005E-002, 2.2682825E-002, 4.4292036E-005, 2.5649136E-004, 1.2564415E-004, 2.5757841E+002
 7.0018456E+000, 2.0274265E-001, 2.2722550E-002, 2.4438263E-002, 4.3889860E-005, 2.2993126E-004, 1.3780190E-004, 2.7718207E+002
 8.0012226E+000, 1.9518575E-001, 2.8696819E-002, 2.9396826E-002, 3.7217035E-005, 1.3393637E-004, 1.7102990E-004, 3.3020327E+002
 9.0017152E+000, 1.9083782E-001, 3.2134169E-002, 3.2249555E-002, 3.3262682E-005, 7.9563014E-005, 1.9012327E-004, 3.5412831E+002
 1.0004240E+001, 1.8570197E-001, 3.6190475E-002, 3.5618354E-002, 2.9871234E-005, 2.6967186E-005, 2.1292813E-004, 3.8166524E+002
 1.1002624E+001, 1.7992938E-001, 4.0737569E-002, 3.9402448E-002, 3.0171592E-005, 1.8794699E-006, 2.3937187E-004, 4.0265464E+002
 1.2004374E+001, 1.7487139E-001, 4.4714564E-002, 4.2716710E-002, 3.2888786E-005, 2.0647906E-008, 2.6302652E-004, 4.2124696E+002
 1.3001385E+001, 1.6902604E-001, 4.9309829E-002, 4.6546775E-002, 3.6327836E-005, 2.7532029E-008, 2.9042276E-004, 4.3896830E+002
 1.4003068E+001, 1.6405195E-001, 5.3220152E-002, 4.9805964E-002, 3.9259609E-005, 4.1685379E-008, 3.1373663E-004, 4.5067846E+002
 1.5000475E+001, 1.5871276E-001, 5.7417558E-002, 5.3304356E-002, 4.2366985E-005, 2.4648758E-008, 3.3875362E-004, 4.5766462E+002
 1.6006056E+001, 1.5316279E-001, 6.1780556E-002, 5.6940902E-002, 4.5669374E-005, 6.4477115E-008, 3.6477309E-004, 4.6911536E+002
 1.7001617E+001, 1.5063366E-001, 6.3768896E-002, 5.8598031E-002, 4.7097958E-005, 2.3188932E-008, 3.7661451E-004, 4.6663648E+002
 1.8002244E+001, 1.4606045E-001, 6.7364069E-002, 6.1594557E-002, 4.9797680E-005, 3.9009768E-008, 3.9805032E-004, 4.7245046E+002
 1.9003399E+001, 1.4261140E-001, 7.0075536E-002, 6.3854470E-002, 5.1804862E-005, 2.5415935E-008, 4.1421093E-004, 4.7708622E+002
 2.0005339E+001, 1.3922386E-001, 7.2738647E-002, 6.6074083E-002, 5.3777712E-005, 1.9707347E-008, 4.3008364E-004, 4.7473412E+002
 2.1002902E+001, 1.3601135E-001, 7.5264118E-002, 6.8179030E-002, 5.5675642E-005, 2.6133529E-008, 4.4514179E-004, 4.7767902E+002
 2.2002103E+001, 1.3262441E-001, 7.7926753E-002, 7.0398254E-002, 5.7652090E-005, 2.6729501E-008, 4.6101252E-004, 4.7865825E+002
 2.3001411E+001, 1.2932861E-001, 8.0517711E-002, 7.2557772E-002, 5.9593630E-005, 3.6604923E-008, 4.7645993E-004, 4.8093383E+002
 2.4004277E+001, 1.2748214E-001, 8.1969293E-002, 7.3767641E-002, 6.0681301E-005, 3.1846463E-008, 4.8511432E-004, 4.7629960E+002
 2.5006053E+001, 1.2465434E-001, 8.4192348E-002, 7.5620505E-002, 6.2340359E-005, 3.7042746E-008, 4.9836683E-004, 4.8011259E+002
 2.6003414E+001, 1.2253209E-001, 8.5860773E-002, 7.7011060E-002, 6.3565284E-005, 2.6018037E-008, 5.0830863E-004, 4.7655643E+002
 2.7002213E+001, 1.2019719E-001, 8.7696316E-002, 7.8540968E-002, 6.4948288E-005, 4.0075843E-008, 5.1925384E-004, 4.7881996E+002
 2.8005285E+001, 1.1763901E-001, 8.9707432E-002, 8.0217157E-002, 6.6433869E-005, 2.7657769E-008, 5.3123961E-004, 4.7832140E+002
 2.9007594E+001, 1.1514548E-001, 9.1667696E-002, 8.1850998E-002, 6.7900399E-005, 3.1304364E-008, 5.4292628E-004, 4.7891298E+002
 3.0005558E+001, 1.1321653E-001, 9.3184094E-002, 8.3114922E-002, 6.9053941E-005, 5.4251955E-008, 5.5197081E-004, 4.7379287E+002
 3.1004157E+001, 1.1176083E-001, 9.4328515E-002, 8.4068727E-002, 6.9885479E-005, 2.7479335E-008, 5.5878832E-004, 4.7023916E+002
 3.2003045E+001, 1.0904472E-001, 9.6463774E-002, 8.5848407E-002, 7.1474452E-005, 3.5029665E-008, 5.7151646E-004, 4.7444044E+002
 3.3002584E+001, 1.0623139E-001, 9.8675436E-002, 8.7691794E-002, 7.3134236E-005, 3.9631416E-008, 5.8470303E-004, 4.7845864E+002
 3.4008659E+001, 1.0522034E-001, 9.9470234E-002, 8.8354280E-002, 7.3748245E-005, 4.4242797E-008, 5.8944560E-004, 4.7404253E+002
 3.5007717E+001, 1.0431379E-001, 1.0018297E-001, 8.8948260E-002, 7.4243963E-005, 2.7869151E-008, 5.9368674E-004, 4.7401971E+002
 3.6003934E+001, 1.0245406E-001, 1.0164498E-001, 9.0166808E-002, 7.5332720E-005, 2.8398731E-008, 6.0240186E-004, 4.7201107E+002
 3.7001040E+001, 9.9149087E-002, 1.0424310E-001, 9.2332361E-002, 7.7315360E-005, 4.9876985E-008, 6.1789962E-004, 4.7528733E+002
 3.8008673E+001, 9.6710288E-002, 1.0616039E-001, 9.3930318E-002, 7.8715425E-005, 4.1505015E-008, 6.2932273E-004, 4.8033295E+002
 3.9005145E+001, 9.5419343E-002, 1.0717525E-001, 9.4776190E-002, 7.9478175E-005, 3.4968291E-008, 6.3537386E-004, 4.7167306E+002
 4.0003030E+001, 9.3384508E-002, 1.0877496E-001, 9.6109461E-002, 8.0646003E-005, 2.7814871E-008, 6.4490477E-004, 4.7555446E+002
 4.1002327E+001, 9.2227181E-002, 1.0968473E-001, 9.6867799E-002, 8.1358272E-005, 5.0321586E-008, 6.5033542E-004, 4.7379359E+002
 4.2003098E+001, 9.0033659E-002, 1.1140919E-001, 9.8305050E-002, 8.2622495E-005, 3.5894141E-008, 6.6061071E-004, 4.7191630E+002
 4.3005500E+001, 8.7924800E-002, 1.1306701E-001, 9.9686856E-002, 8.3884602E-005, 5.6956428E-008, 6.7049899E-004, 4.7529936E+002
 4.4001144E+001, 8.6683258E-002, 1.1404305E-001, 1.0050035E-001, 8.4605759E-005, 4.0764064E-008, 6.7631601E-004, 4.7069170E+002
 4.5003663E+001, 8.5503868E-002, 1.1497029E-001, 1.0127310E-001, 8.5254321E-005, 2.3365845E-008, 6.8183430E-004, 4.6974205E+002
 4.6001466E+001, 8.3207149E-002, 1.1677579E-001, 1.0277800E-001, 8.6632468E-005, 4.2991231E-008, 6.9260419E-004, 4.7377243E+002
 4.7007228E+001, 8.1566607E-002, 1.1806552E-001, 1.0385292E-001, 8.7573786E-005, 2.9242489E-008, 7.0028825E-004, 4.7471788E+002
 4.8007768E+001, 8.0800589E-002, 1.1866764E-001, 1.0435487E-001, 8.8075793E-005, 5.9789198E-008, 7.0388900E-004, 4.7331500E+002
 4.9001015E+001, 7.9699607E-002, 1.1953225E-001, 1.0507666E-001, 8.9321617E-005, 3.4614465E-007, 7.0917207E-004, 4.7206865E+002
 5.0006601E+001, 7.7526651E-002, 1.2123885E-001, 1.0650107E-001, 9.1639781E-005, 1.2084801E-006, 7.1956973E-004, 4.7606873E+002
 5.1007646E+001, 7.5985319E-002, 1.2244574E-001, 1.0751284E-001, 9.5597126E-005, 3.5840427E-006, 7.2741982E-004, 4.7512943E+002
 5.2002377E+001, 7.4032026E-002, 1.2396621E-001, 1.0879867E-001, 1.0641121E-004, 1.0166264E-005, 7.3855931E-004, 4.7574900E+002
 5.3005122E+001, 7.2937050E-002, 1.2482168E-001, 1.0951788E-001, 1.1028997E-004, 1.3954707E-005, 7.4435384E-004, 4.7586128E+002
 5.4000598E+001, 7.1570364E-002, 1.2589213E-001, 1.1041551E-001, 1.1391728E-004, 1.3418559E-005, 7.5134163E-004, 4.7756493E+002
 5.5005398E+001, 7.1452308E-002, 1.2598265E-001, 1.1049335E-001, 1.1524185E-004, 1.6094638E-005, 7.5215076E-004, 4.7487776E+002
 5.6004649E+001, 6.9495011E-002, 1.2750089E-001, 1.1178404E-001, 1.2955917E-004, 2.4623066E-005, 7.6402838E-004, 4.7129746E+002
 5.7002963E+001, 6.7743868E-002, 1.2885696E-001, 1.1293954E-001, 1.4374278E-004, 3.3784712E-005, 7.7493656E-004, 4.7584142E+002
 5.8002616E+001, 6.7032918E-002, 1.2942213E-001, 1.1340203E-001, 1.3970740E-004, 3.4557565E-005, 7.7735010E-004, 4.7714537E+002
 5.9002561E+001, 6.6258739E-002, 1.3001757E-001, 1.1391509E-001, 1.4889636E-004, 3.7940067E-005, 7.8277469E-004, 4.7260415E+002
 6.0008590E+001, 6.4284340E-002, 1.3154025E-001, 1.1522012E-001, 1.6877598E-004, 5.2124706E-005, 7.9587065E-004, 4.7566821E+002
 6.1008245E+001, 6.3661015E-002, 1.3203393E-001, 1.1562721E-001, 1.6685541E-004, 5.0071054E-005, 7.9832290E-004, 4.7595781E+002
 6.2007045E+001, 6.2974027E-002, 1.3256017E-001, 1.1608236E-001, 1.7588910E-004, 5.7922040E-005, 8.0331271E-004, 4.7039279E+002
 6.3007741E+001, 6.0979929E-002, 1.3412230E-001, 1.1739078E-001, 1.8040749E-004, 6.1760699E-005, 8.1334403E-004, 4.7687184E+002
 6.4003216E+001, 6.1299552E-002, 1.3386740E-001, 1.1718259E-001, 1.8244157E-004, 6.4183345E-005, 8.1230137E-004, 4.7047716E+002
 6.5001986E+001, 6.0287103E-002, 1.3465802E-001, 1.1784770E-001, 1.8624396E-004, 6.7991918E-005, 8.1770335E-004, 4.6971513E+002
 6.6000985E+001, 5.8400243E-002, 1.3611455E-001, 1.1909488E-001, 2.0465164E-004, 7.8706709E-005, 8.3009998E-004, 4.7466171E+002
 6.7004631E+001, 5.8006281E-002, 1.3641533E-001, 1.1935663E-001, 2.1064403E-004, 8.2321513E-005, 8.3312969E-004, 4.7078666E+002
 6.8000808E+001, 5.6029569E-002, 1.3796455E-001, 1.2065294E-001, 2.1445498E-004, 8.7519492E-005, 8.4293443E-004, 4.7687665E+002
 6.9000319E+001, 5.6014815E-002, 1.3797359E-001, 1.2066350E-001, 2.1604411E-004, 8.9083356E-005, 8.4332761E-004, 4.7233424E+002
 7.0003909E+001, 5.5556081E-002, 1.3833034E-001, 1.2096556E-001, 2.1876797E-004, 9.1014816E-005, 8.4598127E-004, 4.6911255E+002
 7.1002352E+001, 5.5327809E-002, 1.3851172E-001, 1.2111300E-001, 2.1697578E-004, 9.5662762E-005, 8.4664926E-004, 4.7487293E+002
 7.2000380E+001, 5.3668388E-002, 1.3981104E-001, 1.2220239E-001, 2.2130305E-004, 9.7878151E-005, 8.5511490E-004, 4.6969353E+002
 7.3008800E+001, 5.2467335E-002, 1.4075280E-001, 1.2298982E-001, 2.2331549E-004, 1.0092315E-004, 8.6100993E-004, 4.7674882E+002
 7.4000919E+001, 5.1932367E-002, 1.4116934E-001, 1.2334213E-001, 2.2630231E-004, 1.0191320E-004, 8.6406683E-004, 4.7236351E+002
 7.5003912E+001, 5.1552751E-002, 1.4145782E-001, 1.2359396E-001, 2.3246708E-004, 1.0967859E-004, 8.6706219E-004, 4.6966781E+002
 7.6007344E+001, 5.0207133E-002, 1.4250862E-001, 1.2447894E-001, 2.3802781E-004, 1.1074740E-004, 8.7435052E-004, 4.7348494E+002
 7.7008179E+001, 4.9528099E-002, 1.4304384E-001, 1.2492274E-001, 2.3724108E-004, 1.1240489E-004, 8.7728686E-004, 4.7270000E+002
 7.8006581E+001, 4.8087021E-002, 1.4416482E-001, 1.2587183E-001, 2.4578539E-004, 1.1707046E-004, 8.8562205E-004, 4.7589919E+002
 7.9008649E+001, 4.8452788E-002, 1.4386451E-001, 1.2563707E-001, 2.5367303E-004, 1.2322763E-004, 8.8557102E-004, 4.6899840E+002
 8.0004041E+001, 4.7872223E-002, 1.4431849E-001, 1.2601802E-001, 2.5535334E-004, 1.2594020E-004, 8.8856505E-004, 4.6891887E+002
 8.1006507E+001, 4.6831664E-002, 1.4512131E-001, 1.2670690E-001, 2.6624574E-004, 1.2836698E-004, 8.9555787E-004, 4.6876962E+002
 8.2006834E+001, 4.5743494E-002, 1.4597559E-001, 1.2741970E-001, 2.6729380E-004, 1.3155744E-004, 9.0073863E-004, 4.7475323E+002
 8.3007682E+001, 4.4652968E-002, 1.4681097E-001, 1.2814321E-001, 2.8213429E-004, 1.3995002E-004, 9.0876687E-004, 4.7612044E+002
 8.4002536E+001, 4.4002951E-002, 1.4734279E-001, 1.2856000E-001, 2.6872792E-004, 1.3445307E-004, 9.0897774E-004, 4.7707447E+002
 8.5002775E+001, 4.4459164E-002, 1.4697759E-001, 1.2826295E-001, 2.7229142E-004, 1.4018960E-004, 9.0762314E-004, 4.6953426E+002
 8.6007629E+001, 4.3296690E-002, 1.4789643E-001, 1.2902329E-001, 2.7010301E-004, 1.3555083E-004, 9.1248446E-004, 4.7332297E+002
 8.7001791E+001, 4.2027070E-002, 1.4886593E-001, 1.2986701E-001, 2.8942963E-004, 1.4596431E-004, 9.2225270E-004, 4.7509085E+002
 8.8000543E+001, 4.1864421E-002, 1.4899185E-001, 1.2997484E-001, 2.9102307E-004, 1.4486923E-004, 9.2332480E-004, 4.6982143E+002
 8.9003329E+001, 4.0257385E-002, 1.5024594E-001, 1.3103220E-001, 2.9826095E-004, 1.4607477E-004, 9.3215213E-004, 4.7940221E+002
 9.0003137E+001, 4.0464651E-002, 1.5007429E-001, 1.3089965E-001, 3.0362584E-004, 1.5061187E-004, 9.3230660E-004, 4.7689980E+002
 9.1003127E+001, 4.0642196E-002, 1.4995229E-001, 1.3077489E-001, 2.9151414E-004, 1.4886335E-004, 9.2900198E-004, 4.7392785E+002
 9.2006104E+001, 3.9515607E-002, 1.5081904E-001, 1.3152110E-001, 3.0456593E-004, 1.5489172E-004, 9.3682877E-004, 4.7550180E+002
 9.3008516E+001, 4.0181949E-002, 1.5028129E-001, 1.3108919E-001, 3.1267521E-004, 1.6420589E-004, 9.3544777E-004, 4.7269583E+002
 9.4002678E+001, 3.9328920E-002, 1.5095864E-001, 1.3164527E-001, 3.0876701E-004, 1.6197373E-004, 9.3853936E-004, 4.7185289E+002
 9.5004676E+001, 3.8431279E-002, 1.5166709E-001, 1.3223314E-001, 3.0792154E-004, 1.5751725E-004, 9.4246810E-004, 4.7247063E+002
 9.6003603E+001, 3.8638371E-002, 1.5149299E-001, 1.3210215E-001, 3.1515288E-004, 1.6152248E-004, 9.4300854E-004, 4.7356440E+002
 9.7007633E+001, 3.7477354E-002, 1.5240868E-001, 1.3286191E-001, 3.1404211E-004, 1.5943349E-004, 9.4808259E-004, 4.7375099E+002
 9.8000273E+001, 3.7686650E-002, 1.5226768E-001, 1.3271497E-001, 2.9858925E-004, 1.5112921E-004, 9.4395142E-004, 4.7637815E+002
 9.9008107E+001, 3.6580442E-002, 1.5311411E-001, 1.3344959E-001, 3.1442063E-004, 1.5878176E-004, 9.5225623E-004, 4.7666247E+002
 1.0000430E+002, 3.7051828E-002, 1.5275292E-001, 1.3313508E-001, 3.0714234E-004, 1.6245201E-004, 9.4860035E-004, 4.7167574E+002
 1.0100106E+002, 3.6121551E-002, 1.5346457E-001, 1.3375381E-001, 3.2101181E-004, 1.6542114E-004, 9.5570258E-004, 4.7416874E+002
 1.0200218E+002, 3.5185920E-002, 1.5417673E-001, 1.3437784E-001, 3.3741323E-004, 1.6869549E-004, 9.6335070E-004, 4.7697870E+002
 1.0300398E+002, 3.5696343E-002, 1.5379453E-001, 1.3403441E-001, 3.2416930E-004, 1.6615275E-004, 9.5829381E-004, 4.7582402E+002
 1.0400456E+002, 3.5268132E-002, 1.5410615E-001, 1.3432548E-001, 3.4075025E-004, 1.7468520E-004, 9.6365669E-004, 4.7456600E+002
 1.0500713E+002, 3.5016185E-002, 1.5431552E-001, 1.3448416E-001, 3.3266868E-004, 1.7754301E-004, 9.6313860E-004, 4.7651282E+002
 1.0600318E+002, 3.4502315E-002, 1.5474540E-001, 1.3481120E-001, 3.1667282E-004, 1.6387203E-004, 9.6220288E-004, 4.7499458E+002
 1.0700480E+002, 3.3617637E-002, 1.5542183E-001, 1.3539849E-001, 3.2943847E-004, 1.7185582E-004, 9.6886416E-004, 4.7502771E+002
 1.0800736E+002, 3.4076071E-002, 1.5503351E-001, 1.3511036E-001, 3.4767195E-004, 1.7923501E-004, 9.7052073E-004, 4.7022902E+002
 1.0900063E+002, 3.4378892E-002, 1.5481086E-001, 1.3490331E-001, 3.3632965E-004, 1.8266960E-004, 9.6679724E-004, 4.7333134E+002
 1.1000061E+002, 3.2373000E-002, 1.5636686E-001, 1.3622865E-001, 3.5230353E-004, 1.8078688E-004, 9.7924907E-004, 4.7268106E+002
 1.1100332E+002, 3.2197170E-002, 1.5651445E-001, 1.3633984E-001, 3.4624744E-004, 1.7796084E-004, 9.7880684E-004, 4.7293184E+002
 1.1200910E+002, 3.2330271E-002, 1.5641186E-001, 1.3625100E-001, 3.4444379E-004, 1.8037746E-004, 9.7782493E-004, 4.7128906E+002
 1.1300257E+002, 3.2593186E-002, 1.5621051E-001, 1.3607564E-001, 3.4037270E-004, 1.8194579E-004, 9.7578398E-004, 4.7205192E+002
 1.1400528E+002, 3.0668947E-002, 1.5769928E-001, 1.3734970E-001, 3.5876184E-004, 1.7730571E-004, 9.8836364E-004, 4.7380399E+002
 1.1500472E+002, 3.0916268E-002, 1.5751616E-001, 1.3718134E-001, 3.5043661E-004, 1.7975789E-004, 9.8551630E-004, 4.6987453E+002
 1.1600617E+002, 3.1105861E-002, 1.5735899E-001, 1.3706074E-001, 3.5574148E-004, 1.8161342E-004, 9.8574191E-004, 4.6921616E+002
 1.1700246E+002, 3.0869462E-002, 1.5752323E-001, 1.3722370E-001, 3.6946844E-004, 1.9300255E-004, 9.8963792E-004, 4.7481753E+002
 1.1800370E+002, 3.0001287E-002, 1.5822189E-001, 1.3778562E-001, 3.5935627E-004, 1.8813378E-004, 9.9152299E-004, 4.7245443E+002
 1.1900451E+002, 2.9963853E-002, 1.5826560E-001, 1.3780478E-001, 3.5037515E-004, 1.8074909E-004, 9.8985094E-004, 4.7143673E+002
 1.2000712E+002, 3.0303175E-002, 1.5799209E-001, 1.3758520E-001, 3.5454758E-004, 1.8337259E-004, 9.8915878E-004, 4.7451720E+002
 1.2100530E+002, 3.0264759E-002, 1.5801021E-001, 1.3761523E-001, 3.6234650E-004, 1.8831333E-004, 9.9093608E-004, 4.6964243E+002
 1.2200808E+002, 2.9560992E-002, 1.5856865E-001, 1.3807420E-001, 3.5938523E-004, 1.8653044E-004, 9.9354086E-004, 4.7386386E+002
 1.2300662E+002, 2.8814674E-002, 1.5915109E-001, 1.3856704E-001, 3.6364802E-004, 1.7981863E-004, 9.9783376E-004, 4.6976641E+002
 1.2400770E+002, 2.7854704E-002, 1.5989591E-001, 1.3920148E-001, 3.7130622E-004, 1.7793057E-004, 1.0037967E-003, 4.7496855E+002
 1.2500483E+002, 2.7809917E-002, 1.5992006E-001, 1.3923456E-001, 3.7809217E-004, 1.8536273E-004, 1.0053917E-003, 4.7397080E+002
 1.2600910E+002, 2.8349373E-002, 1.5949677E-001, 1.3887987E-001, 3.7680048E-004, 1.8863404E-004, 1.0026592E-003, 4.7600390E+002
 1.2700634E+002, 2.7915767E-002, 1.5982696E-001, 1.3917035E-001, 3.8499307E-004, 1.8468559E-004, 1.0063313E-003, 4.7672649E+002
 1.2800588E+002, 2.7883022E-002, 1.5987261E-001, 1.3918225E-001, 3.7140166E-004, 1.8273666E-004, 1.0036820E-003, 4.7486272E+002
 1.2900264E+002, 2.7960946E-002, 1.5979701E-001, 1.3913572E-001, 3.7995933E-004, 1.9360409E-004, 1.0050783E-003, 4.7181970E+002
 1.3000810E+002, 2.7782186E-002, 1.5993862E-001, 1.3925303E-001, 3.7968527E-004, 1.9070382E-004, 1.0058410E-003, 4.7461831E+002
 1.3100794E+002, 2.7972196E-002, 1.5977855E-001, 1.3913218E-001, 3.8612747E-004, 1.9767969E-004, 1.0062937E-003, 4.6686286E+002
 1.3200609E+002, 2.6857258E-002, 1.6064857E-001, 1.3986777E-001, 3.9220062E-004, 1.9053699E-004, 1.0126431E-003, 4.7425611E+002
 1.3300292E+002, 2.7577142E-002, 1.6009279E-001, 1.3938951E-001, 3.8397299E-004, 1.9635953E-004, 1.0076548E-003, 4.7335976E+002
 1.3400132E+002, 2.7293650E-002, 1.6034594E-001, 1.3956287E-001, 3.6452843E-004, 1.8482687E-004, 1.0049543E-003, 4.7124716E+002
 1.3500137E+002, 2.5970942E-002, 1.6131481E-001, 1.4046277E-001, 4.1338812E-004, 1.9513389E-004, 1.0210509E-003, 4.7675394E+002
 1.3600056E+002, 2.7268524E-002, 1.6031271E-001, 1.3960174E-001, 3.9922016E-004, 2.0214777E-004, 1.0121997E-003, 4.7084934E+002
 1.3700600E+002, 2.6939234E-002, 1.6056774E-001, 1.3982032E-001, 4.0253414E-004, 1.9860480E-004, 1.0143897E-003, 4.6861377E+002
 1.3800274E+002, 2.6912510E-002, 1.6059210E-001, 1.3983706E-001, 4.0068265E-004, 1.9490230E-004, 1.0141341E-003, 4.6867037E+002
 1.3900843E+002, 2.6160873E-002, 1.6120461E-001, 1.4031998E-001, 3.8675836E-004, 1.8959592E-004, 1.0147020E-003, 4.7521612E+002
 1.4000109E+002, 2.6325064E-002, 1.6106522E-001, 1.4021674E-001, 3.9340293E-004, 1.9300082E-004, 1.0153180E-003, 4.6932991E+002
 1.4100958E+002, 2.6029623E-002, 1.6129325E-001, 1.4041148E-001, 3.9602078E-004, 1.9695112E-004, 1.0172022E-003, 4.7316956E+002
 1.4200825E+002, 2.5995779E-002, 1.6131146E-001, 1.4043767E-001, 4.0177646E-004, 1.9780414E-004, 1.0185419E-003, 4.7332733E+002
 1.4300229E+002, 2.5956743E-002, 1.6135647E-001, 1.4045631E-001, 3.9197818E-004, 1.9665810E-004, 1.0167022E-003, 4.7325652E+002
 1.4400618E+002, 2.6428617E-002, 1.6100079E-001, 1.4014103E-001, 3.8188375E-004, 1.9021019E-004, 1.0124744E-003, 4.7415905E+002
 1.4500908E+002, 2.5938477E-002, 1.6139849E-001, 1.4045692E-001, 3.7405492E-004, 1.8625014E-004, 1.0131031E-003, 4.7405652E+002
 1.4600165E+002, 2.5126778E-002, 1.6201003E-001, 1.4100106E-001, 3.9245393E-004, 1.9073548E-004, 1.0205958E-003, 4.7556233E+002
 1.4700573E+002, 2.4677191E-002, 1.6233093E-001, 1.4131160E-001, 4.1513514E-004, 1.9256899E-004, 1.0273204E-003, 4.7552460E+002
 1.4800693E+002, 2.5582498E-002, 1.6166097E-001, 1.4069815E-001, 3.8595362E-004, 1.8940487E-004, 1.0171770E-003, 4.7288178E+002
 1.4900406E+002, 2.4916763E-002, 1.6214928E-001, 1.4115186E-001, 4.1065408E-004, 1.9011699E-004, 1.0253058E-003, 4.7385483E+002
 1.5000448E+002, 2.4725060E-002, 1.6231832E-001, 1.4126876E-001, 3.9827910E-004, 1.8794757E-004, 1.0236332E-003, 4.7400796E+002
 1.5100397E+002, 2.4003184E-002, 1.6285172E-001, 1.4175714E-001, 4.2151134E-004, 1.9523652E-004, 1.0317088E-003, 4.7133607E+002
 1.5200580E+002, 2.3610435E-002, 1.6318721E-001, 1.4200206E-001, 4.0367340E-004, 1.9094921E-004, 1.0298306E-003, 4.7780705E+002
 1.5300478E+002, 2.3721776E-002, 1.6308433E-001, 1.4193664E-001, 4.1418752E-004, 1.9180775E-004, 1.0314880E-003, 4.7921611E+002
 1.5400209E+002, 2.4329502E-002, 1.6261428E-001, 1.4153295E-001, 4.0764757E-004, 1.9824000E-004, 1.0273588E-003, 4.7561735E+002
