s,,,,,,,
Time,O2 EXHAUST,CO2 EXHAUST,H2O EXHAUST,CO EXHAUST,FUEL EXHAUST,SOOT EXHAUST,TEMP EXHAUST
 0.0000000E+000, 2.3099739E-001, 5.9146498E-004, 5.9412092E-003, 0.0000000E+000, 0.0000000E+000, 0.0000000E+000, 2.0000000E+001
 1.0040345E+000, 2.3099739E-001, 5.9146498E-004, 5.9412092E-003, 1.3963533E-031, 1.4853155E-030, 4.2703925E-032, 2.0548659E+001
 2.0013105E+000, 2.2273843E-001, 8.1300155E-003, 9.1170232E-003, 4.4495675E-005, 2.7524472E-004, 5.4965818E-005, 1.0034905E+002
 3.0050683E+000, 2.1774565E-001, 1.2711937E-002, 1.1043914E-002, 6.7482520E-005, 3.5012952E-004, 8.7503684E-005, 1.4825738E+002
 4.0022790E+000, 2.1131106E-001, 1.8612379E-002, 1.3530405E-002, 1.0235196E-004, 4.3702502E-004, 1.3053424E-004, 2.0429540E+002
 5.0059068E+000, 2.0556491E-001, 2.3898079E-002, 1.5752664E-002, 1.2792916E-004, 4.7066772E-004, 1.6786808E-004, 2.5081672E+002
 6.0060979E+000, 1.9779542E-001, 3.1093075E-002, 1.8749444E-002, 1.3304710E-004, 4.6808617E-004, 2.1232004E-004, 3.0970459E+002
 7.0020637E+000, 1.9060197E-001, 3.7793712E-002, 2.1528257E-002, 1.2461869E-004, 3.6220137E-004, 2.5088843E-004, 3.5616044E+002
 8.0028180E+000, 1.8422818E-001, 4.3734306E-002, 2.3990155E-002, 1.1532301E-004, 2.6318339E-004, 2.8469111E-004, 3.8858548E+002
 9.0035943E+000, 1.7461618E-001, 5.2698351E-002, 2.7700476E-002, 9.6568774E-005, 1.1727015E-004, 3.3468401E-004, 4.3296033E+002
 1.0005145E+001, 1.6727134E-001, 5.9533466E-002, 3.0535242E-002, 8.8330947E-005, 3.7464306E-005, 3.7410366E-004, 4.5284224E+002
 1.1006276E+001, 1.5937954E-001, 6.6850337E-002, 3.3580975E-002, 9.1482152E-005, 6.9418155E-006, 4.1886824E-004, 4.7378341E+002
 1.2008970E+001, 1.5315194E-001, 7.2615838E-002, 3.5984323E-002, 9.7605987E-005, 3.2788983E-007, 4.5492219E-004, 4.8856768E+002
 1.3002702E+001, 1.4483024E-001, 8.0315346E-002, 3.9195959E-002, 1.0802144E-004, 7.8092238E-008, 5.0355000E-004, 5.0053916E+002
 1.4007062E+001, 1.3625830E-001, 8.8246226E-002, 4.2504175E-002, 1.1882564E-004, 8.6268441E-008, 5.5365533E-004, 5.1077621E+002
 1.5000422E+001, 1.3256449E-001, 9.1663614E-002, 4.3929799E-002, 1.2361196E-004, 1.5117406E-007, 5.7527358E-004, 5.0879760E+002
 1.6005640E+001, 1.2560578E-001, 9.8102024E-002, 4.6615386E-002, 1.3230581E-004, 1.1279204E-007, 6.1593332E-004, 5.1757146E+002
 1.7007405E+001, 1.2033283E-001, 1.0298095E-001, 4.8650315E-002, 1.3871867E-004, 7.3612132E-008, 6.4670706E-004, 5.1597133E+002
 1.8006459E+001, 1.1583300E-001, 1.0714417E-001, 5.0386985E-002, 1.4445602E-004, 1.0556095E-007, 6.7302334E-004, 5.1584847E+002
 1.9005659E+001, 1.0892647E-001, 1.1353417E-001, 5.3052466E-002, 1.5317491E-004, 1.2454874E-007, 7.1339674E-004, 5.2150367E+002
 2.0001559E+001, 1.0369641E-001, 1.1837320E-001, 5.5070902E-002, 1.5969059E-004, 1.2698668E-007, 7.4395210E-004, 5.2272285E+002
 2.1007462E+001, 9.9624405E-002, 1.2214023E-001, 5.6642571E-002, 1.6515914E-004, 2.1781002E-007, 7.6782348E-004, 5.2425628E+002
 2.2000649E+001, 9.6232080E-002, 1.2527622E-001, 5.7952563E-002, 1.7138818E-004, 8.4911447E-007, 7.8805546E-004, 5.2406758E+002
 2.3006886E+001, 9.1433560E-002, 1.2969934E-001, 5.9809476E-002, 1.8983399E-004, 3.9081460E-006, 8.1866257E-004, 5.2385048E+002
 2.4001559E+001, 8.9957744E-002, 1.3105998E-001, 6.0380230E-002, 1.9502824E-004, 6.4005606E-006, 8.2797502E-004, 5.1632668E+002
 2.5004140E+001, 8.6004179E-002, 1.3471179E-001, 6.1907941E-002, 2.0462623E-004, 7.2226810E-006, 8.5203745E-004, 5.1660622E+002
 2.6005443E+001, 8.2075868E-002, 1.3832754E-001, 6.3429462E-002, 2.2342706E-004, 1.2026088E-005, 8.7785577E-004, 5.1932135E+002
 2.7000678E+001, 7.9810347E-002, 1.4040508E-001, 6.4309174E-002, 2.3995551E-004, 1.6850145E-005, 8.9391810E-004, 5.1486698E+002
 2.8000607E+001, 7.5696900E-002, 1.4420402E-001, 6.5898839E-002, 2.5035991E-004, 1.7753416E-005, 9.1904000E-004, 5.2008937E+002
 2.9004412E+001, 7.4461660E-002, 1.4534671E-001, 6.6375531E-002, 2.5196362E-004, 1.8302302E-005, 9.2626929E-004, 5.1386597E+002
 3.0010587E+001, 6.8974048E-002, 1.5040304E-001, 6.8499662E-002, 2.7449733E-004, 2.2400189E-005, 9.6156838E-004, 5.1958802E+002
 3.1003158E+001, 6.5473080E-002, 1.5363746E-001, 6.9852005E-002, 2.8221862E-004, 2.4670398E-005, 9.8271342E-004, 5.2232313E+002
 3.2009852E+001, 6.2968460E-002, 1.5594529E-001, 7.0821725E-002, 2.9271623E-004, 2.4991404E-005, 9.9887041E-004, 5.1818179E+002
 3.3008603E+001, 5.9004274E-002, 1.5959278E-001, 7.2357980E-002, 3.1310835E-004, 2.7372502E-005, 1.0252211E-003, 5.1935160E+002
 3.4009605E+001, 5.5693238E-002, 1.6264817E-001, 7.3638475E-002, 3.2352433E-004, 2.7504803E-005, 1.0458651E-003, 5.2378351E+002
 3.5001306E+001, 5.3525942E-002, 1.6462500E-001, 7.4483672E-002, 3.4772461E-004, 3.1568942E-005, 1.0629655E-003, 5.1357805E+002
 3.6001391E+001, 4.9108910E-002, 1.6871325E-001, 7.6187865E-002, 3.5210423E-004, 3.1496425E-005, 1.0885389E-003, 5.2335533E+002
 3.7008531E+001, 4.6348790E-002, 1.7124789E-001, 7.7258861E-002, 3.6988611E-004, 3.4930808E-005, 1.1076243E-003, 5.2045399E+002
 3.8009355E+001, 4.3684325E-002, 1.7371529E-001, 7.8286865E-002, 3.7195306E-004, 3.2395084E-005, 1.1229352E-003, 5.2246766E+002
 3.9006254E+001, 4.0123391E-002, 1.7700454E-001, 7.9663046E-002, 3.8073718E-004, 3.1780742E-005, 1.1446385E-003, 5.2650165E+002
 4.0008195E+001, 3.8893595E-002, 1.7813041E-001, 8.0141292E-002, 3.9126626E-004, 3.3902414E-005, 1.1536801E-003, 5.1682416E+002
 4.1003421E+001, 3.4201060E-002, 1.8243681E-001, 8.1963576E-002, 4.2421138E-004, 3.6527776E-005, 1.1866926E-003, 5.2326453E+002
 4.2011234E+001, 3.3438556E-002, 1.8313206E-001, 8.2260864E-002, 4.3276157E-004, 3.8878175E-005, 1.1927151E-003, 5.2042051E+002
 4.3008935E+001, 3.0257831E-002, 1.8603741E-001, 8.3500560E-002, 4.6570835E-004, 4.0864646E-005, 1.2172857E-003, 5.1961466E+002
 4.4003901E+001, 2.8505796E-002, 1.8762236E-001, 8.4188193E-002, 4.9552606E-004, 4.4040062E-005, 1.2332291E-003, 5.1754613E+002
 4.5006798E+001, 2.5438252E-002, 1.9037957E-001, 8.5397559E-002, 5.6112496E-004, 5.2560555E-005, 1.2639078E-003, 5.1717855E+002
 4.6003471E+001, 2.1621878E-002, 1.9386205E-001, 8.6886153E-002, 6.0336853E-004, 5.4981228E-005, 1.2939492E-003, 5.2496883E+002
 4.7005102E+001, 1.9321928E-002, 1.9600054E-001, 8.7770876E-002, 5.9863978E-004, 5.1407948E-005, 1.3058212E-003, 5.2966143E+002
 4.8000368E+001, 1.6412708E-002, 1.9863182E-001, 8.8913955E-002, 6.4965614E-004, 4.9988980E-005, 1.3326145E-003, 5.3363761E+002
 4.9010351E+001, 1.6127779E-002, 1.9885309E-001, 8.9037626E-002, 6.8269078E-004, 5.2237403E-005, 1.3410305E-003, 5.2354572E+002
 5.0005500E+001, 1.4473744E-002, 2.0031106E-001, 8.9698881E-002, 7.4008469E-004, 5.9186352E-005, 1.3621213E-003, 5.2383297E+002
 5.1008995E+001, 1.0608131E-002, 2.0315788E-001, 9.1430011E-002, 1.3110480E-003, 7.9333758E-005, 1.5016916E-003, 5.2951400E+002
 5.2009187E+001, 8.9483611E-003, 2.0394521E-001, 9.2315902E-002, 1.8936359E-003, 1.0013550E-004, 1.6313446E-003, 5.2490841E+002
 5.3005480E+001, 8.4872520E-003, 2.0469404E-001, 9.2384868E-002, 1.6408852E-003, 1.1138815E-004, 1.5816663E-003, 5.2282862E+002
 5.4006455E+001, 6.4402217E-003, 2.0521351E-001, 9.3602669E-002, 2.6867087E-003, 2.8684195E-004, 1.8090249E-003, 5.1539913E+002
 5.5007793E+001, 5.4044816E-003, 2.0520301E-001, 9.4322943E-002, 3.4425010E-003, 2.9611083E-004, 1.9710059E-003, 5.0936670E+002
 5.6002620E+001, 5.0207440E-003, 2.0528454E-001, 9.4560440E-002, 3.6548877E-003, 3.0533080E-004, 2.0170336E-003, 5.0847911E+002
 5.7003944E+001, 4.5646906E-003, 2.0524841E-001, 9.4850576E-002, 3.9745086E-003, 5.3478791E-004, 2.0853444E-003, 5.0352692E+002
 5.8001323E+001, 3.8220718E-003, 2.0480728E-001, 9.5525313E-002, 4.8690383E-003, 4.5637482E-004, 2.2744760E-003, 4.9954928E+002
 5.9003917E+001, 3.2783389E-003, 2.0525103E-001, 9.5755789E-002, 4.9169331E-003, 4.5091330E-004, 2.2874187E-003, 5.0215781E+002
 6.0001641E+001, 3.1901533E-003, 2.0470867E-001, 9.5978242E-002, 5.3848180E-003, 5.6527844E-004, 2.3844670E-003, 4.9633413E+002
 6.1007493E+001, 3.5071099E-003, 2.0356815E-001, 9.6104503E-002, 6.0122863E-003, 7.6426911E-004, 2.5121265E-003, 4.8257792E+002
 6.2002757E+001, 2.8818019E-003, 2.0410261E-001, 9.6357602E-002, 6.0445706E-003, 7.8161605E-004, 2.5222689E-003, 4.8554737E+002
 6.3008564E+001, 2.5235419E-003, 2.0202870E-001, 9.7190841E-002, 7.8167006E-003, 1.4112359E-003, 2.8897247E-003, 4.7944200E+002
 6.4006027E+001, 2.4159037E-003, 2.0190151E-001, 9.7324136E-002, 8.0102916E-003, 1.3129018E-003, 2.9304644E-003, 4.7597315E+002
 6.5008558E+001, 2.4848979E-003, 2.0154321E-001, 9.7397802E-002, 8.2424143E-003, 1.2984999E-003, 2.9780732E-003, 4.7396005E+002
 6.6010379E+001, 2.2142247E-003, 2.0046321E-001, 9.7894737E-002, 9.2308165E-003, 1.5981747E-003, 3.1834831E-003, 4.7295823E+002
 6.7005627E+001, 2.1819845E-003, 1.9945261E-001, 9.8202007E-002, 9.9913676E-003, 1.9052624E-003, 3.3404592E-003, 4.6574792E+002
 6.8005423E+001, 2.1596482E-003, 1.9996745E-001, 9.8071973E-002, 9.6315671E-003, 1.7511141E-003, 3.2664185E-003, 4.6784638E+002
 6.9008944E+001, 2.1707702E-003, 1.9866685E-001, 9.8436171E-002, 1.0577582E-002, 2.1147616E-003, 3.4614114E-003, 4.6038066E+002
 7.0007360E+001, 2.0711194E-003, 1.9818004E-001, 9.8604965E-002, 1.0966954E-002, 2.4884778E-003, 3.5419619E-003, 4.5680970E+002
 7.1004454E+001, 1.9996141E-003, 1.9794193E-001, 9.8770557E-002, 1.1241597E-002, 2.2670264E-003, 3.5994109E-003, 4.6414533E+002
 7.2007471E+001, 2.1612664E-003, 1.9607202E-001, 9.9153459E-002, 1.2456379E-002, 3.0285130E-003, 3.8485991E-003, 4.5222421E+002
 7.3008866E+001, 1.9939873E-003, 1.9605871E-001, 9.9277483E-002, 1.2591370E-002, 3.0069626E-003, 3.8774612E-003, 4.5003629E+002
 7.4002575E+001, 2.0018601E-003, 1.9522294E-001, 9.9484774E-002, 1.3172331E-002, 3.3984119E-003, 3.9969864E-003, 4.5536955E+002
 7.5003659E+001, 2.1448473E-003, 1.9400555E-001, 9.9705365E-002, 1.3933368E-002, 3.9092883E-003, 4.1528215E-003, 4.4782661E+002
 7.6008518E+001, 1.9543333E-003, 1.9367168E-001, 9.9950812E-002, 1.4334055E-002, 3.8953533E-003, 4.2367182E-003, 4.4860634E+002
 7.7002381E+001, 1.9552477E-003, 1.9315480E-001, 1.0007997E-001, 1.4694405E-002, 4.1481744E-003, 4.3108647E-003, 4.4597709E+002
 7.8009350E+001, 2.1742790E-003, 1.9191116E-001, 1.0024539E-001, 1.5409690E-002, 4.7261411E-003, 4.4567323E-003, 4.4060175E+002
 7.9002692E+001, 2.1962401E-003, 1.9091053E-001, 1.0052105E-001, 1.6132620E-002, 4.9772874E-003, 4.6057023E-003, 4.4097949E+002
 8.0010534E+001, 2.1426729E-003, 1.9097898E-001, 1.0052901E-001, 1.6111463E-002, 5.0159693E-003, 4.6015788E-003, 4.4209580E+002
 8.1004629E+001, 2.4049840E-003, 1.9011827E-001, 1.0056593E-001, 1.6525635E-002, 5.4206593E-003, 4.6851936E-003, 4.3827697E+002
 8.2002494E+001, 2.2151791E-003, 1.8940336E-001, 1.0086299E-001, 1.7148060E-002, 5.8550606E-003, 4.8143371E-003, 4.3997749E+002
 8.3009857E+001, 2.4219308E-003, 1.8863324E-001, 1.0097102E-001, 1.7594868E-002, 5.8828212E-003, 4.9054938E-003, 4.3558399E+002
 8.4005088E+001, 2.4385728E-003, 1.8756937E-001, 1.0118302E-001, 1.8281975E-002, 6.6653122E-003, 5.0464040E-003, 4.3472381E+002
 8.5003002E+001, 2.5111040E-003, 1.8755390E-001, 1.0118091E-001, 1.8284950E-002, 6.4064971E-003, 5.0469477E-003, 4.3075689E+002
 8.6002614E+001, 2.6043350E-003, 1.8762889E-001, 1.0111226E-001, 1.8180087E-002, 6.2805907E-003, 5.0249162E-003, 4.2587723E+002
 8.7007852E+001, 2.6411693E-003, 1.8645778E-001, 1.0134917E-001, 1.8939567E-002, 7.0434591E-003, 5.1806971E-003, 4.2489635E+002
 8.8005628E+001, 2.7092491E-003, 1.8606315E-001, 1.0142105E-001, 1.9186107E-002, 7.1162228E-003, 5.2311782E-003, 4.2517501E+002
 8.9006483E+001, 2.6537807E-003, 1.8549814E-001, 1.0163370E-001, 1.9653401E-002, 7.1983635E-003, 5.3279633E-003, 4.2310596E+002
 9.0002932E+001, 2.6951584E-003, 1.8404230E-001, 1.0197429E-001, 2.0644048E-002, 7.8881167E-003, 5.5315913E-003, 4.2742662E+002
 9.1006705E+001, 2.8158210E-003, 1.8368430E-001, 1.0200115E-001, 2.0827617E-002, 7.9390766E-003, 5.5687920E-003, 4.2682605E+002
 9.2001576E+001, 2.7496984E-003, 1.8286251E-001, 1.0226477E-001, 2.1460923E-002, 8.2724205E-003, 5.6996241E-003, 4.2546680E+002
 9.3008491E+001, 2.8360713E-003, 1.8237837E-001, 1.0236913E-001, 2.1779592E-002, 8.2525983E-003, 5.7650306E-003, 4.2238605E+002
 9.4000081E+001, 2.8252540E-003, 1.8170472E-001, 1.0256053E-001, 2.2272782E-002, 8.4934678E-003, 5.8667137E-003, 4.1969688E+002
 9.5009214E+001, 3.0784613E-003, 1.8113711E-001, 1.0255602E-001, 2.2514861E-002, 8.5993343E-003, 5.9151963E-003, 4.1981473E+002
 9.6003948E+001, 3.0002508E-003, 1.8045728E-001, 1.0263281E-001, 2.2897039E-002, 9.8225326E-003, 5.9930443E-003, 4.2114369E+002
 9.7008364E+001, 3.0083736E-003, 1.7986780E-001, 1.0285564E-001, 2.3383912E-002, 9.6272707E-003, 6.0938787E-003, 4.1834483E+002
 9.8011425E+001, 2.9140050E-003, 1.7937620E-001, 1.0305717E-001, 2.3808253E-002, 9.7917574E-003, 6.1818972E-003, 4.1914984E+002
 9.9004294E+001, 3.0780160E-003, 1.7829051E-001, 1.0326532E-001, 2.4497566E-002, 1.0026510E-002, 6.3231470E-003, 4.1718367E+002
 1.0000167E+002, 3.1539175E-003, 1.7756576E-001, 1.0344146E-001, 2.4995998E-002, 1.0099719E-002, 6.4256454E-003, 4.1639914E+002
 1.0101034E+002, 3.1421827E-003, 1.7778149E-001, 1.0335698E-001, 2.4815090E-002, 1.0225307E-002, 6.3881585E-003, 4.1759963E+002
 1.0200927E+002, 3.0151527E-003, 1.7629250E-001, 1.0404743E-001, 2.6177060E-002, 9.5802388E-003, 6.6711948E-003, 4.2092352E+002
 1.0300986E+002, 2.9983231E-003, 1.7567617E-001, 1.0413643E-001, 2.6541724E-002, 1.0347192E-002, 6.7456686E-003, 4.1658039E+002
 1.0400121E+002, 3.2660983E-003, 1.7535223E-001, 1.0397604E-001, 2.6517866E-002, 1.0842423E-002, 6.7386034E-003, 4.1318617E+002
 1.0501140E+002, 3.2106100E-003, 1.7324100E-001, 1.0491885E-001, 2.8409488E-002, 9.6255824E-003, 7.1314471E-003, 4.1560635E+002
 1.0600293E+002, 3.4588586E-003, 1.7219898E-001, 1.0496066E-001, 2.8909719E-002, 1.0421831E-002, 7.2324222E-003, 4.1231354E+002
 1.0700801E+002, 4.0021211E-003, 1.7054426E-001, 1.0517169E-001, 2.9846062E-002, 1.0195364E-002, 7.4232055E-003, 4.0631824E+002
 1.0800474E+002, 4.8119908E-003, 1.7063126E-001, 1.0478260E-001, 2.9395346E-002, 8.9839911E-003, 7.3270906E-003, 4.0809827E+002
 1.0900466E+002, 5.8493326E-003, 1.6975063E-001, 1.0424093E-001, 2.9216439E-002, 9.6754001E-003, 7.2834284E-003, 3.9145716E+002
 1.1000297E+002, 8.7847964E-003, 1.6756929E-001, 1.0274265E-001, 2.8606548E-002, 1.0803446E-002, 7.1395258E-003, 3.8788153E+002
 1.1100728E+002, 9.3815400E-003, 1.6481244E-001, 1.0329771E-001, 3.0379114E-002, 1.0488647E-002, 7.5029565E-003, 4.0421363E+002
 1.1201215E+002, 1.0365731E-002, 1.6416119E-001, 1.0260925E-001, 2.9951488E-002, 1.1825643E-002, 7.4073527E-003, 3.8931535E+002
 1.1300626E+002, 1.1270096E-002, 1.6457678E-001, 1.0186018E-001, 2.8989461E-002, 1.1727591E-002, 7.2035949E-003, 3.8352823E+002
 1.1400384E+002, 1.1654207E-002, 1.6347282E-001, 1.0186330E-001, 2.9474949E-002, 1.2313821E-002, 7.3010351E-003, 3.7366622E+002
 1.1501161E+002, 1.2210590E-002, 1.6262979E-001, 1.0185078E-001, 2.9824164E-002, 1.1754286E-002, 7.3708260E-003, 3.6912383E+002
 1.1600431E+002, 1.2817458E-002, 1.6358669E-001, 1.0117398E-001, 2.8701122E-002, 1.1380206E-002, 7.1358068E-003, 3.6643668E+002
 1.1700619E+002, 1.3705814E-002, 1.6209844E-001, 1.0105855E-001, 2.9225930E-002, 1.1344858E-002, 7.2393595E-003, 3.6563238E+002
 1.1800804E+002, 1.3559555E-002, 1.6102590E-001, 1.0160642E-001, 3.0259230E-002, 1.0804688E-002, 7.4544376E-003, 3.7462030E+002
 1.1900476E+002, 1.3943206E-002, 1.5915182E-001, 1.0196608E-001, 3.1446967E-002, 1.0788628E-002, 7.6977994E-003, 3.7374957E+002
 1.2000667E+002, 1.4440992E-002, 1.5791303E-001, 1.0201974E-001, 3.2040616E-002, 1.0866528E-002, 7.8176156E-003, 3.7367386E+002
 1.2100923E+002, 1.5141385E-002, 1.5570497E-001, 1.0217504E-001, 3.3163474E-002, 1.1425961E-002, 8.0450567E-003, 3.6832185E+002
 1.2200156E+002, 1.6018703E-002, 1.5407016E-001, 1.0202698E-001, 3.3720995E-002, 1.1925682E-002, 8.1547419E-003, 3.6867792E+002
 1.2300277E+002, 1.5716783E-002, 1.5435871E-001, 1.0225585E-001, 3.3830434E-002, 1.1231846E-002, 8.1799421E-003, 3.7784454E+002
 1.2401014E+002, 1.5336336E-002, 1.5355035E-001, 1.0285932E-001, 3.4807824E-002, 1.0805875E-002, 8.3846253E-003, 3.8278213E+002
 1.2500973E+002, 1.6041699E-002, 1.5218164E-001, 1.0273207E-001, 3.5272006E-002, 1.1365559E-002, 8.4759019E-003, 3.7679952E+002
 1.2600778E+002, 1.6422293E-002, 1.5032389E-001, 1.0308907E-001, 3.6449858E-002, 1.1345632E-002, 8.7172429E-003, 3.7396837E+002
 1.2701005E+002, 1.7012287E-002, 1.4959547E-001, 1.0284164E-001, 3.6510576E-002, 1.1829066E-002, 8.7258735E-003, 3.6935107E+002
 1.2800009E+002, 1.6776594E-002, 1.4900367E-001, 1.0326213E-001, 3.7203605E-002, 1.1466710E-002, 8.8708938E-003, 3.7435524E+002
 1.2900312E+002, 1.7222269E-002, 1.4871585E-001, 1.0305340E-001, 3.7110564E-002, 1.1438662E-002, 8.8492112E-003, 3.7386842E+002
 1.3000550E+002, 1.8028031E-002, 1.4758532E-001, 1.0278537E-001, 3.7324353E-002, 1.1949998E-002, 8.8882377E-003, 3.7240453E+002
 1.3101036E+002, 1.8862129E-002, 1.4448496E-001, 1.0311750E-001, 3.9019556E-002, 1.2672370E-002, 9.2330155E-003, 3.7350677E+002
 1.3200856E+002, 1.8662646E-002, 1.4374035E-001, 1.0351424E-001, 3.9755851E-002, 1.2607207E-002, 9.3863925E-003, 3.7093890E+002
 1.3300796E+002, 1.8458688E-002, 1.4277078E-001, 1.0399353E-001, 4.0675628E-002, 1.2514107E-002, 9.5777529E-003, 3.7707307E+002
 1.3400597E+002, 1.8113054E-002, 1.4342936E-001, 1.0400872E-001, 4.0406064E-002, 1.2547571E-002, 9.5239260E-003, 3.7856051E+002
 1.3500776E+002, 1.7925332E-002, 1.4290699E-001, 1.0429315E-001, 4.0929928E-002, 1.2664388E-002, 9.6330968E-003, 3.8187964E+002
 1.3600489E+002, 1.8175921E-002, 1.4148026E-001, 1.0462996E-001, 4.1898629E-002, 1.2446350E-002, 9.8321916E-003, 3.7828584E+002
 1.3700366E+002, 1.8862496E-002, 1.4087039E-001, 1.0429181E-001, 4.1812765E-002, 1.2835572E-002, 9.8101086E-003, 3.7688952E+002
 1.3800180E+002, 1.9230313E-002, 1.3900767E-001, 1.0459061E-001, 4.2934529E-002, 1.3228701E-002, 1.0039396E-002, 3.7431969E+002
 1.3900085E+002, 1.9586133E-002, 1.3712729E-001, 1.0493052E-001, 4.4105854E-002, 1.3460050E-002, 1.0279202E-002, 3.7225198E+002
 1.4000804E+002, 2.0175639E-002, 1.3650859E-001, 1.0465696E-001, 4.4091384E-002, 1.3883308E-002, 1.0272373E-002, 3.7098313E+002
 1.4100038E+002, 2.0574127E-002, 1.3504661E-001, 1.0485527E-001, 4.4932624E-002, 1.3951760E-002, 1.0443928E-002, 3.6955788E+002
 1.4200205E+002, 2.0878388E-002, 1.3346665E-001, 1.0509083E-001, 4.5866289E-002, 1.4424868E-002, 1.0634590E-002, 3.7071369E+002
 1.4300431E+002, 2.0804284E-002, 1.3253229E-001, 1.0547381E-001, 4.6670156E-002, 1.4299009E-002, 1.0801311E-002, 3.6993936E+002
 1.4400336E+002, 2.0272989E-002, 1.3389577E-001, 1.0546247E-001, 4.6064411E-002, 1.3857135E-002, 1.0679652E-002, 3.7643726E+002
 1.4500016E+002, 1.9908691E-002, 1.3347743E-001, 1.0588708E-001, 4.6687481E-002, 1.3659549E-002, 1.0810719E-002, 3.8135477E+002
 1.4601107E+002, 1.9634801E-002, 1.3237283E-001, 1.0649965E-001, 4.7803402E-002, 1.3326605E-002, 1.1043318E-002, 3.8530217E+002
 1.4700841E+002, 1.9804994E-002, 1.3213913E-001, 1.0641979E-001, 4.7822870E-002, 1.3564213E-002, 1.1046085E-002, 3.8414523E+002
 1.4800763E+002, 2.0116720E-002, 1.3020978E-001, 1.0678174E-001, 4.9039309E-002, 1.3944768E-002, 1.1295269E-002, 3.7786080E+002
 1.4900861E+002, 2.0701223E-002, 1.2985722E-001, 1.0632898E-001, 4.8725897E-002, 1.4934253E-002, 1.1225952E-002, 3.7354334E+002
 1.5000780E+002, 2.0636831E-002, 1.2932555E-001, 1.0663730E-001, 4.9274915E-002, 1.4411832E-002, 1.1340457E-002, 3.7411699E+002
 1.5100902E+002, 2.0300288E-002, 1.2960941E-001, 1.0684575E-001, 4.9366727E-002, 1.3994538E-002, 1.1361851E-002, 3.7865454E+002
 1.5200677E+002, 2.0626582E-002, 1.2755837E-001, 1.0723157E-001, 5.0661069E-002, 1.4414073E-002, 1.1627005E-002, 3.8057544E+002
 1.5300899E+002, 2.1286487E-002, 1.2615199E-001, 1.0716981E-001, 5.1209127E-002, 1.4844859E-002, 1.1736037E-002, 3.7862668E+002
 1.5400896E+002, 2.0566807E-002, 1.2586402E-001, 1.0779349E-001, 5.1983421E-002, 1.4671640E-002, 1.1900312E-002, 3.8334318E+002
