s,,,,,,,
Time,"O2 EXHAUST","CO2 EXHAUST","H2O EXHAUST","CO EXHAUST","FUEL EXHAUST","SOOT EXHAUST","TEMP EXHAUST"
 0.0000000E+000, 2.3099739E-001, 5.9146498E-004, 5.9412091E-003, 0.0000000E+000, 0.0000000E+000, 0.0000000E+000, 2.0000000E+001
 1.0024450E+000, 2.3099739E-001, 5.9146498E-004, 5.9412091E-003, 2.0422151E-030, 2.4138712E-029, 6.2322138E-031, 2.0337964E+001
 2.0005984E+000, 2.2397172E-001, 6.0725666E-003, 1.0519095E-002, 1.1526787E-005, 1.8584032E-004, 3.4278234E-005, 9.0714549E+001
 3.0050861E+000, 2.2036878E-001, 8.8888830E-003, 1.2883454E-002, 2.3604672E-005, 2.0298849E-004, 5.3222716E-005, 1.2362473E+002
 4.0040114E+000, 2.1545662E-001, 1.2723463E-002, 1.6096484E-002, 3.6949268E-005, 2.7881894E-004, 7.8346131E-005, 1.6974478E+002
 5.0035394E+000, 2.1052795E-001, 1.6575907E-002, 1.9324435E-002, 5.0254864E-005, 3.2827612E-004, 1.0356461E-004, 2.1182131E+002
 6.0046957E+000, 2.0643574E-001, 1.9806925E-002, 2.2005807E-002, 4.7600885E-005, 2.9885129E-004, 1.2172612E-004, 2.4304244E+002
 7.0008094E+000, 2.0286611E-001, 2.2617490E-002, 2.4345993E-002, 4.9393368E-005, 2.8409183E-004, 1.3841167E-004, 2.7133755E+002
 8.0004666E+000, 1.9894595E-001, 2.5719705E-002, 2.6918443E-002, 4.5693645E-005, 2.2637539E-004, 1.5559991E-004, 2.9528667E+002
 9.0022097E+000, 1.9340566E-001, 3.0105156E-002, 3.0553472E-002, 3.9665035E-005, 1.4469941E-004, 1.7972533E-004, 3.3039429E+002
 1.0002526E+001, 1.8728150E-001, 3.4948371E-002, 3.4570212E-002, 3.4245193E-005, 6.8866931E-005, 2.0663695E-004, 3.6002902E+002
 1.1004541E+001, 1.8074839E-001, 4.0106969E-002, 3.8853186E-002, 3.0997549E-005, 1.2208645E-005, 2.3584746E-004, 3.8771700E+002
 1.2006758E+001, 1.7548366E-001, 4.4251893E-002, 4.2302343E-002, 3.2582099E-005, 3.1291651E-007, 2.6022564E-004, 4.0554844E+002
 1.3000614E+001, 1.7157172E-001, 4.7328666E-002, 4.4864653E-002, 3.4836006E-005, 3.1329205E-008, 2.7855475E-004, 4.1657341E+002
 1.4001555E+001, 1.6627693E-001, 5.1492878E-002, 4.8332727E-002, 3.7968718E-005, 4.9947602E-008, 3.0337979E-004, 4.2902067E+002
 1.5001974E+001, 1.6298477E-001, 5.4082142E-002, 5.0489060E-002, 3.9875615E-005, 2.5423553E-008, 3.1880688E-004, 4.3364386E+002
 1.6007797E+001, 1.5782023E-001, 5.8143960E-002, 5.3871801E-002, 4.2902147E-005, 2.8241511E-008, 3.4301519E-004, 4.4345860E+002
 1.7002783E+001, 1.5305873E-001, 6.1888742E-002, 5.6990573E-002, 4.5725226E-005, 5.0580611E-008, 3.6534107E-004, 4.5743614E+002
 1.8001150E+001, 1.5126767E-001, 6.3297407E-002, 5.8163696E-002, 4.6756891E-005, 2.9434193E-008, 3.7373279E-004, 4.4906843E+002
 1.9005050E+001, 1.4806387E-001, 6.5817147E-002, 6.0262158E-002, 4.8627197E-005, 3.3386678E-008, 3.8874880E-004, 4.5177675E+002
 2.0001509E+001, 1.4437152E-001, 6.8721137E-002, 6.2680620E-002, 5.0778469E-005, 2.1990241E-008, 4.0605378E-004, 4.5612907E+002
 2.1007081E+001, 1.4222019E-001, 7.0413095E-002, 6.4089728E-002, 5.2050162E-005, 3.7900180E-008, 4.1614018E-004, 4.5874559E+002
 2.2005453E+001, 1.3944729E-001, 7.2593945E-002, 6.5905955E-002, 5.3666417E-005, 2.4620897E-008, 4.2913609E-004, 4.6059834E+002
 2.3007259E+001, 1.3816144E-001, 7.3605254E-002, 6.6748180E-002, 5.4416298E-005, 2.7708533E-008, 4.3516266E-004, 4.5927932E+002
 2.4004249E+001, 1.3604163E-001, 7.5272415E-002, 6.8136654E-002, 5.5678013E-005, 3.4035138E-008, 4.4510311E-004, 4.5717893E+002
 2.5001604E+001, 1.3407193E-001, 7.6821564E-002, 6.9426791E-002, 5.6823559E-005, 2.7770047E-008, 4.5433410E-004, 4.6004463E+002
 2.6008174E+001, 1.3318784E-001, 7.7516893E-002, 7.0005859E-002, 5.7335330E-005, 2.0631006E-008, 4.5847686E-004, 4.5613719E+002
 2.7005045E+001, 1.3231311E-001, 7.8204865E-002, 7.0578799E-002, 5.7841121E-005, 1.9822851E-008, 4.6257568E-004, 4.5554395E+002
 2.8002028E+001, 1.3077231E-001, 7.9416686E-002, 7.1588012E-002, 5.8738986E-005, 1.6819419E-008, 4.6979700E-004, 4.5520293E+002
 2.9005716E+001, 1.2939934E-001, 8.0496476E-002, 7.2487306E-002, 5.9558800E-005, 2.4207257E-008, 4.7623581E-004, 4.5487765E+002
 3.0002346E+001, 1.2810383E-001, 8.1515381E-002, 7.3335848E-002, 6.0309228E-005, 2.3655307E-008, 4.8230655E-004, 4.5564330E+002
 3.1004067E+001, 1.2703140E-001, 8.2358823E-002, 7.4038292E-002, 6.0944842E-005, 2.8859847E-008, 4.8733499E-004, 4.5610376E+002
 3.2000113E+001, 1.2542379E-001, 8.3623183E-002, 7.5091257E-002, 6.1880552E-005, 2.4658183E-008, 4.9486915E-004, 4.5478675E+002
 3.3005221E+001, 1.2314377E-001, 8.5416370E-002, 7.6584658E-002, 6.3220903E-005, 3.0676974E-008, 5.0555741E-004, 4.5702491E+002
 3.4005989E+001, 1.2237672E-001, 8.6019667E-002, 7.7087070E-002, 6.3658506E-005, 1.8297448E-008, 5.0915046E-004, 4.5099995E+002
 3.5005519E+001, 1.1969514E-001, 8.8128647E-002, 7.8843499E-002, 6.5250538E-005, 3.5513261E-008, 5.2172438E-004, 4.5950858E+002
 3.6003524E+001, 1.1839660E-001, 8.9149946E-002, 7.9694023E-002, 6.5996559E-005, 1.8622384E-008, 5.2780805E-004, 4.5743179E+002
 3.7003746E+001, 1.1771925E-001, 8.9682679E-002, 8.0137677E-002, 6.6386555E-005, 1.5328726E-008, 5.3098161E-004, 4.5181345E+002
 3.8007256E+001, 1.1631922E-001, 9.0783714E-002, 8.1054714E-002, 6.7248407E-005, 5.7739549E-008, 5.3755272E-004, 4.5659031E+002
 3.9007652E+001, 1.1542987E-001, 9.1483196E-002, 8.1637223E-002, 6.7754119E-005, 3.8940853E-008, 5.4171826E-004, 4.5677473E+002
 4.0003873E+001, 1.1387364E-001, 9.2707140E-002, 8.2656542E-002, 6.8666477E-005, 4.3771858E-008, 5.4901301E-004, 4.5364005E+002
 4.1000945E+001, 1.1320334E-001, 9.3234348E-002, 8.3095576E-002, 6.9042029E-005, 2.2255813E-008, 5.5215141E-004, 4.5507415E+002
 4.2003494E+001, 1.1222917E-001, 9.4000525E-002, 8.3733649E-002, 6.9607341E-005, 1.7888132E-008, 5.5671660E-004, 4.5718305E+002
 4.3002233E+001, 1.1021097E-001, 9.5587790E-002, 8.5055558E-002, 7.0796322E-005, 2.6771496E-008, 5.6617801E-004, 4.5542977E+002
 4.4003847E+001, 1.1000066E-001, 9.5753199E-002, 8.5193313E-002, 7.0919215E-005, 2.4645464E-008, 5.6716377E-004, 4.5524906E+002
 4.5004676E+001, 1.0857208E-001, 9.6876755E-002, 8.6129026E-002, 7.1756165E-005, 2.2046962E-008, 5.7386007E-004, 4.5709545E+002
 4.6000816E+001, 1.0694128E-001, 9.8159301E-002, 8.7197201E-002, 7.2738900E-005, 4.6740488E-008, 5.8150987E-004, 4.5958437E+002
 4.7005744E+001, 1.0636396E-001, 9.8613396E-002, 8.7575333E-002, 7.3053785E-005, 2.8039954E-008, 5.8421118E-004, 4.5345571E+002
 4.8000489E+001, 1.0562935E-001, 9.9191146E-002, 8.8056500E-002, 7.3488658E-005, 4.1045937E-008, 5.8765551E-004, 4.5609913E+002
 4.9002514E+001, 1.0602348E-001, 9.8881196E-002, 8.7798331E-002, 7.3237964E-005, 1.4211865E-008, 5.8580394E-004, 4.4935094E+002
 5.0006281E+001, 1.0489674E-001, 9.9767332E-002, 8.8536354E-002, 7.3917021E-005, 3.0914208E-008, 5.9108935E-004, 4.5563665E+002
 5.1005694E+001, 1.0344160E-001, 1.0091179E-001, 8.9489454E-002, 7.4759307E-005, 1.8583020E-008, 5.9790801E-004, 4.5266786E+002
 5.2005253E+001, 1.0257134E-001, 1.0159622E-001, 9.0059472E-002, 7.5274344E-005, 2.2961335E-008, 6.0198832E-004, 4.5410374E+002
 5.3007730E+001, 1.0186912E-001, 1.0214851E-001, 9.0519423E-002, 7.5686070E-005, 2.6335979E-008, 6.0527996E-004, 4.5548575E+002
 5.4005032E+001, 1.0115565E-001, 1.0270962E-001, 9.0986746E-002, 7.6114721E-005, 3.2195140E-008, 6.0862647E-004, 4.5375925E+002
 5.5005097E+001, 1.0072628E-001, 1.0304734E-001, 9.1267976E-002, 7.6352699E-005, 2.3786294E-008, 6.1063629E-004, 4.5361782E+002
 5.6007195E+001, 1.0031054E-001, 1.0337433E-001, 9.1540275E-002, 7.6585826E-005, 1.1541448E-008, 6.1258285E-004, 4.4955113E+002
 5.7001880E+001, 1.0024814E-001, 1.0342337E-001, 9.1581153E-002, 7.6638506E-005, 3.2940622E-008, 6.1287866E-004, 4.4957588E+002
 5.8003756E+001, 9.8882850E-002, 1.0449715E-001, 9.2475410E-002, 7.7439593E-005, 3.9480757E-008, 6.1927854E-004, 4.5532496E+002
 5.9001366E+001, 9.7449629E-002, 1.0562431E-001, 9.3414177E-002, 7.8304444E-005, 4.6870454E-008, 6.2600182E-004, 4.5754666E+002
 6.0000855E+001, 9.7043358E-002, 1.0594388E-001, 9.3680265E-002, 7.8516713E-005, 4.0414348E-008, 6.2790081E-004, 4.5333762E+002
 6.1005115E+001, 9.6254370E-002, 1.0656439E-001, 9.4197054E-002, 7.8987933E-005, 3.7029571E-008, 6.3160097E-004, 4.5625735E+002
 6.2004056E+001, 9.6121085E-002, 1.0666923E-001, 9.4284350E-002, 7.9058116E-005, 3.2988987E-008, 6.3222408E-004, 4.5635014E+002
 6.3004432E+001, 9.4636507E-002, 1.0783679E-001, 9.5256753E-002, 7.9949707E-005, 3.9935052E-008, 6.3918739E-004, 4.5531417E+002
 6.4004158E+001, 9.5219475E-002, 1.0737832E-001, 9.4874901E-002, 7.9590671E-005, 3.7153626E-008, 6.3645117E-004, 4.5467024E+002
 6.5004474E+001, 9.3861118E-002, 1.0844665E-001, 9.5764614E-002, 8.0382770E-005, 2.8870887E-008, 6.4281753E-004, 4.5654214E+002
 6.6004540E+001, 9.3061218E-002, 1.0907573E-001, 9.6288556E-002, 8.0871308E-005, 4.1896351E-008, 6.4657109E-004, 4.5828642E+002
 6.7001660E+001, 9.3268760E-002, 1.0891250E-001, 9.6152620E-002, 8.0753026E-005, 3.6883003E-008, 6.4559896E-004, 4.5574134E+002
 6.8008769E+001, 9.2866504E-002, 1.0922891E-001, 9.6416074E-002, 8.0955274E-005, 2.3403498E-008, 6.4747754E-004, 4.5196868E+002
 6.9001866E+001, 9.2619480E-002, 1.0942318E-001, 9.6577879E-002, 8.1110126E-005, 3.0563676E-008, 6.4863754E-004, 4.5370555E+002
 7.0004913E+001, 9.1984569E-002, 1.0992252E-001, 9.6993742E-002, 8.1481676E-005, 2.8148485E-008, 6.5161352E-004, 4.5717757E+002
 7.1002113E+001, 9.1452138E-002, 1.1034123E-001, 9.7342496E-002, 8.1822038E-005, 5.8613668E-008, 6.5411511E-004, 4.5482213E+002
 7.2001457E+001, 9.1668898E-002, 1.1017082E-001, 9.7200497E-002, 8.1653260E-005, 1.5058011E-008, 6.5309042E-004, 4.5081781E+002
 7.3001474E+001, 9.0824744E-002, 1.1083468E-001, 9.7753430E-002, 8.2177577E-005, 4.0619289E-008, 6.5705346E-004, 4.5234180E+002
 7.4000440E+001, 9.0478268E-002, 1.1110716E-001, 9.7980375E-002, 8.2390895E-005, 5.2269963E-008, 6.5867966E-004, 4.5492567E+002
 7.5008145E+001, 9.0276480E-002, 1.1126590E-001, 9.8112529E-002, 8.2482510E-005, 3.2461053E-008, 6.5962000E-004, 4.5214909E+002
 7.6004789E+001, 8.9537950E-002, 1.1184674E-001, 9.8596264E-002, 8.2920647E-005, 4.0789894E-008, 6.6308289E-004, 4.5609598E+002
 7.7003528E+001, 8.9043894E-002, 1.1223529E-001, 9.8919876E-002, 8.3220572E-005, 3.7813289E-008, 6.6540090E-004, 4.5568946E+002
 7.8003716E+001, 8.8588698E-002, 1.1259329E-001, 9.9218026E-002, 8.3488287E-005, 4.3866985E-008, 6.6753479E-004, 4.5525050E+002
 7.9004726E+001, 8.8666561E-002, 1.1253208E-001, 9.9167018E-002, 8.3427550E-005, 2.8424447E-008, 6.6716668E-004, 4.5513548E+002
 8.0004499E+001, 8.7881971E-002, 1.1314914E-001, 9.9680918E-002, 8.3887352E-005, 3.1967896E-008, 6.7084438E-004, 4.5325304E+002
 8.1001815E+001, 8.7286888E-002, 1.1361711E-001, 1.0007071E-001, 8.4271041E-005, 7.4377158E-008, 6.7364100E-004, 4.5574294E+002
 8.2002971E+001, 8.7775877E-002, 1.1323258E-001, 9.9750408E-002, 8.3948396E-005, 3.2828181E-008, 6.7134145E-004, 4.5660577E+002
 8.3001651E+001, 8.7770298E-002, 1.1323698E-001, 9.9754059E-002, 8.3944199E-005, 2.0995434E-008, 6.7136606E-004, 4.5531018E+002
 8.4004302E+001, 8.7244377E-002, 1.1365059E-001, 1.0009854E-001, 8.4265235E-005, 2.9523705E-008, 6.7383392E-004, 4.5578159E+002
 8.5001601E+001, 8.5781783E-002, 1.1480085E-001, 1.0105655E-001, 8.5152486E-005, 5.7558249E-008, 6.8069595E-004, 4.5622441E+002
 8.6006425E+001, 8.6294388E-002, 1.1439771E-001, 1.0072079E-001, 8.4842257E-005, 4.2457208E-008, 6.7829112E-004, 4.5636234E+002
 8.7002080E+001, 8.6050323E-002, 1.1458970E-001, 1.0088064E-001, 8.4963698E-005, 2.8111159E-008, 6.7943068E-004, 4.5513172E+002
 8.8004632E+001, 8.5475457E-002, 1.1504184E-001, 1.0125716E-001, 8.5287832E-005, 2.0104839E-008, 6.8212266E-004, 4.5437285E+002
 8.9000096E+001, 8.5452166E-002, 1.1506011E-001, 1.0127243E-001, 8.5328527E-005, 5.9326825E-008, 6.8223743E-004, 4.5512475E+002
 9.0007575E+001, 8.4970054E-002, 1.1543928E-001, 1.0158822E-001, 8.5612827E-005, 3.8054928E-008, 6.8449767E-004, 4.5584206E+002
 9.1002398E+001, 8.4789440E-002, 1.1558138E-001, 1.0170650E-001, 8.5688029E-005, 2.2347214E-008, 6.8533793E-004, 4.5439054E+002
 9.2003535E+001, 8.4879456E-002, 1.1551055E-001, 1.0164755E-001, 8.5652708E-005, 4.4358076E-008, 6.8491959E-004, 4.5481583E+002
 9.3006348E+001, 8.4151496E-002, 1.1608311E-001, 1.0212435E-001, 8.6063433E-005, 1.9484709E-008, 6.8832856E-004, 4.5189246E+002
 9.4002626E+001, 8.2772916E-002, 1.1716730E-001, 1.0302733E-001, 8.6897798E-005, 4.4373163E-008, 6.9479601E-004, 4.5947967E+002
 9.5001929E+001, 8.2968814E-002, 1.1701326E-001, 1.0289900E-001, 8.6759269E-005, 2.2766692E-008, 6.9387284E-004, 4.4959855E+002
 9.6005773E+001, 8.3074344E-002, 1.1693022E-001, 1.0282989E-001, 8.6725651E-005, 5.5142189E-008, 6.9338402E-004, 4.5771703E+002
 9.7005796E+001, 8.3008170E-002, 1.1698232E-001, 1.0287322E-001, 8.6732304E-005, 2.3708415E-008, 6.9368755E-004, 4.5251851E+002
 9.8002138E+001, 8.3413370E-002, 1.1666361E-001, 1.0260783E-001, 8.6510379E-005, 4.1469838E-008, 6.9179143E-004, 4.5323969E+002
 9.9001977E+001, 8.3274978E-002, 1.1677243E-001, 1.0269848E-001, 8.6604873E-005, 4.1141540E-008, 6.9244291E-004, 4.5593082E+002
 1.0000219E+002, 8.3860943E-002, 1.1631162E-001, 1.0231466E-001, 8.6235707E-005, 2.7110693E-008, 6.8969091E-004, 4.5468181E+002
 1.0100423E+002, 8.2601004E-002, 1.1730252E-001, 1.0313992E-001, 8.6985691E-005, 3.5221060E-008, 6.9559917E-004, 4.5672743E+002
 1.0200017E+002, 8.2604119E-002, 1.1730006E-001, 1.0313789E-001, 8.6993458E-005, 3.9716152E-008, 6.9558656E-004, 4.5621482E+002
 1.0300356E+002, 8.1590393E-002, 1.1809733E-001, 1.0380187E-001, 8.7592309E-005, 4.0104705E-008, 7.0033931E-004, 4.5496892E+002
 1.0400166E+002, 8.1989168E-002, 1.1778373E-001, 1.0354067E-001, 8.7337573E-005, 2.2106054E-008, 6.9846572E-004, 4.5119632E+002
 1.0500485E+002, 8.2966474E-002, 1.1701509E-001, 1.0290054E-001, 8.6767645E-005, 2.9660303E-008, 6.9388526E-004, 4.5340759E+002
 1.0600745E+002, 8.2337679E-002, 1.1750964E-001, 1.0331239E-001, 8.7126400E-005, 2.1296208E-008, 6.9683066E-004, 4.5273912E+002
 1.0700538E+002, 8.2742144E-002, 1.1719154E-001, 1.0304747E-001, 8.6890184E-005, 2.0448839E-008, 6.9493494E-004, 4.5411948E+002
 1.0800448E+002, 8.2186927E-002, 1.1762818E-001, 1.0341114E-001, 8.7229832E-005, 3.7075660E-008, 6.9754043E-004, 4.5214788E+002
 1.0900061E+002, 8.1595785E-002, 1.1809309E-001, 1.0379834E-001, 8.7585862E-005, 5.2513194E-008, 7.0031333E-004, 4.5542340E+002
 1.1000916E+002, 8.1111083E-002, 1.1847434E-001, 1.0411580E-001, 8.7844099E-005, 2.8911502E-008, 7.0257998E-004, 4.5331944E+002
 1.1100423E+002, 8.1089302E-002, 1.1849146E-001, 1.0413007E-001, 8.7860115E-005, 3.1039323E-008, 7.0268275E-004, 4.5366591E+002
 1.1200564E+002, 8.0398163E-002, 1.1903504E-001, 1.0458276E-001, 8.8259727E-005, 1.7983092E-008, 7.0592129E-004, 4.5007407E+002
 1.1300320E+002, 8.0616954E-002, 1.1886293E-001, 1.0443947E-001, 8.8158797E-005, 3.7686280E-008, 7.0490139E-004, 4.5393080E+002
 1.1400506E+002, 8.1812566E-002, 1.1792264E-001, 1.0365633E-001, 8.7433235E-005, 2.3822924E-008, 6.9929189E-004, 4.5362147E+002
 1.1500295E+002, 8.1506049E-002, 1.1816370E-001, 1.0385710E-001, 8.7614952E-005, 2.3351494E-008, 7.0072910E-004, 4.5269122E+002
 1.1600400E+002, 8.0398078E-002, 1.1903504E-001, 1.0458284E-001, 8.8302289E-005, 4.8157606E-008, 7.0593051E-004, 4.5676028E+002
 1.1700140E+002, 8.0486511E-002, 1.1896550E-001, 1.0452491E-001, 8.8242888E-005, 5.0925561E-008, 7.0551441E-004, 4.5472863E+002
 1.1800471E+002, 7.9365463E-002, 1.1984720E-001, 1.0525918E-001, 8.8891964E-005, 5.0239289E-008, 7.1076758E-004, 4.5315217E+002
 1.1900174E+002, 7.9837131E-002, 1.1947622E-001, 1.0495025E-001, 8.8624588E-005, 6.2427010E-008, 7.0855854E-004, 4.5865497E+002
 1.2000430E+002, 7.9154998E-002, 1.2001272E-001, 1.0539704E-001, 8.9017991E-005, 4.6210772E-008, 7.1175468E-004, 4.5616013E+002
 1.2100386E+002, 7.9145249E-002, 1.2002037E-001, 1.0540343E-001, 8.9032882E-005, 6.6964634E-008, 7.1180226E-004, 4.5752056E+002
 1.2200532E+002, 7.9748074E-002, 1.1954628E-001, 1.0500858E-001, 8.8668180E-005, 4.8933965E-008, 7.0897421E-004, 4.5470260E+002
 1.2300057E+002, 7.9596371E-002, 1.1966558E-001, 1.0510795E-001, 8.8766813E-005, 4.4850555E-008, 7.0968734E-004, 4.5773863E+002
 1.2400111E+002, 7.9981230E-002, 1.1936291E-001, 1.0485586E-001, 8.8532763E-005, 4.7205229E-008, 7.0788157E-004, 4.5647074E+002
 1.2500042E+002, 7.9715285E-002, 1.1957207E-001, 1.0503005E-001, 8.8685934E-005, 3.4756181E-008, 7.0912762E-004, 4.4939215E+002
 1.2600762E+002, 8.0515466E-002, 1.1894278E-001, 1.0450593E-001, 8.8194400E-005, 2.4716779E-008, 7.0537215E-004, 4.5534427E+002
 1.2700032E+002, 8.0069670E-002, 1.1929336E-001, 1.0479793E-001, 8.8478230E-005, 3.6577580E-008, 7.0746646E-004, 4.5371755E+002
 1.2800485E+002, 7.9390480E-002, 1.1982751E-001, 1.0524281E-001, 8.8888037E-005, 5.6498665E-008, 7.1065254E-004, 4.5741190E+002
 1.2900328E+002, 7.9622036E-002, 1.1964542E-001, 1.0509113E-001, 8.8733452E-005, 3.5407333E-008, 7.0956323E-004, 4.5516549E+002
 1.3000297E+002, 7.9400900E-002, 1.1981936E-001, 1.0523596E-001, 8.8852965E-005, 3.1950489E-008, 7.1059769E-004, 4.5480517E+002
 1.3100366E+002, 7.9409486E-002, 1.1981256E-001, 1.0523035E-001, 8.8874080E-005, 5.7501619E-008, 7.1056286E-004, 4.5734423E+002
 1.3200550E+002, 7.9623143E-002, 1.1964446E-001, 1.0509043E-001, 8.8786490E-005, 1.1094659E-007, 7.0956914E-004, 4.5350821E+002
 1.3300478E+002, 7.9357053E-002, 1.1985380E-001, 1.0526470E-001, 8.8905175E-005, 5.9776180E-008, 7.1080871E-004, 4.5291521E+002
 1.3400370E+002, 7.9022033E-002, 1.2011719E-001, 1.0548417E-001, 8.9162523E-005, 1.2423234E-007, 7.1239172E-004, 4.5146292E+002
 1.3500044E+002, 7.8445563E-002, 1.2057057E-001, 1.0586175E-001, 8.9496987E-005, 1.2910251E-007, 7.1509316E-004, 4.5593902E+002
 1.3600044E+002, 7.8466890E-002, 1.2055385E-001, 1.0584777E-001, 8.9459483E-005, 8.6748734E-008, 7.1498804E-004, 4.5153346E+002
 1.3700489E+002, 7.7666658E-002, 1.2118312E-001, 1.0637194E-001, 8.9986436E-005, 1.5915694E-007, 7.1875104E-004, 4.5726601E+002
 1.3800162E+002, 7.7691456E-002, 1.2116329E-001, 1.0635582E-001, 9.0174539E-005, 3.6298919E-007, 7.1867676E-004, 4.5638192E+002
 1.3900292E+002, 7.7954533E-002, 1.2095674E-001, 1.0618338E-001, 8.9797893E-005, 1.3451905E-007, 7.1739755E-004, 4.5506926E+002
 1.4000640E+002, 7.8113898E-002, 1.2083140E-001, 1.0607900E-001, 8.9710160E-005, 1.2388865E-007, 7.1665173E-004, 4.5699099E+002
 1.4100011E+002, 7.7845235E-002, 1.2104261E-001, 1.0625500E-001, 8.9915440E-005, 1.9906669E-007, 7.1792094E-004, 4.5422668E+002
 1.4200511E+002, 7.9215675E-002, 1.1996493E-001, 1.0535732E-001, 8.9027968E-005, 9.7765218E-008, 7.1147968E-004, 4.5668948E+002
 1.4300590E+002, 7.8403543E-002, 1.2060346E-001, 1.0588932E-001, 8.9621139E-005, 2.6547638E-007, 7.1531070E-004, 4.5573228E+002
 1.4400310E+002, 7.7625058E-002, 1.2121501E-001, 1.0639946E-001, 9.0511533E-005, 7.7458157E-007, 7.1904960E-004, 4.5629663E+002
 1.4500650E+002, 7.7566384E-002, 1.2126079E-001, 1.0643804E-001, 9.0784724E-005, 8.9594066E-007, 7.1937419E-004, 4.5485697E+002
 1.4600071E+002, 7.7055842E-002, 1.2166324E-001, 1.0677213E-001, 9.0518402E-005, 2.9859950E-007, 7.2165025E-004, 4.5641373E+002
 1.4700419E+002, 7.7676901E-002, 1.2117485E-001, 1.0636531E-001, 9.0115330E-005, 2.7847043E-007, 7.1873098E-004, 4.5475008E+002
 1.4800587E+002, 7.8151603E-002, 1.2080178E-001, 1.0605429E-001, 8.9660985E-005, 1.0959762E-007, 7.1646937E-004, 4.5308290E+002
 1.4900849E+002, 7.8114622E-002, 1.2083089E-001, 1.0607851E-001, 8.9675617E-005, 7.1525470E-008, 7.1664130E-004, 4.5548323E+002
 1.5000596E+002, 7.8375747E-002, 1.2062556E-001, 1.0590746E-001, 8.9496532E-005, 5.8993598E-008, 7.1541188E-004, 4.5612508E+002
 1.5100097E+002, 7.9075526E-002, 1.2007518E-001, 1.0544911E-001, 8.9091434E-005, 8.6451570E-008, 7.1213274E-004, 4.5164191E+002
 1.5200493E+002, 7.8739775E-002, 1.2033921E-001, 1.0566903E-001, 8.9306819E-005, 9.7445800E-008, 7.1371041E-004, 4.5532961E+002
 1.5300234E+002, 7.8397244E-002, 1.2060861E-001, 1.0589339E-001, 8.9509071E-005, 8.0541582E-008, 7.1531633E-004, 4.5735803E+002
 1.5400168E+002, 7.8087549E-002, 1.2085202E-001, 1.0609629E-001, 8.9785935E-005, 1.8369636E-007, 7.1678774E-004, 4.5576088E+002
