s,,,,,,,
Time,"O2 EXHAUST","CO2 EXHAUST","H2O EXHAUST","CO EXHAUST","FUEL EXHAUST","SOOT EXHAUST","TEMP EXHAUST"
 0.0000000E+000, 2.3099745E-001, 5.9146511E-004, 5.9409840E-003, 0.0000000E+000, 0.0000000E+000, 0.0000000E+000, 2.0000000E+001
 1.0042790E+000, 2.3099745E-001, 5.9146511E-004, 5.9409840E-003, 1.3727664E-028, 2.0162254E-027, 4.9846800E-029, 2.0594357E+001
 2.0053006E+000, 2.1735562E-001, 1.0704687E-002, 1.1859021E-002, 2.1132634E-004, 2.1158703E-004, 1.2568807E-004, 1.4492880E+002
 3.0039716E+000, 2.0966285E-001, 1.6527058E-002, 1.5163584E-002, 2.5169252E-004, 2.9784721E-004, 1.8045837E-004, 2.1582878E+002
 4.0061937E+000, 2.0203296E-001, 2.2384378E-002, 1.8426039E-002, 2.4298191E-004, 3.1420078E-004, 2.2488594E-004, 2.7199803E+002
 5.0010176E+000, 1.9185426E-001, 3.0233973E-002, 2.2781413E-002, 2.1765727E-004, 2.4672711E-004, 2.8147070E-004, 3.4678382E+002
 6.0000226E+000, 1.8002296E-001, 3.9417862E-002, 2.7832299E-002, 1.5236367E-004, 1.2228684E-004, 3.3995701E-004, 4.1485673E+002
 7.0048203E+000, 1.6706272E-001, 4.9461926E-002, 3.3366843E-002, 8.9422188E-005, 7.2597317E-006, 4.0575346E-004, 4.6289010E+002
 8.0038974E+000, 1.5540274E-001, 5.8383605E-002, 3.8367028E-002, 1.0047592E-004, 4.4194543E-007, 4.7868637E-004, 4.8886089E+002
 9.0086599E+000, 1.4552046E-001, 6.5939232E-002, 4.2605847E-002, 1.1321811E-004, 1.6434709E-007, 5.4118363E-004, 5.0185432E+002
 1.0004766E+001, 1.3265314E-001, 7.5770785E-002, 4.8126369E-002, 1.3367333E-004, 4.0581500E-006, 6.2334490E-004, 5.3197560E+002
 1.1011486E+001, 1.2350256E-001, 8.2772533E-002, 5.2050150E-002, 1.4206038E-004, 2.0076966E-007, 6.8052047E-004, 5.3204928E+002
 1.2005362E+001, 1.1516019E-001, 8.9147994E-002, 5.5629108E-002, 1.5458242E-004, 1.4579043E-006, 7.3363887E-004, 5.3315787E+002
 1.3001402E+001, 1.0567428E-001, 9.6399892E-002, 5.9697954E-002, 1.6715212E-004, 2.2677228E-006, 7.9369732E-004, 5.4719964E+002
 1.4008112E+001, 1.0080751E-001, 1.0011649E-001, 6.1786415E-002, 1.7611827E-004, 4.8207279E-006, 8.2502343E-004, 5.4322536E+002
 1.5008013E+001, 9.4387845E-002, 1.0489810E-001, 6.4563009E-002, 2.5905492E-004, 1.1186885E-004, 8.8077582E-004, 5.4794597E+002
 1.6000435E+001, 8.5848478E-002, 1.1066355E-001, 6.8346530E-002, 7.0649031E-004, 8.6921307E-004, 1.0231767E-003, 5.5177814E+002
 1.7009932E+001, 8.2332302E-002, 1.1254610E-001, 6.9929142E-002, 1.1311852E-003, 1.9970635E-003, 1.1299579E-003, 5.4069582E+002
 1.8005576E+001, 7.9811549E-002, 1.1349796E-001, 7.1029633E-002, 1.5889679E-003, 3.8010776E-003, 1.2365428E-003, 5.3007350E+002
 1.9002215E+001, 7.8480379E-002, 1.1470655E-001, 7.1580197E-002, 1.4890493E-003, 3.5512359E-003, 1.2244782E-003, 5.2156993E+002
 2.0002671E+001, 7.9946542E-002, 1.1403982E-001, 7.0849440E-002, 1.2045400E-003, 3.2866317E-003, 1.1576461E-003, 5.1841691E+002
 2.1007918E+001, 7.9204929E-002, 1.1478454E-001, 7.1043545E-002, 1.0306774E-003, 3.7043015E-003, 1.1259177E-003, 5.1570775E+002
 2.2009836E+001, 7.8718064E-002, 1.1378471E-001, 7.1231577E-002, 1.6340953E-003, 6.5386751E-003, 1.2485871E-003, 4.9362982E+002
 2.3004133E+001, 7.9905181E-002, 1.1163949E-001, 7.0599006E-002, 2.0963875E-003, 9.7433938E-003, 1.3316665E-003, 4.5401076E+002
 2.4008987E+001, 8.1080514E-002, 1.1069216E-001, 7.0051422E-002, 2.0836588E-003, 1.0108619E-002, 1.3214238E-003, 4.2801172E+002
 2.5009364E+001, 8.0260159E-002, 1.1173339E-001, 7.0408727E-002, 1.9021819E-003, 9.2585826E-003, 1.2903864E-003, 4.2388204E+002
 2.6007350E+001, 7.9503321E-002, 1.1236096E-001, 7.0637835E-002, 1.8081528E-003, 9.7538379E-003, 1.2750057E-003, 4.1368466E+002
 2.7006497E+001, 7.9578603E-002, 1.1206050E-001, 7.0510570E-002, 1.8450549E-003, 1.0821141E-002, 1.2806196E-003, 4.0096192E+002
 2.8007377E+001, 7.9786134E-002, 1.1159621E-001, 7.0275923E-002, 1.8713845E-003, 1.2325928E-002, 1.2826525E-003, 3.8949358E+002
 2.9003602E+001, 8.0584537E-002, 1.1058880E-001, 6.9798310E-002, 1.9461481E-003, 1.3945973E-002, 1.2908713E-003, 3.7814273E+002
 3.0012377E+001, 8.1585706E-002, 1.0937098E-001, 6.9272078E-002, 2.0749099E-003, 1.5437642E-002, 1.3091095E-003, 3.6430872E+002
 3.1000475E+001, 8.1934024E-002, 1.0866807E-001, 6.9176267E-002, 2.3122553E-003, 1.5966584E-002, 1.3549086E-003, 3.6097066E+002
 3.2012749E+001, 8.2114112E-002, 1.0848221E-001, 6.9181384E-002, 2.3966362E-003, 1.5551366E-002, 1.3716947E-003, 3.5189021E+002
 3.3010442E+001, 8.2610690E-002, 1.0798272E-001, 6.9024384E-002, 2.4927879E-003, 1.5440762E-002, 1.3885492E-003, 3.4439479E+002
 3.4003740E+001, 8.4065170E-002, 1.0617655E-001, 6.8214437E-002, 2.6618067E-003, 1.7962223E-002, 1.4108506E-003, 3.3162878E+002
 3.5003636E+001, 8.4432060E-002, 1.0575438E-001, 6.8036064E-002, 2.7091682E-003, 1.8371657E-002, 1.4177622E-003, 3.1998807E+002
 3.6010723E+001, 8.5430271E-002, 1.0418442E-001, 6.7550952E-002, 3.0281692E-003, 2.0315298E-002, 1.4743802E-003, 3.1096891E+002
 3.7006316E+001, 8.6233806E-002, 1.0320579E-001, 6.7123273E-002, 3.1279919E-003, 2.1547898E-002, 1.4882469E-003, 3.1416259E+002
 3.8001261E+001, 8.7743374E-002, 1.0115291E-001, 6.6467025E-002, 3.5246089E-003, 2.3374315E-002, 1.5578397E-003, 3.0676424E+002
 3.9002228E+001, 8.7602117E-002, 1.0122843E-001, 6.6501658E-002, 3.5196140E-003, 2.3599146E-002, 1.5573572E-003, 3.0382465E+002
 4.0003966E+001, 8.8068767E-002, 1.0094930E-001, 6.6164026E-002, 3.3790201E-003, 2.4297626E-002, 1.5247331E-003, 2.9429215E+002
 4.1013522E+001, 8.9105431E-002, 9.9958070E-002, 6.5576934E-002, 3.3584778E-003, 2.5571666E-002, 1.5124570E-003, 2.8297805E+002
 4.2006619E+001, 9.1112005E-002, 9.7397910E-002, 6.4435005E-002, 3.6037529E-003, 2.9337111E-002, 1.5453023E-003, 2.8240981E+002
 4.3012531E+001, 9.1241129E-002, 9.7074728E-002, 6.4284661E-002, 3.6322817E-003, 3.0367954E-002, 1.5489246E-003, 2.8452647E+002
 4.4001807E+001, 9.1098128E-002, 9.7093988E-002, 6.4442226E-002, 3.7465644E-003, 2.9949468E-002, 1.5738022E-003, 2.8222487E+002
 4.5006580E+001, 9.1540763E-002, 9.6538759E-002, 6.4186155E-002, 3.7931916E-003, 3.0787151E-002, 1.5795048E-003, 2.7694000E+002
 4.6000897E+001, 9.2154922E-002, 9.5855592E-002, 6.3867254E-002, 3.8463566E-003, 3.1551979E-002, 1.5856101E-003, 2.6948941E+002
 4.7012363E+001, 9.3042429E-002, 9.4936499E-002, 6.3226124E-002, 3.7547810E-003, 3.3639720E-002, 1.5585386E-003, 2.6960394E+002
 4.8011149E+001, 9.3250262E-002, 9.4473642E-002, 6.3129263E-002, 3.8856771E-003, 3.4286883E-002, 1.5832040E-003, 2.6246681E+002
 4.9003333E+001, 9.4626586E-002, 9.3023768E-002, 6.2354657E-002, 3.9224701E-003, 3.6212329E-002, 1.5797101E-003, 2.6224120E+002
 5.0004196E+001, 9.4628978E-002, 9.3155072E-002, 6.2369750E-002, 3.8747459E-003, 3.5849953E-002, 1.5704205E-003, 2.5889605E+002
 5.1002814E+001, 9.5115034E-002, 9.2582291E-002, 6.2014845E-002, 3.8530109E-003, 3.7153657E-002, 1.5611950E-003, 2.5354155E+002
 5.2002433E+001, 9.6134664E-002, 9.1450587E-002, 6.1434298E-002, 3.9011243E-003, 3.8735100E-002, 1.5626646E-003, 2.4988171E+002
 5.3002403E+001, 9.6273394E-002, 9.1284135E-002, 6.1391801E-002, 3.9411622E-003, 3.8748810E-002, 1.5700116E-003, 2.4747738E+002
 5.4011028E+001, 9.6758942E-002, 9.0497590E-002, 6.1105015E-002, 4.0678424E-003, 4.0054171E-002, 1.5912085E-003, 2.4647990E+002
 5.5008470E+001, 9.6830104E-002, 9.0293484E-002, 6.1096710E-002, 4.1522177E-003, 4.0211725E-002, 1.6078516E-003, 2.4629853E+002
 5.6004490E+001, 9.7325047E-002, 8.9755825E-002, 6.0791320E-002, 4.1522936E-003, 4.1102428E-002, 1.6036211E-003, 2.4508165E+002
 5.7011775E+001, 9.7331166E-002, 8.9525411E-002, 6.0763004E-002, 4.2344526E-003, 4.1706698E-002, 1.6195789E-003, 2.4511379E+002
 5.8005510E+001, 9.7850258E-002, 8.9006936E-002, 6.0448359E-002, 4.2183641E-003, 4.2516335E-002, 1.6120021E-003, 2.4139069E+002
 5.9006227E+001, 9.7850366E-002, 8.8785988E-002, 6.0424007E-002, 4.2993932E-003, 4.3102418E-002, 1.6277902E-003, 2.3823200E+002
 6.0000923E+001, 9.8279488E-002, 8.8079714E-002, 6.0147848E-002, 4.3990375E-003, 4.4418662E-002, 1.6437720E-003, 2.4090643E+002
 6.1006069E+001, 9.8599316E-002, 8.7667517E-002, 6.0039436E-002, 4.4961994E-003, 4.4571062E-002, 1.6615365E-003, 2.3751300E+002
 6.2003125E+001, 9.8577019E-002, 8.7585744E-002, 6.0028554E-002, 4.5251741E-003, 4.4892577E-002, 1.6671607E-003, 2.3918805E+002
 6.3000318E+001, 9.8536511E-002, 8.7721935E-002, 5.9965284E-002, 4.4161968E-003, 4.5184667E-002, 1.6446595E-003, 2.3351933E+002
 6.4008979E+001, 9.9129968E-002, 8.6981672E-002, 5.9536181E-002, 4.4113353E-003, 4.6830961E-002, 1.6377623E-003, 2.3178404E+002
 6.5008770E+001, 9.9445979E-002, 8.6503533E-002, 5.9356227E-002, 4.4836683E-003, 4.7572464E-002, 1.6496359E-003, 2.3026785E+002
 6.6000280E+001, 9.9405803E-002, 8.6409615E-002, 5.9269157E-002, 4.4602686E-003, 4.8464351E-002, 1.6438345E-003, 2.2970006E+002
 6.7006688E+001, 1.0028534E-001, 8.5240906E-002, 5.8693781E-002, 4.5316071E-003, 5.0670165E-002, 1.6500396E-003, 2.2822991E+002
 6.8012103E+001, 1.0058436E-001, 8.5072426E-002, 5.8575594E-002, 4.5117957E-003, 5.0489191E-002, 1.6444201E-003, 2.2630929E+002
 6.9007541E+001, 1.0058503E-001, 8.4763463E-002, 5.8585751E-002, 4.6588532E-003, 5.1032732E-002, 1.6737986E-003, 2.2638739E+002
 7.0008471E+001, 1.0067341E-001, 8.4558775E-002, 5.8459536E-002, 4.6531317E-003, 5.1850115E-002, 1.6709460E-003, 2.2515732E+002
 7.1003935E+001, 1.0106296E-001, 8.3911011E-002, 5.8188414E-002, 4.7309711E-003, 5.3184585E-002, 1.6826727E-003, 2.2373418E+002
 7.2009060E+001, 1.0102984E-001, 8.4070969E-002, 5.8173030E-002, 4.6477098E-003, 5.3102422E-002, 1.6659218E-003, 2.2359306E+002
 7.3011675E+001, 1.0136660E-001, 8.3327029E-002, 5.7948088E-002, 4.8051564E-003, 5.4560331E-002, 1.6941132E-003, 2.2312905E+002
 7.4010538E+001, 1.0123515E-001, 8.3586573E-002, 5.8093171E-002, 4.8013475E-003, 5.3697214E-002, 1.6953371E-003, 2.2301541E+002
 7.5009777E+001, 1.0142322E-001, 8.3154040E-002, 5.7860573E-002, 4.8152815E-003, 5.5207735E-002, 1.6949392E-003, 2.2255201E+002
 7.6003697E+001, 1.0164953E-001, 8.2814280E-002, 5.7730416E-002, 4.8649044E-003, 5.5741499E-002, 1.7029922E-003, 2.2073247E+002
 7.7009940E+001, 1.0200330E-001, 8.2250136E-002, 5.7433630E-002, 4.8861028E-003, 5.7219054E-002, 1.7031253E-003, 2.1855589E+002
 7.8012579E+001, 1.0202944E-001, 8.2326785E-002, 5.7447452E-002, 4.8616123E-003, 5.6873412E-002, 1.6984307E-003, 2.1824708E+002
 7.9005131E+001, 1.0216632E-001, 8.1978543E-002, 5.7222789E-002, 4.8445450E-003, 5.8381754E-002, 1.6919914E-003, 2.1732550E+002
 8.0006027E+001, 1.0233209E-001, 8.1674790E-002, 5.7049881E-002, 4.8464047E-003, 5.9361446E-002, 1.6899967E-003, 2.1602092E+002
 8.1013251E+001, 1.0243222E-001, 8.1472772E-002, 5.6990175E-002, 4.8900512E-003, 5.9712657E-002, 1.6978448E-003, 2.1442546E+002
 8.2007693E+001, 1.0275877E-001, 8.1128133E-002, 5.6806844E-002, 4.8994151E-003, 6.0167968E-002, 1.6971481E-003, 2.1309489E+002
 8.3000410E+001, 1.0285058E-001, 8.0657601E-002, 5.6680633E-002, 5.0135039E-003, 6.1495259E-002, 1.7181193E-003, 2.1206326E+002
 8.4003643E+001, 1.0318180E-001, 8.0189453E-002, 5.6448866E-002, 5.0414845E-003, 6.2474662E-002, 1.7204765E-003, 2.1149543E+002
 8.5008733E+001, 1.0301691E-001, 8.0459203E-002, 5.6488463E-002, 4.9531388E-003, 6.2384194E-002, 1.7034936E-003, 2.1269343E+002
 8.6001097E+001, 1.0309584E-001, 8.0228103E-002, 5.6422136E-002, 5.0052340E-003, 6.2922027E-002, 1.7129407E-003, 2.0996186E+002
 8.7008442E+001, 1.0336666E-001, 7.9574650E-002, 5.6274144E-002, 5.1818612E-003, 6.3999470E-002, 1.7459958E-003, 2.0966486E+002
 8.8007877E+001, 1.0337227E-001, 7.9559031E-002, 5.6270945E-002, 5.1863575E-003, 6.4026711E-002, 1.7468453E-003, 2.1112887E+002
 8.9010625E+001, 1.0338639E-001, 7.9144441E-002, 5.6283614E-002, 5.3827126E-003, 6.4706949E-002, 1.7860558E-003, 2.1113302E+002
 9.0003051E+001, 1.0343880E-001, 7.9098950E-002, 5.6152853E-002, 5.3024007E-003, 6.5388412E-002, 1.7683222E-003, 2.0763120E+002
 9.1005443E+001, 1.0365915E-001, 7.8627142E-002, 5.5878768E-002, 5.3017658E-003, 6.7098917E-002, 1.7644624E-003, 2.0800813E+002
 9.2009845E+001, 1.0355402E-001, 7.8668203E-002, 5.5863312E-002, 5.2733924E-003, 6.7551543E-002, 1.7586500E-003, 2.0679992E+002
 9.3009537E+001, 1.0381928E-001, 7.8343219E-002, 5.5589141E-002, 5.2056572E-003, 6.8786046E-002, 1.7414304E-003, 2.0366240E+002
 9.4007660E+001, 1.0391101E-001, 7.8117281E-002, 5.5522591E-002, 5.2550179E-003, 6.9261767E-002, 1.7503263E-003, 2.0489145E+002
 9.5005847E+001, 1.0391558E-001, 7.7999609E-002, 5.5553258E-002, 5.3314109E-003, 6.9284804E-002, 1.7659252E-003, 2.0446977E+002
 9.6006996E+001, 1.0407326E-001, 7.7425095E-002, 5.5383815E-002, 5.4581546E-003, 7.0810638E-002, 1.7888133E-003, 2.0502695E+002
 9.7009912E+001, 1.0420373E-001, 7.7148002E-002, 5.5335568E-002, 5.5438423E-003, 7.1112525E-002, 1.8051641E-003, 2.0353351E+002
 9.8005102E+001, 1.0407793E-001, 7.7180226E-002, 5.5361920E-002, 5.5517617E-003, 7.1409686E-002, 1.8071338E-003, 2.0560345E+002
 9.9016403E+001, 1.0409784E-001, 7.6963934E-002, 5.5221705E-002, 5.5418464E-003, 7.2621845E-002, 1.8032839E-003, 2.0384860E+002
 1.0000186E+002, 1.0429968E-001, 7.6580003E-002, 5.5011737E-002, 5.5508924E-003, 7.3838982E-002, 1.8022112E-003, 2.0028215E+002
 1.0100075E+002, 1.0442880E-001, 7.6511143E-002, 5.4880873E-002, 5.4796213E-003, 7.4247693E-002, 1.7862478E-003, 1.9662909E+002
 1.0200398E+002, 1.0460738E-001, 7.6199068E-002, 5.4729703E-002, 5.5015971E-003, 7.5055763E-002, 1.7885390E-003, 1.9961508E+002
 1.0300359E+002, 1.0451144E-001, 7.6263357E-002, 5.4756266E-002, 5.4946665E-003, 7.5164037E-002, 1.7875482E-003, 2.0069525E+002
 1.0400534E+002, 1.0459301E-001, 7.5955548E-002, 5.4731437E-002, 5.6129916E-003, 7.5585088E-002, 1.8107184E-003, 1.9966514E+002
 1.0501156E+002, 1.0473901E-001, 7.5533852E-002, 5.4624114E-002, 5.7184815E-003, 7.6473401E-002, 1.8302132E-003, 1.9887936E+002
 1.0600928E+002, 1.0483397E-001, 7.5737174E-002, 5.4577363E-002, 5.5893462E-003, 7.5966605E-002, 1.8038774E-003, 2.0166189E+002
 1.0701072E+002, 1.0479641E-001, 7.5573958E-002, 5.4628089E-002, 5.7023723E-003, 7.6130617E-002, 1.8270431E-003, 2.0161027E+002
 1.0800948E+002, 1.0511044E-001, 7.4897478E-002, 5.4354530E-002, 5.7926952E-003, 7.7851365E-002, 1.8412456E-003, 1.9861722E+002
 1.0900997E+002, 1.0527988E-001, 7.4420753E-002, 5.4153379E-002, 5.8509139E-003, 7.9331795E-002, 1.8500799E-003, 1.9902423E+002
 1.1000787E+002, 1.0501016E-001, 7.4619060E-002, 5.4427771E-002, 5.9760195E-003, 7.8364264E-002, 1.8787125E-003, 2.0106319E+002
 1.1100189E+002, 1.0513162E-001, 7.4645593E-002, 5.4220368E-002, 5.8034279E-003, 7.9090894E-002, 1.8415820E-003, 1.9904282E+002
 1.1200776E+002, 1.0523336E-001, 7.4225202E-002, 5.4103978E-002, 5.9022245E-003, 8.0217134E-002, 1.8596400E-003, 1.9909903E+002
 1.1301255E+002, 1.0523528E-001, 7.4037927E-002, 5.4161674E-002, 6.0306922E-003, 8.0221043E-002, 1.8859558E-003, 1.9752285E+002
 1.1400176E+002, 1.0591645E-001, 7.3197807E-002, 5.3649603E-002, 6.0058762E-003, 8.2212912E-002, 1.8739531E-003, 1.9754889E+002
 1.1500746E+002, 1.0550550E-001, 7.3631273E-002, 5.3976761E-002, 6.0678523E-003, 8.1042997E-002, 1.8907847E-003, 1.9793712E+002
 1.1600079E+002, 1.0564295E-001, 7.3260537E-002, 5.3808585E-002, 6.1040528E-003, 8.2243418E-002, 1.8956917E-003, 1.9659424E+002
 1.1700344E+002, 1.0565288E-001, 7.2890681E-002, 5.3740251E-002, 6.2184565E-003, 8.3354672E-002, 1.9175260E-003, 1.9780133E+002
 1.1800931E+002, 1.0556321E-001, 7.2848460E-002, 5.3827788E-002, 6.3059989E-003, 8.3269116E-002, 1.9361333E-003, 1.9822315E+002
 1.1900294E+002, 1.0569382E-001, 7.2612340E-002, 5.3686714E-002, 6.3023229E-003, 8.4064677E-002, 1.9334747E-003, 1.9682277E+002
 1.2001034E+002, 1.0584429E-001, 7.2433988E-002, 5.3353964E-002, 6.1258580E-003, 8.5850953E-002, 1.8938912E-003, 1.9532150E+002
 1.2100937E+002, 1.0581907E-001, 7.2508245E-002, 5.3350291E-002, 6.0900367E-003, 8.5832323E-002, 1.8867276E-003, 1.9488090E+002
 1.2200933E+002, 1.0572310E-001, 7.2449682E-002, 5.3352129E-002, 6.1196209E-003, 8.6336119E-002, 1.8926681E-003, 1.9311276E+002
 1.2301463E+002, 1.0581885E-001, 7.2198308E-002, 5.3327778E-002, 6.2126024E-003, 8.6583854E-002, 1.9108001E-003, 1.9482801E+002
 1.2400368E+002, 1.0588397E-001, 7.2136059E-002, 5.3108247E-002, 6.0718234E-003, 8.7795334E-002, 1.8798532E-003, 1.9529250E+002
 1.2501181E+002, 1.0574519E-001, 7.2059142E-002, 5.3112930E-002, 6.1126471E-003, 8.8495949E-002, 1.8880814E-003, 1.9330180E+002
 1.2600248E+002, 1.0619584E-001, 7.1558586E-002, 5.2878204E-002, 6.1507740E-003, 8.9060251E-002, 1.8923757E-003, 1.9241043E+002
 1.2700715E+002, 1.0607731E-001, 7.1610493E-002, 5.2981586E-002, 6.2085067E-003, 8.8811089E-002, 1.9052766E-003, 1.9447742E+002
 1.2800031E+002, 1.0619472E-001, 7.1281840E-002, 5.2847264E-002, 6.2519540E-003, 8.9802260E-002, 1.9120834E-003, 1.9304520E+002
 1.2900916E+002, 1.0608865E-001, 7.1101840E-002, 5.2794278E-002, 6.2946161E-003, 9.0927172E-002, 1.9198962E-003, 1.9211455E+002
 1.3000865E+002, 1.0623366E-001, 7.0889039E-002, 5.2712377E-002, 6.3253454E-003, 9.1250217E-002, 1.9248640E-003, 1.9198618E+002
 1.3100798E+002, 1.0637961E-001, 7.0981149E-002, 5.2611682E-002, 6.2042191E-003, 9.1084554E-002, 1.8993835E-003, 1.9298750E+002
 1.3200136E+002, 1.0631593E-001, 7.0872651E-002, 5.2598456E-002, 6.2442186E-003, 9.1645632E-002, 1.9071829E-003, 1.9451169E+002
 1.3300089E+002, 1.0622797E-001, 7.0907449E-002, 5.2601590E-002, 6.2325472E-003, 9.1923898E-002, 1.9049340E-003, 1.9412833E+002
 1.3400351E+002, 1.0621597E-001, 7.0881227E-002, 5.2506482E-002, 6.1719648E-003, 9.2614771E-002, 1.8916217E-003, 1.9363778E+002
 1.3500427E+002, 1.0613574E-001, 7.0714204E-002, 5.2468829E-002, 6.2200061E-003, 9.3511488E-002, 1.9007000E-003, 1.9206711E+002
 1.3600203E+002, 1.0642691E-001, 7.0431108E-002, 5.2249455E-002, 6.1747495E-003, 9.4216030E-002, 1.8886728E-003, 1.9094633E+002
 1.3701115E+002, 1.0648739E-001, 7.0359333E-002, 5.2194085E-002, 6.1637121E-003, 9.4448700E-002, 1.8857182E-003, 1.9198640E+002
 1.3800563E+002, 1.0636729E-001, 7.0322205E-002, 5.2118881E-002, 6.1252447E-003, 9.5487933E-002, 1.8771063E-003, 1.9041617E+002
 1.3900198E+002, 1.0625155E-001, 7.0110690E-002, 5.2162784E-002, 6.2562840E-003, 9.6115080E-002, 1.9037898E-003, 1.9212042E+002
 1.4000135E+002, 1.0632748E-001, 7.0265721E-002, 5.2127857E-002, 6.1583042E-003, 9.5709495E-002, 1.8838138E-003, 1.9102876E+002
 1.4100410E+002, 1.0636901E-001, 7.0064602E-002, 5.2069218E-002, 6.2034436E-003, 9.6296390E-002, 1.8919932E-003, 1.9224553E+002
 1.4201444E+002, 1.0643665E-001, 6.9855739E-002, 5.1979287E-002, 6.2276957E-003, 9.6983627E-002, 1.8955924E-003, 1.9207073E+002
 1.4300995E+002, 1.0644130E-001, 6.9866185E-002, 5.1944417E-002, 6.1962714E-003, 9.7159684E-002, 1.8888765E-003, 1.9140065E+002
 1.4400988E+002, 1.0659610E-001, 6.9640443E-002, 5.1837045E-002, 6.2132043E-003, 9.7625264E-002, 1.8907576E-003, 1.9277117E+002
 1.4500188E+002, 1.0645766E-001, 6.9639509E-002, 5.1834022E-002, 6.2138760E-003, 9.8222372E-002, 1.8908984E-003, 1.9273961E+002
 1.4600204E+002, 1.0647423E-001, 6.9572768E-002, 5.1770534E-002, 6.1951815E-003, 9.8678241E-002, 1.8863279E-003, 1.9226806E+002
 1.4700718E+002, 1.0653248E-001, 6.9438047E-002, 5.1668660E-002, 6.1770556E-003, 9.9332415E-002, 1.8813438E-003, 1.8957564E+002
 1.4801281E+002, 1.0653703E-001, 6.9219179E-002, 5.1621959E-002, 6.2399978E-003, 1.0003431E-001, 1.8932354E-003, 1.8993997E+002
 1.4900008E+002, 1.0661839E-001, 6.9114381E-002, 5.1493012E-002, 6.1872786E-003, 1.0070092E-001, 1.8810030E-003, 1.8961150E+002
 1.5001083E+002, 1.0664522E-001, 6.8933500E-002, 5.1341192E-002, 6.1524060E-003, 1.0188633E-001, 1.8720330E-003, 1.8897086E+002
 1.5100703E+002, 1.0673181E-001, 6.8768008E-002, 5.1189325E-002, 6.1094553E-003, 1.0279281E-001, 1.8614355E-003, 1.8843058E+002
 1.5200892E+002, 1.0682818E-001, 6.8677189E-002, 5.1202031E-002, 6.1583274E-003, 1.0249185E-001, 1.8712905E-003, 1.8851100E+002
 1.5300041E+002, 1.0688794E-001, 6.8658457E-002, 5.1229718E-002, 6.1868122E-003, 1.0210835E-001, 1.8773038E-003, 1.8866069E+002
 1.5400525E+002, 1.0698777E-001, 6.8440761E-002, 5.1132369E-002, 6.2087872E-003, 1.0272495E-001, 1.8803402E-003, 1.8758269E+002
