s,,,,,,,
Time,"O2 EXHAUST","CO2 EXHAUST","H2O EXHAUST","CO EXHAUST","FUEL EXHAUST","SOOT EXHAUST","TEMP EXHAUST"
 0.0000000E+000, 2.3099739E-001, 5.9146498E-004, 5.9412091E-003, 0.0000000E+000, 0.0000000E+000, 0.0000000E+000, 2.0000000E+001
 1.0043561E+000, 2.3099739E-001, 5.9146498E-004, 5.9412091E-003, 1.6141086E-026, 1.0497169E-025, 4.3768914E-027, 2.0933835E+001
 2.0054875E+000, 2.2083352E-001, 9.8573364E-003, 9.8598947E-003, 7.7315052E-005, 2.8330715E-004, 7.2526154E-005, 1.1695440E+002
 3.0053362E+000, 2.1177739E-001, 1.8156155E-002, 1.3364383E-002, 1.4002473E-004, 3.7282307E-004, 1.3606813E-004, 1.9539329E+002
 4.0039747E+000, 2.0397003E-001, 2.5365889E-002, 1.6376424E-002, 1.5959281E-004, 3.9624435E-004, 1.8371717E-004, 2.5583850E+002
 5.0051834E+000, 1.9505544E-001, 3.3620523E-002, 1.9814612E-002, 1.7072666E-004, 3.8472005E-004, 2.3583327E-004, 3.2192697E+002
 6.0011971E+000, 1.8700166E-001, 4.1137956E-002, 2.2915885E-002, 1.4859715E-004, 2.8541013E-004, 2.7631264E-004, 3.7182658E+002
 7.0078390E+000, 1.7904076E-001, 4.8578572E-002, 2.5981005E-002, 1.2184716E-004, 1.7006784E-004, 3.1532966E-004, 4.1223988E+002
 8.0063793E+000, 1.6717478E-001, 5.9644776E-002, 3.0550560E-002, 9.3896789E-005, 4.0799470E-005, 3.7591918E-004, 4.5742260E+002
 9.0061557E+000, 1.5599819E-001, 7.0014214E-002, 3.4858160E-002, 9.5595635E-005, 4.3375166E-006, 4.3872850E-004, 4.8953647E+002
 1.0007887E+001, 1.4524014E-001, 7.9975266E-002, 3.9005858E-002, 1.0777471E-004, 4.9431585E-007, 5.0134635E-004, 5.1252243E+002
 1.1001584E+001, 1.3614449E-001, 8.8395196E-002, 4.2512743E-002, 1.1904097E-004, 2.7929550E-007, 5.5448651E-004, 5.2655401E+002
 1.2002529E+001, 1.2976114E-001, 9.4303839E-002, 4.4973963E-002, 1.2724852E-004, 6.0797334E-007, 5.9184258E-004, 5.2698961E+002
 1.3006367E+001, 1.1916644E-001, 1.0411077E-001, 4.9058904E-002, 1.4077500E-004, 1.2090482E-006, 6.5382389E-004, 5.4738259E+002
 1.4001373E+001, 1.0976085E-001, 1.1281627E-001, 5.2685469E-002, 1.5321770E-004, 2.5116646E-006, 7.0893825E-004, 5.5622929E+002
 1.5008470E+001, 1.0500091E-001, 1.1722329E-001, 5.4520590E-002, 1.5869039E-004, 1.6693280E-006, 7.3666022E-004, 5.5351536E+002
 1.6003766E+001, 9.7912663E-002, 1.2365034E-001, 5.7268959E-002, 2.4434246E-004, 1.7464608E-004, 7.9389527E-004, 5.5890057E+002
 1.7001038E+001, 9.1529709E-002, 1.2949826E-001, 5.9738931E-002, 2.8904578E-004, 2.4065096E-004, 8.3878251E-004, 5.6124725E+002
 1.8004730E+001, 8.7879562E-002, 1.3263345E-001, 6.1169899E-002, 4.2832549E-004, 5.8052161E-004, 8.8779885E-004, 5.6002896E+002
 1.9000698E+001, 8.5699617E-002, 1.3464485E-001, 6.2024401E-002, 4.4839178E-004, 5.0871829E-004, 9.0425243E-004, 5.5254205E+002
 2.0005904E+001, 8.3142356E-002, 1.3664731E-001, 6.3047028E-002, 6.5454684E-004, 1.0095325E-003, 9.6091821E-004, 5.4456267E+002
 2.1009054E+001, 8.1177098E-002, 1.3824155E-001, 6.3828757E-002, 7.8361970E-004, 1.3099487E-003, 9.9844682E-004, 5.3776946E+002
 2.2005070E+001, 7.9004375E-002, 1.4005676E-001, 6.4687571E-002, 8.9686067E-004, 1.5706374E-003, 1.0338804E-003, 5.4402187E+002
 2.3007772E+001, 7.7045459E-002, 1.4164018E-001, 6.5466985E-002, 1.0283004E-003, 1.8800579E-003, 1.0718560E-003, 5.3576653E+002
 2.4007791E+001, 7.5357460E-002, 1.4292279E-001, 6.6150509E-002, 1.1908661E-003, 2.2367485E-003, 1.1147551E-003, 5.3319336E+002
 2.5005979E+001, 7.4384598E-002, 1.4363845E-001, 6.6519774E-002, 1.2699219E-003, 2.6384167E-003, 1.1361713E-003, 5.2525723E+002
 2.6001527E+001, 7.3085952E-002, 1.4423089E-001, 6.7096344E-002, 1.6257653E-003, 3.3870986E-003, 1.2167353E-003, 5.2015418E+002
 2.7000239E+001, 7.2482535E-002, 1.4430060E-001, 6.7366226E-002, 1.8863224E-003, 4.1303001E-003, 1.2735344E-003, 5.1149324E+002
 2.8003353E+001, 7.1122544E-002, 1.4506909E-001, 6.7916593E-002, 2.1370300E-003, 4.9445444E-003, 1.3324105E-003, 5.0974438E+002
 2.9001924E+001, 7.0817769E-002, 1.4542224E-001, 6.8026511E-002, 2.0974250E-003, 4.8497701E-003, 1.3259674E-003, 5.1444215E+002
 3.0001840E+001, 6.9355722E-002, 1.4633393E-001, 6.8640048E-002, 2.3506112E-003, 5.4232433E-003, 1.3862413E-003, 5.0962604E+002
 3.1006451E+001, 6.9334906E-002, 1.4600986E-001, 6.8645198E-002, 2.5033207E-003, 6.1209033E-003, 1.4173340E-003, 4.9410015E+002
 3.2000861E+001, 6.7996381E-002, 1.4660595E-001, 6.9240058E-002, 2.8772851E-003, 6.9178692E-003, 1.5018410E-003, 4.9646564E+002
 3.3003870E+001, 6.7224476E-002, 1.4733791E-001, 6.9503802E-002, 2.8356045E-003, 7.0884301E-003, 1.4972308E-003, 5.0378586E+002
 3.4004339E+001, 6.7557965E-002, 1.4677634E-001, 6.9395530E-002, 2.9706446E-003, 7.4664688E-003, 1.5230691E-003, 4.9047723E+002
 3.5002885E+001, 6.7084518E-002, 1.4649864E-001, 6.9597293E-002, 3.3155028E-003, 8.7686390E-003, 1.5960185E-003, 4.8683997E+002
 3.6001362E+001, 6.6806773E-002, 1.4670210E-001, 6.9694328E-002, 3.3298539E-003, 8.9357829E-003, 1.6003494E-003, 4.8114675E+002
 3.7010016E+001, 6.6499989E-002, 1.4661110E-001, 6.9857157E-002, 3.5459240E-003, 9.4090460E-003, 1.6465542E-003, 4.7599169E+002
 3.8000902E+001, 6.6265999E-002, 1.4651491E-001, 6.9948290E-002, 3.6889457E-003, 1.0023239E-002, 1.6769227E-003, 4.7150963E+002
 3.9002212E+001, 6.6075315E-002, 1.4644494E-001, 6.9993845E-002, 3.7722171E-003, 1.0680889E-002, 1.6945211E-003, 4.7259559E+002
 4.0002395E+001, 6.5796764E-002, 1.4613844E-001, 7.0091379E-002, 4.0182630E-003, 1.1858756E-002, 1.7459166E-003, 4.7158385E+002
 4.1006471E+001, 6.5195224E-002, 1.4636523E-001, 7.0380396E-002, 4.2272060E-003, 1.2167072E-002, 1.7924923E-003, 4.7035668E+002
 4.2005225E+001, 6.5236056E-002, 1.4612631E-001, 7.0355356E-002, 4.3087835E-003, 1.2621833E-002, 1.8087061E-003, 4.6760367E+002
 4.3010059E+001, 6.5223977E-002, 1.4606736E-001, 7.0341264E-002, 4.3213500E-003, 1.2874293E-002, 1.8110710E-003, 4.6203275E+002
 4.4007506E+001, 6.5222109E-002, 1.4566851E-001, 7.0352955E-002, 4.5141871E-003, 1.3601523E-002, 1.8503960E-003, 4.5774765E+002
 4.5005180E+001, 6.5118338E-002, 1.4534490E-001, 7.0380305E-002, 4.6915633E-003, 1.4509669E-002, 1.8868294E-003, 4.5729269E+002
 4.6001321E+001, 6.5132868E-002, 1.4532556E-001, 7.0374230E-002, 4.6937302E-003, 1.4524199E-002, 1.8871818E-003, 4.5583824E+002
 4.7000946E+001, 6.4941163E-002, 1.4520606E-001, 7.0442017E-002, 4.8222905E-003, 1.5149642E-002, 1.9142811E-003, 4.5479497E+002
 4.8000843E+001, 6.4746565E-002, 1.4481280E-001, 7.0488551E-002, 5.0532132E-003, 1.6458219E-002, 1.9618823E-003, 4.5377460E+002
 4.9006001E+001, 6.4690088E-002, 1.4470236E-001, 7.0520572E-002, 5.1375577E-003, 1.6718590E-002, 1.9794678E-003, 4.5337842E+002
 5.0008052E+001, 6.4619121E-002, 1.4462915E-001, 7.0515879E-002, 5.1677186E-003, 1.7187855E-002, 1.9855545E-003, 4.4951878E+002
 5.1009459E+001, 6.4766239E-002, 1.4451148E-001, 7.0459573E-002, 5.1595703E-003, 1.7148657E-002, 1.9830828E-003, 4.4597556E+002
 5.2003764E+001, 6.4701628E-002, 1.4398546E-001, 7.0455800E-002, 5.3957694E-003, 1.8483001E-002, 2.0310264E-003, 4.4706580E+002
 5.3005796E+001, 6.4741999E-002, 1.4359215E-001, 7.0446762E-002, 5.5637636E-003, 1.9148710E-002, 2.0650092E-003, 4.4631236E+002
 5.4009088E+001, 6.4158979E-002, 1.4397463E-001, 7.0709148E-002, 5.6743359E-003, 1.9232574E-002, 2.0912372E-003, 4.4592545E+002
 5.5000892E+001, 6.4192234E-002, 1.4374547E-001, 7.0630554E-002, 5.6967297E-003, 2.0023812E-002, 2.0947054E-003, 4.4333281E+002
 5.6003972E+001, 6.4828485E-002, 1.4320343E-001, 7.0355428E-002, 5.6440684E-003, 2.0111326E-002, 2.0800474E-003, 4.3818042E+002
 5.7009850E+001, 6.4583669E-002, 1.4296181E-001, 7.0419726E-002, 5.8257439E-003, 2.1221222E-002, 2.1179055E-003, 4.3999190E+002
 5.8008379E+001, 6.4328319E-002, 1.4306592E-001, 7.0486859E-002, 5.8538845E-003, 2.1672906E-002, 2.1246227E-003, 4.3977660E+002
 5.9005568E+001, 6.4857958E-002, 1.4261595E-001, 7.0286566E-002, 5.8389644E-003, 2.1569343E-002, 2.1186845E-003, 4.3584324E+002
 6.0007675E+001, 6.4630368E-002, 1.4270145E-001, 7.0380466E-002, 5.9023036E-003, 2.1780117E-002, 2.1329048E-003, 4.3764595E+002
 6.1007786E+001, 6.4799375E-002, 1.4218803E-001, 7.0257680E-002, 6.0047728E-003, 2.2836227E-002, 2.1519882E-003, 4.3772780E+002
 6.2008939E+001, 6.4752187E-002, 1.4203807E-001, 7.0208954E-002, 6.0239432E-003, 2.3625031E-002, 2.1552359E-003, 4.3408518E+002
 6.3005875E+001, 6.4635686E-002, 1.4208980E-001, 7.0217133E-002, 6.0118245E-003, 2.3958626E-002, 2.1529265E-003, 4.3515843E+002
 6.4009046E+001, 6.4816323E-002, 1.4179310E-001, 7.0183637E-002, 6.1073902E-003, 2.3996323E-002, 2.1718175E-003, 4.3057457E+002
 6.5005642E+001, 6.4754832E-002, 1.4170178E-001, 7.0123390E-002, 6.0885150E-003, 2.4798301E-002, 2.1671864E-003, 4.3115968E+002
 6.6003908E+001, 6.4813893E-002, 1.4142201E-001, 7.0034804E-002, 6.1229429E-003, 2.5642727E-002, 2.1729539E-003, 4.3425377E+002
 6.7002411E+001, 6.5183868E-002, 1.4126457E-001, 6.9867203E-002, 6.0129965E-003, 2.5427188E-002, 2.1482160E-003, 4.3304382E+002
 6.8006108E+001, 6.5655424E-002, 1.4054553E-001, 6.9559146E-002, 6.0109320E-003, 2.6751243E-002, 2.1434441E-003, 4.2898450E+002
 6.9005338E+001, 6.5483350E-002, 1.4045895E-001, 6.9628417E-002, 6.1256023E-003, 2.7220673E-002, 2.1677356E-003, 4.2778784E+002
 7.0001876E+001, 6.5617850E-002, 1.4032077E-001, 6.9580663E-002, 6.1358443E-003, 2.7222924E-002, 2.1691196E-003, 4.2591051E+002
 7.1004746E+001, 6.5910954E-002, 1.3990409E-001, 6.9381783E-002, 6.1132539E-003, 2.8030790E-002, 2.1617254E-003, 4.2562305E+002
 7.2001085E+001, 6.5779381E-002, 1.3999079E-001, 6.9438968E-002, 6.1359492E-003, 2.8061235E-002, 2.1671583E-003, 4.2528033E+002
 7.3003231E+001, 6.5815421E-002, 1.3967753E-001, 6.9336485E-002, 6.1718781E-003, 2.9152102E-002, 2.1730497E-003, 4.2528678E+002
 7.4006345E+001, 6.6448312E-002, 1.3904254E-001, 6.9017562E-002, 6.1164947E-003, 2.9702937E-002, 2.1572446E-003, 4.2064397E+002
 7.5005610E+001, 6.6739234E-002, 1.3863552E-001, 6.8824389E-002, 6.0954350E-003, 3.0466208E-002, 2.1502397E-003, 4.2000869E+002
 7.6005613E+001, 6.6381514E-002, 1.3911104E-001, 6.9041398E-002, 6.1115897E-003, 2.9701352E-002, 2.1565958E-003, 4.2198303E+002
 7.7010691E+001, 6.6226554E-002, 1.3923300E-001, 6.9116273E-002, 6.1370446E-003, 2.9652323E-002, 2.1628377E-003, 4.2279413E+002
 7.8004168E+001, 6.6839759E-002, 1.3838618E-001, 6.8739461E-002, 6.1187755E-003, 3.1055364E-002, 2.1537906E-003, 4.1573931E+002
 7.9004704E+001, 6.7261433E-002, 1.3797855E-001, 6.8476959E-002, 6.0235573E-003, 3.1694567E-002, 2.1307358E-003, 4.1784985E+002
 8.0001475E+001, 6.7113773E-002, 1.3804180E-001, 6.8538263E-002, 6.0615179E-003, 3.1813605E-002, 2.1393306E-003, 4.1883471E+002
 8.1000042E+001, 6.7210063E-002, 1.3788399E-001, 6.8446545E-002, 6.0365104E-003, 3.2280177E-002, 2.1329711E-003, 4.1991133E+002
 8.2003368E+001, 6.8040419E-002, 1.3692701E-001, 6.7949399E-002, 5.9392209E-003, 3.3724851E-002, 2.1061631E-003, 4.1246464E+002
 8.3000649E+001, 6.7835122E-002, 1.3711627E-001, 6.8039887E-002, 5.9514625E-003, 3.3657791E-002, 2.1099512E-003, 4.1889011E+002
 8.4002274E+001, 6.7635498E-002, 1.3725838E-001, 6.8166383E-002, 6.0218800E-003, 3.3442491E-002, 2.1260425E-003, 4.2022724E+002
 8.5008525E+001, 6.8261802E-002, 1.3667850E-001, 6.7812800E-002, 5.9061174E-003, 3.4121422E-002, 2.0975055E-003, 4.1625600E+002
 8.6003557E+001, 6.8527391E-002, 1.3635498E-001, 6.7595272E-002, 5.8228541E-003, 3.4972288E-002, 2.0775447E-003, 4.1291679E+002
 8.7006976E+001, 6.8535776E-002, 1.3627596E-001, 6.7574206E-002, 5.8368460E-003, 3.5221441E-002, 2.0800972E-003, 4.1709720E+002
 8.8011857E+001, 6.8764807E-002, 1.3600575E-001, 6.7460129E-002, 5.8364974E-003, 3.5492779E-002, 2.0783955E-003, 4.1474969E+002
 8.9006503E+001, 6.8915712E-002, 1.3586985E-001, 6.7368856E-002, 5.8006313E-003, 3.5685589E-002, 2.0698176E-003, 4.1615062E+002
 9.0003482E+001, 6.8516373E-002, 1.3619571E-001, 6.7474922E-002, 5.7718366E-003, 3.6062398E-002, 2.0655508E-003, 4.1820869E+002
 9.1012080E+001, 6.9051714E-002, 1.3553789E-001, 6.7222660E-002, 5.7976637E-003, 3.6661492E-002, 2.0671800E-003, 4.1471719E+002
 9.2009903E+001, 6.9154925E-002, 1.3527458E-001, 6.7118672E-002, 5.8077106E-003, 3.7382525E-002, 2.0677708E-003, 4.1130647E+002
 9.3003816E+001, 6.9094445E-002, 1.3548895E-001, 6.7156198E-002, 5.7505733E-003, 3.6982718E-002, 2.0566975E-003, 4.1623174E+002
 9.4011397E+001, 6.9461091E-002, 1.3497291E-001, 6.6944184E-002, 5.7576869E-003, 3.7760407E-002, 2.0551320E-003, 4.1449373E+002
 9.5008427E+001, 6.9637191E-002, 1.3485241E-001, 6.6845663E-002, 5.7067696E-003, 3.7861574E-002, 2.0433898E-003, 4.1136284E+002
 9.6006352E+001, 6.9666122E-002, 1.3465273E-001, 6.6818930E-002, 5.7691252E-003, 3.8298459E-002, 2.0556807E-003, 4.1069923E+002
 9.7008240E+001, 6.9616179E-002, 1.3474883E-001, 6.6785315E-002, 5.6923312E-003, 3.8519752E-002, 2.0396443E-003, 4.1447199E+002
 9.8008912E+001, 6.9792194E-002, 1.3456238E-001, 6.6681890E-002, 5.6662791E-003, 3.8781622E-002, 2.0328856E-003, 4.1170627E+002
 9.9001405E+001, 6.9986932E-002, 1.3433450E-001, 6.6545458E-002, 5.6246642E-003, 3.9247363E-002, 2.0225109E-003, 4.1291712E+002
 1.0000676E+002, 6.9938969E-002, 1.3438415E-001, 6.6543946E-002, 5.6018209E-003, 3.9358086E-002, 2.0178676E-003, 4.1423144E+002
 1.0101272E+002, 6.9969992E-002, 1.3430307E-001, 6.6456671E-002, 5.5482342E-003, 3.9917776E-002, 2.0057868E-003, 4.1244327E+002
 1.0200984E+002, 7.0117103E-002, 1.3412003E-001, 6.6330795E-002, 5.4983312E-003, 4.0429307E-002, 1.9938889E-003, 4.1269189E+002
 1.0300395E+002, 6.9948518E-002, 1.3430509E-001, 6.6413858E-002, 5.5039294E-003, 4.0262475E-002, 1.9962140E-003, 4.1108072E+002
 1.0400873E+002, 7.0239335E-002, 1.3404212E-001, 6.6293184E-002, 5.4919677E-003, 4.0301859E-002, 1.9920424E-003, 4.1226766E+002
 1.0500319E+002, 7.0196638E-002, 1.3403218E-001, 6.6322961E-002, 5.5281091E-003, 4.0319263E-002, 1.9998025E-003, 4.1335085E+002
 1.0600655E+002, 7.0505914E-002, 1.3357664E-001, 6.6121285E-002, 5.5198513E-003, 4.1153625E-002, 1.9952757E-003, 4.1163732E+002
 1.0701044E+002, 7.0459886E-002, 1.3353766E-001, 6.6107458E-002, 5.5244953E-003, 4.1506428E-002, 1.9960470E-003, 4.1386172E+002
 1.0800843E+002, 7.0527051E-002, 1.3338273E-001, 6.6093962E-002, 5.5791796E-003, 4.1615131E-002, 2.0069465E-003, 4.0929326E+002
 1.0901118E+002, 7.0350835E-002, 1.3368754E-001, 6.6182235E-002, 5.5360373E-003, 4.1211321E-002, 1.9994458E-003, 4.1438868E+002
 1.1000724E+002, 7.0631249E-002, 1.3324529E-001, 6.6068150E-002, 5.6123681E-003, 4.1609395E-002, 2.0132998E-003, 4.0906179E+002
 1.1100332E+002, 7.0480237E-002, 1.3320066E-001, 6.6096073E-002, 5.6650598E-003, 4.2158224E-002, 2.0244339E-003, 4.1219328E+002
 1.1200172E+002, 7.0572948E-002, 1.3321573E-001, 6.6071215E-002, 5.6303853E-003, 4.1892425E-002, 2.0170212E-003, 4.1208375E+002
 1.1301196E+002, 7.0656886E-002, 1.3303067E-001, 6.6052838E-002, 5.6932930E-003, 4.2020445E-002, 2.0295186E-003, 4.0861864E+002
 1.1400780E+002, 7.0565339E-002, 1.3301542E-001, 6.6020434E-002, 5.6692681E-003, 4.2628442E-002, 2.0242307E-003, 4.1074217E+002
 1.1500026E+002, 7.0553480E-002, 1.3280912E-001, 6.5987698E-002, 5.7294887E-003, 4.3284781E-002, 2.0360207E-003, 4.0942837E+002
 1.1600743E+002, 7.0431132E-002, 1.3307428E-001, 6.6032138E-002, 5.6579801E-003, 4.3000360E-002, 2.0221441E-003, 4.0932375E+002
 1.1700135E+002, 7.0415347E-002, 1.3307766E-001, 6.6059863E-002, 5.6852975E-003, 4.2891614E-002, 2.0280747E-003, 4.1160735E+002
 1.1800293E+002, 7.0425361E-002, 1.3307225E-001, 6.6038146E-002, 5.6652154E-003, 4.2992084E-002, 2.0236973E-003, 4.1145622E+002
 1.1900316E+002, 7.0326956E-002, 1.3293707E-001, 6.6033892E-002, 5.7246051E-003, 4.3695827E-002, 2.0357360E-003, 4.1159345E+002
 1.2000398E+002, 7.0621596E-002, 1.3275350E-001, 6.5935699E-002, 5.6996259E-003, 4.3425867E-002, 2.0292248E-003, 4.1022101E+002
 1.2100130E+002, 7.0703288E-002, 1.3266049E-001, 6.5899509E-002, 5.7025916E-003, 4.3488737E-002, 2.0293066E-003, 4.1046644E+002
 1.2200964E+002, 7.0533017E-002, 1.3274245E-001, 6.5926985E-002, 5.6979284E-003, 4.3869739E-002, 2.0287926E-003, 4.1356042E+002
 1.2300052E+002, 7.0689330E-002, 1.3242763E-001, 6.5857997E-002, 5.7659015E-003, 4.4259601E-002, 2.0416055E-003, 4.1092950E+002
 1.2400408E+002, 7.0473638E-002, 1.3268397E-001, 6.5936925E-002, 5.7361340E-003, 4.4172937E-002, 2.0367081E-003, 4.1374099E+002
 1.2500830E+002, 7.0749455E-002, 1.3234738E-001, 6.5790953E-002, 5.7319645E-003, 4.4573860E-002, 2.0337805E-003, 4.1397073E+002
 1.2600485E+002, 7.0782548E-002, 1.3228172E-001, 6.5771313E-002, 5.7407426E-003, 4.4684929E-002, 2.0352848E-003, 4.1130780E+002
 1.2700624E+002, 7.0615243E-002, 1.3229050E-001, 6.5870470E-002, 5.8427296E-003, 4.4764598E-002, 2.0574048E-003, 4.1154437E+002
 1.2800882E+002, 7.0564291E-002, 1.3230436E-001, 6.5908005E-002, 5.8762480E-003, 4.4722273E-002, 2.0647405E-003, 4.1181197E+002
 1.2900206E+002, 7.0444668E-002, 1.3241853E-001, 6.5936574E-002, 5.8568301E-003, 4.4821735E-002, 2.0612269E-003, 4.1718450E+002
 1.3000927E+002, 7.0794350E-002, 1.3221422E-001, 6.5773893E-002, 5.7736901E-003, 4.4753856E-002, 2.0420074E-003, 4.1012861E+002
 1.3100851E+002, 7.0646668E-002, 1.3201401E-001, 6.5868442E-002, 5.9651891E-003, 4.5193700E-002, 2.0822380E-003, 4.0893953E+002
 1.3200240E+002, 7.0323262E-002, 1.3250907E-001, 6.6038594E-002, 5.9235378E-003, 4.4530764E-002, 2.0762046E-003, 4.1210641E+002
 1.3300652E+002, 7.0600682E-002, 1.3212382E-001, 6.5864345E-002, 5.9123695E-003, 4.5192618E-002, 2.0714706E-003, 4.1406443E+002
 1.3400955E+002, 7.0710105E-002, 1.3176258E-001, 6.5803590E-002, 6.0110102E-003, 4.5820038E-002, 2.0906405E-003, 4.1275195E+002
 1.3500097E+002, 7.0639361E-002, 1.3174183E-001, 6.5844394E-002, 6.0640746E-003, 4.5909007E-002, 2.1019974E-003, 4.1261304E+002
 1.3600953E+002, 7.0641388E-002, 1.3180231E-001, 6.5855640E-002, 6.0481469E-003, 4.5712636E-002, 2.0989146E-003, 4.0774243E+002
 1.3700273E+002, 7.0572758E-002, 1.3173024E-001, 6.5876742E-002, 6.1042024E-003, 4.6013760E-002, 2.1106104E-003, 4.1103992E+002
 1.3800854E+002, 7.0650440E-002, 1.3186370E-001, 6.5848423E-002, 6.0126862E-003, 4.5596980E-002, 2.0916112E-003, 4.0993657E+002
 1.3900251E+002, 7.1084519E-002, 1.3136886E-001, 6.5638617E-002, 6.0107541E-003, 4.6038218E-002, 2.0882150E-003, 4.0603675E+002
 1.4000622E+002, 7.0850000E-002, 1.3149950E-001, 6.5677394E-002, 5.9972422E-003, 4.6522152E-002, 2.0860798E-003, 4.0730267E+002
 1.4101387E+002, 7.0694211E-002, 1.3158845E-001, 6.5772208E-002, 6.0581443E-003, 4.6421288E-002, 2.0997925E-003, 4.1341960E+002
 1.4201197E+002, 7.1099854E-002, 1.3110320E-001, 6.5565965E-002, 6.0562387E-003, 4.6940479E-002, 2.0964600E-003, 4.0577539E+002
 1.4300588E+002, 7.0972946E-002, 1.3143178E-001, 6.5660674E-002, 6.0076807E-003, 4.6245083E-002, 2.0879296E-003, 4.1461196E+002
 1.4400128E+002, 7.0862010E-002, 1.3140032E-001, 6.5712846E-002, 6.0782753E-003, 4.6453969E-002, 2.1030155E-003, 4.0922932E+002
 1.4500066E+002, 7.0619300E-002, 1.3148681E-001, 6.5809470E-002, 6.1443430E-003, 4.6709329E-002, 2.1178322E-003, 4.0979006E+002
 1.4600522E+002, 7.0887847E-002, 1.3141393E-001, 6.5706663E-002, 6.0651096E-003, 4.6356746E-002, 2.1002484E-003, 4.0754774E+002
 1.4700382E+002, 7.1152034E-002, 1.3115272E-001, 6.5570905E-002, 6.0375458E-003, 4.6594970E-002, 2.0927123E-003, 4.1206614E+002
 1.4801044E+002, 7.0541980E-002, 1.3159321E-001, 6.5817185E-002, 6.1059785E-003, 4.6774092E-002, 2.1101723E-003, 4.0945571E+002
 1.4900586E+002, 7.0631562E-002, 1.3136943E-001, 6.5772801E-002, 6.1596127E-003, 4.7112770E-002, 2.1204308E-003, 4.0963482E+002
 1.5001198E+002, 7.0185788E-002, 1.3177079E-001, 6.6020357E-002, 6.2429484E-003, 4.6676937E-002, 2.1408774E-003, 4.1656722E+002
 1.5100871E+002, 7.0856357E-002, 1.3128401E-001, 6.5712678E-002, 6.1309690E-003, 4.6708993E-002, 2.1137173E-003, 4.1028387E+002
 1.5200086E+002, 7.0748641E-002, 1.3125887E-001, 6.5720898E-002, 6.1535161E-003, 4.7158026E-002, 2.1184460E-003, 4.0800169E+002
 1.5300759E+002, 7.0591202E-002, 1.3122568E-001, 6.5691299E-002, 6.1421651E-003, 4.8059244E-002, 2.1157933E-003, 4.1099701E+002
 1.5400364E+002, 7.0709806E-002, 1.3118546E-001, 6.5679076E-002, 6.1448602E-003, 4.7718555E-002, 2.1161331E-003, 4.0611727E+002
