s,,,,,,,
Time,O2 EXHAUST,CO2 EXHAUST,H2O EXHAUST,CO EXHAUST,FUEL EXHAUST,SOOT EXHAUST,TEMP EXHAUST
 0.0000000E+000, 2.3099739E-001, 5.9146498E-004, 5.9412092E-003, 0.0000000E+000, 0.0000000E+000, 0.0000000E+000, 2.0000000E+001
 1.0043397E+000, 2.3099739E-001, 5.9146498E-004, 5.9412092E-003, 3.3013124E-033, 4.8880381E-032, 1.0748096E-033, 2.0467247E+001
 2.0041231E+000, 2.2396472E-001, 6.0748240E-003, 1.0528750E-002, 1.3589502E-005, 1.7398464E-004, 3.4725323E-005, 9.1509399E+001
 3.0019543E+000, 2.1897771E-001, 9.9813834E-003, 1.3796522E-002, 2.2700792E-005, 2.0169827E-004, 5.9342373E-005, 1.3938743E+002
 4.0051048E+000, 2.1376432E-001, 1.4060468E-002, 1.7209104E-002, 3.2539886E-005, 2.5453637E-004, 8.5116439E-005, 1.8833542E+002
 5.0015075E+000, 2.0988768E-001, 1.7102704E-002, 1.9752015E-002, 3.8599377E-005, 2.5410741E-004, 1.0406480E-004, 2.2108349E+002
 6.0028929E+000, 2.0452005E-001, 2.1320886E-002, 2.3270432E-002, 4.3126292E-005, 2.5168984E-004, 1.2950668E-004, 2.6600558E+002
 7.0056987E+000, 2.0089223E-001, 2.4184411E-002, 2.5649654E-002, 4.1287490E-005, 2.1968976E-004, 1.4572472E-004, 2.9198329E+002
 8.0059796E+000, 1.9502202E-001, 2.8826432E-002, 2.9503171E-002, 3.6441677E-005, 1.3584536E-004, 1.7161561E-004, 3.3001033E+002
 9.0074461E+000, 1.8843589E-001, 3.4033220E-002, 3.3825050E-002, 3.0786887E-005, 5.1005773E-005, 2.0060947E-004, 3.6890999E+002
 1.0005555E+001, 1.8252865E-001, 3.8692335E-002, 3.7698919E-002, 2.9246529E-005, 7.2066935E-006, 2.2730837E-004, 3.9788684E+002
 1.1004814E+001, 1.7695189E-001, 4.3078951E-002, 4.1353503E-002, 3.1688334E-005, 1.0275419E-007, 2.5328032E-004, 4.1622402E+002
 1.2007318E+001, 1.7229538E-001, 4.6739652E-002, 4.4404605E-002, 3.4416489E-005, 3.4226051E-008, 2.7510237E-004, 4.2982171E+002
 1.3005133E+001, 1.6591636E-001, 5.1754467E-002, 4.8584349E-002, 3.8165533E-005, 3.5947837E-008, 3.0499905E-004, 4.4692171E+002
 1.4003937E+001, 1.6133997E-001, 5.5352188E-002, 5.1582931E-002, 4.0832010E-005, 3.0552850E-008, 3.2644252E-004, 4.5575761E+002
 1.5006227E+001, 1.5528009E-001, 6.0116065E-002, 5.5553569E-002, 4.4417146E-005, 5.6980634E-008, 3.5484826E-004, 4.6891336E+002
 1.6002430E+001, 1.5178202E-001, 6.2866047E-002, 5.7845618E-002, 4.6470990E-005, 6.5052282E-008, 3.7124231E-004, 4.6869980E+002
 1.7003794E+001, 1.4574900E-001, 6.7608931E-002, 6.1798616E-002, 4.9966413E-005, 2.7681855E-008, 3.9950703E-004, 4.7709269E+002
 1.8000885E+001, 1.4311211E-001, 6.9681936E-002, 6.3526382E-002, 5.1494920E-005, 1.4959873E-008, 4.1186105E-004, 4.7633190E+002
 1.9004727E+001, 1.3927885E-001, 7.2695375E-002, 6.6038067E-002, 5.3771846E-005, 5.2702150E-008, 4.2983135E-004, 4.8211333E+002
 2.0005285E+001, 1.3623658E-001, 7.5087061E-002, 6.8031450E-002, 5.5539780E-005, 2.6895155E-008, 4.4408549E-004, 4.7816583E+002
 2.1008295E+001, 1.3381846E-001, 7.6988049E-002, 6.9615878E-002, 5.6957785E-005, 2.9753724E-008, 4.5541788E-004, 4.7522206E+002
 2.2008291E+001, 1.3091659E-001, 7.9269314E-002, 7.1517287E-002, 5.8674510E-005, 4.5172258E-008, 4.6902044E-004, 4.8360802E+002
 2.3000445E+001, 1.2773034E-001, 8.1774168E-002, 7.3605013E-002, 6.0538304E-005, 4.4604594E-008, 4.8395167E-004, 4.8441842E+002
 2.4002088E+001, 1.2486881E-001, 8.4023746E-002, 7.5479979E-002, 6.2214342E-005, 3.7824420E-008, 4.9736168E-004, 4.8279522E+002
 2.5000256E+001, 1.2373653E-001, 8.4913903E-002, 7.6221869E-002, 6.2860487E-005, 3.4491727E-008, 5.0266436E-004, 4.7680790E+002
 2.6001457E+001, 1.2051588E-001, 8.7445809E-002, 7.8332133E-002, 6.4738944E-005, 2.1392038E-008, 5.1775566E-004, 4.7570978E+002
 2.7003078E+001, 1.1837296E-001, 8.9130413E-002, 7.9736258E-002, 6.6020878E-005, 3.9285327E-008, 5.2780355E-004, 4.7767955E+002
 2.8001909E+001, 1.1583786E-001, 9.1123365E-002, 8.1397338E-002, 6.7508313E-005, 4.1655362E-008, 5.3968434E-004, 4.8106673E+002
 2.9000552E+001, 1.1407150E-001, 9.2512005E-002, 8.2554701E-002, 6.8525927E-005, 2.8248593E-008, 5.4795856E-004, 4.8062959E+002
 3.0005899E+001, 1.1248448E-001, 9.3759632E-002, 8.3594561E-002, 6.9452618E-005, 2.7905794E-008, 5.5539521E-004, 4.7737599E+002
 3.1004569E+001, 1.0984037E-001, 9.5838235E-002, 8.5327086E-002, 7.1033948E-005, 5.7663147E-008, 5.6779302E-004, 4.7774655E+002
 3.2000619E+001, 1.0813994E-001, 9.7175003E-002, 8.6441265E-002, 7.2039166E-005, 6.1185991E-008, 5.7576365E-004, 4.8003060E+002
 3.3001222E+001, 1.0539976E-001, 9.9329217E-002, 8.8236705E-002, 7.3622042E-005, 4.0798715E-008, 5.8860045E-004, 4.7932817E+002
 3.4000522E+001, 1.0376917E-001, 1.0061107E-001, 8.9305123E-002, 7.4590293E-005, 4.6288691E-008, 5.9624457E-004, 4.7834697E+002
 3.5004381E+001, 1.0206430E-001, 1.0195135E-001, 9.0422205E-002, 7.5584355E-005, 4.3655442E-008, 6.0423319E-004, 4.7839105E+002
 3.6000758E+001, 9.9106061E-002, 1.0427693E-001, 9.2360542E-002, 7.7329684E-005, 6.5910473E-008, 6.1809899E-004, 4.7930886E+002
 3.7001424E+001, 9.8282416E-002, 1.0492450E-001, 9.2900197E-002, 7.7772184E-005, 2.5183546E-008, 6.2195065E-004, 4.7677162E+002
 3.8007917E+001, 9.5879501E-002, 1.0681351E-001, 9.4474674E-002, 7.9201500E-005, 4.3404430E-008, 6.3321594E-004, 4.7867180E+002
 3.9003900E+001, 9.3898550E-002, 1.0837083E-001, 9.5772652E-002, 8.0356636E-005, 3.9005903E-008, 6.4249822E-004, 4.7918530E+002
 4.0003230E+001, 9.2871842E-002, 1.0917798E-001, 9.6445379E-002, 8.0952234E-005, 3.9056316E-008, 6.4730850E-004, 4.7965831E+002
 4.1001647E+001, 9.0385231E-002, 1.1113278E-001, 9.8074695E-002, 8.2426653E-005, 4.5108774E-008, 6.5896521E-004, 4.8075945E+002
 4.2002181E+001, 8.9301219E-002, 1.1198500E-001, 9.8784964E-002, 8.3047070E-005, 3.7816818E-008, 6.6404224E-004, 4.7822579E+002
 4.3000988E+001, 8.7222158E-002, 1.1361939E-001, 1.0014725E-001, 8.4293662E-005, 6.5768358E-008, 6.7379126E-004, 4.7797833E+002
 4.4007233E+001, 8.5969649E-002, 1.1460406E-001, 1.0096792E-001, 8.5013290E-005, 5.6316061E-008, 6.7965803E-004, 4.7629006E+002
 4.5003446E+001, 8.4059452E-002, 1.1610575E-001, 1.0221955E-001, 8.6139485E-005, 4.5758870E-008, 6.8861132E-004, 4.7436404E+002
 4.6000578E+001, 8.3814508E-002, 1.1629833E-001, 1.0238003E-001, 8.6267735E-005, 5.2562601E-008, 6.8975606E-004, 4.7640085E+002
 4.7009104E+001, 8.1320868E-002, 1.1825867E-001, 1.0401395E-001, 8.7741151E-005, 5.0890559E-008, 7.0144466E-004, 4.7872288E+002
 4.8007040E+001, 7.9527939E-002, 1.1966675E-001, 1.0518929E-001, 8.9698448E-005, 7.1022945E-007, 7.1003311E-004, 4.7586189E+002
 4.9008845E+001, 7.9491256E-002, 1.1969609E-001, 1.0521310E-001, 8.9387129E-005, 5.6459180E-007, 7.1013659E-004, 4.7472461E+002
 5.0001669E+001, 7.8397838E-002, 1.2055564E-001, 1.0592956E-001, 9.0051722E-005, 5.7570475E-007, 7.1526565E-004, 4.7626046E+002
 5.1003169E+001, 7.4826845E-002, 1.2334530E-001, 1.0827637E-001, 1.0345414E-004, 8.2622112E-006, 7.3432312E-004, 4.7955918E+002
 5.2002694E+001, 7.4095536E-002, 1.2392009E-001, 1.0875568E-001, 1.0400209E-004, 8.0188990E-006, 7.3777516E-004, 4.8299458E+002
 5.3000275E+001, 7.2508580E-002, 1.2516356E-001, 1.0979691E-001, 1.0744922E-004, 1.0664351E-005, 7.4572814E-004, 4.8015625E+002
 5.4005973E+001, 7.2090586E-002, 1.2549196E-001, 1.1007087E-001, 1.0782387E-004, 1.0750369E-005, 7.4771364E-004, 4.7646778E+002
 5.5007782E+001, 7.0518790E-002, 1.2671468E-001, 1.1110568E-001, 1.1693417E-004, 1.7176463E-005, 7.5676043E-004, 4.7904737E+002
 5.6002796E+001, 6.8663048E-002, 1.2815482E-001, 1.1232901E-001, 1.3001063E-004, 2.5478146E-005, 7.6791893E-004, 4.7840759E+002
 5.7004066E+001, 6.8888778E-002, 1.2798425E-001, 1.1217820E-001, 1.2538130E-004, 2.3187236E-005, 7.6593678E-004, 4.7742793E+002
 5.8003775E+001, 6.6887822E-002, 1.2953276E-001, 1.1349932E-001, 1.4243289E-004, 3.2585880E-005, 7.7857627E-004, 4.7714008E+002
 5.9002944E+001, 6.6475513E-002, 1.2985850E-001, 1.1376853E-001, 1.4148483E-004, 3.3156661E-005, 7.8026274E-004, 4.7332438E+002
 6.0005898E+001, 6.4996078E-002, 1.3101353E-001, 1.1474074E-001, 1.4731669E-004, 3.7977063E-005, 7.8821394E-004, 4.7787447E+002
 6.1000747E+001, 6.4115757E-002, 1.3169305E-001, 1.1532216E-001, 1.5568292E-004, 4.4896102E-005, 7.9394987E-004, 4.7501629E+002
 6.2001589E+001, 6.2652410E-002, 1.3282979E-001, 1.1628571E-001, 1.6494417E-004, 5.3600276E-005, 8.0253022E-004, 4.7744065E+002
 6.3005313E+001, 6.2671896E-002, 1.3281184E-001, 1.1627406E-001, 1.6665795E-004, 5.4428623E-005, 8.0279354E-004, 4.7584583E+002
 6.4006868E+001, 6.0662633E-002, 1.3439352E-001, 1.1758944E-001, 1.6632190E-004, 5.4788332E-005, 8.1189741E-004, 4.7947635E+002
 6.5004432E+001, 6.0012027E-002, 1.3489581E-001, 1.1801927E-001, 1.7253280E-004, 5.9197010E-005, 8.1614306E-004, 4.7526104E+002
 6.6001202E+001, 5.9353751E-002, 1.3541207E-001, 1.1845097E-001, 1.7365539E-004, 6.0169788E-005, 8.1937879E-004, 4.7657087E+002
 6.7002962E+001, 5.8203660E-002, 1.3630736E-001, 1.1920798E-001, 1.7996031E-004, 6.4320522E-005, 8.2592453E-004, 4.7665693E+002
 6.8000745E+001, 5.7710532E-002, 1.3669098E-001, 1.1953267E-001, 1.8283163E-004, 6.6184076E-005, 8.2876568E-004, 4.7417644E+002
 6.9005104E+001, 5.7180739E-002, 1.3710157E-001, 1.1988114E-001, 1.8641649E-004, 7.2787344E-005, 8.3191628E-004, 4.7137203E+002
 7.0006680E+001, 5.5749158E-002, 1.3821335E-001, 1.2082525E-001, 1.9635315E-004, 7.5931079E-005, 8.4049664E-004, 4.7499883E+002
 7.1004436E+001, 5.5065735E-002, 1.3874528E-001, 1.2127501E-001, 2.0009660E-004, 7.8874391E-005, 8.4438519E-004, 4.7751896E+002
 7.2007777E+001, 5.4171472E-002, 1.3944665E-001, 1.2186090E-001, 2.0131264E-004, 8.2444333E-005, 8.4871487E-004, 4.7478088E+002
 7.3007705E+001, 5.2932454E-002, 1.4039056E-001, 1.2268618E-001, 2.2211436E-004, 8.9543760E-005, 8.5865086E-004, 4.8168240E+002
 7.4000577E+001, 5.2128683E-002, 1.4103476E-001, 1.2320713E-001, 2.1427202E-004, 8.7500147E-005, 8.6070665E-004, 4.7742006E+002
 7.5004518E+001, 5.2013508E-002, 1.4113200E-001, 1.2327950E-001, 2.0981642E-004, 8.6388353E-005, 8.6031550E-004, 4.7886368E+002
 7.6000811E+001, 5.0793551E-002, 1.4207623E-001, 1.2408451E-001, 2.1992798E-004, 9.3701014E-005, 8.6796131E-004, 4.7918474E+002
 7.7005885E+001, 5.0222705E-002, 1.4250158E-001, 1.2446807E-001, 2.3539501E-004, 1.0286755E-004, 8.7374520E-004, 4.7748119E+002
 7.8008695E+001, 5.0106311E-002, 1.4260210E-001, 1.2454076E-001, 2.2968452E-004, 9.8979363E-005, 8.7310395E-004, 4.7442256E+002
 7.9009446E+001, 4.9621356E-002, 1.4297998E-001, 1.2485894E-001, 2.3165787E-004, 1.0410348E-004, 8.7571930E-004, 4.7343143E+002
 8.0007134E+001, 4.8215782E-002, 1.4406810E-001, 1.2578707E-001, 2.4352747E-004, 1.0951194E-004, 8.8457686E-004, 4.7518173E+002
 8.1008198E+001, 4.8209300E-002, 1.4408321E-001, 1.2578651E-001, 2.3669027E-004, 1.0853313E-004, 8.8319855E-004, 4.7363133E+002
 8.2001735E+001, 4.6327839E-002, 1.4555743E-001, 1.2702168E-001, 2.4114442E-004, 1.0887016E-004, 8.9270607E-004, 4.8034145E+002
 8.3009246E+001, 4.6159911E-002, 1.4568214E-001, 1.2713442E-001, 2.4582847E-004, 1.1278865E-004, 8.9443387E-004, 4.7355975E+002
 8.4002383E+001, 4.6499079E-002, 1.4541233E-001, 1.2691305E-001, 2.4746509E-004, 1.1573478E-004, 8.9321951E-004, 4.7065705E+002
 8.5006295E+001, 4.5144749E-002, 1.4648493E-001, 1.2779689E-001, 2.4297374E-004, 1.1403402E-004, 8.9847911E-004, 4.7386523E+002
 8.6007379E+001, 4.4927288E-002, 1.4665633E-001, 1.2793884E-001, 2.4263501E-004, 1.1527681E-004, 8.9940084E-004, 4.7818765E+002
 8.7008659E+001, 4.3745192E-002, 1.4757405E-001, 1.2871859E-001, 2.5106232E-004, 1.1783330E-004, 9.0653174E-004, 4.7883595E+002
 8.8005797E+001, 4.4422926E-002, 1.4704896E-001, 1.2827120E-001, 2.4559146E-004, 1.1556589E-004, 9.0231249E-004, 4.7670646E+002
 8.9005107E+001, 4.3567174E-002, 1.4770107E-001, 1.2884007E-001, 2.5930683E-004, 1.2458490E-004, 9.0903633E-004, 4.7622051E+002
 9.0007049E+001, 4.1766593E-002, 1.4908308E-001, 1.3003458E-001, 2.8256828E-004, 1.3337127E-004, 9.2204129E-004, 4.7438288E+002
 9.1006929E+001, 4.2031776E-002, 1.4888536E-001, 1.2985487E-001, 2.7465607E-004, 1.3551636E-004, 9.1919784E-004, 4.7931858E+002
 9.2007339E+001, 4.0850436E-002, 1.4981978E-001, 1.3062658E-001, 2.7164951E-004, 1.3333926E-004, 9.2397410E-004, 4.7664880E+002
 9.3003057E+001, 4.0485493E-002, 1.5011782E-001, 1.3086120E-001, 2.6467893E-004, 1.2882836E-004, 9.2420862E-004, 4.7324294E+002
 9.4006424E+001, 4.0266436E-002, 1.5029069E-001, 1.3100374E-001, 2.6401302E-004, 1.3147293E-004, 9.2506874E-004, 4.7512618E+002
 9.5000335E+001, 4.0143933E-002, 1.5036314E-001, 1.3109360E-001, 2.7944218E-004, 1.4126622E-004, 9.2879720E-004, 4.7789820E+002
 9.6003872E+001, 3.9216026E-002, 1.5108793E-001, 1.3170323E-001, 2.8287532E-004, 1.4417317E-004, 9.3373805E-004, 4.8071793E+002
 9.7005014E+001, 3.9104907E-002, 1.5118299E-001, 1.3177326E-001, 2.7814231E-004, 1.3972969E-004, 9.3327473E-004, 4.7452700E+002
 9.8004192E+001, 3.8024674E-002, 1.5203647E-001, 1.3247997E-001, 2.7634365E-004, 1.3549938E-004, 9.3784046E-004, 4.7898489E+002
 9.9005996E+001, 3.7933646E-002, 1.5210552E-001, 1.3253964E-001, 2.7751455E-004, 1.4045632E-004, 9.3849212E-004, 4.8224365E+002
 1.0000650E+002, 3.7216441E-002, 1.5267473E-001, 1.3300780E-001, 2.7466622E-004, 1.3668613E-004, 9.4118361E-004, 4.7806454E+002
 1.0100539E+002, 3.7197455E-002, 1.5266750E-001, 1.3302876E-001, 2.8874561E-004, 1.4737645E-004, 9.4416036E-004, 4.7603691E+002
 1.0200891E+002, 3.8563512E-002, 1.5161351E-001, 1.3212302E-001, 2.7376743E-004, 1.4977120E-004, 9.3483441E-004, 4.7482107E+002
 1.0300659E+002, 3.6540908E-002, 1.5319232E-001, 1.3345551E-001, 2.8356425E-004, 1.4359442E-004, 9.4609417E-004, 4.7844501E+002
 1.0400686E+002, 3.6577676E-002, 1.5316225E-001, 1.3343194E-001, 2.8432020E-004, 1.4386650E-004, 9.4608179E-004, 4.7370957E+002
 1.0500101E+002, 3.6313411E-002, 1.5337191E-001, 1.3360456E-001, 2.8337031E-004, 1.4212885E-004, 9.4709440E-004, 4.7832977E+002
 1.0600884E+002, 3.5438931E-002, 1.5404307E-001, 1.3418520E-001, 2.9493921E-004, 1.4442695E-004, 9.5346852E-004, 4.7646943E+002
 1.0700864E+002, 3.5838733E-002, 1.5372418E-001, 1.3392533E-001, 2.9778555E-004, 1.4532536E-004, 9.5222878E-004, 4.7664801E+002
 1.0800494E+002, 3.5743086E-002, 1.5379459E-001, 1.3398917E-001, 3.0053617E-004, 1.5028738E-004, 9.5322705E-004, 4.7181475E+002
 1.0900248E+002, 3.4188359E-002, 1.5502302E-001, 1.3500630E-001, 2.9792790E-004, 1.4408599E-004, 9.5979437E-004, 4.8093286E+002
 1.1000901E+002, 3.3762132E-002, 1.5534327E-001, 1.3529207E-001, 3.0798953E-004, 1.4804416E-004, 9.6380958E-004, 4.7747661E+002
 1.1100845E+002, 3.3396763E-002, 1.5562422E-001, 1.3553311E-001, 3.1180156E-004, 1.5419417E-004, 9.6625677E-004, 4.7770680E+002
 1.1200657E+002, 3.3941328E-002, 1.5518558E-001, 1.3518062E-001, 3.1830534E-004, 1.5815725E-004, 9.6510656E-004, 4.7902983E+002
 1.1300484E+002, 3.2825726E-002, 1.5606748E-001, 1.3590948E-001, 3.1574507E-004, 1.5677891E-004, 9.6967382E-004, 4.8334908E+002
 1.1400029E+002, 3.2780675E-002, 1.5611668E-001, 1.3593287E-001, 3.0659707E-004, 1.5348829E-004, 9.6799784E-004, 4.7696895E+002
 1.1500076E+002, 3.3056777E-002, 1.5590934E-001, 1.3574731E-001, 2.9979671E-004, 1.5246453E-004, 9.6533700E-004, 4.7419128E+002
 1.1600287E+002, 3.2514532E-002, 1.5632554E-001, 1.3610724E-001, 3.0690445E-004, 1.5427069E-004, 9.6927546E-004, 4.7980118E+002
 1.1700922E+002, 3.2728433E-002, 1.5617834E-001, 1.3595867E-001, 2.9329216E-004, 1.4564444E-004, 9.6550289E-004, 4.7883708E+002
 1.1800883E+002, 3.1499872E-002, 1.5710677E-001, 1.3678029E-001, 3.1889870E-004, 1.5458234E-004, 9.7637933E-004, 4.7837431E+002
 1.1900239E+002, 3.2013629E-002, 1.5673340E-001, 1.3642944E-001, 2.9795391E-004, 1.4988629E-004, 9.6972257E-004, 4.7542767E+002
 1.2000200E+002, 3.0759696E-002, 1.5768971E-001, 1.3726365E-001, 3.1804314E-004, 1.5898558E-004, 9.7957773E-004, 4.8069610E+002
 1.2100194E+002, 3.0809829E-002, 1.5764945E-001, 1.3723282E-001, 3.1941150E-004, 1.5260912E-004, 9.7963755E-004, 4.7651408E+002
 1.2200770E+002, 3.1017097E-002, 1.5750160E-001, 1.3708848E-001, 3.0832013E-004, 1.5629148E-004, 9.7640176E-004, 4.7689369E+002
 1.2300405E+002, 3.0408108E-002, 1.5795054E-001, 1.3750104E-001, 3.2865784E-004, 1.6233209E-004, 9.8336679E-004, 4.7676071E+002
 1.2400874E+002, 3.0492353E-002, 1.5789931E-001, 1.3743961E-001, 3.1885116E-004, 1.5697382E-004, 9.8096694E-004, 4.7359569E+002
 1.2500335E+002, 2.9730126E-002, 1.5845349E-001, 1.3795921E-001, 3.4934603E-004, 1.6720288E-004, 9.9072026E-004, 4.7971525E+002
 1.2600264E+002, 2.9757546E-002, 1.5844923E-001, 1.3793298E-001, 3.3752548E-004, 1.6534867E-004, 9.8816117E-004, 4.7443786E+002
 1.2700034E+002, 2.9491074E-002, 1.5865343E-001, 1.3810929E-001, 3.4087454E-004, 1.6920879E-004, 9.9006384E-004, 4.7631441E+002
 1.2800280E+002, 2.8620292E-002, 1.5931676E-001, 1.3869039E-001, 3.5606878E-004, 1.6990378E-004, 9.9716984E-004, 4.7918730E+002
 1.2900600E+002, 2.9698758E-002, 1.5850791E-001, 1.3796576E-001, 3.2916573E-004, 1.6315706E-004, 9.8670919E-004, 4.7605888E+002
 1.3000308E+002, 2.9429904E-002, 1.5868561E-001, 1.3815636E-001, 3.5145711E-004, 1.7335725E-004, 9.9251950E-004, 4.7612370E+002
 1.3100672E+002, 2.9328838E-002, 1.5879329E-001, 1.3821037E-001, 3.3290227E-004, 1.6522967E-004, 9.8916590E-004, 4.7741324E+002
 1.3200494E+002, 2.8196759E-002, 1.5965630E-001, 1.3896639E-001, 3.5266057E-004, 1.6264147E-004, 9.9840885E-004, 4.7716051E+002
 1.3300825E+002, 2.8199940E-002, 1.5965105E-001, 1.3896459E-001, 3.5401057E-004, 1.6704993E-004, 9.9866787E-004, 4.7989471E+002
 1.3400102E+002, 2.8010856E-002, 1.5981542E-001, 1.3908171E-001, 3.4376972E-004, 1.6243114E-004, 9.9742569E-004, 4.8272927E+002
 1.3500775E+002, 2.7990082E-002, 1.5982911E-001, 1.3909749E-001, 3.4604135E-004, 1.5908139E-004, 9.9799219E-004, 4.7890358E+002
 1.3600434E+002, 2.7961583E-002, 1.5985364E-001, 1.3911452E-001, 3.4428874E-004, 1.6135853E-004, 9.9775874E-004, 4.7610644E+002
 1.3700631E+002, 2.8249139E-002, 1.5962513E-001, 1.3892507E-001, 3.4466905E-004, 1.7049018E-004, 9.9651461E-004, 4.7588563E+002
 1.3800183E+002, 2.8061245E-002, 1.5976700E-001, 1.3905030E-001, 3.4842025E-004, 1.7381387E-004, 9.9814196E-004, 4.7735331E+002
 1.3900616E+002, 2.7050249E-002, 1.6056320E-001, 1.3971499E-001, 3.4954415E-004, 1.6187801E-004, 1.0030020E-003, 4.8067722E+002
 1.4000405E+002, 2.7567879E-002, 1.6018008E-001, 1.3936529E-001, 3.3341767E-004, 1.5597410E-004, 9.9732171E-004, 4.7626580E+002
 1.4100359E+002, 2.7417271E-002, 1.6028386E-001, 1.3947001E-001, 3.4299844E-004, 1.6135293E-004, 9.9997797E-004, 4.8041480E+002
 1.4200667E+002, 2.6154488E-002, 1.6123268E-001, 1.4031655E-001, 3.7276672E-004, 1.7346223E-004, 1.0118649E-003, 4.7702221E+002
 1.4300295E+002, 2.7307756E-002, 1.6035117E-001, 1.3954904E-001, 3.5501652E-004, 1.7018585E-004, 1.0029452E-003, 4.7477888E+002
 1.4400392E+002, 2.6889377E-002, 1.6065132E-001, 1.3983752E-001, 3.7519580E-004, 1.7081819E-004, 1.0090131E-003, 4.7749361E+002
 1.4500405E+002, 2.6909294E-002, 1.6065944E-001, 1.3981363E-001, 3.5922204E-004, 1.6620136E-004, 1.0056353E-003, 4.7694015E+002
 1.4600464E+002, 2.7127193E-002, 1.6047523E-001, 1.3967629E-001, 3.6752951E-004, 1.7052700E-004, 1.0063478E-003, 4.7094180E+002
 1.4700082E+002, 2.6482583E-002, 1.6098893E-001, 1.4009619E-001, 3.6360270E-004, 1.6637654E-004, 1.0084860E-003, 4.7812247E+002
 1.4800630E+002, 2.6296684E-002, 1.6113328E-001, 1.4021968E-001, 3.6535672E-004, 1.6323695E-004, 1.0096995E-003, 4.8592143E+002
 1.4900512E+002, 2.5531177E-002, 1.6172590E-001, 1.4072478E-001, 3.7162667E-004, 1.6771567E-004, 1.0144818E-003, 4.8452049E+002
 1.5000653E+002, 2.6392178E-002, 1.6105750E-001, 1.4015594E-001, 3.6501759E-004, 1.6934484E-004, 1.0091872E-003, 4.7952859E+002
 1.5100073E+002, 2.5997586E-002, 1.6133960E-001, 1.4042636E-001, 3.8363553E-004, 1.7862680E-004, 1.0148156E-003, 4.7662739E+002
 1.5200656E+002, 2.5864835E-002, 1.6146937E-001, 1.4050321E-001, 3.6739875E-004, 1.6783234E-004, 1.0120871E-003, 4.7812709E+002
 1.5300201E+002, 2.4922143E-002, 1.6218163E-001, 1.4113501E-001, 3.8779964E-004, 1.6956159E-004, 1.0205933E-003, 4.7940815E+002
 1.5400558E+002, 2.5860026E-002, 1.6145950E-001, 1.4051035E-001, 3.7542330E-004, 1.7947202E-004, 1.0137504E-003, 4.7868293E+002
