s,,,,,,,
Time,"O2 EXHAUST","CO2 EXHAUST","H2O EXHAUST","CO EXHAUST","FUEL EXHAUST","SOOT EXHAUST","TEMP EXHAUST"
 0.0000000E+000, 2.3099739E-001, 5.9146498E-004, 5.9412092E-003, 0.0000000E+000, 0.0000000E+000, 0.0000000E+000, 2.0000000E+001
 1.0031367E+000, 2.3099739E-001, 5.9146498E-004, 5.9412092E-003, 3.3594091E-031, 3.4162186E-030, 1.0615065E-031, 2.0459015E+001
 2.0016098E+000, 2.2366268E-001, 7.2856727E-003, 8.7551010E-003, 3.3265939E-005, 2.8504850E-004, 4.7470430E-005, 9.3386640E+001
 3.0033159E+000, 2.1732470E-001, 1.3089965E-002, 1.1211267E-002, 7.8038356E-005, 3.4359606E-004, 9.2044739E-005, 1.4952989E+002
 4.0008097E+000, 2.1441683E-001, 1.5733568E-002, 1.2327189E-002, 9.6181170E-005, 4.7519950E-004, 1.1186457E-004, 1.7923806E+002
 5.0026897E+000, 2.0801937E-001, 2.1643222E-002, 1.4800596E-002, 1.1284856E-004, 4.6747797E-004, 1.5104771E-004, 2.3068993E+002
 6.0017183E+000, 2.0101523E-001, 2.8117137E-002, 1.7506889E-002, 1.2770365E-004, 4.6142051E-004, 1.9324235E-004, 2.8277147E+002
 7.0035400E+000, 1.9588265E-001, 3.2880885E-002, 1.9488034E-002, 1.2778617E-004, 4.2963834E-004, 2.2196470E-004, 3.1935897E+002
 8.0025425E+000, 1.8941736E-001, 3.8896966E-002, 2.1985529E-002, 1.2297728E-004, 3.4723268E-004, 2.5718430E-004, 3.5945273E+002
 9.0014317E+000, 1.8299818E-001, 4.4888937E-002, 2.4464283E-002, 1.0889299E-004, 2.3340360E-004, 2.9026982E-004, 3.9494504E+002
 1.0004966E+001, 1.7435911E-001, 5.2938136E-002, 2.7799593E-002, 9.5931979E-005, 1.1397996E-004, 3.3599233E-004, 4.2930271E+002
 1.1000675E+001, 1.6960573E-001, 5.7363859E-002, 2.9634264E-002, 8.9698580E-005, 5.7357039E-005, 3.6132362E-004, 4.4498868E+002
 1.2007945E+001, 1.6254387E-001, 6.3914478E-002, 3.2359777E-002, 9.1166469E-005, 2.3064038E-005, 4.0111010E-004, 4.5906603E+002
 1.3000767E+001, 1.5789103E-001, 6.8228744E-002, 3.4155405E-002, 9.2776585E-005, 4.7322895E-006, 4.2745159E-004, 4.7150143E+002
 1.4000706E+001, 1.4996696E-001, 7.5562495E-002, 3.7213531E-002, 1.0169017E-004, 5.2823484E-007, 4.7355345E-004, 4.8367545E+002
 1.5003869E+001, 1.4379775E-001, 8.1270618E-002, 3.9594430E-002, 1.0932022E-004, 9.6747951E-008, 5.0958462E-004, 4.8981101E+002
 1.6001376E+001, 1.3978238E-001, 8.4985805E-002, 4.1144082E-002, 1.1431059E-004, 4.6941504E-008, 5.3304107E-004, 4.9146346E+002
 1.7006139E+001, 1.3338490E-001, 9.0904849E-002, 4.3613095E-002, 1.2237018E-004, 6.8196703E-008, 5.7043528E-004, 5.0129317E+002
 1.8008409E+001, 1.2966326E-001, 9.4348102E-002, 4.5049428E-002, 1.2710729E-004, 8.4238210E-008, 5.9219884E-004, 5.0162274E+002
 1.9007098E+001, 1.2637115E-001, 9.7394142E-002, 4.6319931E-002, 1.3115840E-004, 5.7597539E-008, 6.1142184E-004, 5.0121604E+002
 2.0002016E+001, 1.2269396E-001, 1.0079637E-001, 4.7739083E-002, 1.3576884E-004, 6.1235905E-008, 6.3291103E-004, 5.0308818E+002
 2.1005472E+001, 1.1976608E-001, 1.0350533E-001, 4.8869043E-002, 1.3942664E-004, 6.2238848E-008, 6.5001858E-004, 4.9831148E+002
 2.2005532E+001, 1.1781525E-001, 1.0531033E-001, 4.9621916E-002, 1.4183551E-004, 5.4435693E-008, 6.6141138E-004, 4.9909456E+002
 2.3001974E+001, 1.1416770E-001, 1.0868509E-001, 5.1029638E-002, 1.4643698E-004, 6.4004266E-008, 6.8273314E-004, 5.0097947E+002
 2.4008864E+001, 1.1075474E-001, 1.1184294E-001, 5.2346785E-002, 1.5064410E-004, 3.9032009E-008, 7.0266333E-004, 4.9893660E+002
 2.5004008E+001, 1.0945998E-001, 1.1304088E-001, 5.2846472E-002, 1.5226307E-004, 3.2276653E-008, 7.1022886E-004, 4.9483448E+002
 2.6001612E+001, 1.0619158E-001, 1.1606481E-001, 5.4107878E-002, 1.5641743E-004, 5.7198503E-008, 7.2934074E-004, 4.9971436E+002
 2.7006164E+001, 1.0440777E-001, 1.1771528E-001, 5.4796296E-002, 1.5861778E-004, 4.5735893E-008, 7.3975772E-004, 4.9295551E+002
 2.8002496E+001, 1.0247174E-001, 1.1950658E-001, 5.5543460E-002, 1.6101174E-004, 2.6914243E-008, 7.5106479E-004, 4.9322450E+002
 2.9001054E+001, 1.0052628E-001, 1.2130653E-001, 5.6294288E-002, 1.6347734E-004, 4.2226498E-008, 7.6243932E-004, 4.9739351E+002
 3.0002448E+001, 9.7193236E-002, 1.2438817E-001, 5.7581250E-002, 1.6925790E-004, 6.0192727E-007, 7.8224765E-004, 4.9593185E+002
 3.1001680E+001, 9.4618961E-002, 1.2676071E-001, 5.8577459E-002, 1.7933242E-004, 2.7769194E-006, 7.9870381E-004, 4.9635135E+002
 3.2008159E+001, 9.3357676E-002, 1.2792532E-001, 5.9064781E-002, 1.8251979E-004, 4.1838180E-006, 8.0640476E-004, 4.9342365E+002
 3.3003918E+001, 9.0415377E-002, 1.3063684E-001, 6.0203510E-002, 1.9422612E-004, 6.4754874E-006, 8.2525336E-004, 4.9700714E+002
 3.4004800E+001, 8.8812163E-002, 1.3211135E-001, 6.0824487E-002, 2.0242936E-004, 1.0632661E-005, 8.3589704E-004, 4.9877809E+002
 3.5008179E+001, 8.7006129E-002, 1.3377659E-001, 6.1523225E-002, 2.0899412E-004, 1.1708805E-005, 8.4733877E-004, 4.9628150E+002
 3.6005923E+001, 8.4701842E-002, 1.3588935E-001, 6.2418005E-002, 2.2596640E-004, 1.7188759E-005, 8.6370848E-004, 4.9725353E+002
 3.7009145E+001, 8.3133552E-002, 1.3733993E-001, 6.3023252E-002, 2.2811930E-004, 1.8117401E-005, 8.7291079E-004, 4.9726739E+002
 3.8007058E+001, 8.1746251E-002, 1.3861312E-001, 6.3561707E-002, 2.3755233E-004, 2.0510769E-005, 8.8260510E-004, 4.9110970E+002
 3.9001429E+001, 8.0488192E-002, 1.3976996E-001, 6.4049178E-002, 2.4427361E-004, 2.3113170E-005, 8.9101688E-004, 4.8823657E+002
 4.0005981E+001, 7.7416335E-002, 1.4259412E-001, 6.5239926E-002, 2.6139252E-004, 2.7704811E-005, 9.1170475E-004, 4.9107403E+002
 4.1002492E+001, 7.4650337E-002, 1.4514418E-001, 6.6310061E-002, 2.7158329E-004, 3.0013033E-005, 9.2925550E-004, 4.9335623E+002
 4.2001353E+001, 7.5109406E-002, 1.4471541E-001, 6.6133793E-002, 2.7370966E-004, 3.2642843E-005, 9.2712779E-004, 4.9216762E+002
 4.3006532E+001, 7.3220009E-002, 1.4646384E-001, 6.6862714E-002, 2.7567485E-004, 3.3566529E-005, 9.3808462E-004, 4.9146450E+002
 4.4006373E+001, 7.0708141E-002, 1.4877739E-001, 6.7835536E-002, 2.8693166E-004, 3.4038904E-005, 9.5443880E-004, 4.9581501E+002
 4.5004891E+001, 6.9745847E-002, 1.4966636E-001, 6.8207074E-002, 2.8890514E-004, 3.5831183E-005, 9.6021857E-004, 4.9600703E+002
 4.6003513E+001, 6.7509953E-002, 1.5171542E-001, 6.9076031E-002, 3.0655845E-004, 3.8723103E-005, 9.7635042E-004, 4.9455989E+002
 4.7007380E+001, 6.6906280E-002, 1.5228021E-001, 6.9306604E-002, 3.0210478E-004, 4.0668560E-005, 9.7879879E-004, 4.9344881E+002
 4.8009049E+001, 6.4686869E-002, 1.5431925E-001, 7.0167376E-002, 3.1556686E-004, 4.4059715E-005, 9.9397169E-004, 4.9531401E+002
 4.9001605E+001, 6.3693853E-002, 1.5524958E-001, 7.0546876E-002, 3.0789255E-004, 4.3406961E-005, 9.9793216E-004, 4.9463022E+002
 5.0004644E+001, 6.2799280E-002, 1.5606799E-001, 7.0895116E-002, 3.1616002E-004, 4.3931419E-005, 1.0046362E-003, 4.9391397E+002
 5.1002487E+001, 6.1419265E-002, 1.5734034E-001, 7.1429034E-002, 3.2121820E-004, 4.4912069E-005, 1.0133875E-003, 4.9484413E+002
 5.2002919E+001, 5.9634627E-002, 1.5897705E-001, 7.2122305E-002, 3.3445811E-004, 4.6672251E-005, 1.0260884E-003, 4.9229921E+002
 5.3003273E+001, 5.8567393E-002, 1.5996414E-001, 7.2533888E-002, 3.3564593E-004, 4.9131984E-005, 1.0322910E-003, 4.8993588E+002
 5.4005870E+001, 5.7591957E-002, 1.6086392E-001, 7.2911290E-002, 3.3903811E-004, 4.8867059E-005, 1.0384400E-003, 4.9272148E+002
 5.5005422E+001, 5.5634443E-002, 1.6266312E-001, 7.3670705E-002, 3.5078372E-004, 4.9003423E-005, 1.0517997E-003, 4.9514894E+002
 5.6003283E+001, 5.4534519E-002, 1.6367095E-001, 7.4097824E-002, 3.5919091E-004, 5.2926243E-005, 1.0596751E-003, 4.9367232E+002
 5.7007968E+001, 5.3892251E-002, 1.6427259E-001, 7.4342756E-002, 3.5373714E-004, 5.5813179E-005, 1.0621311E-003, 4.9554351E+002
 5.8005129E+001, 5.1244247E-002, 1.6670755E-001, 7.5369988E-002, 3.6907270E-004, 5.4120197E-005, 1.0800914E-003, 4.9373152E+002
 5.9009061E+001, 5.1086961E-002, 1.6684669E-001, 7.5432472E-002, 3.7391189E-004, 5.6182683E-005, 1.0819673E-003, 4.9683421E+002
 6.0001715E+001, 5.0675363E-002, 1.6720542E-001, 7.5598294E-002, 3.9129026E-004, 5.8403319E-005, 1.0878549E-003, 4.9132470E+002
 6.1001355E+001, 5.0204546E-002, 1.6767964E-001, 7.5767603E-002, 3.6219657E-004, 5.5760705E-005, 1.0844746E-003, 4.9425915E+002
 6.2001584E+001, 4.8892463E-002, 1.6887824E-001, 7.6278332E-002, 3.7507431E-004, 6.0313575E-005, 1.0944580E-003, 4.9264053E+002
 6.3009126E+001, 4.7606066E-002, 1.7008053E-001, 7.6771611E-002, 3.6809326E-004, 5.5290796E-005, 1.1002059E-003, 4.9690398E+002
 6.4001796E+001, 4.5330591E-002, 1.7215800E-001, 7.7658404E-002, 3.9203097E-004, 5.9196134E-005, 1.1178563E-003, 4.9858338E+002
 6.5001922E+001, 4.4872402E-002, 1.7256443E-001, 7.7839926E-002, 4.0512662E-004, 6.5967197E-005, 1.1231131E-003, 4.9161267E+002
 6.6002157E+001, 4.3913938E-002, 1.7346718E-001, 7.8205497E-002, 3.9485387E-004, 6.0107221E-005, 1.1263503E-003, 4.9763331E+002
 6.7004418E+001, 4.3248159E-002, 1.7408087E-001, 7.8463224E-002, 3.9750201E-004, 6.0020107E-005, 1.1306159E-003, 4.9356779E+002
 6.8010031E+001, 4.1391495E-002, 1.7578321E-001, 7.9184805E-002, 4.1180081E-004, 6.0727611E-005, 1.1439394E-003, 4.9701848E+002
 6.9005583E+001, 4.1944510E-002, 1.7528944E-001, 7.8965587E-002, 3.9730248E-004, 5.9779817E-005, 1.1378556E-003, 4.9188656E+002
 7.0002437E+001, 4.0462796E-002, 1.7661531E-001, 7.9551746E-002, 4.3365024E-004, 6.3744291E-005, 1.1536380E-003, 5.0043276E+002
 7.1006014E+001, 3.9665802E-002, 1.7735075E-001, 7.9859675E-002, 4.3586546E-004, 6.5595855E-005, 1.1585444E-003, 4.9644937E+002
 7.2007776E+001, 3.9227500E-002, 1.7776855E-001, 8.0025312E-002, 4.2740259E-004, 6.2209510E-005, 1.1592475E-003, 4.9336752E+002
 7.3005166E+001, 3.8701845E-002, 1.7826003E-001, 8.0226211E-002, 4.2379664E-004, 6.3808482E-005, 1.1614358E-003, 4.9661526E+002
 7.4003832E+001, 3.8010479E-002, 1.7890200E-001, 8.0492506E-002, 4.2310612E-004, 6.2365381E-005, 1.1651561E-003, 4.9785799E+002
 7.5006979E+001, 3.7369901E-002, 1.7950595E-001, 8.0736165E-002, 4.1529907E-004, 6.1235661E-005, 1.1671215E-003, 4.9507319E+002
 7.6002729E+001, 3.5469168E-002, 1.8122457E-001, 8.1482729E-002, 4.4859735E-004, 6.2943934E-005, 1.1846166E-003, 4.9435938E+002
 7.7003119E+001, 3.5631850E-002, 1.8109245E-001, 8.1413765E-002, 4.3397194E-004, 6.3326865E-005, 1.1806847E-003, 4.9575836E+002
 7.8003041E+001, 3.5648462E-002, 1.8107237E-001, 8.1408352E-002, 4.3705773E-004, 6.6754043E-005, 1.1812253E-003, 4.9654280E+002
 7.9000507E+001, 3.3396567E-002, 1.8313984E-001, 8.2283402E-002, 4.5303594E-004, 6.2905096E-005, 1.1971090E-003, 4.9742156E+002
 8.0004981E+001, 3.3873395E-002, 1.8271370E-001, 8.2094536E-002, 4.4086325E-004, 6.1974215E-005, 1.1919313E-003, 4.9231705E+002
 8.1007394E+001, 3.2872557E-002, 1.8364254E-001, 8.2479918E-002, 4.3997217E-004, 6.1557431E-005, 1.1973372E-003, 4.9678057E+002
 8.2009618E+001, 3.2269261E-002, 1.8418056E-001, 8.2718550E-002, 4.5555392E-004, 6.6985883E-005, 1.2039199E-003, 4.9352742E+002
 8.3007728E+001, 3.1956491E-002, 1.8447710E-001, 8.2837547E-002, 4.5103575E-004, 6.2977335E-005, 1.2047380E-003, 4.9534865E+002
 8.4006732E+001, 3.1097438E-002, 1.8524327E-001, 8.3178033E-002, 4.7388542E-004, 6.6418661E-005, 1.2142538E-003, 4.9940514E+002
 8.5010128E+001, 3.0449974E-002, 1.8580210E-001, 8.3439892E-002, 5.0468429E-004, 7.4777969E-005, 1.2242245E-003, 4.9709691E+002
 8.6001597E+001, 3.0983552E-002, 1.8534986E-001, 8.3221286E-002, 4.7278429E-004, 6.8199822E-005, 1.2146599E-003, 4.9539753E+002
 8.7007269E+001, 2.9747317E-002, 1.8650295E-001, 8.3695914E-002, 4.6769651E-004, 6.4494960E-005, 1.2205173E-003, 4.9522735E+002
 8.8009921E+001, 2.8959553E-002, 1.8719226E-001, 8.4011706E-002, 4.9815856E-004, 7.2807057E-005, 1.2312020E-003, 4.9398659E+002
 8.9006268E+001, 2.8441126E-002, 1.8765364E-001, 8.4217748E-002, 5.1295790E-004, 7.3474914E-005, 1.2371552E-003, 4.9598904E+002
 9.0006816E+001, 2.8552675E-002, 1.8754628E-001, 8.4175435E-002, 5.1541131E-004, 7.7348711E-005, 1.2370343E-003, 4.9897123E+002
 9.1005925E+001, 2.8078487E-002, 1.8797844E-001, 8.4360570E-002, 5.2107950E-004, 7.7675838E-005, 1.2408536E-003, 4.9591024E+002
 9.2000061E+001, 2.7635042E-002, 1.8840323E-001, 8.4527286E-002, 5.1071516E-004, 7.5275005E-005, 1.2411911E-003, 4.9645641E+002
 9.3001112E+001, 2.6160420E-002, 1.8973848E-001, 8.5106159E-002, 5.3537258E-004, 7.4740641E-005, 1.2545235E-003, 4.9618342E+002
 9.4001751E+001, 2.6415252E-002, 1.8951148E-001, 8.5004528E-002, 5.2783337E-004, 7.6920553E-005, 1.2515392E-003, 5.0067815E+002
 9.5008078E+001, 2.5020884E-002, 1.9076372E-001, 8.5554923E-002, 5.5880164E-004, 7.8881662E-005, 1.2657245E-003, 4.9859506E+002
 9.6004303E+001, 2.5063071E-002, 1.9075614E-001, 8.5529150E-002, 5.3517597E-004, 7.3081051E-005, 1.2606134E-003, 5.0057546E+002
 9.7001396E+001, 2.5603352E-002, 1.9027512E-001, 8.5314385E-002, 5.1979784E-004, 7.2973698E-005, 1.2544178E-003, 4.9805421E+002
 9.8007939E+001, 2.4653725E-002, 1.9112113E-001, 8.5691668E-002, 5.4638340E-004, 7.3275809E-005, 1.2652156E-003, 4.9441666E+002
 9.9008735E+001, 2.4068905E-002, 1.9163187E-001, 8.5926825E-002, 5.7016435E-004, 7.7095643E-005, 1.2733919E-003, 4.9631827E+002
 1.0000555E+002, 2.4055043E-002, 1.9164595E-001, 8.5930917E-002, 5.6835513E-004, 8.2144387E-005, 1.2730889E-003, 4.9466252E+002
 1.0100268E+002, 2.2810767E-002, 1.9283535E-001, 8.6400101E-002, 5.4180836E-004, 7.2135445E-005, 1.2745640E-003, 5.0233156E+002
 1.0200807E+002, 2.3640896E-002, 1.9202287E-001, 8.6093506E-002, 5.7443957E-004, 7.8096863E-005, 1.2766645E-003, 4.9331078E+002
 1.0300211E+002, 2.3389963E-002, 1.9222222E-001, 8.6200710E-002, 5.9980885E-004, 8.1391917E-005, 1.2833051E-003, 4.9315086E+002
 1.0400308E+002, 2.3054763E-002, 1.9255775E-001, 8.6322105E-002, 5.8089015E-004, 7.8552644E-005, 1.2812706E-003, 4.9179868E+002
 1.0500132E+002, 2.2471079E-002, 1.9309892E-001, 8.6547299E-002, 5.8104928E-004, 7.6711513E-005, 1.2845656E-003, 4.9498108E+002
 1.0600395E+002, 2.1659473E-002, 1.9381878E-001, 8.6870569E-002, 6.0602040E-004, 7.8401564E-005, 1.2942571E-003, 4.9703578E+002
 1.0700569E+002, 2.2540746E-002, 1.9303102E-001, 8.6521599E-002, 5.8369120E-004, 7.6459270E-005, 1.2847229E-003, 4.9365304E+002
 1.0800928E+002, 2.0575010E-002, 1.9478975E-001, 8.7300827E-002, 6.3362622E-004, 7.2654280E-005, 1.3060267E-003, 5.0050040E+002
 1.0900180E+002, 2.1342397E-002, 1.9412106E-001, 8.6990555E-002, 6.0004353E-004, 7.4910585E-005, 1.2947971E-003, 4.9284310E+002
 1.1000429E+002, 2.1089428E-002, 1.9433335E-001, 8.7094362E-002, 6.1628112E-004, 8.1276253E-005, 1.2995577E-003, 4.9509996E+002
 1.1100004E+002, 2.0643926E-002, 1.9469731E-001, 8.7281920E-002, 6.5406029E-004, 8.3724658E-005, 1.3098508E-003, 4.9117979E+002
 1.1200816E+002, 2.0481372E-002, 1.9490769E-001, 8.7326266E-002, 6.0901900E-004, 7.4394206E-005, 1.3014615E-003, 4.9327752E+002
 1.1300277E+002, 2.0088446E-002, 1.9527262E-001, 8.7477504E-002, 6.0848953E-004, 7.4071887E-005, 1.3035469E-003, 4.9751886E+002
 1.1400945E+002, 2.0000572E-002, 1.9535018E-001, 8.7512630E-002, 6.1148674E-004, 7.4261523E-005, 1.3046569E-003, 4.9348240E+002
 1.1500972E+002, 2.0276346E-002, 1.9511136E-001, 8.7400677E-002, 5.9830346E-004, 7.4822473E-005, 1.3003912E-003, 4.9331632E+002
 1.1600732E+002, 1.9093551E-002, 1.9612215E-001, 8.7884321E-002, 6.6437558E-004, 7.8530351E-005, 1.3206480E-003, 4.9792727E+002
 1.1700990E+002, 1.8983001E-002, 1.9629849E-001, 8.7903381E-002, 6.0774100E-004, 7.2410022E-005, 1.3095680E-003, 4.9853489E+002
 1.1800925E+002, 1.8796027E-002, 1.9644695E-001, 8.7983285E-002, 6.2670689E-004, 7.4884969E-005, 1.3145289E-003, 4.9659517E+002
 1.1900081E+002, 1.9676340E-002, 1.9568086E-001, 8.7628032E-002, 5.8841796E-004, 7.1410339E-005, 1.3017034E-003, 4.9427785E+002
 1.2000128E+002, 1.7135199E-002, 1.9792395E-001, 8.8643557E-002, 6.7480342E-004, 7.8035974E-005, 1.3337409E-003, 4.9972919E+002
 1.2100721E+002, 1.7936799E-002, 1.9723023E-001, 8.8318547E-002, 6.3667828E-004, 7.6272883E-005, 1.3213866E-003, 4.9854266E+002
 1.2200190E+002, 1.9068076E-002, 1.9619092E-001, 8.7878670E-002, 6.2867214E-004, 8.1252009E-005, 1.3134075E-003, 4.9738940E+002
 1.2300022E+002, 1.7797989E-002, 1.9737378E-001, 8.8367230E-002, 6.2519425E-004, 7.5455922E-005, 1.3197893E-003, 4.9754883E+002
 1.2400581E+002, 1.7990175E-002, 1.9722855E-001, 8.8283032E-002, 6.0033834E-004, 7.0612254E-005, 1.3135850E-003, 5.0093364E+002
 1.2500018E+002, 1.7140161E-002, 1.9801662E-001, 8.8610970E-002, 6.0056782E-004, 6.8030440E-005, 1.3183829E-003, 5.0077835E+002
 1.2600772E+002, 1.7500473E-002, 1.9763337E-001, 8.8486160E-002, 6.3669290E-004, 8.2094205E-005, 1.3238189E-003, 4.9563043E+002
 1.2700576E+002, 1.7996030E-002, 1.9718796E-001, 8.8290678E-002, 6.2597514E-004, 8.1341522E-005, 1.3188371E-003, 4.9169905E+002
 1.2800822E+002, 1.7416585E-002, 1.9775186E-001, 8.8506993E-002, 6.0696040E-004, 6.9782498E-005, 1.3181581E-003, 4.9707475E+002
 1.2900981E+002, 1.6724485E-002, 1.9832907E-001, 8.8794003E-002, 6.5600891E-004, 7.6309995E-005, 1.3321523E-003, 4.9585986E+002
 1.3000581E+002, 1.7014698E-002, 1.9806378E-001, 8.8679904E-002, 6.5209582E-004, 8.2468895E-005, 1.3297149E-003, 4.9664152E+002
 1.3100132E+002, 1.7278744E-002, 1.9787750E-001, 8.8559824E-002, 6.0760892E-004, 7.5770093E-005, 1.3190542E-003, 4.9615500E+002
 1.3200130E+002, 1.6275132E-002, 1.9866733E-001, 8.8991675E-002, 7.1552367E-004, 8.5393626E-005, 1.3469508E-003, 4.9549679E+002
 1.3300093E+002, 1.6510358E-002, 1.9854967E-001, 8.8869189E-002, 6.3874932E-004, 7.6160336E-005, 1.3297811E-003, 4.9255114E+002
 1.3400411E+002, 1.6014458E-002, 1.9897419E-001, 8.9072742E-002, 6.6690802E-004, 7.1557257E-005, 1.3383765E-003, 4.9406476E+002
 1.3500994E+002, 1.6226877E-002, 1.9877532E-001, 8.8990478E-002, 6.6739924E-004, 7.7947656E-005, 1.3372834E-003, 4.9382728E+002
 1.3600207E+002, 1.6680051E-002, 1.9833460E-001, 8.8822018E-002, 6.8285832E-004, 8.2083455E-005, 1.3379423E-003, 4.9425083E+002
 1.3700834E+002, 1.5230671E-002, 1.9967018E-001, 8.9383879E-002, 6.8960829E-004, 7.7915707E-005, 1.3474373E-003, 4.9865383E+002
 1.3800625E+002, 1.5243299E-002, 1.9963658E-001, 8.9385305E-002, 7.0570084E-004, 8.3852603E-005, 1.3506851E-003, 5.0369179E+002
 1.3900006E+002, 1.5739769E-002, 1.9914140E-001, 8.9204088E-002, 7.3150858E-004, 9.3029505E-005, 1.3532346E-003, 4.9417649E+002
 1.4000108E+002, 1.4802719E-002, 1.9999198E-001, 8.9571999E-002, 7.4630827E-004, 8.8104708E-005, 1.3615330E-003, 4.9925246E+002
 1.4100591E+002, 1.5078567E-002, 1.9977983E-001, 8.9451758E-002, 7.1288912E-004, 8.4867937E-005, 1.3530895E-003, 4.9547034E+002
 1.4200339E+002, 1.4359010E-002, 2.0041501E-001, 8.9740760E-002, 7.3879463E-004, 7.8026847E-005, 1.3624711E-003, 4.9637773E+002
 1.4300738E+002, 1.4266838E-002, 2.0049796E-001, 8.9776493E-002, 7.4010815E-004, 8.1716014E-005, 1.3632526E-003, 4.9679354E+002
 1.4400944E+002, 1.4160290E-002, 2.0059830E-001, 8.9816944E-002, 7.3878283E-004, 8.2216715E-005, 1.3635730E-003, 4.9889235E+002
 1.4500725E+002, 1.4567708E-002, 2.0018240E-001, 8.9670985E-002, 7.6698661E-004, 9.2275548E-005, 1.3671139E-003, 4.9450575E+002
 1.4600091E+002, 1.5245597E-002, 1.9967525E-001, 8.9371099E-002, 6.7410855E-004, 8.2385064E-005, 1.3441446E-003, 4.9356254E+002
 1.4700011E+002, 1.4261790E-002, 2.0053014E-001, 8.9769394E-002, 7.1874840E-004, 8.1126435E-005, 1.3588668E-003, 4.9727364E+002
 1.4800648E+002, 1.4864726E-002, 1.9995467E-001, 8.9541780E-002, 7.3095762E-004, 8.5808139E-005, 1.3580170E-003, 4.9027447E+002
 1.4900069E+002, 1.4197860E-002, 2.0055306E-001, 8.9805648E-002, 7.4663153E-004, 8.3900848E-005, 1.3649832E-003, 4.9497213E+002
 1.5000325E+002, 1.5007730E-002, 1.9985355E-001, 8.9477249E-002, 7.0747208E-004, 7.9617324E-005, 1.3523723E-003, 4.9534732E+002
 1.5100111E+002, 1.4534256E-002, 2.0031756E-001, 8.9651609E-002, 6.8808060E-004, 7.8101340E-005, 1.3510106E-003, 4.9891045E+002
 1.5200786E+002, 1.4064259E-002, 2.0072957E-001, 8.9840704E-002, 7.0660991E-004, 7.7416940E-005, 1.3574660E-003, 5.0044263E+002
 1.5300021E+002, 1.4016841E-002, 2.0079140E-001, 8.9853203E-002, 6.9282417E-004, 7.6387872E-005, 1.3548829E-003, 4.9696072E+002
 1.5401071E+002, 1.4583763E-002, 2.0013871E-001, 8.9675573E-002, 7.9067416E-004, 8.5074980E-005, 1.3719294E-003, 4.9639639E+002
