s,,,,,,,
Time,"O2 EXHAUST","CO2 EXHAUST","H2O EXHAUST","CO EXHAUST","FUEL EXHAUST","SOOT EXHAUST","TEMP EXHAUST"
 0.0000000E+000, 2.3099739E-001, 5.9146498E-004, 5.9412091E-003, 0.0000000E+000, 0.0000000E+000, 0.0000000E+000, 2.0000000E+001
 1.0033628E+000, 2.3099739E-001, 5.9146498E-004, 5.9412091E-003, 1.4696098E-028, 7.6251355E-028, 4.0753152E-029, 2.0409947E+001
 2.0007726E+000, 2.2428905E-001, 6.0004865E-003, 9.0629707E-003, 9.1409749E-005, 1.1932656E-004, 5.6098779E-005, 9.3000261E+001
 3.0015388E+000, 2.1872009E-001, 1.0523910E-002, 1.1650202E-002, 1.4911384E-004, 1.7625979E-004, 9.8957879E-005, 1.3709493E+002
 4.0023188E+000, 2.1346398E-001, 1.4784539E-002, 1.4095356E-002, 2.0998336E-004, 2.2929910E-004, 1.4073729E-004, 1.8464108E+002
 5.0054873E+000, 2.0711423E-001, 1.9960894E-002, 1.7039170E-002, 2.6263602E-004, 2.9082876E-004, 1.8688767E-004, 2.3434035E+002
 6.0014900E+000, 2.0267681E-001, 2.3586675E-002, 1.9096387E-002, 2.9565776E-004, 3.1728778E-004, 2.1837872E-004, 2.6920334E+002
 7.0048866E+000, 1.9649044E-001, 2.8765543E-002, 2.1934818E-002, 2.6324335E-004, 2.7026433E-004, 2.4613954E-004, 3.0987463E+002
 8.0041639E+000, 1.8777584E-001, 3.6055020E-002, 2.5935137E-002, 2.2166947E-004, 2.0539977E-004, 2.8609055E-004, 3.5416280E+002
 9.0052341E+000, 1.8357536E-001, 3.9583617E-002, 2.7860524E-002, 1.9273846E-004, 1.5956372E-004, 3.0352401E-004, 3.7755715E+002
 1.0005445E+001, 1.7428957E-001, 4.7365969E-002, 3.2118873E-002, 1.3846041E-004, 8.3305138E-005, 3.4403569E-004, 4.1103075E+002
 1.1009574E+001, 1.6888760E-001, 5.1889386E-002, 3.4597004E-002, 1.0930734E-004, 4.2066820E-005, 3.6810103E-004, 4.2874296E+002
 1.2000050E+001, 1.6184940E-001, 5.7745130E-002, 3.7834322E-002, 9.4883595E-005, 1.6388692E-005, 4.0429961E-004, 4.4366059E+002
 1.3000969E+001, 1.5484728E-001, 6.3551004E-002, 4.1059670E-002, 9.3002540E-005, 4.9161145E-006, 4.4287724E-004, 4.5771047E+002
 1.4007387E+001, 1.4920112E-001, 6.8225342E-002, 4.3662070E-002, 9.5992686E-005, 1.0051451E-006, 4.7491096E-004, 4.6857855E+002
 1.5005975E+001, 1.4582737E-001, 7.1015740E-002, 4.5217689E-002, 9.9439483E-005, 5.8330000E-007, 4.9439343E-004, 4.7198854E+002
 1.6007515E+001, 1.3912472E-001, 7.6558659E-002, 4.8308482E-002, 1.0681912E-004, 8.4974354E-008, 5.3320918E-004, 4.8024891E+002
 1.7008039E+001, 1.3265098E-001, 8.1911498E-002, 5.1293908E-002, 1.1444295E-004, 1.1968157E-007, 5.7080144E-004, 4.8822142E+002
 1.8009660E+001, 1.2908165E-001, 8.4863165E-002, 5.2939823E-002, 1.1839912E-004, 4.2645149E-008, 5.9147699E-004, 4.8606370E+002
 1.9000767E+001, 1.2623822E-001, 8.7214398E-002, 5.4251057E-002, 1.2165779E-004, 3.0112166E-008, 6.0796989E-004, 4.8963701E+002
 2.0009029E+001, 1.2266738E-001, 9.0166981E-002, 5.5897774E-002, 1.2584628E-004, 3.8623369E-008, 6.2870186E-004, 4.9041005E+002
 2.1005897E+001, 1.1744268E-001, 9.4486863E-002, 5.8307244E-002, 1.3211993E-004, 1.1381642E-007, 6.5906598E-004, 4.9251102E+002
 2.2000333E+001, 1.1620445E-001, 9.5510512E-002, 5.8878324E-002, 1.3370685E-004, 1.5815700E-007, 6.6628284E-004, 4.9101485E+002
 2.3009077E+001, 1.1230890E-001, 9.8732167E-002, 6.0674603E-002, 1.3787708E-004, 3.7171303E-008, 6.8881759E-004, 4.9862371E+002
 2.4004433E+001, 1.0908147E-001, 1.0140078E-001, 6.2162957E-002, 1.4167157E-004, 6.2329010E-008, 7.0755757E-004, 4.9341221E+002
 2.5005366E+001, 1.0727973E-001, 1.0289043E-001, 6.2993886E-002, 1.4388302E-004, 9.4540940E-008, 7.1803856E-004, 4.8986503E+002
 2.6004579E+001, 1.0273174E-001, 1.0664870E-001, 6.5092000E-002, 1.5083870E-004, 3.9362319E-007, 7.4477922E-004, 4.9737561E+002
 2.7006904E+001, 1.0119612E-001, 1.0792112E-001, 6.5799262E-002, 1.5074677E-004, 2.8918374E-008, 7.5330325E-004, 4.9284403E+002
 2.8006128E+001, 1.0019780E-001, 1.0874652E-001, 6.6259663E-002, 1.5196539E-004, 5.4559105E-008, 7.5910920E-004, 4.9083712E+002
 2.9000411E+001, 9.4398143E-002, 1.1353124E-001, 6.8937728E-002, 1.6630729E-004, 2.2028597E-006, 7.9434037E-004, 5.0295257E+002
 3.0007874E+001, 9.4697042E-002, 1.1328956E-001, 6.8798148E-002, 1.6216649E-004, 9.1017321E-007, 7.9182157E-004, 4.9353016E+002
 3.1000212E+001, 9.2278654E-002, 1.1527809E-001, 6.9916894E-002, 1.7268595E-004, 3.8782181E-006, 8.0745006E-004, 4.9146861E+002
 3.2002995E+001, 8.6636318E-002, 1.1991691E-001, 7.2527742E-002, 1.9804310E-004, 8.1568885E-006, 8.4408492E-004, 5.0016113E+002
 3.3007630E+001, 8.9503014E-002, 1.1756343E-001, 7.1200141E-002, 1.8279713E-004, 5.4022815E-006, 8.2498322E-004, 4.8679211E+002
 3.4009134E+001, 8.6037658E-002, 1.2040443E-001, 7.2806147E-002, 2.0389872E-004, 1.0255196E-005, 8.4862543E-004, 4.8911236E+002
 3.5000483E+001, 8.5725959E-002, 1.2065774E-001, 7.2951200E-002, 2.0725673E-004, 1.1832447E-005, 8.5105292E-004, 4.8381103E+002
 3.6007338E+001, 8.0121568E-002, 1.2524904E-001, 7.5550453E-002, 2.4435753E-004, 1.5764808E-005, 8.8990962E-004, 5.0044049E+002
 3.7003321E+001, 7.8893350E-002, 1.2624499E-001, 7.6122877E-002, 2.5923130E-004, 2.1650247E-005, 8.9981542E-004, 4.9141676E+002
 3.8000664E+001, 8.0008249E-002, 1.2535589E-001, 7.5597684E-002, 2.3472365E-004, 1.7254438E-005, 8.8854261E-004, 4.8720319E+002
 3.9005755E+001, 7.8389674E-002, 1.2668005E-001, 7.6348606E-002, 2.4644708E-004, 2.0674112E-005, 8.9997057E-004, 4.8028167E+002
 4.0006643E+001, 7.5081601E-002, 1.2937772E-001, 7.7886880E-002, 2.7701327E-004, 2.5524447E-005, 9.2469825E-004, 4.9615636E+002
 4.1009616E+001, 7.4332835E-002, 1.3000453E-001, 7.8229421E-002, 2.7232406E-004, 2.5419815E-005, 9.2789245E-004, 4.8062426E+002
 4.2004280E+001, 7.1520727E-002, 1.3231769E-001, 7.9529822E-002, 2.8378573E-004, 2.9730242E-005, 9.4590462E-004, 4.8929699E+002
 4.3003489E+001, 7.1156178E-002, 1.3262338E-001, 7.9696451E-002, 2.8116089E-004, 2.9434889E-005, 9.4738929E-004, 4.8318233E+002
 4.4007506E+001, 6.9615243E-002, 1.3389420E-001, 8.0408037E-002, 2.8520558E-004, 3.0688066E-005, 9.5679762E-004, 4.8227447E+002
 4.5002485E+001, 6.4029819E-002, 1.3842074E-001, 8.3015293E-002, 3.5718873E-004, 4.0106967E-005, 1.0027670E-003, 5.0228185E+002
 4.6000944E+001, 6.6741374E-002, 1.3624478E-001, 8.1742005E-002, 3.0677497E-004, 3.4178255E-005, 9.7724805E-004, 4.8336946E+002
 4.7002292E+001, 6.6191635E-002, 1.3668076E-001, 8.2001276E-002, 3.2018509E-004, 3.9488272E-005, 9.8307707E-004, 4.8137958E+002
 4.8008579E+001, 6.5438092E-002, 1.3731545E-001, 8.2344719E-002, 3.1273208E-004, 3.8697516E-005, 9.8572626E-004, 4.7909084E+002
 4.9008710E+001, 6.2782368E-002, 1.3948759E-001, 8.3578090E-002, 3.3317800E-004, 3.8324920E-005, 1.0047354E-003, 4.9038472E+002
 5.0004769E+001, 6.1546603E-002, 1.4047787E-001, 8.4158367E-002, 3.5677145E-004, 4.3867287E-005, 1.0164898E-003, 4.7743942E+002
 5.1007804E+001, 6.0909644E-002, 1.4103874E-001, 8.4440180E-002, 3.3300341E-004, 4.1447590E-005, 1.0151131E-003, 4.8190186E+002
 5.2003652E+001, 5.9851307E-002, 1.4191682E-001, 8.4926790E-002, 3.3179311E-004, 4.3491236E-005, 1.0207473E-003, 4.9011944E+002
 5.3007552E+001, 5.8742815E-002, 1.4282440E-001, 8.5441468E-002, 3.3980580E-004, 4.2169769E-005, 1.0285752E-003, 4.9520120E+002
 5.4004270E+001, 5.7654433E-002, 1.4372577E-001, 8.5942367E-002, 3.3966131E-004, 4.4921291E-005, 1.0345963E-003, 4.7827132E+002
 5.5009113E+001, 5.2512501E-002, 1.4790969E-001, 8.8337789E-002, 3.9468916E-004, 4.6652272E-005, 1.0745965E-003, 5.0091270E+002
 5.6008852E+001, 5.5688860E-002, 1.4531097E-001, 8.6861616E-002, 3.6979758E-004, 5.4143379E-005, 1.0517611E-003, 4.8242238E+002
 5.7002542E+001, 5.3001272E-002, 1.4755124E-001, 8.8095957E-002, 3.6097345E-004, 4.6138878E-005, 1.0648945E-003, 4.9060647E+002
 5.8010129E+001, 5.0782189E-002, 1.4939424E-001, 8.9116632E-002, 3.5787335E-004, 4.4661144E-005, 1.0765989E-003, 4.8676254E+002
 5.9003643E+001, 4.9422978E-002, 1.5046941E-001, 8.9760659E-002, 3.9456943E-004, 4.6864875E-005, 1.0917583E-003, 4.8995610E+002
 6.0007089E+001, 4.8436840E-002, 1.5130303E-001, 9.0208604E-002, 3.8230398E-004, 4.8125398E-005, 1.0947019E-003, 4.8567322E+002
 6.1007929E+001, 4.6372378E-002, 1.5301295E-001, 9.1159920E-002, 3.8286447E-004, 4.6346147E-005, 1.1063048E-003, 4.9333533E+002
 6.2001501E+001, 4.6569989E-002, 1.5284651E-001, 9.1069471E-002, 3.8452495E-004, 4.8667274E-005, 1.1055465E-003, 4.8770445E+002
 6.3002844E+001, 4.6686133E-002, 1.5275247E-001, 9.1015783E-002, 3.8339656E-004, 4.5401704E-005, 1.1046709E-003, 4.8337819E+002
 6.4008241E+001, 4.4248466E-002, 1.5475787E-001, 9.2143663E-002, 3.9370643E-004, 4.5183740E-005, 1.1203673E-003, 4.9111264E+002
 6.5001490E+001, 4.4190807E-002, 1.5481125E-001, 9.2167935E-002, 3.8943014E-004, 4.6577597E-005, 1.1198005E-003, 4.9257509E+002
 6.6003567E+001, 4.2861412E-002, 1.5588287E-001, 9.2789824E-002, 4.1016804E-004, 5.2920602E-005, 1.1314832E-003, 4.9038713E+002
 6.7002166E+001, 3.9841394E-002, 1.5833998E-001, 9.4197125E-002, 4.4289700E-004, 5.2252374E-005, 1.1550635E-003, 4.9968513E+002
 6.8003551E+001, 4.1311670E-002, 1.5717769E-001, 9.3500479E-002, 4.0288447E-004, 4.8393760E-005, 1.1386015E-003, 4.8509506E+002
 6.9000234E+001, 4.0523187E-002, 1.5782639E-001, 9.3865134E-002, 4.0607334E-004, 4.9161810E-005, 1.1436473E-003, 4.8888545E+002
 7.0002879E+001, 4.0174735E-002, 1.5811724E-001, 9.4024828E-002, 4.0449124E-004, 4.9227084E-005, 1.1452579E-003, 4.8414477E+002
 7.1008593E+001, 3.8687955E-002, 1.5927433E-001, 9.4735784E-002, 4.5813660E-004, 5.3732372E-005, 1.1646347E-003, 4.9407826E+002
 7.2008635E+001, 4.0838318E-002, 1.5755509E-001, 9.3723460E-002, 4.1332624E-004, 5.0426502E-005, 1.1433949E-003, 4.8336741E+002
 7.3003311E+001, 4.1646672E-002, 1.5688879E-001, 9.3349361E-002, 4.1042443E-004, 5.3525534E-005, 1.1382931E-003, 4.8941940E+002
 7.4003454E+001, 3.9219607E-002, 1.5888299E-001, 9.4472767E-002, 4.2213291E-004, 5.5854218E-005, 1.1542169E-003, 4.8553596E+002
 7.5001828E+001, 3.9377141E-002, 1.5877494E-001, 9.4392726E-002, 4.0629752E-004, 5.2357844E-005, 1.1500650E-003, 4.8424805E+002
 7.6009598E+001, 3.7088814E-002, 1.6066601E-001, 9.5448377E-002, 4.0974173E-004, 5.2410786E-005, 1.1635082E-003, 4.9387230E+002
 7.7007009E+001, 3.5595833E-002, 1.6185387E-001, 9.6153692E-002, 4.4534815E-004, 5.2663418E-005, 1.1791885E-003, 4.9286198E+002
 7.8009026E+001, 3.5290739E-002, 1.6206588E-001, 9.6308058E-002, 4.7428465E-004, 5.7553186E-005, 1.1868732E-003, 4.8943980E+002
 7.9001392E+001, 3.5883649E-002, 1.6160613E-001, 9.6023899E-002, 4.5164827E-004, 5.5930249E-005, 1.1788882E-003, 4.7642647E+002
 8.0008585E+001, 3.3814726E-002, 1.6323950E-001, 9.7004559E-002, 5.0920621E-004, 6.3662737E-005, 1.2023097E-003, 4.9535177E+002
 8.1002686E+001, 3.3103727E-002, 1.6382081E-001, 9.7335480E-002, 5.1533193E-004, 6.0050032E-005, 1.2075384E-003, 4.9629012E+002
 8.2008884E+001, 3.4905694E-002, 1.6241393E-001, 9.6474720E-002, 4.5303939E-004, 5.8526792E-005, 1.1846133E-003, 4.9135826E+002
 8.3008044E+001, 3.4766518E-002, 1.6252036E-001, 9.6541515E-002, 4.5909309E-004, 6.1349891E-005, 1.1866378E-003, 4.8562779E+002
 8.4006976E+001, 3.1717301E-002, 1.6502464E-001, 9.7955033E-002, 4.7594530E-004, 5.4723799E-005, 1.2070997E-003, 4.9388780E+002
 8.5000656E+001, 3.0463213E-002, 1.6601307E-001, 9.8549822E-002, 5.1185302E-004, 6.0747734E-005, 1.2215060E-003, 4.9220436E+002
 8.6002530E+001, 3.1520878E-002, 1.6520465E-001, 9.8038749E-002, 4.6300091E-004, 5.7500268E-005, 1.2055076E-003, 4.8827816E+002
 8.7004190E+001, 3.1783490E-002, 1.6494253E-001, 9.7932650E-002, 4.9442079E-004, 6.4433655E-005, 1.2105458E-003, 4.9102652E+002
 8.8004134E+001, 2.9520836E-002, 1.6680061E-001, 9.8981568E-002, 5.0703696E-004, 5.9783239E-005, 1.2257521E-003, 4.8556483E+002
 8.9007121E+001, 2.8379127E-002, 1.6770904E-001, 9.9521155E-002, 5.3441149E-004, 5.8667405E-005, 1.2377749E-003, 5.0087040E+002
 9.0004697E+001, 3.2087955E-002, 1.6465797E-001, 9.7803669E-002, 5.1757070E-004, 6.6844378E-005, 1.2136441E-003, 4.8293819E+002
 9.1008030E+001, 2.9158095E-002, 1.6704893E-001, 9.9166720E-002, 5.4436976E-004, 6.4165624E-005, 1.2354972E-003, 4.8937436E+002
 9.2004443E+001, 2.6348425E-002, 1.6937500E-001, 1.0046296E-001, 5.4679081E-004, 5.5488725E-005, 1.2516399E-003, 4.9590283E+002
 9.3004640E+001, 2.4914160E-002, 1.7047684E-001, 1.0115284E-001, 6.0810515E-004, 6.6235343E-005, 1.2723050E-003, 5.0347739E+002
 9.4000595E+001, 2.8862481E-002, 1.6730847E-001, 9.9296998E-002, 5.3328817E-004, 6.7371529E-005, 1.2348422E-003, 4.8323377E+002
 9.5004044E+001, 2.9338641E-002, 1.6688796E-001, 9.9087422E-002, 5.5244686E-004, 6.5602630E-005, 1.2361640E-003, 4.8237348E+002
 9.6009173E+001, 2.7024225E-002, 1.6877730E-001, 1.0016285E-001, 5.7233776E-004, 6.9439934E-005, 1.2531541E-003, 4.8459898E+002
 9.7004316E+001, 2.6960232E-002, 1.6885842E-001, 1.0018352E-001, 5.5295210E-004, 6.1948936E-005, 1.2495043E-003, 4.8905689E+002
 9.8005113E+001, 2.5539062E-002, 1.7004213E-001, 1.0083646E-001, 5.4888316E-004, 5.8250627E-005, 1.2565722E-003, 4.9973158E+002
 9.9005323E+001, 2.5578771E-002, 1.7004678E-001, 1.0080434E-001, 5.2140138E-004, 5.9646753E-005, 1.2506571E-003, 4.9405820E+002
 1.0000393E+002, 2.5794271E-002, 1.6981331E-001, 1.0072451E-001, 5.6098929E-004, 6.2086962E-005, 1.2576551E-003, 4.8564011E+002
 1.0100801E+002, 2.6150462E-002, 1.6950649E-001, 1.0056400E-001, 5.6897117E-004, 6.5932669E-005, 1.2573220E-003, 4.8823972E+002
 1.0200123E+002, 2.6106076E-002, 1.6955404E-001, 1.0058046E-001, 5.6107954E-004, 6.6380221E-005, 1.2559337E-003, 4.9008609E+002
 1.0300769E+002, 2.4430335E-002, 1.7095626E-001, 1.0134881E-001, 5.5217832E-004, 5.7703564E-005, 1.2634232E-003, 4.9912954E+002
 1.0400940E+002, 2.6799823E-002, 1.6899463E-001, 1.0025547E-001, 5.4998371E-004, 6.5969443E-005, 1.2497767E-003, 4.7993862E+002
 1.0500542E+002, 2.3894238E-002, 1.7129997E-001, 1.0162943E-001, 6.2317125E-004, 7.2070435E-005, 1.2810920E-003, 4.8801171E+002
 1.0600970E+002, 2.3007086E-002, 1.7199115E-001, 1.0205397E-001, 6.5508595E-004, 7.1534800E-005, 1.2926384E-003, 4.9067392E+002
 1.0700279E+002, 2.5615127E-002, 1.6996839E-001, 1.0080378E-001, 5.5551014E-004, 6.6629872E-005, 1.2575109E-003, 4.8381977E+002
 1.0800958E+002, 2.2698554E-002, 1.7220911E-001, 1.0221076E-001, 6.8326763E-004, 6.5649603E-005, 1.3001997E-003, 4.9634037E+002
 1.0900328E+002, 2.1402965E-002, 1.7341740E-001, 1.0275973E-001, 5.8601019E-004, 5.9850281E-005, 1.2872693E-003, 4.9822792E+002
 1.1000414E+002, 2.2523516E-002, 1.7245649E-001, 1.0225422E-001, 6.0876508E-004, 6.6367665E-005, 1.2857406E-003, 4.8485422E+002
 1.1101046E+002, 2.0581294E-002, 1.7401175E-001, 1.0316854E-001, 6.4812533E-004, 6.4652132E-005, 1.3047001E-003, 4.9927112E+002
 1.1200708E+002, 2.3526462E-002, 1.7164593E-001, 1.0178505E-001, 5.9405693E-004, 6.5736700E-005, 1.2771155E-003, 4.8454581E+002
 1.1300481E+002, 2.3213353E-002, 1.7194739E-001, 1.0191498E-001, 5.6420167E-004, 6.0622776E-005, 1.2726799E-003, 4.8560096E+002
 1.1400601E+002, 2.1968188E-002, 1.7283805E-001, 1.0253755E-001, 6.6519165E-004, 7.0957159E-005, 1.3005117E-003, 4.9429456E+002
 1.1500061E+002, 2.1692691E-002, 1.7311613E-001, 1.0264687E-001, 6.2932134E-004, 6.8455130E-005, 1.2946176E-003, 4.8623681E+002
 1.1601037E+002, 2.1151177E-002, 1.7338151E-001, 1.0296076E-001, 7.6114312E-004, 7.8287801E-005, 1.3249219E-003, 4.9627960E+002
 1.1700182E+002, 1.9052185E-002, 1.7509798E-001, 1.0393807E-001, 7.7935548E-004, 6.4926239E-005, 1.3403881E-003, 5.0012245E+002
 1.1800396E+002, 2.1387456E-002, 1.7328352E-001, 1.0281855E-001, 6.9159539E-004, 6.7481126E-005, 1.3092158E-003, 4.8010285E+002
 1.1900240E+002, 2.0221560E-002, 1.7435468E-001, 1.0331907E-001, 6.1632393E-004, 5.8664120E-005, 1.3001218E-003, 4.9242695E+002
 1.2000078E+002, 2.0491210E-002, 1.7392539E-001, 1.0326688E-001, 7.6409032E-004, 7.2178727E-005, 1.3292116E-003, 4.9017062E+002
 1.2100172E+002, 2.1535619E-002, 1.7306537E-001, 1.0278340E-001, 7.5985108E-004, 7.5272516E-005, 1.3225196E-003, 4.9895891E+002
 1.2200953E+002, 2.2410765E-002, 1.7242525E-001, 1.0235077E-001, 6.9901044E-004, 6.8951429E-005, 1.3050572E-003, 4.8953464E+002
 1.2300681E+002, 1.8980528E-002, 1.7513956E-001, 1.0397800E-001, 7.9266736E-004, 6.2166256E-005, 1.3435476E-003, 4.9922232E+002
 1.2400899E+002, 2.2094867E-002, 1.7274972E-001, 1.0247416E-001, 6.5384985E-004, 6.5663531E-005, 1.2974646E-003, 4.9403425E+002
 1.2500702E+002, 1.9397311E-002, 1.7500529E-001, 1.0371049E-001, 6.3987188E-004, 5.7983973E-005, 1.3095855E-003, 4.9389945E+002
 1.2600511E+002, 2.1610490E-002, 1.7321219E-001, 1.0267575E-001, 6.0986195E-004, 6.2247754E-005, 1.2910522E-003, 4.8171182E+002
 1.2700700E+002, 2.1259342E-002, 1.7348025E-001, 1.0284469E-001, 6.2566663E-004, 6.8045432E-005, 1.2962718E-003, 4.9008219E+002
 1.2800467E+002, 1.9617195E-002, 1.7482579E-001, 1.0360699E-001, 6.3695714E-004, 6.4940808E-005, 1.3077496E-003, 4.9283073E+002
 1.2900366E+002, 2.1630994E-002, 1.7319071E-001, 1.0266762E-001, 6.1288908E-004, 6.3953343E-005, 1.2915630E-003, 4.9447066E+002
 1.3001078E+002, 2.0197021E-002, 1.7427608E-001, 1.0336478E-001, 6.8718056E-004, 6.6192549E-005, 1.3149254E-003, 4.8679869E+002
 1.3100582E+002, 1.9873156E-002, 1.7461962E-001, 1.0348671E-001, 6.3248206E-004, 6.6381230E-005, 1.3053970E-003, 4.9979062E+002
 1.3200544E+002, 2.1450011E-002, 1.7333118E-001, 1.0275278E-001, 6.1853318E-004, 7.2867510E-005, 1.2937274E-003, 4.8201814E+002
 1.3300847E+002, 2.0710376E-002, 1.7384685E-001, 1.0312810E-001, 6.8875675E-004, 7.5362008E-005, 1.3123843E-003, 4.8433038E+002
 1.3400733E+002, 1.9335543E-002, 1.7499104E-001, 1.0376051E-001, 6.8582442E-004, 6.9449500E-005, 1.3194327E-003, 4.9777093E+002
 1.3500528E+002, 1.9225674E-002, 1.7516472E-001, 1.0378232E-001, 6.2658033E-004, 6.3436467E-005, 1.3077802E-003, 4.9495310E+002
 1.3600557E+002, 1.4739726E-002, 1.7843622E-001, 1.0600792E-001, 9.4892140E-004, 7.1351937E-005, 1.3994924E-003, 5.0762697E+002
 1.3700278E+002, 1.7754073E-002, 1.7604457E-001, 1.0458037E-001, 8.7134555E-004, 7.6904807E-005, 1.3666481E-003, 4.9116017E+002
 1.3800991E+002, 1.8443403E-002, 1.7565465E-001, 1.0419886E-001, 7.4081146E-004, 6.8672429E-005, 1.3357862E-003, 4.9758268E+002
 1.3900252E+002, 1.8654050E-002, 1.7559900E-001, 1.0405990E-001, 6.5521733E-004, 6.2928055E-005, 1.3168924E-003, 4.9615683E+002
 1.4000824E+002, 1.7785862E-002, 1.7627528E-001, 1.0447580E-001, 6.8684125E-004, 6.0245278E-005, 1.3282759E-003, 4.9747634E+002
 1.4100106E+002, 1.9985115E-002, 1.7452445E-001, 1.0343512E-001, 6.3354476E-004, 7.1342696E-005, 1.3049879E-003, 4.8072941E+002
 1.4200361E+002, 1.8436137E-002, 1.7581665E-001, 1.0414644E-001, 6.2793157E-004, 6.5124622E-005, 1.3124501E-003, 4.9244373E+002
 1.4300506E+002, 1.7637018E-002, 1.7596314E-001, 1.0469981E-001, 1.0018031E-003, 7.1322150E-005, 1.3943285E-003, 5.0028577E+002
 1.4400672E+002, 1.5807225E-002, 1.7765532E-001, 1.0547906E-001, 8.7387588E-004, 7.0063148E-005, 1.3780113E-003, 5.0290362E+002
 1.4500336E+002, 1.6928424E-002, 1.7690140E-001, 1.0490030E-001, 7.4739688E-004, 6.5067576E-005, 1.3455826E-003, 4.9693763E+002
 1.4600586E+002, 1.9243736E-002, 1.7507495E-001, 1.0379972E-001, 6.7993567E-004, 7.0731762E-005, 1.3187220E-003, 4.8728311E+002
 1.4700795E+002, 1.8270976E-002, 1.7562852E-001, 1.0433712E-001, 8.6189539E-004, 8.1112817E-005, 1.3618098E-003, 4.8582627E+002
 1.4800138E+002, 1.7332093E-002, 1.7663337E-001, 1.0468953E-001, 6.9849226E-004, 6.9705095E-005, 1.3332013E-003, 4.8897271E+002
 1.4900048E+002, 1.8585952E-002, 1.7559114E-001, 1.0411361E-001, 7.0125080E-004, 6.7824682E-005, 1.3268000E-003, 4.9846298E+002
 1.5000983E+002, 1.7604840E-002, 1.7631486E-001, 1.0459742E-001, 7.6579411E-004, 6.9436715E-005, 1.3456248E-003, 4.9189926E+002
 1.5100013E+002, 1.5802316E-002, 1.7776555E-001, 1.0544230E-001, 7.9622587E-004, 7.3553707E-005, 1.3619503E-003, 4.9609285E+002
 1.5200147E+002, 1.6012267E-002, 1.7775603E-001, 1.0528743E-001, 6.7770932E-004, 6.6442709E-005, 1.3362428E-003, 5.0464522E+002
 1.5300944E+002, 1.4570194E-002, 1.7818363E-001, 1.0622587E-001, 1.2328591E-003, 8.3821681E-005, 1.4592322E-003, 4.9653850E+002
 1.5400020E+002, 1.8980288E-002, 1.7518656E-001, 1.0395775E-001, 7.5601061E-004, 8.1087297E-005, 1.3359318E-003, 4.8908806E+002
