s,,,,,,,
Time,"O2 EXHAUST","CO2 EXHAUST","H2O EXHAUST","CO EXHAUST","FUEL EXHAUST","SOOT EXHAUST","TEMP EXHAUST"
 0.0000000E+000, 2.3099739E-001, 5.9146498E-004, 5.9412091E-003, 0.0000000E+000, 0.0000000E+000, 0.0000000E+000, 2.0000000E+001
 1.0038620E+000, 2.3099739E-001, 5.9146498E-004, 5.9412091E-003, 1.6498624E-029, 2.2054278E-028, 4.8300825E-030, 2.0348331E+001
 2.0018676E+000, 2.2347790E-001, 7.4486554E-003, 8.8222300E-003, 3.7668596E-005, 3.1520065E-004, 4.9443563E-005, 9.3452911E+001
 3.0011808E+000, 2.1774582E-001, 1.2705114E-002, 1.1041605E-002, 7.6913896E-005, 3.5718340E-004, 8.9588144E-005, 1.4340262E+002
 4.0005570E+000, 2.1389755E-001, 1.6243717E-002, 1.2524287E-002, 9.1389740E-005, 4.1051338E-004, 1.1402895E-004, 1.7896425E+002
 5.0007527E+000, 2.0910807E-001, 2.0631973E-002, 1.4370091E-002, 1.1707609E-004, 5.0527344E-004, 1.4601189E-004, 2.1999420E+002
 6.0048499E+000, 2.0161374E-001, 2.7554313E-002, 1.7261580E-002, 1.3531893E-004, 5.2317458E-004, 1.9164357E-004, 2.7562058E+002
 7.0021042E+000, 1.9516715E-001, 3.3542112E-002, 1.9749367E-002, 1.3650257E-004, 4.6943704E-004, 2.2795634E-004, 3.2073231E+002
 8.0054349E+000, 1.9056586E-001, 3.7830282E-002, 2.1524983E-002, 1.3078807E-004, 4.0300073E-004, 2.5254182E-004, 3.4576602E+002
 9.0051446E+000, 1.8371490E-001, 4.4228683E-002, 2.4168483E-002, 1.1583019E-004, 2.7855385E-004, 2.8783434E-004, 3.8145586E+002
 1.0006290E+001, 1.7586781E-001, 5.1546080E-002, 2.7195750E-002, 1.0322196E-004, 1.6207118E-004, 3.2916921E-004, 4.1335269E+002
 1.1002832E+001, 1.6969403E-001, 5.7296293E-002, 2.9576847E-002, 9.5741715E-005, 8.7834277E-005, 3.6217662E-004, 4.3107722E+002
 1.2002506E+001, 1.6181121E-001, 6.4620211E-002, 3.2616529E-002, 9.3817726E-005, 3.2213550E-005, 4.0586273E-004, 4.5088497E+002
 1.3004650E+001, 1.5485496E-001, 7.1072868E-002, 3.5298659E-002, 9.6562176E-005, 5.3050014E-006, 4.4531255E-004, 4.7106342E+002
 1.4007895E+001, 1.4892990E-001, 7.6559628E-002, 3.7583139E-002, 1.0308877E-004, 1.2338361E-006, 4.7976444E-004, 4.7478159E+002
 1.5001216E+001, 1.4434373E-001, 8.0805419E-002, 3.9351388E-002, 1.0864284E-004, 3.1757278E-007, 5.0653314E-004, 4.8020179E+002
 1.6002728E+001, 1.3731429E-001, 8.7312535E-002, 4.2061662E-002, 1.1742710E-004, 2.1340739E-007, 5.4761783E-004, 4.8801275E+002
 1.7003381E+001, 1.3313393E-001, 9.1182247E-002, 4.3673442E-002, 1.2266087E-004, 1.5285315E-007, 5.7205259E-004, 4.9223748E+002
 1.8005181E+001, 1.3012444E-001, 9.3968171E-002, 4.4833770E-002, 1.2638484E-004, 7.7673984E-008, 5.8963440E-004, 4.8675576E+002
 1.9005947E+001, 1.2435717E-001, 9.9306815E-002, 4.7057408E-002, 1.3363783E-004, 1.1570546E-007, 6.2335156E-004, 4.9453282E+002
 2.0005322E+001, 1.2222823E-001, 1.0127756E-001, 4.7878239E-002, 1.3629485E-004, 9.5400820E-008, 6.3579376E-004, 4.9499706E+002
 2.1003060E+001, 1.1762440E-001, 1.0553921E-001, 4.9653299E-002, 1.4209494E-004, 1.3937864E-007, 6.6271119E-004, 4.9852258E+002
 2.2002760E+001, 1.1488050E-001, 1.0807918E-001, 5.0711239E-002, 1.4554320E-004, 1.7055547E-007, 6.7875229E-004, 4.9967608E+002
 2.3006841E+001, 1.1224306E-001, 1.1052072E-001, 5.1728118E-002, 1.4879357E-004, 7.0840511E-008, 6.9415782E-004, 4.9187345E+002
 2.4006840E+001, 1.1131708E-001, 1.1137786E-001, 5.2085140E-002, 1.4996697E-004, 8.5994082E-008, 6.9957317E-004, 4.8955852E+002
 2.5005915E+001, 1.0742100E-001, 1.1498439E-001, 5.3587315E-002, 1.5486099E-004, 1.4660637E-007, 7.2234959E-004, 4.9626799E+002
 2.6006615E+001, 1.0628306E-001, 1.1603780E-001, 5.4026054E-002, 1.5626422E-004, 7.0955853E-008, 7.2899657E-004, 4.8995632E+002
 2.7008652E+001, 1.0290063E-001, 1.1916883E-001, 5.5330188E-002, 1.6052346E-004, 1.4021091E-007, 7.4877235E-004, 4.9546731E+002
 2.8007164E+001, 1.0146805E-001, 1.2049426E-001, 5.5882633E-002, 1.6273432E-004, 8.9733421E-007, 7.5723207E-004, 4.9337157E+002
 2.9006017E+001, 9.8078189E-002, 1.2362172E-001, 5.7190793E-002, 1.7293254E-004, 1.4625761E-005, 7.7827139E-004, 4.9638263E+002
 3.0007003E+001, 9.7102469E-002, 1.2452931E-001, 5.7566629E-002, 1.7179661E-004, 8.1451455E-006, 7.8349085E-004, 4.9378141E+002
 3.1006504E+001, 9.5276282E-002, 1.2618004E-001, 5.8274928E-002, 1.9640810E-004, 6.1509190E-005, 7.9875643E-004, 4.9497018E+002
 3.2003222E+001, 9.4152102E-002, 1.2719946E-001, 5.8711052E-002, 2.1019040E-004, 8.7287213E-005, 8.0787726E-004, 4.8635368E+002
 3.3001191E+001, 9.1090532E-002, 1.2991226E-001, 5.9904252E-002, 2.8210080E-004, 2.5013540E-004, 8.3977286E-004, 4.8952616E+002
 3.4002803E+001, 8.9900409E-002, 1.3095316E-001, 6.0367017E-002, 3.1515013E-004, 3.4695108E-004, 8.5319205E-004, 4.8509807E+002
 3.5006088E+001, 8.8634642E-002, 1.3211634E-001, 6.0857441E-002, 3.2305678E-004, 3.4933520E-004, 8.6190717E-004, 4.8669732E+002
 3.6001000E+001, 8.6982541E-002, 1.3347480E-001, 6.1508370E-002, 4.1688712E-004, 6.0343940E-004, 8.9039043E-004, 4.7999342E+002
 3.7008237E+001, 8.5247842E-002, 1.3503143E-001, 6.2184087E-002, 4.4840922E-004, 6.5913978E-004, 9.0658466E-004, 4.8454174E+002
 3.8008854E+001, 8.3615285E-002, 1.3646497E-001, 6.2819049E-002, 4.9133197E-004, 7.7970220E-004, 9.2450465E-004, 4.8100876E+002
 3.9001654E+001, 8.2401700E-002, 1.3745048E-001, 6.3295530E-002, 5.6415275E-004, 1.0010109E-003, 9.4619611E-004, 4.8564551E+002
 4.0004194E+001, 8.1905806E-002, 1.3778938E-001, 6.3502973E-002, 6.3590706E-004, 1.1407018E-003, 9.6376281E-004, 4.7834318E+002
 4.1009361E+001, 8.1328731E-002, 1.3825899E-001, 6.3722174E-002, 6.6252144E-004, 1.2886086E-003, 9.7234975E-004, 4.7766749E+002
 4.2005302E+001, 7.9885870E-002, 1.3940139E-001, 6.4300324E-002, 7.7433228E-004, 1.5392288E-003, 1.0034224E-003, 4.7713654E+002
 4.3005416E+001, 7.8946713E-002, 1.4016274E-001, 6.4663924E-002, 8.2600945E-004, 1.7441741E-003, 1.0191891E-003, 4.7516134E+002
 4.4001825E+001, 7.8309119E-002, 1.4071701E-001, 6.4922199E-002, 8.5587101E-004, 1.7400489E-003, 1.0289879E-003, 4.6980472E+002
 4.5001325E+001, 7.7412562E-002, 1.4123978E-001, 6.5289143E-002, 1.0180497E-003, 2.2198581E-003, 1.0672282E-003, 4.6782124E+002
 4.6009008E+001, 7.7099728E-002, 1.4151286E-001, 6.5400723E-002, 1.0166524E-003, 2.3072665E-003, 1.0685706E-003, 4.7096983E+002
 4.7005938E+001, 7.6746950E-002, 1.4177328E-001, 6.5538513E-002, 1.0488939E-003, 2.4275723E-003, 1.0771153E-003, 4.6467492E+002
 4.8009768E+001, 7.5877754E-002, 1.4219110E-001, 6.5883417E-002, 1.2353439E-003, 3.1347164E-003, 1.1199759E-003, 4.6343523E+002
 4.9005104E+001, 7.5321469E-002, 1.4278358E-001, 6.6094343E-002, 1.1972476E-003, 3.0026226E-003, 1.1153003E-003, 4.6283465E+002
 5.0003218E+001, 7.5682986E-002, 1.4231040E-001, 6.5965122E-002, 1.2700207E-003, 3.2155556E-003, 1.1281976E-003, 4.6237009E+002
 5.1005277E+001, 7.5309644E-002, 1.4247779E-001, 6.6125983E-002, 1.3686245E-003, 3.4662184E-003, 1.1505414E-003, 4.5909586E+002
 5.2008446E+001, 7.4384314E-002, 1.4305117E-001, 6.6477957E-002, 1.4932285E-003, 4.0563221E-003, 1.1809568E-003, 4.5442812E+002
 5.3005960E+001, 7.3801043E-002, 1.4332310E-001, 6.6713271E-002, 1.6261414E-003, 4.5241752E-003, 1.2113543E-003, 4.5787367E+002
 5.4009742E+001, 7.4080718E-002, 1.4309206E-001, 6.6623510E-002, 1.6317105E-003, 4.3595967E-003, 1.2111674E-003, 4.5552357E+002
 5.5008897E+001, 7.3258346E-002, 1.4373683E-001, 6.6926404E-002, 1.6709924E-003, 4.6762283E-003, 1.2235506E-003, 4.5580742E+002
 5.6001647E+001, 7.3296868E-002, 1.4363172E-001, 6.6906763E-002, 1.6975150E-003, 4.8428327E-003, 1.2286569E-003, 4.4875931E+002
 5.7008066E+001, 7.2698928E-002, 1.4395339E-001, 6.7148210E-002, 1.8145413E-003, 5.2361371E-003, 1.2559163E-003, 4.5301238E+002
 5.8005497E+001, 7.2638153E-002, 1.4382812E-001, 6.7167337E-002, 1.8924868E-003, 5.6218615E-003, 1.2720283E-003, 4.4872904E+002
 5.9006297E+001, 7.2646572E-002, 1.4384751E-001, 6.7176280E-002, 1.8926598E-003, 5.4942008E-003, 1.2721821E-003, 4.4638383E+002
 6.0007022E+001, 7.2762446E-002, 1.4368567E-001, 6.7116055E-002, 1.9013022E-003, 5.6964814E-003, 1.2730782E-003, 4.4098007E+002
 6.1002547E+001, 7.2193277E-002, 1.4391219E-001, 6.7336775E-002, 2.0394638E-003, 6.2838526E-003, 1.3043384E-003, 4.4182462E+002
 6.2005000E+001, 7.1772606E-002, 1.4420508E-001, 6.7495738E-002, 2.0804308E-003, 6.4946584E-003, 1.3149668E-003, 4.4259095E+002
 6.3002239E+001, 7.1891914E-002, 1.4408750E-001, 6.7480276E-002, 2.1148498E-003, 6.3239126E-003, 1.3217054E-003, 4.4097594E+002
 6.4007452E+001, 7.1738024E-002, 1.4412469E-001, 6.7507339E-002, 2.1296470E-003, 6.7278468E-003, 1.3251325E-003, 4.4236453E+002
 6.5003076E+001, 7.1263905E-002, 1.4425534E-001, 6.7671790E-002, 2.2511334E-003, 7.4496504E-003, 1.3522078E-003, 4.4011930E+002
 6.6004011E+001, 7.1605144E-002, 1.4407767E-001, 6.7539614E-002, 2.1874328E-003, 7.1794994E-003, 1.3373540E-003, 4.4008759E+002
 6.7004817E+001, 7.1198923E-002, 1.4417051E-001, 6.7682480E-002, 2.3021944E-003, 7.8238541E-003, 1.3627464E-003, 4.3890896E+002
 6.8009623E+001, 7.1039254E-002, 1.4421599E-001, 6.7758190E-002, 2.3632959E-003, 7.9409395E-003, 1.3762412E-003, 4.3666691E+002
 6.9001278E+001, 7.0520924E-002, 1.4455584E-001, 6.7952799E-002, 2.4220148E-003, 8.2499601E-003, 1.3909937E-003, 4.3543712E+002
 7.0007993E+001, 7.0719194E-002, 1.4439960E-001, 6.7870174E-002, 2.4030480E-003, 8.2332781E-003, 1.3859490E-003, 4.3468597E+002
 7.1009730E+001, 7.0154027E-002, 1.4484556E-001, 6.8079285E-002, 2.4297329E-003, 8.4395087E-003, 1.3944090E-003, 4.3656522E+002
 7.2001277E+001, 7.0149147E-002, 1.4461396E-001, 6.8071865E-002, 2.5272234E-003, 8.9636337E-003, 1.4141102E-003, 4.3269474E+002
 7.3001967E+001, 7.0153560E-002, 1.4450862E-001, 6.8047068E-002, 2.5494184E-003, 9.3040692E-003, 1.4182794E-003, 4.3329306E+002
 7.4000394E+001, 6.9357442E-002, 1.4505169E-001, 6.8356725E-002, 2.6410770E-003, 9.6718182E-003, 1.4413832E-003, 4.3514279E+002
 7.5001342E+001, 6.9509520E-002, 1.4489647E-001, 6.8301559E-002, 2.6509947E-003, 9.6794369E-003, 1.4425944E-003, 4.3579734E+002
 7.6003584E+001, 6.9410972E-002, 1.4501764E-001, 6.8336460E-002, 2.6343691E-003, 9.6388547E-003, 1.4397266E-003, 4.3281606E+002
 7.7009237E+001, 6.9039280E-002, 1.4521508E-001, 6.8473793E-002, 2.6951700E-003, 9.9655592E-003, 1.4540721E-003, 4.3525571E+002
 7.8001019E+001, 6.9166095E-002, 1.4501955E-001, 6.8401328E-002, 2.7062438E-003, 1.0263064E-002, 1.4552918E-003, 4.3349885E+002
 7.9008832E+001, 6.8531302E-002, 1.4525394E-001, 6.8648628E-002, 2.8697705E-003, 1.0947468E-002, 1.4920880E-003, 4.3232565E+002
 8.0002269E+001, 6.9341264E-002, 1.4479474E-001, 6.8340312E-002, 2.7411190E-003, 1.0347715E-002, 1.4614843E-003, 4.3517829E+002
 8.1008596E+001, 6.8803198E-002, 1.4501971E-001, 6.8506408E-002, 2.8231541E-003, 1.1139240E-002, 1.4805918E-003, 4.3016854E+002
 8.2001402E+001, 6.8824501E-002, 1.4494046E-001, 6.8509384E-002, 2.8615912E-003, 1.1189436E-002, 1.4884314E-003, 4.2960399E+002
 8.3005993E+001, 6.8455571E-002, 1.4523751E-001, 6.8613474E-002, 2.8430586E-003, 1.1508524E-002, 1.4862113E-003, 4.2966298E+002
 8.4007964E+001, 6.8451170E-002, 1.4516517E-001, 6.8625701E-002, 2.8885081E-003, 1.1596180E-002, 1.4956099E-003, 4.3097192E+002
 8.5003115E+001, 6.8627270E-002, 1.4495059E-001, 6.8540587E-002, 2.8939932E-003, 1.1802562E-002, 1.4955054E-003, 4.2593910E+002
 8.6005997E+001, 6.8801329E-002, 1.4480027E-001, 6.8472776E-002, 2.8881590E-003, 1.1785398E-002, 1.4933378E-003, 4.2406430E+002
 8.7005395E+001, 6.8651479E-002, 1.4461745E-001, 6.8510369E-002, 3.0133853E-003, 1.2544643E-002, 1.5193348E-003, 4.2941904E+002
 8.8004158E+001, 6.8313407E-002, 1.4500768E-001, 6.8644143E-002, 2.9822942E-003, 1.2370780E-002, 1.5149569E-003, 4.3112457E+002
 8.9003861E+001, 6.8159102E-002, 1.4508455E-001, 6.8693892E-002, 3.0023935E-003, 1.2560484E-002, 1.5197693E-003, 4.2794612E+002
 9.0001081E+001, 6.8286405E-002, 1.4485220E-001, 6.8608764E-002, 3.0171516E-003, 1.3005574E-002, 1.5215649E-003, 4.2923410E+002
 9.1006219E+001, 6.8151478E-002, 1.4489954E-001, 6.8664938E-002, 3.0567382E-003, 1.3134104E-002, 1.5304158E-003, 4.2689353E+002
 9.2007613E+001, 6.8465320E-002, 1.4460823E-001, 6.8523567E-002, 3.0358067E-003, 1.3258981E-002, 1.5241331E-003, 4.2252514E+002
 9.3006752E+001, 6.8230014E-002, 1.4477119E-001, 6.8600220E-002, 3.0465283E-003, 1.3452859E-002, 1.5274350E-003, 4.2761461E+002
 9.4006426E+001, 6.8042318E-002, 1.4488985E-001, 6.8667287E-002, 3.0662975E-003, 1.3594101E-002, 1.5324274E-003, 4.2621196E+002
 9.5008412E+001, 6.8633663E-002, 1.4424572E-001, 6.8407732E-002, 3.0770224E-003, 1.3976790E-002, 1.5308706E-003, 4.2505597E+002
 9.6000368E+001, 6.8221731E-002, 1.4460764E-001, 6.8571605E-002, 3.0915145E-003, 1.3984670E-002, 1.5361856E-003, 4.2451547E+002
 9.7003702E+001, 6.8158505E-002, 1.4474538E-001, 6.8585374E-002, 3.0448011E-003, 1.3891950E-002, 1.5269074E-003, 4.2873944E+002
 9.8007551E+001, 6.8122635E-002, 1.4461677E-001, 6.8573384E-002, 3.0916990E-003, 1.4368854E-002, 1.5362819E-003, 4.2769461E+002
 9.9005803E+001, 6.8209092E-002, 1.4449940E-001, 6.8540784E-002, 3.1092677E-003, 1.4438385E-002, 1.5393767E-003, 4.2319525E+002
 1.0000017E+002, 6.7932641E-002, 1.4458700E-001, 6.8601745E-002, 3.1390879E-003, 1.5048082E-002, 1.5463586E-003, 4.2293637E+002
 1.0100692E+002, 6.7931403E-002, 1.4456474E-001, 6.8589715E-002, 3.1368683E-003, 1.5170193E-002, 1.5457447E-003, 4.2668012E+002
 1.0200754E+002, 6.8038503E-002, 1.4452216E-001, 6.8567743E-002, 3.1309186E-003, 1.4941142E-002, 1.5442002E-003, 4.2253735E+002
 1.0300744E+002, 6.8401421E-002, 1.4416091E-001, 6.8404124E-002, 3.1176237E-003, 1.5134722E-002, 1.5391489E-003, 4.2177799E+002
 1.0400334E+002, 6.7985868E-002, 1.4447102E-001, 6.8550129E-002, 3.1373559E-003, 1.5368501E-002, 1.5452866E-003, 4.2451390E+002
 1.0500362E+002, 6.8503304E-002, 1.4393532E-001, 6.8323339E-002, 3.1344178E-003, 1.5646077E-002, 1.5414260E-003, 4.2241545E+002
 1.0600616E+002, 6.8146048E-002, 1.4417118E-001, 6.8475360E-002, 3.1925097E-003, 1.5747560E-002, 1.5554160E-003, 4.2543545E+002
 1.0700169E+002, 6.8180405E-002, 1.4422200E-001, 6.8431372E-002, 3.1234675E-003, 1.5769965E-002, 1.5407834E-003, 4.2034166E+002
 1.0800132E+002, 6.8171706E-002, 1.4424362E-001, 6.8405507E-002, 3.0873482E-003, 1.5919991E-002, 1.5330990E-003, 4.2189129E+002
 1.0900805E+002, 6.8172266E-002, 1.4407408E-001, 6.8383642E-002, 3.1417462E-003, 1.6385927E-002, 1.5438499E-003, 4.2425266E+002
 1.1000768E+002, 6.8183739E-002, 1.4402913E-001, 6.8362809E-002, 3.1404576E-003, 1.6553288E-002, 1.5433010E-003, 4.2343106E+002
 1.1100446E+002, 6.8480672E-002, 1.4377250E-001, 6.8227562E-002, 3.1105153E-003, 1.6642859E-002, 1.5352773E-003, 4.2046575E+002
 1.1200243E+002, 6.8431302E-002, 1.4375168E-001, 6.8241974E-002, 3.1359860E-003, 1.6802637E-002, 1.5406636E-003, 4.2246326E+002
 1.1300236E+002, 6.8711963E-002, 1.4346410E-001, 6.8122768E-002, 3.1369447E-003, 1.6924237E-002, 1.5391397E-003, 4.2154120E+002
 1.1400410E+002, 6.8664503E-002, 1.4346738E-001, 6.8120284E-002, 3.1341034E-003, 1.7130593E-002, 1.5385455E-003, 4.1771241E+002
 1.1500691E+002, 6.8639822E-002, 1.4345329E-001, 6.8103944E-002, 3.1243467E-003, 1.7360304E-002, 1.5363504E-003, 4.1972080E+002
 1.1600128E+002, 6.8461856E-002, 1.4365430E-001, 6.8187478E-002, 3.1234373E-003, 1.7198143E-002, 1.5373635E-003, 4.2022882E+002
 1.1700857E+002, 6.8344361E-002, 1.4370280E-001, 6.8210572E-002, 3.1281151E-003, 1.7451986E-002, 1.5386685E-003, 4.2072764E+002
 1.1800815E+002, 6.8401201E-002, 1.4353989E-001, 6.8167162E-002, 3.1559828E-003, 1.7800646E-002, 1.5437185E-003, 4.2235012E+002
 1.1900189E+002, 6.8304759E-002, 1.4356985E-001, 6.8183976E-002, 3.1620886E-003, 1.8041484E-002, 1.5452209E-003, 4.2032244E+002
 1.2000814E+002, 6.8650109E-002, 1.4326428E-001, 6.8023184E-002, 3.1268964E-003, 1.8180847E-002, 1.5357668E-003, 4.1944266E+002
 1.2100982E+002, 6.8849206E-002, 1.4307219E-001, 6.7947296E-002, 3.1310783E-003, 1.8190982E-002, 1.5355149E-003, 4.1872360E+002
 1.2200012E+002, 6.8925507E-002, 1.4299968E-001, 6.7921878E-002, 3.1359390E-003, 1.8170489E-002, 1.5361300E-003, 4.1644792E+002
 1.2300671E+002, 6.8678929E-002, 1.4317502E-001, 6.8018996E-002, 3.1623327E-003, 1.8262919E-002, 1.5428970E-003, 4.1717279E+002
 1.2400219E+002, 6.8770666E-002, 1.4298044E-001, 6.7929477E-002, 3.1563626E-003, 1.8808014E-002, 1.5404355E-003, 4.1880905E+002
 1.2500535E+002, 6.8817202E-002, 1.4297733E-001, 6.7931608E-002, 3.1587850E-003, 1.8607298E-002, 1.5409401E-003, 4.2000423E+002
 1.2600442E+002, 6.9096858E-002, 1.4271837E-001, 6.7799379E-002, 3.1334309E-003, 1.8755214E-002, 1.5338954E-003, 4.2058096E+002
 1.2700842E+002, 6.8948891E-002, 1.4277749E-001, 6.7848702E-002, 3.1609781E-003, 1.8956243E-002, 1.5402125E-003, 4.1834539E+002
 1.2800226E+002, 6.9261799E-002, 1.4256749E-001, 6.7751149E-002, 3.1481733E-003, 1.8658626E-002, 1.5361763E-003, 4.1461193E+002
 1.2900315E+002, 6.8997863E-002, 1.4261754E-001, 6.7805513E-002, 3.1879301E-003, 1.9330495E-002, 1.5450823E-003, 4.1594662E+002
 1.3000506E+002, 6.8976451E-002, 1.4252760E-001, 6.7804694E-002, 3.2283984E-003, 1.9602897E-002, 1.5532978E-003, 4.1911683E+002
 1.3100402E+002, 6.8917193E-002, 1.4256754E-001, 6.7807681E-002, 3.2148533E-003, 1.9752683E-002, 1.5506081E-003, 4.1775903E+002
 1.3200073E+002, 6.8990992E-002, 1.4252872E-001, 6.7788252E-002, 3.2106518E-003, 1.9639605E-002, 1.5494648E-003, 4.1606317E+002
 1.3300111E+002, 6.9297261E-002, 1.4216001E-001, 6.7655854E-002, 3.2342044E-003, 1.9895072E-002, 1.5523415E-003, 4.1601565E+002
 1.3400933E+002, 6.9465706E-002, 1.4209087E-001, 6.7604286E-002, 3.2083763E-003, 1.9642124E-002, 1.5463359E-003, 4.1696696E+002
 1.3501131E+002, 6.9537727E-002, 1.4189370E-001, 6.7540969E-002, 3.2309675E-003, 2.0115906E-002, 1.5500383E-003, 4.1497795E+002
 1.3600275E+002, 6.9657591E-002, 1.4192388E-001, 6.7514092E-002, 3.1866838E-003, 1.9719206E-002, 1.5406370E-003, 4.1503945E+002
 1.3700101E+002, 6.9392249E-002, 1.4203461E-001, 6.7566124E-002, 3.1965780E-003, 2.0290832E-002, 1.5434466E-003, 4.1631018E+002
 1.3800350E+002, 6.9801792E-002, 1.4165514E-001, 6.7386231E-002, 3.1736621E-003, 2.0424663E-002, 1.5362037E-003, 4.1485858E+002
 1.3900890E+002, 6.9514649E-002, 1.4184132E-001, 6.7496972E-002, 3.2101454E-003, 2.0582237E-002, 1.5452193E-003, 4.1254460E+002
 1.4000673E+002, 6.9564462E-002, 1.4177868E-001, 6.7506112E-002, 3.2466626E-003, 2.0443379E-002, 1.5527428E-003, 4.1820376E+002
 1.4100139E+002, 6.9723603E-002, 1.4161672E-001, 6.7401651E-002, 3.2088761E-003, 2.0733356E-002, 1.5435927E-003, 4.1255414E+002
 1.4200881E+002, 6.9667960E-002, 1.4155220E-001, 6.7410304E-002, 3.2484038E-003, 2.1040732E-002, 1.5517579E-003, 4.1575350E+002
 1.4300518E+002, 6.9390829E-002, 1.4202163E-001, 6.7557050E-002, 3.1931861E-003, 2.0377398E-002, 1.5426348E-003, 4.1906377E+002
 1.4400884E+002, 6.9505318E-002, 1.4166896E-001, 6.7472774E-002, 3.2636824E-003, 2.1109132E-002, 1.5557670E-003, 4.1778723E+002
 1.4500658E+002, 6.9760057E-002, 1.4151633E-001, 6.7389072E-002, 3.2405522E-003, 2.0856449E-002, 1.5498424E-003, 4.1484636E+002
 1.4600226E+002, 6.9993412E-002, 1.4118289E-001, 6.7249174E-002, 3.2422590E-003, 2.1391360E-002, 1.5482057E-003, 4.0811171E+002
 1.4700871E+002, 7.0038604E-002, 1.4109154E-001, 6.7220641E-002, 3.2532482E-003, 2.1556715E-002, 1.5500339E-003, 4.1386465E+002
 1.4800263E+002, 6.9893644E-002, 1.4130931E-001, 6.7304981E-002, 3.2447374E-003, 2.1218892E-002, 1.5495026E-003, 4.1724566E+002
 1.4900349E+002, 7.0144653E-002, 1.4107768E-001, 6.7170079E-002, 3.2049750E-003, 2.1448254E-002, 1.5395052E-003, 4.1100658E+002
 1.5000754E+002, 6.9670516E-002, 1.4139325E-001, 6.7373046E-002, 3.2821608E-003, 2.1570567E-002, 1.5581066E-003, 4.1567116E+002
 1.5100243E+002, 6.9884472E-002, 1.4121591E-001, 6.7267776E-002, 3.2491266E-003, 2.1667410E-002, 1.5498915E-003, 4.1559297E+002
 1.5200070E+002, 6.9883602E-002, 1.4110496E-001, 6.7274620E-002, 3.3064668E-003, 2.1849430E-002, 1.5616307E-003, 4.1398930E+002
 1.5301027E+002, 7.0243733E-002, 1.4094194E-001, 6.7137063E-002, 3.2301237E-003, 2.1504071E-002, 1.5441295E-003, 4.1510129E+002
 1.5400191E+002, 6.9956612E-002, 1.4105538E-001, 6.7232748E-002, 3.2841340E-003, 2.1896838E-002, 1.5565001E-003, 4.1442929E+002
