s,,,,,,,
Time,"O2 EXHAUST","CO2 EXHAUST","H2O EXHAUST","CO EXHAUST","FUEL EXHAUST","SOOT EXHAUST","TEMP EXHAUST"
 0.0000000E+000, 2.3099745E-001, 5.9146511E-004, 5.9409840E-003, 0.0000000E+000, 0.0000000E+000, 0.0000000E+000, 2.0000000E+001
 1.0063237E+000, 2.3099745E-001, 5.9146511E-004, 5.9409840E-003, 3.8380186E-033, 3.2460985E-032, 1.0230662E-033, 2.0306050E+001
 2.0051286E+000, 2.2486698E-001, 5.3773768E-003, 9.9560768E-003, 1.9187080E-005, 7.3289742E-005, 3.1904090E-005, 8.8194241E+001
 3.0010351E+000, 2.2111119E-001, 8.2840120E-003, 1.2431436E-002, 5.0190634E-005, 1.0718878E-004, 5.5467351E-005, 1.1645207E+002
 4.0034562E+000, 2.1782402E-001, 1.0844797E-002, 1.4589761E-002, 6.5672925E-005, 1.3569974E-004, 7.3666729E-005, 1.4765293E+002
 5.0000495E+000, 2.1415950E-001, 1.3693166E-002, 1.6997875E-002, 8.6799318E-005, 1.7222349E-004, 9.4754984E-005, 1.8001562E+002
 6.0043724E+000, 2.1034945E-001, 1.6678925E-002, 1.9494804E-002, 9.4508892E-005, 1.8853007E-004, 1.1373684E-004, 2.1197078E+002
 7.0026786E+000, 2.0468265E-001, 2.1138135E-002, 2.3205850E-002, 9.6432813E-005, 1.8643219E-004, 1.4001094E-004, 2.5280118E+002
 8.0000007E+000, 2.0184167E-001, 2.3387679E-002, 2.5064370E-002, 9.0196740E-005, 1.6503292E-004, 1.5170610E-004, 2.7317173E+002
 9.0006682E+000, 1.9740499E-001, 2.6904686E-002, 2.7965001E-002, 7.7797100E-005, 1.3067735E-004, 1.6941728E-004, 3.0114162E+002
 1.0002612E+001, 1.9118415E-001, 3.1843253E-002, 3.2030587E-002, 5.6434970E-005, 7.3898447E-005, 1.9343242E-004, 3.3577136E+002
 1.1000231E+001, 1.8529988E-001, 3.6502755E-002, 3.5878468E-002, 4.2646863E-005, 3.5183935E-005, 2.1746820E-004, 3.6413864E+002
 1.2001287E+001, 1.8141770E-001, 3.9573986E-002, 3.8417627E-002, 3.5090911E-005, 1.3462595E-005, 2.3364252E-004, 3.7708990E+002
 1.3000576E+001, 1.7608527E-001, 4.3778079E-002, 4.1908287E-002, 3.2630727E-005, 9.8597947E-007, 2.5748863E-004, 3.9776115E+002
 1.4001052E+001, 1.7091142E-001, 4.7848024E-002, 4.5296966E-002, 3.5223592E-005, 2.2743551E-008, 2.8165024E-004, 4.1128480E+002
 1.5005581E+001, 1.6763075E-001, 5.0428165E-002, 4.7445797E-002, 3.7173372E-005, 3.9672276E-008, 2.9703370E-004, 4.1928398E+002
 1.6004001E+001, 1.6195663E-001, 5.4890818E-002, 5.1162294E-002, 4.0463698E-005, 1.2919237E-008, 3.2362343E-004, 4.3003630E+002
 1.7008022E+001, 1.5933210E-001, 5.6954941E-002, 5.2881348E-002, 4.2013356E-005, 2.3162063E-008, 3.3592806E-004, 4.2928994E+002
 1.8007684E+001, 1.5528841E-001, 6.0135230E-002, 5.5529939E-002, 4.4382795E-005, 2.2341054E-008, 3.5488243E-004, 4.3628754E+002
 1.9006687E+001, 1.5039799E-001, 6.3981443E-002, 5.8733139E-002, 4.7257452E-005, 3.1189119E-008, 3.7780764E-004, 4.4511362E+002
 2.0000341E+001, 1.4686037E-001, 6.6763732E-002, 6.1050260E-002, 4.9324963E-005, 2.8588058E-008, 3.9438878E-004, 4.4868146E+002
 2.1009045E+001, 1.3947842E-001, 7.2569456E-002, 6.5885406E-002, 5.3679277E-005, 5.0926798E-008, 4.2899686E-004, 4.6071317E+002
 2.2008173E+001, 1.4175727E-001, 7.0777263E-002, 6.4392746E-002, 5.2294071E-005, 5.5681023E-009, 4.1830467E-004, 4.4436053E+002
 2.3008509E+001, 1.3650054E-001, 7.4911537E-002, 6.7835883E-002, 5.5401841E-005, 3.3038045E-008, 4.4295071E-004, 4.5128540E+002
 2.4007697E+001, 1.3247962E-001, 7.8073920E-002, 7.0469568E-002, 5.7761656E-005, 3.3133644E-008, 4.6179917E-004, 4.5490414E+002
 2.5000474E+001, 1.2932753E-001, 8.0552993E-002, 7.2534156E-002, 5.9597640E-005, 2.0578840E-008, 4.7657194E-004, 4.6120755E+002
 2.6000275E+001, 1.2737392E-001, 8.2089492E-002, 7.3813759E-002, 6.0733976E-005, 1.8308575E-008, 4.8572758E-004, 4.5369639E+002
 2.7004374E+001, 1.2370550E-001, 8.4974608E-002, 7.6216555E-002, 6.2899007E-005, 3.5749714E-008, 5.0292609E-004, 4.5723799E+002
 2.8004499E+001, 1.2176812E-001, 8.6498353E-002, 7.7485520E-002, 6.4017367E-005, 1.4886004E-008, 5.1200389E-004, 4.5368341E+002
 2.9008267E+001, 1.1637009E-001, 9.0743769E-002, 8.1021214E-002, 6.7206393E-005, 3.5088109E-008, 5.3731200E-004, 4.6143904E+002
 3.0001022E+001, 1.1623912E-001, 9.0846780E-002, 8.1106988E-002, 6.7275109E-005, 3.8324146E-008, 5.3792420E-004, 4.5767256E+002
 3.1003205E+001, 1.1282151E-001, 9.3534704E-002, 8.3345495E-002, 6.9259522E-005, 1.4209017E-008, 5.5394016E-004, 4.5114367E+002
 3.2004878E+001, 1.1139967E-001, 9.4652948E-002, 8.4276790E-002, 7.0095257E-005, 1.6141209E-008, 5.6060541E-004, 4.5487572E+002
 3.3006171E+001, 1.0825120E-001, 9.7129181E-002, 8.6339010E-002, 7.1928014E-005, 8.8530051E-009, 5.7536101E-004, 4.5635625E+002
 3.4000927E+001, 1.0565376E-001, 9.9171925E-002, 8.8040349E-002, 7.3508777E-005, 6.6402048E-008, 5.8754840E-004, 4.5380303E+002
 3.5005341E+001, 1.0300717E-001, 1.0125347E-001, 8.9773841E-002, 7.5035701E-005, 4.1334359E-008, 5.9994911E-004, 4.5810385E+002
 3.6011649E+001, 1.0037041E-001, 1.0332727E-001, 9.1500886E-002, 7.6556361E-005, 2.1057289E-008, 6.1230358E-004, 4.5251682E+002
 3.7005697E+001, 9.9530588E-002, 1.0398773E-001, 9.2050980E-002, 7.7076142E-005, 4.7981041E-008, 6.1624590E-004, 4.4877510E+002
 3.8008520E+001, 9.6009513E-002, 1.0675701E-001, 9.4357255E-002, 7.9125627E-005, 3.2124086E-008, 6.3274773E-004, 4.5395458E+002
 3.9007844E+001, 9.3722876E-002, 1.0855543E-001, 9.5854980E-002, 8.0452581E-005, 1.9812294E-008, 6.4346342E-004, 4.5249366E+002
 4.0000335E+001, 9.1318090E-002, 1.1044670E-001, 9.7430118E-002, 8.1895919E-005, 6.2439866E-008, 6.5474269E-004, 4.5535111E+002
 4.1001202E+001, 8.8645125E-002, 1.1254899E-001, 9.9180875E-002, 8.3427840E-005, 2.0148847E-008, 6.6726484E-004, 4.5573892E+002
 4.2006074E+001, 8.6996607E-002, 1.1384180E-001, 1.0026185E-001, 8.6661529E-005, 2.6813612E-006, 6.7546122E-004, 4.5546600E+002
 4.3002738E+001, 8.4136574E-002, 1.1609487E-001, 1.0213395E-001, 8.6082145E-005, 3.8788037E-008, 6.8840078E-004, 4.5389947E+002
 4.4005248E+001, 7.9598613E-002, 1.1965502E-001, 1.0510847E-001, 9.3793748E-005, 9.2219731E-006, 7.1071380E-004, 4.7055737E+002
 4.5003968E+001, 7.9647926E-002, 1.1962510E-001, 1.0507399E-001, 8.8719079E-005, 4.7740746E-008, 7.0944225E-004, 4.5662889E+002
 4.6009272E+001, 7.5531721E-002, 1.2260687E-001, 1.0782467E-001, 2.3237346E-004, 2.9763466E-004, 7.5781663E-004, 4.6713529E+002
 4.7001541E+001, 7.4986232E-002, 1.2321540E-001, 1.0814502E-001, 1.3419394E-004, 8.2973824E-005, 7.4010129E-004, 4.5883518E+002
 4.8003673E+001, 7.2962699E-002, 1.2459972E-001, 1.0950868E-001, 2.4679779E-004, 3.4825387E-004, 7.7249383E-004, 4.5759838E+002
 4.9004995E+001, 7.2625569E-002, 1.2495552E-001, 1.0971870E-001, 2.0129527E-004, 2.0828586E-004, 7.6471108E-004, 4.4873976E+002
 5.0002492E+001, 7.0648153E-002, 1.2645320E-001, 1.1102738E-001, 2.3486136E-004, 2.7046276E-004, 7.8065873E-004, 4.5417224E+002
 5.1003308E+001, 6.9440910E-002, 1.2731089E-001, 1.1184394E-001, 2.8949473E-004, 3.5238922E-004, 7.9745368E-004, 4.5676234E+002
 5.2004145E+001, 6.7727274E-002, 1.2836298E-001, 1.1301832E-001, 4.4815345E-004, 7.4166874E-004, 8.3788510E-004, 4.4712034E+002
 5.3004178E+001, 6.5606946E-002, 1.2922483E-001, 1.1451102E-001, 8.5965330E-004, 1.9539482E-003, 9.3192402E-004, 4.4814171E+002
 5.4008534E+001, 6.5662296E-002, 1.2967804E-001, 1.1441493E-001, 6.0886640E-004, 1.1896500E-003, 8.8028615E-004, 4.4953040E+002
 5.5008261E+001, 6.4927253E-002, 1.3010986E-001, 1.1492108E-001, 6.8677817E-004, 1.3862766E-003, 8.9964879E-004, 4.3624223E+002
 5.6008951E+001, 6.3655735E-002, 1.3080801E-001, 1.1576915E-001, 8.2905005E-004, 1.9355948E-003, 9.3448270E-004, 4.4325996E+002
 5.7001607E+001, 6.3312204E-002, 1.3102954E-001, 1.1600984E-001, 8.5886172E-004, 1.9710249E-003, 9.4221781E-004, 4.3784021E+002
 5.8009629E+001, 6.1928860E-002, 1.3198272E-001, 1.1698966E-001, 9.5728268E-004, 1.9475465E-003, 9.6904052E-004, 4.3863407E+002
 5.9008440E+001, 6.1269529E-002, 1.3218610E-001, 1.1746960E-001, 1.1219684E-003, 2.3918508E-003, 1.0058548E-003, 4.3612742E+002
 6.0005877E+001, 6.0471186E-002, 1.3258625E-001, 1.1796777E-001, 1.2105695E-003, 2.9517326E-003, 1.0273479E-003, 4.3437034E+002
 6.1010979E+001, 5.9740003E-002, 1.3262213E-001, 1.1852625E-001, 1.4906924E-003, 3.7226565E-003, 1.0881694E-003, 4.3084404E+002
 6.2002292E+001, 5.9731837E-002, 1.3246524E-001, 1.1841270E-001, 1.5018867E-003, 4.5303738E-003, 1.0896845E-003, 4.2478522E+002
 6.3008643E+001, 5.9143685E-002, 1.3282775E-001, 1.1887065E-001, 1.5839306E-003, 4.4407443E-003, 1.1095383E-003, 4.2480705E+002
 6.4008076E+001, 5.8512245E-002, 1.3321683E-001, 1.1928418E-001, 1.6318969E-003, 4.6584426E-003, 1.1221738E-003, 4.2412721E+002
 6.5009035E+001, 5.8293726E-002, 1.3321884E-001, 1.1932341E-001, 1.6538195E-003, 5.4191380E-003, 1.1269315E-003, 4.2195841E+002
 6.6003878E+001, 5.8193352E-002, 1.3310644E-001, 1.1949195E-001, 1.7914750E-003, 5.3933461E-003, 1.1560644E-003, 4.1424988E+002
 6.7004315E+001, 5.7448770E-002, 1.3349549E-001, 1.2004432E-001, 1.9122136E-003, 5.5311096E-003, 1.1844454E-003, 4.2109910E+002
 6.8001531E+001, 5.7608559E-002, 1.3313160E-001, 1.1982085E-001, 1.9565297E-003, 6.4899387E-003, 1.1919273E-003, 4.0966532E+002
 6.9007076E+001, 5.6998232E-002, 1.3336815E-001, 1.2016381E-001, 2.0354989E-003, 7.2103722E-003, 1.2103882E-003, 4.1168766E+002
 7.0010857E+001, 5.6850272E-002, 1.3345124E-001, 1.2022965E-001, 2.0343427E-003, 7.4024409E-003, 1.2106205E-003, 4.1080349E+002
 7.1005833E+001, 5.6947710E-002, 1.3300568E-001, 1.2008764E-001, 2.1574635E-003, 8.4625093E-003, 1.2346803E-003, 4.1079916E+002
 7.2004429E+001, 5.6824288E-002, 1.3319302E-001, 1.2022144E-001, 2.1447932E-003, 8.0672716E-003, 1.2330238E-003, 4.0581726E+002
 7.3009140E+001, 5.6781674E-002, 1.3297368E-001, 1.2021465E-001, 2.2389565E-003, 8.7179796E-003, 1.2521284E-003, 4.0054852E+002
 7.4005880E+001, 5.6373610E-002, 1.3309360E-001, 1.2044261E-001, 2.3080006E-003, 9.2823734E-003, 1.2677650E-003, 4.0057625E+002
 7.5009948E+001, 5.6694890E-002, 1.3241925E-001, 1.1996248E-001, 2.3558713E-003, 1.1218074E-002, 1.2742191E-003, 3.9732453E+002
 7.6009274E+001, 5.6383056E-002, 1.3255129E-001, 1.2011815E-001, 2.3812141E-003, 1.1642080E-002, 1.2804697E-003, 3.9998101E+002
 7.7007246E+001, 5.6137719E-002, 1.3249026E-001, 1.2032594E-001, 2.5180550E-003, 1.1966634E-002, 1.3097255E-003, 3.9653216E+002
 7.8008670E+001, 5.6428940E-002, 1.3224025E-001, 1.2027823E-001, 2.6007216E-003, 1.1434646E-002, 1.3261607E-003, 3.9838142E+002
 7.9010695E+001, 5.6290269E-002, 1.3226751E-001, 1.2030657E-001, 2.6048969E-003, 1.1851001E-002, 1.3272236E-003, 3.9457869E+002
 8.0004011E+001, 5.6146856E-002, 1.3202915E-001, 1.2009424E-001, 2.6030136E-003, 1.3790923E-002, 1.3254406E-003, 3.9258377E+002
 8.1000785E+001, 5.6269786E-002, 1.3210911E-001, 1.2009322E-001, 2.5655925E-003, 1.3114488E-002, 1.3178050E-003, 3.8591344E+002
 8.2003178E+001, 5.6403722E-002, 1.3160461E-001, 1.1989768E-001, 2.6868519E-003, 1.4354628E-002, 1.3411209E-003, 3.9010745E+002
 8.3005869E+001, 5.6041216E-002, 1.3188424E-001, 1.2010895E-001, 2.6760268E-003, 1.4470806E-002, 1.3404006E-003, 3.8937540E+002
 8.4004689E+001, 5.6252390E-002, 1.3155103E-001, 1.1988232E-001, 2.7045066E-003, 1.5163392E-002, 1.3446330E-003, 3.8624113E+002
 8.5008987E+001, 5.6377080E-002, 1.3154882E-001, 1.1981034E-001, 2.6669664E-003, 1.4930637E-002, 1.3364967E-003, 3.8499843E+002
 8.6003259E+001, 5.6472781E-002, 1.3105172E-001, 1.1960282E-001, 2.7792517E-003, 1.6365255E-002, 1.3579145E-003, 3.8527483E+002
 8.7008836E+001, 5.6464113E-002, 1.3094570E-001, 1.1953969E-001, 2.7938463E-003, 1.6869785E-002, 1.3604593E-003, 3.7877772E+002
 8.8006282E+001, 5.6668030E-002, 1.3089469E-001, 1.1936252E-001, 2.7228691E-003, 1.6823712E-002, 1.3448059E-003, 3.8100586E+002
 8.9010187E+001, 5.6653026E-002, 1.3038759E-001, 1.1933390E-001, 2.9329129E-003, 1.8027470E-002, 1.3873170E-003, 3.8209274E+002
 9.0010473E+001, 5.6598660E-002, 1.3042297E-001, 1.1937435E-001, 2.9386983E-003, 1.8022940E-002, 1.3887740E-003, 3.7842536E+002
 9.1007521E+001, 5.6500703E-002, 1.3058776E-001, 1.1946046E-001, 2.9111806E-003, 1.7757363E-002, 1.3837746E-003, 3.8005397E+002
 9.2000456E+001, 5.6803134E-002, 1.2991539E-001, 1.1896900E-001, 2.9525858E-003, 1.9814051E-002, 1.3888417E-003, 3.8197358E+002
 9.3011938E+001, 5.6404506E-002, 1.2997938E-001, 1.1927925E-001, 3.0885962E-003, 2.0121308E-002, 1.4186427E-003, 3.7807955E+002
 9.4004204E+001, 5.6765383E-002, 1.2987737E-001, 1.1892043E-001, 2.9449041E-003, 2.0245349E-002, 1.3869606E-003, 3.7842481E+002
 9.5002603E+001, 5.6442329E-002, 1.2998200E-001, 1.1930649E-001, 3.1009854E-003, 1.9847035E-002, 1.4213376E-003, 3.7511935E+002
 9.6004611E+001, 5.6817525E-002, 1.2977697E-001, 1.1886527E-001, 2.9603760E-003, 2.0449782E-002, 1.3897268E-003, 3.7333837E+002
 9.7000673E+001, 5.6869310E-002, 1.2931958E-001, 1.1867607E-001, 3.0650208E-003, 2.1915911E-002, 1.4097218E-003, 3.7228170E+002
 9.8003824E+001, 5.6987612E-002, 1.2903762E-001, 1.1833663E-001, 3.0139222E-003, 2.3349839E-002, 1.3970353E-003, 3.7403920E+002
 9.9002400E+001, 5.6858889E-002, 1.2937346E-001, 1.1877898E-001, 3.0942013E-003, 2.1437712E-002, 1.4163464E-003, 3.7086694E+002
 1.0001041E+002, 5.6739252E-002, 1.2932447E-001, 1.1883265E-001, 3.1449394E-003, 2.1826240E-002, 1.4270420E-003, 3.7314106E+002
 1.0100218E+002, 5.7027831E-002, 1.2888073E-001, 1.1845052E-001, 3.1414740E-003, 2.3040069E-002, 1.4237232E-003, 3.6768329E+002
 1.0200002E+002, 5.6662300E-002, 1.2882660E-001, 1.1877919E-001, 3.3388704E-003, 2.3372524E-002, 1.4661215E-003, 3.7158231E+002
 1.0300535E+002, 5.6888543E-002, 1.2872252E-001, 1.1835371E-001, 3.1634451E-003, 2.4336612E-002, 1.4275641E-003, 3.7161618E+002
 1.0401004E+002, 5.6684493E-002, 1.2894162E-001, 1.1863637E-001, 3.2142243E-003, 2.3619751E-002, 1.4398194E-003, 3.7191287E+002
 1.0500122E+002, 5.6790994E-002, 1.2860962E-001, 1.1848674E-001, 3.2830307E-003, 2.4442486E-002, 1.4527848E-003, 3.6938877E+002
 1.0600827E+002, 5.6945626E-002, 1.2845693E-001, 1.1835305E-001, 3.2800348E-003, 2.4635449E-002, 1.4512518E-003, 3.6521489E+002
 1.0700309E+002, 5.6742128E-002, 1.2816950E-001, 1.1855933E-001, 3.5158580E-003, 2.5247306E-002, 1.5006127E-003, 3.7257354E+002
 1.0800091E+002, 5.7184638E-002, 1.2822432E-001, 1.1818202E-001, 3.2922189E-003, 2.4783827E-002, 1.4525398E-003, 3.7396175E+002
 1.0900810E+002, 5.7328273E-002, 1.2770862E-001, 1.1791811E-001, 3.3831629E-003, 2.6280257E-002, 1.4692322E-003, 3.6953664E+002
 1.1000391E+002, 5.7307701E-002, 1.2744908E-001, 1.1794071E-001, 3.5099717E-003, 2.6801205E-002, 1.4951669E-003, 3.7165575E+002
 1.1100993E+002, 5.7181601E-002, 1.2788890E-001, 1.1806487E-001, 3.3805590E-003, 2.5945404E-002, 1.4697131E-003, 3.7450136E+002
 1.1200069E+002, 5.7248160E-002, 1.2749705E-001, 1.1795727E-001, 3.4979651E-003, 2.6888962E-002, 1.4928475E-003, 3.7334095E+002
 1.1300756E+002, 5.7413452E-002, 1.2742415E-001, 1.1783146E-001, 3.4635621E-003, 2.6843950E-002, 1.4849807E-003, 3.7459704E+002
 1.1400385E+002, 5.6915030E-002, 1.2758412E-001, 1.1828252E-001, 3.6306780E-003, 2.6812915E-002, 1.5220674E-003, 3.7478388E+002
 1.1501000E+002, 5.7761689E-002, 1.2725626E-001, 1.1747067E-001, 3.3481800E-003, 2.7162451E-002, 1.4590428E-003, 3.7274411E+002
 1.1600688E+002, 5.7616989E-002, 1.2678400E-001, 1.1747942E-001, 3.5635802E-003, 2.8693086E-002, 1.5029161E-003, 3.7359339E+002
 1.1700446E+002, 5.7930563E-002, 1.2657405E-001, 1.1699810E-001, 3.4052698E-003, 2.9726902E-002, 1.4674483E-003, 3.6592599E+002
 1.1800318E+002, 5.7640791E-002, 1.2698249E-001, 1.1745403E-001, 3.4623326E-003, 2.8293174E-002, 1.4821586E-003, 3.7116347E+002
 1.1901056E+002, 5.7986967E-002, 1.2615341E-001, 1.1699575E-001, 3.5896614E-003, 3.0348978E-002, 1.5049084E-003, 3.7151985E+002
 1.2000696E+002, 5.7657850E-002, 1.2656798E-001, 1.1732842E-001, 3.5811072E-003, 2.9563822E-002, 1.5054588E-003, 3.7127337E+002
 1.2100934E+002, 5.7754507E-002, 1.2645019E-001, 1.1729144E-001, 3.6130847E-003, 2.9542580E-002, 1.5116947E-003, 3.6925068E+002
 1.2200319E+002, 5.7753169E-002, 1.2627849E-001, 1.1717733E-001, 3.6304701E-003, 3.0353660E-002, 1.5144636E-003, 3.7170086E+002
 1.2300112E+002, 5.8334865E-002, 1.2602284E-001, 1.1662624E-001, 3.4532823E-003, 3.0628430E-002, 1.4746436E-003, 3.6927963E+002
 1.2400512E+002, 5.7940802E-002, 1.2606437E-001, 1.1699482E-001, 3.6291747E-003, 3.0727612E-002, 1.5129430E-003, 3.7162908E+002
 1.2501156E+002, 5.7871587E-002, 1.2574459E-001, 1.1705036E-001, 3.8001909E-003, 3.1443440E-002, 1.5480942E-003, 3.7191818E+002
 1.2601156E+002, 5.7600304E-002, 1.2613500E-001, 1.1722670E-001, 3.7212508E-003, 3.1090776E-002, 1.5332764E-003, 3.7832181E+002
 1.2700974E+002, 5.8160154E-002, 1.2552906E-001, 1.1664557E-001, 3.6840123E-003, 3.2286781E-002, 1.5217095E-003, 3.7374973E+002
 1.2800980E+002, 5.8155464E-002, 1.2583171E-001, 1.1683765E-001, 3.6487990E-003, 3.0923230E-002, 1.5158407E-003, 3.7014480E+002
 1.2901138E+002, 5.8153364E-002, 1.2536238E-001, 1.1655022E-001, 3.7088783E-003, 3.3035406E-002, 1.5261258E-003, 3.7150105E+002
 1.3000682E+002, 5.8603092E-002, 1.2537436E-001, 1.1620406E-001, 3.5201425E-003, 3.2503007E-002, 1.4853563E-003, 3.6784109E+002
 1.3100352E+002, 5.8150847E-002, 1.2556258E-001, 1.1669622E-001, 3.6953197E-003, 3.2054884E-002, 1.5243497E-003, 3.7037609E+002
 1.3200809E+002, 5.8214032E-002, 1.2512373E-001, 1.1646299E-001, 3.7689855E-003, 3.3612208E-002, 1.5377494E-003, 3.6719301E+002
 1.3300436E+002, 5.7952539E-002, 1.2521433E-001, 1.1678113E-001, 3.8956041E-003, 3.3255188E-002, 1.5656703E-003, 3.6962768E+002
 1.3400096E+002, 5.7981360E-002, 1.2577711E-001, 1.1680886E-001, 3.6602863E-003, 3.1884054E-002, 1.5180128E-003, 3.7005907E+002
 1.3500711E+002, 5.8080027E-002, 1.2511155E-001, 1.1662860E-001, 3.8611526E-003, 3.3537420E-002, 1.5576210E-003, 3.6762096E+002
 1.3600703E+002, 5.7962968E-002, 1.2561257E-001, 1.1661326E-001, 3.6327978E-003, 3.3079868E-002, 1.5111151E-003, 3.7724277E+002
 1.3701156E+002, 5.8015503E-002, 1.2544616E-001, 1.1656607E-001, 3.6815977E-003, 3.3384151E-002, 1.5207101E-003, 3.7238230E+002
 1.3800066E+002, 5.8319621E-002, 1.2461595E-001, 1.1644206E-001, 3.9818197E-003, 3.4277512E-002, 1.5808586E-003, 3.6851163E+002
 1.3900794E+002, 5.7956250E-002, 1.2535283E-001, 1.1666433E-001, 3.7741673E-003, 3.3428439E-002, 1.5401985E-003, 3.7516389E+002
 1.4000817E+002, 5.8136396E-002, 1.2515310E-001, 1.1648820E-001, 3.7698779E-003, 3.3779245E-002, 1.5381134E-003, 3.7094741E+002
 1.4100526E+002, 5.7900378E-002, 1.2526399E-001, 1.1675231E-001, 3.8594279E-003, 3.3490640E-002, 1.5581316E-003, 3.7784431E+002
 1.4201092E+002, 5.8486480E-002, 1.2482435E-001, 1.1609133E-001, 3.7071633E-003, 3.4560141E-002, 1.5226401E-003, 3.7428382E+002
 1.4300389E+002, 5.7746382E-002, 1.2484741E-001, 1.1668664E-001, 4.0120114E-003, 3.5246740E-002, 1.5887367E-003, 3.7966495E+002
 1.4400522E+002, 5.7638037E-002, 1.2505173E-001, 1.1675238E-001, 3.9566360E-003, 3.5026856E-002, 1.5779391E-003, 3.7584957E+002
 1.4500781E+002, 5.7548485E-002, 1.2496947E-001, 1.1674735E-001, 3.9915646E-003, 3.5591347E-002, 1.5850216E-003, 3.8113318E+002
 1.4600770E+002, 5.7885481E-002, 1.2479258E-001, 1.1656890E-001, 3.9740637E-003, 3.5243328E-002, 1.5802080E-003, 3.7832935E+002
 1.4700129E+002, 5.7453011E-002, 1.2500702E-001, 1.1699255E-001, 4.1021729E-003, 3.4933781E-002, 1.6091697E-003, 3.7230349E+002
 1.4801133E+002, 5.7331968E-002, 1.2524595E-001, 1.1701595E-001, 4.0098491E-003, 3.4867525E-002, 1.5905787E-003, 3.7694411E+002
 1.4900451E+002, 5.6985622E-002, 1.2557272E-001, 1.1742786E-001, 4.0811318E-003, 3.4014468E-002, 1.6078942E-003, 3.8050506E+002
 1.5001042E+002, 5.7491469E-002, 1.2500724E-001, 1.1693473E-001, 4.0718779E-003, 3.5003210E-002, 1.6026162E-003, 3.7343925E+002
 1.5100774E+002, 5.6925881E-002, 1.2539913E-001, 1.1746825E-001, 4.1795006E-003, 3.4455470E-002, 1.6281733E-003, 3.7932814E+002
 1.5200111E+002, 5.6867106E-002, 1.2534657E-001, 1.1744543E-001, 4.1917520E-003, 3.4901464E-002, 1.6305209E-003, 3.7880050E+002
 1.5301272E+002, 5.6605199E-002, 1.2554103E-001, 1.1767062E-001, 4.2245910E-003, 3.4709406E-002, 1.6387533E-003, 3.7900526E+002
 1.5400177E+002, 5.6565819E-002, 1.2541521E-001, 1.1763920E-001, 4.2646345E-003, 3.5256216E-002, 1.6466899E-003, 3.7928699E+002
