s,,,,,,,
Time,"O2 EXHAUST","CO2 EXHAUST","H2O EXHAUST","CO EXHAUST","FUEL EXHAUST","SOOT EXHAUST","TEMP EXHAUST"
 0.0000000E+000, 2.3099739E-001, 5.9146498E-004, 5.9412091E-003, 0.0000000E+000, 0.0000000E+000, 0.0000000E+000, 2.0000000E+001
 1.0038276E+000, 2.3099739E-001, 5.9146498E-004, 5.9412091E-003, 2.8913509E-035, 1.4014236E-033, 1.1576506E-035, 2.0257135E+001
 2.0031480E+000, 2.2485557E-001, 5.3853108E-003, 9.9353786E-003, 5.0522000E-006, 1.8918179E-004, 2.8892103E-005, 8.3719513E+001
 3.0037082E+000, 2.2151240E-001, 8.0078780E-003, 1.2127719E-002, 1.1341380E-005, 1.9251324E-004, 4.5460521E-005, 1.1553551E+002
 4.0003313E+000, 2.1651373E-001, 1.1923101E-002, 1.5396546E-002, 1.8709189E-005, 2.4632039E-004, 6.9758283E-005, 1.6296643E+002
 5.0003569E+000, 2.1355558E-001, 1.4228996E-002, 1.7331868E-002, 2.8426370E-005, 2.9705046E-004, 8.5232283E-005, 1.8977600E+002
 6.0048367E+000, 2.1042541E-001, 1.6686606E-002, 1.9380002E-002, 3.1042753E-005, 3.1406172E-004, 1.0004951E-004, 2.1748808E+002
 7.0050276E+000, 2.0532461E-001, 2.0708047E-002, 2.2725531E-002, 3.2044784E-005, 2.7612552E-004, 1.2358552E-004, 2.5846917E+002
 8.0035094E+000, 2.0226125E-001, 2.3124025E-002, 2.4735762E-002, 3.2801143E-005, 2.4748486E-004, 1.3775871E-004, 2.7929071E+002
 9.0057279E+000, 1.9666601E-001, 2.7542040E-002, 2.8408750E-002, 3.2533638E-005, 1.7949423E-004, 1.6331955E-004, 3.1611317E+002
 1.0002285E+001, 1.9112620E-001, 3.1921091E-002, 3.2046060E-002, 3.0506807E-005, 9.9621007E-005, 1.8827374E-004, 3.4725657E+002
 1.1004254E+001, 1.8672985E-001, 3.5391841E-002, 3.4930493E-002, 2.9776118E-005, 5.3636699E-005, 2.0824149E-004, 3.6596919E+002
 1.2000648E+001, 1.8168541E-001, 3.9371475E-002, 3.8239159E-002, 2.9657634E-005, 1.0414631E-005, 2.3129259E-004, 3.8696340E+002
 1.3005777E+001, 1.7774010E-001, 4.2476948E-002, 4.0824247E-002, 3.1317379E-005, 1.4619517E-006, 2.4965953E-004, 4.0113615E+002
 1.4006065E+001, 1.7387131E-001, 4.5520091E-002, 4.3358436E-002, 3.3483136E-005, 3.5767779E-008, 2.6777456E-004, 4.1087693E+002
 1.5008129E+001, 1.6683449E-001, 5.1054420E-002, 4.7967512E-002, 3.7610236E-005, 1.4422406E-008, 3.0075972E-004, 4.3290961E+002
 1.6001547E+001, 1.6290147E-001, 5.4147644E-002, 5.0543623E-002, 3.9930601E-005, 2.7802556E-008, 3.1919860E-004, 4.3936150E+002
 1.7000417E+001, 1.5911053E-001, 5.7129186E-002, 5.3026655E-002, 4.2131009E-005, 9.6084634E-009, 3.3696392E-004, 4.4324447E+002
 1.8002692E+001, 1.5479486E-001, 6.0523369E-002, 5.5853394E-002, 4.4667585E-005, 1.9911954E-008, 3.5719477E-004, 4.4852375E+002
 1.9007209E+001, 1.5157079E-001, 6.3059044E-002, 5.7965137E-002, 4.6555051E-005, 1.5411593E-008, 3.7230690E-004, 4.5201023E+002
 2.0005654E+001, 1.4736163E-001, 6.6369482E-002, 6.0722105E-002, 4.9014524E-005, 1.3461049E-008, 3.9203546E-004, 4.5504459E+002
 2.1002816E+001, 1.4443001E-001, 6.8675150E-002, 6.2642303E-002, 5.0734528E-005, 1.2715392E-008, 4.0577761E-004, 4.5456877E+002
 2.2003752E+001, 1.3898174E-001, 7.2960061E-002, 6.6210902E-002, 5.3960316E-005, 5.0809044E-008, 4.3132269E-004, 4.6637042E+002
 2.3002422E+001, 1.3704978E-001, 7.4479566E-002, 6.7476307E-002, 5.5060615E-005, 1.7537824E-008, 4.4037199E-004, 4.6008053E+002
 2.4000650E+001, 1.3370622E-001, 7.7109201E-002, 6.9666318E-002, 5.7026398E-005, 1.9568207E-008, 4.5604592E-004, 4.6034673E+002
 2.5004465E+001, 1.3057499E-001, 7.9571844E-002, 7.1717261E-002, 5.8871039E-005, 3.2019306E-008, 4.7072529E-004, 4.6216064E+002
 2.6005801E+001, 1.2784013E-001, 8.1722775E-002, 7.3508574E-002, 6.0466522E-005, 2.0830703E-008, 4.8354321E-004, 4.6003957E+002
 2.7008024E+001, 1.2486786E-001, 8.4060429E-002, 7.5455383E-002, 6.2196264E-005, 1.2483353E-008, 4.9747295E-004, 4.5876745E+002
 2.8003711E+001, 1.2094878E-001, 8.7142690E-002, 7.8022363E-002, 6.4507583E-005, 3.7662535E-008, 5.1584630E-004, 4.6480590E+002
 2.9003443E+001, 1.1897891E-001, 8.8691958E-002, 7.9312625E-002, 6.5666637E-005, 2.7685564E-008, 5.2508090E-004, 4.6167145E+002
 3.0006135E+001, 1.1713850E-001, 9.0139435E-002, 8.0518063E-002, 6.6722912E-005, 1.0402000E-008, 5.3370301E-004, 4.5877553E+002
 3.1008512E+001, 1.1338592E-001, 9.3090739E-002, 8.2975990E-002, 6.8942009E-005, 3.1684201E-008, 5.5129702E-004, 4.6261132E+002
 3.2003839E+001, 1.1185895E-001, 9.4291646E-002, 8.3976160E-002, 6.9856226E-005, 5.4818087E-008, 5.5845859E-004, 4.5953417E+002
 3.3002295E+001, 1.0897225E-001, 9.6561986E-002, 8.5866925E-002, 7.1544819E-005, 4.8539064E-008, 5.7198908E-004, 4.6328565E+002
 3.4002657E+001, 1.0683982E-001, 9.8239134E-002, 8.7263648E-002, 7.2778486E-005, 3.8548805E-008, 5.8198137E-004, 4.6023232E+002
 3.5006091E+001, 1.0354438E-001, 1.0083094E-001, 8.9422134E-002, 7.4704092E-005, 3.4942297E-008, 5.9742726E-004, 4.6093395E+002
 3.6005285E+001, 1.0093743E-001, 1.0288121E-001, 9.1129696E-002, 7.6269746E-005, 5.4298215E-008, 6.0965499E-004, 4.6411920E+002
 3.7002851E+001, 9.8666347E-002, 1.0466743E-001, 9.2617214E-002, 7.7559559E-005, 3.1374848E-008, 6.2029195E-004, 4.5963593E+002
 3.8003916E+001, 9.5945878E-002, 1.0680702E-001, 9.4399110E-002, 7.9165345E-005, 4.4955028E-008, 6.3304628E-004, 4.6261923E+002
 3.9002195E+001, 9.4856050E-002, 1.0766417E-001, 9.5112933E-002, 7.9790420E-005, 3.1193602E-008, 6.3815194E-004, 4.5704533E+002
 4.0003886E+001, 9.1518453E-002, 1.1028912E-001, 9.7299042E-002, 8.1751109E-005, 3.1739308E-008, 6.5379762E-004, 4.6118666E+002
 4.1006443E+001, 8.9152006E-002, 1.1215028E-001, 9.8849052E-002, 8.3143572E-005, 4.3735160E-008, 6.6489129E-004, 4.6315172E+002
 4.2009048E+001, 8.7583049E-002, 1.1338422E-001, 9.9876710E-002, 8.4071847E-005, 8.0376052E-008, 6.7224744E-004, 4.6228467E+002
 4.3001977E+001, 8.5463645E-002, 1.1505110E-001, 1.0126490E-001, 8.5308963E-005, 6.7939270E-008, 6.8218094E-004, 4.5955284E+002
 4.4001379E+001, 8.2426710E-002, 1.1743958E-001, 1.0325407E-001, 8.7090828E-005, 9.9265640E-008, 6.9641671E-004, 4.6408622E+002
 4.5000695E+001, 8.1017815E-002, 1.1854732E-001, 1.0417696E-001, 8.8103035E-005, 4.9261845E-007, 7.0305919E-004, 4.5849004E+002
 4.6004905E+001, 7.7966749E-002, 1.2093656E-001, 1.0617731E-001, 9.5469825E-005, 1.3753695E-005, 7.1850780E-004, 4.6316404E+002
 4.7001275E+001, 7.6784521E-002, 1.2186837E-001, 1.0695095E-001, 9.4903744E-005, 1.2559342E-005, 7.2378866E-004, 4.6191997E+002
 4.8009316E+001, 7.4315938E-002, 1.2373362E-001, 1.0858130E-001, 1.3703148E-004, 1.1274767E-004, 7.4372040E-004, 4.6053603E+002
 4.9003343E+001, 7.2979784E-002, 1.2477222E-001, 1.0945828E-001, 1.4417567E-004, 1.3029059E-004, 7.5128882E-004, 4.5981386E+002
 5.0002146E+001, 7.1206580E-002, 1.2604050E-001, 1.1063371E-001, 2.0834980E-004, 3.2955032E-004, 7.7252942E-004, 4.5860086E+002
 5.1000063E+001, 6.9539973E-002, 1.2708793E-001, 1.1175846E-001, 3.4297784E-004, 7.2903742E-004, 8.0773434E-004, 4.5527457E+002
 5.2005721E+001, 6.8810970E-002, 1.2768036E-001, 1.1223542E-001, 3.3468344E-004, 6.9260054E-004, 8.0937485E-004, 4.5360518E+002
 5.3006280E+001, 6.7145436E-002, 1.2869031E-001, 1.1333881E-001, 4.7491459E-004, 1.2491104E-003, 8.4557534E-004, 4.5331236E+002
 5.4006601E+001, 6.6766137E-002, 1.2902042E-001, 1.1358835E-001, 4.6161693E-004, 1.1803953E-003, 8.4461210E-004, 4.4521723E+002
 5.5004486E+001, 6.5017461E-002, 1.3022330E-001, 1.1475574E-001, 5.5032774E-004, 1.4406765E-003, 8.7078270E-004, 4.4671811E+002
 5.6003992E+001, 6.4361002E-002, 1.3055157E-001, 1.1520188E-001, 6.4229260E-004, 1.7560175E-003, 8.9258595E-004, 4.4146524E+002
 5.7007076E+001, 6.3297804E-002, 1.3114302E-001, 1.1589822E-001, 7.5127376E-004, 2.2511500E-003, 9.1959780E-004, 4.3892183E+002
 5.8004087E+001, 6.2827138E-002, 1.3114958E-001, 1.1620114E-001, 9.0982339E-004, 3.0079905E-003, 9.5394417E-004, 4.3967976E+002
 5.9000380E+001, 6.2585920E-002, 1.3129791E-001, 1.1642885E-001, 9.6414241E-004, 2.8117702E-003, 9.6655669E-004, 4.3592685E+002
 6.0004135E+001, 6.1631797E-002, 1.3197212E-001, 1.1700552E-001, 9.7361531E-004, 3.1597074E-003, 9.7251716E-004, 4.3346488E+002
 6.1000076E+001, 6.1117650E-002, 1.3220574E-001, 1.1739276E-001, 1.0754915E-003, 3.3023106E-003, 9.9591552E-004, 4.3017112E+002
 6.2003112E+001, 6.0449598E-002, 1.3259453E-001, 1.1784135E-001, 1.1420556E-003, 3.5343443E-003, 1.0125734E-003, 4.2826287E+002
 6.3002749E+001, 6.0251788E-002, 1.3240231E-001, 1.1795956E-001, 1.2903562E-003, 4.2833049E-003, 1.0435494E-003, 4.2330706E+002
 6.4006725E+001, 5.9597379E-002, 1.3281716E-001, 1.1840959E-001, 1.3459516E-003, 4.3992711E-003, 1.0579848E-003, 4.2349386E+002
 6.5003658E+001, 5.9314189E-002, 1.3272221E-001, 1.1858217E-001, 1.4801733E-003, 5.0935173E-003, 1.0864783E-003, 4.2383461E+002
 6.6004113E+001, 5.8410464E-002, 1.3332706E-001, 1.1915078E-001, 1.5156083E-003, 5.4013871E-003, 1.0976539E-003, 4.2103281E+002
 6.7001782E+001, 5.8073979E-002, 1.3346579E-001, 1.1939987E-001, 1.5863272E-003, 5.5407770E-003, 1.1137604E-003, 4.1906065E+002
 6.8006679E+001, 5.7971035E-002, 1.3322632E-001, 1.1945633E-001, 1.7226555E-003, 6.2328444E-003, 1.1418718E-003, 4.1470652E+002
 6.9009763E+001, 5.8130947E-002, 1.3309642E-001, 1.1938195E-001, 1.7400038E-003, 6.1192849E-003, 1.1448719E-003, 4.1633866E+002
 7.0004905E+001, 5.7467804E-002, 1.3330964E-001, 1.1979906E-001, 1.8680711E-003, 6.8120672E-003, 1.1738209E-003, 4.1111550E+002
 7.1006021E+001, 5.6919762E-002, 1.3353143E-001, 1.2012685E-001, 1.9450270E-003, 7.3603875E-003, 1.1917599E-003, 4.1013855E+002
 7.2003572E+001, 5.6839379E-002, 1.3329389E-001, 1.2020941E-001, 2.0936485E-003, 7.8485124E-003, 1.2225417E-003, 4.0596553E+002
 7.3006204E+001, 5.6745988E-002, 1.3330096E-001, 1.2022016E-001, 2.0971759E-003, 8.1852363E-003, 1.2233471E-003, 4.0765482E+002
 7.4006625E+001, 5.6387631E-002, 1.3335571E-001, 1.2039430E-001, 2.1668038E-003, 8.8877584E-003, 1.2387325E-003, 4.0231397E+002
 7.5007159E+001, 5.6132984E-002, 1.3350365E-001, 1.2058549E-001, 2.2026784E-003, 8.8955964E-003, 1.2473527E-003, 4.0267283E+002
 7.6006993E+001, 5.5995563E-002, 1.3342733E-001, 1.2058390E-001, 2.2373191E-003, 9.6363534E-003, 1.2544079E-003, 3.9929436E+002
 7.7002877E+001, 5.5632502E-002, 1.3341092E-001, 1.2086733E-001, 2.3947195E-003, 1.0063751E-002, 1.2883713E-003, 3.9926038E+002
 7.8000590E+001, 5.5658086E-002, 1.3338278E-001, 1.2075978E-001, 2.3515710E-003, 1.0444534E-002, 1.2788733E-003, 4.0107237E+002
 7.9009344E+001, 5.5192309E-002, 1.3357135E-001, 1.2109954E-001, 2.4483931E-003, 1.0664778E-002, 1.3009171E-003, 3.9969110E+002
 8.0001157E+001, 5.5423440E-002, 1.3325388E-001, 1.2088062E-001, 2.4736281E-003, 1.1210324E-002, 1.3045382E-003, 3.9731538E+002
 8.1006730E+001, 5.5159169E-002, 1.3329715E-001, 1.2099396E-001, 2.5159381E-003, 1.1783114E-002, 1.3139458E-003, 3.9570941E+002
 8.2007193E+001, 5.5099026E-002, 1.3321838E-001, 1.2100832E-001, 2.5589378E-003, 1.2138583E-002, 1.3227941E-003, 3.9449175E+002
 8.3009053E+001, 5.4945935E-002, 1.3323325E-001, 1.2106633E-001, 2.5840291E-003, 1.2521729E-002, 1.3283107E-003, 3.8888164E+002
 8.4003766E+001, 5.4793401E-002, 1.3318512E-001, 1.2113015E-001, 2.6400081E-003, 1.3006557E-002, 1.3401456E-003, 3.8699797E+002
 8.5006224E+001, 5.4646205E-002, 1.3302762E-001, 1.2117768E-001, 2.7359732E-003, 1.3755496E-002, 1.3599991E-003, 3.8998416E+002
 8.6005522E+001, 5.4490693E-002, 1.3300085E-001, 1.2132235E-001, 2.8241021E-003, 1.3885049E-002, 1.3789129E-003, 3.8612469E+002
 8.7009439E+001, 5.4444170E-002, 1.3291067E-001, 1.2128076E-001, 2.8432166E-003, 1.4430782E-002, 1.3825277E-003, 3.8576134E+002
 8.8009122E+001, 5.4505156E-002, 1.3269278E-001, 1.2121397E-001, 2.9046290E-003, 1.4882217E-002, 1.3945537E-003, 3.8800442E+002
 8.9005794E+001, 5.4283904E-002, 1.3286660E-001, 1.2134640E-001, 2.8984214E-003, 1.4932784E-002, 1.3942186E-003, 3.8551663E+002
 9.0006106E+001, 5.4433771E-002, 1.3251781E-001, 1.2110376E-001, 2.9263110E-003, 1.5979914E-002, 1.3982342E-003, 3.8487687E+002
 9.1007618E+001, 5.4102090E-002, 1.3265168E-001, 1.2126395E-001, 2.9534033E-003, 1.6465837E-002, 1.4048742E-003, 3.8495765E+002
 9.2006033E+001, 5.4068783E-002, 1.3246132E-001, 1.2128514E-001, 3.0490075E-003, 1.6906291E-002, 1.4244579E-003, 3.8430164E+002
 9.3010400E+001, 5.4427003E-002, 1.3220817E-001, 1.2099005E-001, 3.0050534E-003, 1.7091233E-002, 1.4134801E-003, 3.8281243E+002
 9.4005676E+001, 5.4373123E-002, 1.3207930E-001, 1.2093485E-001, 3.0343934E-003, 1.7800921E-002, 1.4190836E-003, 3.8272313E+002
 9.5004934E+001, 5.4415095E-002, 1.3192890E-001, 1.2083427E-001, 3.0487710E-003, 1.8331821E-002, 1.4213242E-003, 3.7889025E+002
 9.6011158E+001, 5.4327295E-002, 1.3191905E-001, 1.2089332E-001, 3.0845582E-003, 1.8485177E-002, 1.4290110E-003, 3.8040725E+002
 9.7005149E+001, 5.4434973E-002, 1.3165791E-001, 1.2073795E-001, 3.1190165E-003, 1.9182701E-002, 1.4349549E-003, 3.7756117E+002
 9.8008124E+001, 5.3931025E-002, 1.3186322E-001, 1.2105793E-001, 3.1987183E-003, 1.9609631E-002, 1.4533921E-003, 3.7928965E+002
 9.9011851E+001, 5.4091666E-002, 1.3180142E-001, 1.2090466E-001, 3.1453294E-003, 1.9672044E-002, 1.4414822E-003, 3.7652848E+002
 1.0000312E+002, 5.4215630E-002, 1.3134218E-001, 1.2076322E-001, 3.2744867E-003, 2.0645503E-002, 1.4667685E-003, 3.7791171E+002
 1.0100315E+002, 5.3941399E-002, 1.3155656E-001, 1.2094261E-001, 3.2751047E-003, 2.0649026E-002, 1.4681454E-003, 3.7750910E+002
 1.0200337E+002, 5.4193450E-002, 1.3126505E-001, 1.2068537E-001, 3.2688843E-003, 2.1207709E-002, 1.4651109E-003, 3.7136914E+002
 1.0300272E+002, 5.4083254E-002, 1.3110647E-001, 1.2070202E-001, 3.3490019E-003, 2.1926637E-002, 1.4815291E-003, 3.7581132E+002
 1.0400665E+002, 5.4208714E-002, 1.3102187E-001, 1.2060871E-001, 3.3369727E-003, 2.1942892E-002, 1.4784358E-003, 3.7530306E+002
 1.0500769E+002, 5.4226109E-002, 1.3093725E-001, 1.2041702E-001, 3.2756706E-003, 2.2810332E-002, 1.4646840E-003, 3.7106541E+002
 1.0600764E+002, 5.4162348E-002, 1.3067304E-001, 1.2052564E-001, 3.4493049E-003, 2.3177568E-002, 1.5007228E-003, 3.7621047E+002
 1.0700683E+002, 5.4053779E-002, 1.3065512E-001, 1.2053348E-001, 3.4625830E-003, 2.3640570E-002, 1.5034935E-003, 3.7211135E+002
 1.0800524E+002, 5.4531446E-002, 1.3040022E-001, 1.2018299E-001, 3.3894725E-003, 2.3547392E-002, 1.4861960E-003, 3.7182230E+002
 1.0900157E+002, 5.4550975E-002, 1.3012224E-001, 1.2010920E-001, 3.4743993E-003, 2.4323443E-002, 1.5029625E-003, 3.7017562E+002
 1.1000760E+002, 5.4459192E-002, 1.3001330E-001, 1.2016961E-001, 3.5548190E-003, 2.4688572E-002, 1.5197326E-003, 3.7006602E+002
 1.1100232E+002, 5.4580608E-002, 1.2989163E-001, 1.2007337E-001, 3.5577491E-003, 2.4808606E-002, 1.5196614E-003, 3.7093527E+002
 1.1200340E+002, 5.4813727E-002, 1.2949652E-001, 1.1978770E-001, 3.5830157E-003, 2.5770807E-002, 1.5228406E-003, 3.7123423E+002
 1.1300518E+002, 5.4896552E-002, 1.2928624E-001, 1.1957604E-001, 3.5663044E-003, 2.6696409E-002, 1.5180086E-003, 3.7149174E+002
 1.1401191E+002, 5.4545437E-002, 1.2957531E-001, 1.1992176E-001, 3.6203026E-003, 2.6205496E-002, 1.5313668E-003, 3.7321575E+002
 1.1500679E+002, 5.5390859E-002, 1.2900123E-001, 1.1925013E-001, 3.5189633E-003, 2.6495194E-002, 1.5061119E-003, 3.6809927E+002
 1.1600715E+002, 5.5563786E-002, 1.2862705E-001, 1.1903425E-001, 3.5715798E-003, 2.7388897E-002, 1.5153299E-003, 3.6919748E+002
 1.1700865E+002, 5.5868253E-002, 1.2826496E-001, 1.1878829E-001, 3.6017850E-003, 2.7823742E-002, 1.5197673E-003, 3.6336534E+002
 1.1801140E+002, 5.6057049E-002, 1.2821877E-001, 1.1863447E-001, 3.5408572E-003, 2.7738005E-002, 1.5063161E-003, 3.6557324E+002
 1.1900257E+002, 5.6240027E-002, 1.2789517E-001, 1.1843536E-001, 3.5795733E-003, 2.8419663E-002, 1.5128190E-003, 3.6525742E+002
 1.2000736E+002, 5.6388331E-002, 1.2770771E-001, 1.1829641E-001, 3.5893507E-003, 2.8730758E-002, 1.5138486E-003, 3.6178471E+002
 1.2100860E+002, 5.6427418E-002, 1.2750015E-001, 1.1823991E-001, 3.6517493E-003, 2.9212413E-002, 1.5261480E-003, 3.6515536E+002
 1.2200203E+002, 5.6778612E-002, 1.2720663E-001, 1.1790974E-001, 3.6077144E-003, 2.9649534E-002, 1.5149195E-003, 3.6311235E+002
 1.2300666E+002, 5.7202705E-002, 1.2688817E-001, 1.1757322E-001, 3.5705890E-003, 2.9854897E-002, 1.5050406E-003, 3.6084187E+002
 1.2400546E+002, 5.7082017E-002, 1.2699634E-001, 1.1768404E-001, 3.5811207E-003, 2.9700539E-002, 1.5079462E-003, 3.5881428E+002
 1.2500629E+002, 5.7322159E-002, 1.2643607E-001, 1.1734615E-001, 3.6526007E-003, 3.1176815E-002, 1.5201686E-003, 3.6276623E+002
 1.2601272E+002, 5.7548794E-002, 1.2607395E-001, 1.1712818E-001, 3.6981487E-003, 3.1827854E-002, 1.5279263E-003, 3.6010936E+002
 1.2700824E+002, 5.7436837E-002, 1.2607469E-001, 1.1721220E-001, 3.7423756E-003, 3.1961507E-002, 1.5375005E-003, 3.6105200E+002
 1.2800100E+002, 5.7697796E-002, 1.2615348E-001, 1.1701196E-001, 3.6013637E-003, 3.1504802E-002, 1.5074448E-003, 3.6245617E+002
 1.2900547E+002, 5.8220485E-002, 1.2547296E-001, 1.1648488E-001, 3.6253972E-003, 3.2791399E-002, 1.5087033E-003, 3.6045406E+002
 1.3000956E+002, 5.8370399E-002, 1.2539102E-001, 1.1634280E-001, 3.5868140E-003, 3.2894900E-002, 1.4998801E-003, 3.5451733E+002
 1.3101138E+002, 5.8291504E-002, 1.2542175E-001, 1.1636868E-001, 3.5874647E-003, 3.3061831E-002, 1.5001997E-003, 3.5683063E+002
 1.3200935E+002, 5.8616699E-002, 1.2513791E-001, 1.1611600E-001, 3.5793118E-003, 3.3277939E-002, 1.4967904E-003, 3.6297374E+002
 1.3300198E+002, 5.8778702E-002, 1.2476934E-001, 1.1582097E-001, 3.5888690E-003, 3.4524239E-002, 1.4967254E-003, 3.5819821E+002
 1.3400673E+002, 5.8856149E-002, 1.2483721E-001, 1.1585490E-001, 3.5753214E-003, 3.3923878E-002, 1.4941856E-003, 3.5362705E+002
 1.3500347E+002, 5.9009792E-002, 1.2473476E-001, 1.1558745E-001, 3.4813118E-003, 3.4556522E-002, 1.4732526E-003, 3.5703789E+002
 1.3600887E+002, 5.9253801E-002, 1.2448218E-001, 1.1534289E-001, 3.4644700E-003, 3.5019473E-002, 1.4681454E-003, 3.5535598E+002
 1.3700657E+002, 5.9288792E-002, 1.2433255E-001, 1.1529143E-001, 3.5038497E-003, 3.5381012E-002, 1.4757997E-003, 3.5472588E+002
 1.3800459E+002, 5.9213480E-002, 1.2433382E-001, 1.1533532E-001, 3.5267712E-003, 3.5520066E-002, 1.4807671E-003, 3.6272096E+002
 1.3900943E+002, 5.9365929E-002, 1.2424745E-001, 1.1527501E-001, 3.5321641E-003, 3.5293489E-002, 1.4814324E-003, 3.5463900E+002
 1.4000448E+002, 5.9300980E-002, 1.2415406E-001, 1.1524932E-001, 3.5610952E-003, 3.5859649E-002, 1.4871526E-003, 3.5674433E+002
 1.4100193E+002, 5.9429802E-002, 1.2399171E-001, 1.1509726E-001, 3.5532491E-003, 3.6254824E-002, 1.4845149E-003, 3.5796030E+002
 1.4201206E+002, 5.9401519E-002, 1.2386937E-001, 1.1511610E-001, 3.6174605E-003, 3.6545977E-002, 1.4977000E-003, 3.5864656E+002
 1.4301009E+002, 5.9445159E-002, 1.2389788E-001, 1.1497196E-001, 3.5301898E-003, 3.6882884E-002, 1.4789836E-003, 3.6256363E+002
 1.4401119E+002, 5.9551760E-002, 1.2372654E-001, 1.1496795E-001, 3.6027165E-003, 3.6795574E-002, 1.4936825E-003, 3.5788673E+002
 1.4500919E+002, 5.9755598E-002, 1.2349240E-001, 1.1475725E-001, 3.5956054E-003, 3.7254812E-002, 1.4907877E-003, 3.5615311E+002
 1.4600446E+002, 5.9595672E-002, 1.2364897E-001, 1.1486256E-001, 3.5823506E-003, 3.7190306E-002, 1.4888274E-003, 3.5700771E+002
 1.4700340E+002, 5.9822382E-002, 1.2344004E-001, 1.1462458E-001, 3.5497604E-003, 3.7611578E-002, 1.4805657E-003, 3.5654961E+002
 1.4800198E+002, 5.9661318E-002, 1.2339377E-001, 1.1465428E-001, 3.5874732E-003, 3.8265682E-002, 1.4884596E-003, 3.6127632E+002
 1.4901029E+002, 5.9659912E-002, 1.2300388E-001, 1.1454369E-001, 3.7032944E-003, 3.9504171E-002, 1.5112635E-003, 3.6453259E+002
 1.5000417E+002, 5.9576705E-002, 1.2337280E-001, 1.1475460E-001, 3.6493715E-003, 3.8262357E-002, 1.5017311E-003, 3.6022922E+002
 1.5100949E+002, 5.9878873E-002, 1.2314093E-001, 1.1449775E-001, 3.6163294E-003, 3.8487313E-002, 1.4932379E-003, 3.5773853E+002
 1.5201107E+002, 5.9771361E-002, 1.2308078E-001, 1.1456344E-001, 3.6780441E-003, 3.8798972E-002, 1.5062435E-003, 3.5754689E+002
 1.5300439E+002, 5.9889559E-002, 1.2280341E-001, 1.1442681E-001, 3.7291977E-003, 3.9409648E-002, 1.5157054E-003, 3.5834966E+002
 1.5400432E+002, 5.9802906E-002, 1.2279502E-001, 1.1437063E-001, 3.7050776E-003, 4.0017920E-002, 1.5104399E-003, 3.6091549E+002
