s,,,,,,,
Time,"O2 EXHAUST","CO2 EXHAUST","H2O EXHAUST","CO EXHAUST","FUEL EXHAUST","SOOT EXHAUST","TEMP EXHAUST"
 0.0000000E+000, 2.3099739E-001, 5.9146498E-004, 5.9412092E-003, 0.0000000E+000, 0.0000000E+000, 0.0000000E+000, 2.0000000E+001
 1.0049472E+000, 2.3099739E-001, 5.9146498E-004, 5.9412092E-003, 1.3031297E-031, 1.3140676E-030, 3.8498241E-032, 2.0573622E+001
 2.0039232E+000, 2.2276970E-001, 8.0995563E-003, 9.1027250E-003, 4.2890694E-005, 2.9168861E-004, 5.4438226E-005, 1.0069097E+002
 3.0034241E+000, 2.1801175E-001, 1.2448979E-002, 1.0946750E-002, 8.0187123E-005, 3.5037816E-004, 8.8643094E-005, 1.4425230E+002
 4.0057021E+000, 2.1214860E-001, 1.7828435E-002, 1.3208569E-002, 1.0673508E-004, 4.4667322E-004, 1.2675023E-004, 1.9724239E+002
 5.0006929E+000, 2.0667644E-001, 2.2866104E-002, 1.5323830E-002, 1.2826586E-004, 4.7696465E-004, 1.6172195E-004, 2.4257142E+002
 6.0026588E+000, 1.9837238E-001, 3.0558678E-002, 1.8528693E-002, 1.3451274E-004, 4.5773066E-004, 2.0941415E-004, 3.0594277E+002
 7.0058345E+000, 1.9327041E-001, 3.5295136E-002, 2.0502172E-002, 1.3827499E-004, 3.9895905E-004, 2.3876091E-004, 3.3767908E+002
 8.0062754E+000, 1.8502637E-001, 4.2986089E-002, 2.3684553E-002, 1.2111353E-004, 2.6789382E-004, 2.8142412E-004, 3.8146903E+002
 9.0023532E+000, 1.7846746E-001, 4.9101273E-002, 2.6215802E-002, 1.0846716E-004, 1.7479289E-004, 3.1556046E-004, 4.1066954E+002
 1.0005556E+001, 1.7034477E-001, 5.6667409E-002, 2.9350128E-002, 9.5510385E-005, 7.6166599E-005, 3.5837318E-004, 4.4064479E+002
 1.1005511E+001, 1.6229290E-001, 6.4150955E-002, 3.2456754E-002, 8.9697618E-005, 1.3814682E-005, 4.0222007E-004, 4.6821565E+002
 1.2009242E+001, 1.5322203E-001, 7.2550371E-002, 3.5957325E-002, 9.7846203E-005, 1.2276203E-006, 4.5457922E-004, 4.8410414E+002
 1.3007596E+001, 1.5073411E-001, 7.4852966E-002, 3.6917437E-002, 1.0058816E-004, 1.6415327E-007, 4.6904178E-004, 4.8217117E+002
 1.4008423E+001, 1.4140939E-001, 8.3480396E-002, 4.0516176E-002, 1.1230896E-004, 6.6505856E-008, 5.2354081E-004, 4.9855498E+002
 1.5002062E+001, 1.3416958E-001, 9.0178776E-002, 4.3310283E-002, 1.2143844E-004, 7.4452316E-008, 5.6586043E-004, 5.0926776E+002
 1.6000751E+001, 1.3024463E-001, 9.3810261E-002, 4.4825037E-002, 1.2633222E-004, 8.2831209E-008, 5.8879180E-004, 5.0846043E+002
 1.7005599E+001, 1.2420493E-001, 9.9398346E-002, 4.7155960E-002, 1.3390252E-004, 6.5770595E-008, 6.2408686E-004, 5.0951968E+002
 1.8006902E+001, 1.1837039E-001, 1.0479658E-001, 4.9407707E-002, 1.4123211E-004, 6.4386858E-008, 6.5818631E-004, 5.1557548E+002
 1.9008810E+001, 1.1210161E-001, 1.1059658E-001, 5.1827037E-002, 1.4910276E-004, 9.6095274E-008, 6.9482268E-004, 5.1977420E+002
 2.0005048E+001, 1.0763169E-001, 1.1473145E-001, 5.3552372E-002, 1.5530790E-004, 2.5514418E-007, 7.2106850E-004, 5.2171366E+002
 2.1004262E+001, 1.0378975E-001, 1.1828675E-001, 5.5034899E-002, 1.5963103E-004, 1.7417072E-007, 7.4341845E-004, 5.1740091E+002
 2.2000994E+001, 9.9791986E-002, 1.2198555E-001, 5.6577783E-002, 1.6467108E-004, 1.5594278E-007, 7.6678679E-004, 5.1747069E+002
 2.3002440E+001, 9.6357703E-002, 1.2516249E-001, 5.7903349E-002, 1.6938099E-004, 2.6391937E-007, 7.8693979E-004, 5.1441830E+002
 2.4003100E+001, 9.0997284E-002, 1.3010518E-001, 5.9977154E-002, 1.8870523E-004, 3.7146142E-006, 8.2086603E-004, 5.1717885E+002
 2.5007052E+001, 9.0213907E-002, 1.3083305E-001, 6.0278422E-002, 1.8725118E-004, 3.9819802E-006, 8.2494015E-004, 5.1256347E+002
 2.6009831E+001, 8.4129221E-002, 1.3642783E-001, 6.2636939E-002, 2.2074397E-004, 1.2229612E-005, 8.6583345E-004, 5.1718268E+002
 2.7006849E+001, 8.0252094E-002, 1.4000815E-001, 6.4135070E-002, 2.3050409E-004, 1.5054319E-005, 8.8949992E-004, 5.2154357E+002
 2.8005839E+001, 7.7475957E-002, 1.4254329E-001, 6.5216671E-002, 2.5914189E-004, 2.0518559E-005, 9.1091588E-004, 5.1728788E+002
 2.9005195E+001, 7.4410473E-002, 1.4537518E-001, 6.6400860E-002, 2.6605456E-004, 2.2527423E-005, 9.2946205E-004, 5.1863154E+002
 3.0007170E+001, 7.0968891E-002, 1.4853772E-001, 6.7735609E-002, 2.8661304E-004, 2.6650994E-005, 9.5292625E-004, 5.1354725E+002
 3.1009587E+001, 6.7430045E-002, 1.5179017E-001, 6.9108010E-002, 3.0744242E-004, 3.0234030E-005, 9.7699034E-004, 5.1500580E+002
 3.2002682E+001, 6.4400766E-002, 1.5459648E-001, 7.0276287E-002, 3.0882823E-004, 2.8073568E-005, 9.9419739E-004, 5.1424203E+002
 3.3006357E+001, 6.1879904E-002, 1.5690924E-001, 7.1255103E-002, 3.2669712E-004, 3.1591270E-005, 1.0119645E-003, 5.1156764E+002
 3.4002630E+001, 5.7518403E-002, 1.6093824E-001, 7.2940237E-002, 3.3690017E-004, 3.2965428E-005, 1.0384295E-003, 5.1575274E+002
 3.5003713E+001, 5.4427671E-002, 1.6377109E-001, 7.4141411E-002, 3.6111851E-004, 3.6222077E-005, 1.0606918E-003, 5.1436204E+002
 3.6010019E+001, 5.3219111E-002, 1.6487360E-001, 7.4612539E-002, 3.7435836E-004, 3.9277456E-005, 1.0701738E-003, 5.1363162E+002
 3.7002334E+001, 4.9599903E-002, 1.6821858E-001, 7.6010843E-002, 3.8204319E-004, 3.7261173E-005, 1.0919772E-003, 5.1063435E+002
 3.8007704E+001, 4.5064577E-002, 1.7239668E-001, 7.7766841E-002, 4.0149539E-004, 3.9361000E-005, 1.1213237E-003, 5.1886375E+002
 3.9010465E+001, 4.1074149E-002, 1.7606577E-001, 7.9314573E-002, 4.2446821E-004, 3.8967270E-005, 1.1483579E-003, 5.2221258E+002
 4.0006279E+001, 3.9426569E-002, 1.7758851E-001, 7.9950609E-002, 4.2744691E-004, 4.1158311E-005, 1.1581721E-003, 5.1891395E+002
 4.1004098E+001, 3.6962302E-002, 1.7984028E-001, 8.0910565E-002, 4.5209170E-004, 4.3997487E-005, 1.1770244E-003, 5.1502602E+002
 4.2007763E+001, 3.3123162E-002, 1.8336224E-001, 8.2401756E-002, 4.7992839E-004, 4.6825281E-005, 1.2042148E-003, 5.1905104E+002
 4.3008113E+001, 3.0516287E-002, 1.8573542E-001, 8.3420832E-002, 5.1355461E-004, 4.6152729E-005, 1.2257244E-003, 5.2006006E+002
 4.4000705E+001, 2.7833386E-002, 1.8822223E-001, 8.4455108E-002, 5.1375108E-004, 4.3994978E-005, 1.2407512E-003, 5.2360454E+002
 4.5000559E+001, 2.4598667E-002, 1.9116802E-001, 8.5718155E-002, 5.5353582E-004, 4.9888267E-005, 1.2670316E-003, 5.2595945E+002
 4.6009394E+001, 2.2406116E-002, 1.9314331E-001, 8.6580741E-002, 5.9656024E-004, 5.7786614E-005, 1.2881587E-003, 5.1902022E+002
 4.7005175E+001, 2.0331718E-002, 1.9495676E-001, 8.7417063E-002, 6.8231468E-004, 5.4446011E-005, 1.3174719E-003, 5.1811726E+002
 4.8004882E+001, 1.7279186E-002, 1.9773891E-001, 8.8607892E-002, 7.1775946E-004, 6.1962696E-005, 1.3418357E-003, 5.2468421E+002
 4.9003421E+001, 1.5067718E-002, 1.9969105E-001, 8.9492043E-002, 7.9328751E-004, 6.5354601E-005, 1.3697921E-003, 5.2654150E+002
 5.0004686E+001, 1.1916052E-002, 2.0218889E-001, 9.0845155E-002, 1.1213118E-003, 7.8846617E-005, 1.4551728E-003, 5.2634134E+002
 5.1001965E+001, 1.1069389E-002, 2.0325250E-001, 9.1080899E-002, 9.0583647E-004, 6.5825792E-005, 1.4153831E-003, 5.2074582E+002
 5.2001649E+001, 1.0127141E-002, 2.0339899E-001, 9.1680577E-002, 1.4679041E-003, 9.6512458E-005, 1.5367750E-003, 5.1311611E+002
 5.3011025E+001, 7.6426088E-003, 2.0492276E-001, 9.2889933E-002, 2.0686038E-003, 1.3956165E-004, 1.6747488E-003, 5.1262721E+002
 5.4004975E+001, 6.1479420E-003, 2.0561649E-001, 9.3691447E-002, 2.6038196E-003, 1.6632240E-004, 1.7936810E-003, 5.0852059E+002
 5.5003801E+001, 6.0892813E-003, 2.0508082E-001, 9.3899561E-002, 3.0535492E-003, 2.3041377E-004, 1.8868769E-003, 5.0535159E+002
 5.6006102E+001, 4.8573592E-003, 2.0611666E-001, 9.4408125E-002, 3.1347794E-003, 2.3908097E-004, 1.9105346E-003, 5.0105870E+002
 5.7008035E+001, 4.0807544E-003, 2.0480346E-001, 9.5343644E-002, 4.6813565E-003, 4.7760758E-004, 2.2342135E-003, 4.9641021E+002
 5.8006002E+001, 3.8762312E-003, 2.0424468E-001, 9.5656326E-002, 5.2503161E-003, 5.6741278E-004, 2.3528335E-003, 4.9277288E+002
 5.9000893E+001, 3.7592777E-003, 2.0422845E-001, 9.5758883E-002, 5.3637389E-003, 4.7092898E-004, 2.3770536E-003, 4.8937367E+002
 6.0000163E+001, 3.1982776E-003, 2.0413998E-001, 9.6177499E-002, 5.8386842E-003, 4.7017122E-004, 2.4783502E-003, 4.8636491E+002
 6.1010484E+001, 3.2277859E-003, 2.0241529E-001, 9.6643369E-002, 7.0755997E-003, 9.9356389E-004, 2.7331583E-003, 4.7890861E+002
 6.2007728E+001, 2.8550705E-003, 2.0173055E-001, 9.7123832E-002, 7.8738375E-003, 1.0277250E-003, 2.9001771E-003, 4.7603155E+002
 6.3009419E+001, 3.0040014E-003, 2.0223654E-001, 9.6878513E-002, 7.3976228E-003, 8.7025148E-004, 2.8011235E-003, 4.7994335E+002
 6.4000464E+001, 2.4895742E-003, 2.0060199E-001, 9.7711720E-002, 8.9778329E-003, 1.2730320E-003, 3.1300777E-003, 4.7533344E+002
 6.5009861E+001, 2.8443898E-003, 1.9887946E-001, 9.7928757E-002, 9.9551029E-003, 1.9316984E-003, 3.3292304E-003, 4.6236712E+002
 6.6002584E+001, 2.6642731E-003, 2.0009100E-001, 9.7724925E-002, 9.2144713E-003, 1.4865614E-003, 3.1777354E-003, 4.6571349E+002
 6.7011233E+001, 2.7333037E-003, 1.9985127E-001, 9.7768704E-002, 9.3636663E-003, 1.4147077E-003, 3.2082785E-003, 4.6401639E+002
 6.8005790E+001, 2.7874653E-003, 1.9820702E-001, 9.8192633E-002, 1.0521891E-002, 1.9266953E-003, 3.4466997E-003, 4.5498662E+002
 6.9009358E+001, 2.8038442E-003, 1.9704037E-001, 9.8483448E-002, 1.1334185E-002, 2.4418590E-003, 3.6138301E-003, 4.5361030E+002
 7.0007074E+001, 2.7247134E-003, 1.9647140E-001, 9.8751193E-002, 1.1859321E-002, 2.2993839E-003, 3.7229919E-003, 4.5282318E+002
 7.1000026E+001, 2.8701836E-003, 1.9558209E-001, 9.8887311E-002, 1.2389043E-002, 2.6520214E-003, 3.8312084E-003, 4.4511033E+002
 7.2002626E+001, 2.8371896E-003, 1.9420428E-001, 9.9282025E-002, 1.3401289E-002, 3.1704745E-003, 4.0399368E-003, 4.4569547E+002
 7.3009786E+001, 2.8019842E-003, 1.9393060E-001, 9.9415129E-002, 1.3658159E-002, 3.0640790E-003, 4.0933612E-003, 4.4902341E+002
 7.4005331E+001, 2.7766966E-003, 1.9233917E-001, 9.9839584E-002, 1.4795348E-002, 3.7985697E-003, 4.3275911E-003, 4.3976372E+002
 7.5001512E+001, 2.8508415E-003, 1.9159394E-001, 1.0000671E-001, 1.5293866E-002, 3.9742085E-003, 4.4299853E-003, 4.4080872E+002
 7.6001479E+001, 2.9102270E-003, 1.9183717E-001, 9.9949279E-002, 1.5126185E-002, 3.5857181E-003, 4.3954981E-003, 4.3850513E+002
 7.7004517E+001, 2.8593978E-003, 1.9138199E-001, 1.0011026E-001, 1.5492383E-002, 3.7396621E-003, 4.4712699E-003, 4.3890395E+002
 7.8007072E+001, 2.7864998E-003, 1.8956847E-001, 1.0057079E-001, 1.6766039E-002, 4.8996648E-003, 4.7334221E-003, 4.3524428E+002
 7.9004876E+001, 2.9979852E-003, 1.8941621E-001, 1.0054458E-001, 1.6802240E-002, 4.4797926E-003, 4.7402649E-003, 4.3330477E+002
 8.0006879E+001, 2.8301388E-003, 1.8886810E-001, 1.0082142E-001, 1.7329438E-002, 4.6108330E-003, 4.8499955E-003, 4.3886051E+002
 8.1002008E+001, 2.9926767E-003, 1.8740150E-001, 1.0105505E-001, 1.8214158E-002, 5.4598814E-003, 5.0308480E-003, 4.3005300E+002
 8.2010979E+001, 2.7953631E-003, 1.8707401E-001, 1.0124561E-001, 1.8556891E-002, 5.7914971E-003, 5.1023587E-003, 4.2989517E+002
 8.3005486E+001, 3.0085320E-003, 1.8628423E-001, 1.0135752E-001, 1.9016210E-002, 5.8084693E-003, 5.1960794E-003, 4.2705033E+002
 8.4004580E+001, 3.0204175E-003, 1.8535579E-001, 1.0159739E-001, 1.9671167E-002, 6.1725494E-003, 5.3309111E-003, 4.2748720E+002
 8.5004616E+001, 2.9458360E-003, 1.8515895E-001, 1.0175507E-001, 1.9919532E-002, 5.9289836E-003, 5.3829744E-003, 4.2547877E+002
 8.6011336E+001, 3.0600833E-003, 1.8405009E-001, 1.0198418E-001, 2.0641505E-002, 6.2915975E-003, 5.5310872E-003, 4.2463586E+002
 8.7007073E+001, 3.2159921E-003, 1.8390572E-001, 1.0190491E-001, 2.0622128E-002, 6.4066307E-003, 5.5260633E-003, 4.2866524E+002
 8.8000509E+001, 3.1093003E-003, 1.8303374E-001, 1.0219072E-001, 2.1301142E-002, 6.8760974E-003, 5.6663934E-003, 4.2275233E+002
 8.9007277E+001, 3.1419930E-003, 1.8189936E-001, 1.0243541E-001, 2.2052201E-002, 7.5360049E-003, 5.8205899E-003, 4.2041601E+002
 9.0008923E+001, 3.2157526E-003, 1.8137515E-001, 1.0254683E-001, 2.2396149E-002, 7.6064234E-003, 5.8911749E-003, 4.1989083E+002
 9.1000239E+001, 3.2575740E-003, 1.8066536E-001, 1.0279287E-001, 2.2959173E-002, 7.3715496E-003, 6.0076111E-003, 4.2163271E+002
 9.2009726E+001, 3.3940079E-003, 1.7906920E-001, 1.0309370E-001, 2.3969941E-002, 8.1844596E-003, 6.2147079E-003, 4.1787482E+002
 9.3002502E+001, 3.2809687E-003, 1.7884583E-001, 1.0319114E-001, 2.4170404E-002, 8.5164213E-003, 6.2563430E-003, 4.1894900E+002
 9.4002735E+001, 3.4118829E-003, 1.7880256E-001, 1.0317604E-001, 2.4171234E-002, 8.1478183E-003, 6.2562590E-003, 4.1641535E+002
 9.5007103E+001, 3.5223415E-003, 1.7658795E-001, 1.0395062E-001, 2.5935364E-002, 7.4570405E-003, 6.6211470E-003, 4.1866510E+002
 9.6010842E+001, 3.7430984E-003, 1.7527832E-001, 1.0413548E-001, 2.6699578E-002, 8.0428538E-003, 6.7771076E-003, 4.1148158E+002
 9.7012467E+001, 4.0992282E-003, 1.7410593E-001, 1.0430728E-001, 2.7386151E-002, 7.8684333E-003, 6.9172459E-003, 4.1262431E+002
 9.8012557E+001, 4.4234214E-003, 1.7304871E-001, 1.0443522E-001, 2.7978012E-002, 7.8606972E-003, 7.0377723E-003, 4.0543883E+002
 9.9000301E+001, 5.8249623E-003, 1.6897947E-001, 1.0470891E-001, 3.0031982E-002, 8.5049836E-003, 7.4536324E-003, 4.1728201E+002
 1.0000559E+002, 5.7901262E-003, 1.7032930E-001, 1.0425567E-001, 2.8974936E-002, 8.6770603E-003, 7.2351325E-003, 4.0027007E+002
 1.0100775E+002, 6.3678798E-003, 1.6826581E-001, 1.0451862E-001, 3.0144842E-002, 8.8116947E-003, 7.4735307E-003, 4.1269068E+002
 1.0201275E+002, 7.3748666E-003, 1.6692918E-001, 1.0409259E-001, 3.0286324E-002, 9.8458808E-003, 7.4958145E-003, 4.0259017E+002
 1.0300340E+002, 7.5624876E-003, 1.6606288E-001, 1.0429399E-001, 3.0870505E-002, 9.5843073E-003, 7.6158439E-003, 3.9906606E+002
 1.0400199E+002, 1.0732817E-002, 1.6532834E-001, 1.0212080E-001, 2.8930409E-002, 1.0898825E-002, 7.1954597E-003, 3.8510928E+002
 1.0500923E+002, 9.8470184E-003, 1.6214401E-001, 1.0392482E-001, 3.2188118E-002, 1.0111221E-002, 7.8747323E-003, 4.0891439E+002
 1.0600152E+002, 1.2635182E-002, 1.6176577E-001, 1.0164115E-001, 2.9987464E-002, 1.2971156E-002, 7.4006361E-003, 3.8396779E+002
 1.0700059E+002, 1.4505842E-002, 1.6146711E-001, 1.0048260E-001, 2.8907299E-002, 1.2733512E-002, 7.1672449E-003, 3.8108940E+002
 1.0800392E+002, 1.4073877E-002, 1.6163740E-001, 1.0082811E-001, 2.9190127E-002, 1.2117065E-002, 7.2289080E-003, 3.9582807E+002
 1.0900955E+002, 1.3684312E-002, 1.6080375E-001, 1.0130748E-001, 3.0054024E-002, 1.2525661E-002, 7.4091084E-003, 3.8285692E+002
 1.1001333E+002, 1.3895653E-002, 1.6168133E-001, 1.0091531E-001, 2.9262799E-002, 1.2248122E-002, 7.2447541E-003, 3.6985357E+002
 1.1100297E+002, 1.5756361E-002, 1.6260972E-001, 9.9383414E-002, 2.7260146E-002, 1.1843935E-002, 6.8209719E-003, 3.6882745E+002
 1.1201110E+002, 1.4667063E-002, 1.6210898E-001, 1.0046222E-001, 2.8596805E-002, 1.0900934E-002, 7.1045352E-003, 3.7844657E+002
 1.1300851E+002, 1.4778705E-002, 1.6231701E-001, 1.0034225E-001, 2.8380523E-002, 1.0740900E-002, 7.0594165E-003, 3.7957004E+002
 1.1400209E+002, 1.5696885E-002, 1.5949676E-001, 1.0062103E-001, 2.9895105E-002, 1.0873541E-002, 7.3671544E-003, 3.8000901E+002
 1.1500384E+002, 1.5918726E-002, 1.5815474E-001, 1.0082514E-001, 3.0693116E-002, 1.1403848E-002, 7.5301656E-003, 3.7240594E+002
 1.1600114E+002, 1.6557098E-002, 1.5620084E-001, 1.0095080E-001, 3.1674415E-002, 1.1892083E-002, 7.7287874E-003, 3.6380484E+002
 1.1700212E+002, 1.7044592E-002, 1.5432186E-001, 1.0118397E-001, 3.2734354E-002, 1.2213279E-002, 7.9447206E-003, 3.6774299E+002
 1.1801185E+002, 1.6862349E-002, 1.5475971E-001, 1.0120852E-001, 3.2568521E-002, 1.1950364E-002, 7.9118030E-003, 3.6925557E+002
 1.1900164E+002, 1.7720899E-002, 1.5287774E-001, 1.0114313E-001, 3.3319891E-002, 1.2525343E-002, 8.0615610E-003, 3.6964982E+002
 1.2001088E+002, 1.7605739E-002, 1.5082185E-001, 1.0192067E-001, 3.5021870E-002, 1.2440218E-002, 8.4140823E-003, 3.7452219E+002
 1.2100682E+002, 1.7057447E-002, 1.5134213E-001, 1.0223824E-001, 3.5123499E-002, 1.1777239E-002, 8.4390046E-003, 3.7831722E+002
 1.2201164E+002, 1.7907428E-002, 1.4953855E-001, 1.0216327E-001, 3.5830507E-002, 1.2288870E-002, 8.5797232E-003, 3.7771780E+002
 1.2300171E+002, 1.8806694E-002, 1.4845624E-001, 1.0182964E-001, 3.5954422E-002, 1.2708363E-002, 8.5997709E-003, 3.7114315E+002
 1.2401067E+002, 1.9289626E-002, 1.4637191E-001, 1.0210755E-001, 3.7151029E-002, 1.3190048E-002, 8.8437695E-003, 3.6843091E+002
 1.2500200E+002, 1.8834217E-002, 1.4683812E-001, 1.0229852E-001, 3.7146932E-002, 1.3008984E-002, 8.8456997E-003, 3.7017176E+002
 1.2600332E+002, 1.9249915E-002, 1.4502074E-001, 1.0246226E-001, 3.8111274E-002, 1.3923798E-002, 9.0415099E-003, 3.7001263E+002
 1.2701119E+002, 2.0464666E-002, 1.4366385E-001, 1.0200590E-001, 3.8226094E-002, 1.4314560E-002, 9.0579529E-003, 3.6754659E+002
 1.2801030E+002, 2.1731229E-002, 1.4103205E-001, 1.0188017E-001, 3.9240667E-002, 1.5049825E-002, 9.2596248E-003, 3.5825376E+002
 1.2900172E+002, 2.2385494E-002, 1.3975398E-001, 1.0178870E-001, 3.9701768E-002, 1.5426314E-002, 9.3507863E-003, 3.6216676E+002
 1.3000704E+002, 1.9991936E-002, 1.4167267E-001, 1.0312986E-001, 4.0257019E-002, 1.3508349E-002, 9.4813885E-003, 3.8062899E+002
 1.3100637E+002, 2.0497328E-002, 1.4062520E-001, 1.0314011E-001, 4.0721517E-002, 1.3433140E-002, 9.5746664E-003, 3.8249014E+002
 1.3200204E+002, 2.1145671E-002, 1.3893917E-001, 1.0315255E-001, 4.1469192E-002, 1.4025006E-002, 9.7248128E-003, 3.7525140E+002
 1.3300599E+002, 2.1769152E-002, 1.3699727E-001, 1.0326200E-001, 4.2429183E-002, 1.4648771E-002, 9.9189388E-003, 3.7459477E+002
 1.3401076E+002, 2.1116945E-002, 1.3671928E-001, 1.0386826E-001, 4.3179816E-002, 1.4279016E-002, 1.0078201E-002, 3.7279968E+002
 1.3500408E+002, 2.1719968E-002, 1.3538721E-001, 1.0384407E-001, 4.3734018E-002, 1.4572599E-002, 1.0188998E-002, 3.7426665E+002
 1.3600013E+002, 2.2021232E-002, 1.3520582E-001, 1.0367778E-001, 4.3639882E-002, 1.4678751E-002, 1.0167722E-002, 3.7356671E+002
 1.3700467E+002, 2.2127069E-002, 1.3400770E-001, 1.0400008E-001, 4.4495696E-002, 1.4694573E-002, 1.0343992E-002, 3.7512968E+002
 1.3800129E+002, 2.1513305E-002, 1.3500098E-001, 1.0420216E-001, 4.4271882E-002, 1.4053508E-002, 1.0301988E-002, 3.7994334E+002
 1.3901096E+002, 2.1724506E-002, 1.3319913E-001, 1.0460092E-001, 4.5471081E-002, 1.4377051E-002, 1.0548244E-002, 3.7923243E+002
 1.4000435E+002, 2.1795161E-002, 1.3267063E-001, 1.0471990E-001, 4.5824637E-002, 1.4423463E-002, 1.0620863E-002, 3.7437364E+002
 1.4101160E+002, 2.1717064E-002, 1.3244859E-001, 1.0481033E-001, 4.6016583E-002, 1.4649245E-002, 1.0660680E-002, 3.7496780E+002
 1.4200914E+002, 2.2440920E-002, 1.3091283E-001, 1.0469277E-001, 4.6564496E-002, 1.5407436E-002, 1.0768903E-002, 3.7218427E+002
 1.4300782E+002, 2.2572458E-002, 1.3025636E-001, 1.0477442E-001, 4.6935954E-002, 1.5680252E-002, 1.0844590E-002, 3.7415354E+002
 1.4400289E+002, 2.1571165E-002, 1.2956360E-001, 1.0581276E-001, 4.8315235E-002, 1.4997371E-002, 1.1136135E-002, 3.7957512E+002
 1.4501060E+002, 2.1573032E-002, 1.2866658E-001, 1.0610490E-001, 4.9009090E-002, 1.5026196E-002, 1.1279495E-002, 3.8149684E+002
 1.4600838E+002, 2.1544731E-002, 1.2928520E-001, 1.0596189E-001, 4.8590136E-002, 1.4767493E-002, 1.1193397E-002, 3.8306449E+002
 1.4700266E+002, 2.2098939E-002, 1.2782751E-001, 1.0600612E-001, 4.9270417E-002, 1.5104390E-002, 1.1330469E-002, 3.8214451E+002
 1.4800911E+002, 2.2238102E-002, 1.2632668E-001, 1.0634801E-001, 5.0280009E-002, 1.5468501E-002, 1.1537886E-002, 3.7962894E+002
 1.4900903E+002, 2.2415381E-002, 1.2565786E-001, 1.0641871E-001, 5.0644812E-002, 1.5641091E-002, 1.1612072E-002, 3.7670747E+002
 1.5000793E+002, 2.2250680E-002, 1.2564436E-001, 1.0652238E-001, 5.0759326E-002, 1.5731541E-002, 1.1636543E-002, 3.7642239E+002
 1.5100802E+002, 2.2513327E-002, 1.2399358E-001, 1.0685742E-001, 5.1825765E-002, 1.5921670E-002, 1.1855244E-002, 3.7534872E+002
 1.5200105E+002, 2.2268126E-002, 1.2433165E-001, 1.0697169E-001, 5.1796304E-002, 1.5581363E-002, 1.1850964E-002, 3.8386696E+002
 1.5301080E+002, 2.1286841E-002, 1.2461484E-001, 1.0765472E-001, 5.2382378E-002, 1.5000548E-002, 1.1978324E-002, 3.8576944E+002
 1.5401087E+002, 2.1796265E-002, 1.2237256E-001, 1.0803210E-001, 5.3748899E-002, 1.5089476E-002, 1.2257799E-002, 3.8544117E+002
