s,,,,,,,
Time,"O2 EXHAUST","CO2 EXHAUST","H2O EXHAUST","CO EXHAUST","FUEL EXHAUST","SOOT EXHAUST","TEMP EXHAUST"
 0.0000000E+000, 2.3099739E-001, 5.9146498E-004, 5.9412091E-003, 0.0000000E+000, 0.0000000E+000, 0.0000000E+000, 2.0000000E+001
 1.0033235E+000, 2.3099739E-001, 5.9146498E-004, 5.9412091E-003, 4.4672809E-031, 4.2523731E-030, 5.7611509E-031, 2.0459542E+001
 2.0028229E+000, 2.2519865E-001, 5.9519579E-003, 7.4606660E-003, 1.6187943E-005, 2.9416757E-004, 3.5599019E-004, 7.6472459E+001
 3.0007911E+000, 2.2095563E-001, 9.8763741E-003, 8.5922085E-003, 6.2166356E-005, 3.2184308E-004, 6.2398818E-004, 1.1035587E+002
 4.0042526E+000, 2.1778779E-001, 1.2797693E-002, 9.4282703E-003, 8.5630850E-005, 4.3895914E-004, 8.2115977E-004, 1.3899408E+002
 5.0000459E+000, 2.1398712E-001, 1.6323399E-002, 1.0434241E-002, 1.0747062E-004, 5.1667731E-004, 1.0577193E-003, 1.7122822E+002
 6.0009767E+000, 2.1003557E-001, 1.9993879E-002, 1.1482437E-002, 1.3161624E-004, 5.6789153E-004, 1.3042963E-003, 2.0102200E+002
 7.0047756E+000, 2.0523318E-001, 2.4475423E-002, 1.2755201E-002, 1.4749798E-004, 6.0495683E-004, 1.6024155E-003, 2.3385871E+002
 8.0061849E+000, 2.0267311E-001, 2.6844776E-002, 1.3432643E-002, 1.6495547E-004, 6.6831479E-004, 1.7619910E-003, 2.5382743E+002
 9.0059696E+000, 1.9628347E-001, 3.2829772E-002, 1.5131124E-002, 1.8284083E-004, 6.3217939E-004, 2.1593995E-003, 2.8940196E+002
 1.0003627E+001, 1.9154452E-001, 3.7281303E-002, 1.6391264E-002, 1.8989336E-004, 5.7945201E-004, 2.4536311E-003, 3.1171679E+002
 1.1005894E+001, 1.8820404E-001, 4.0420235E-002, 1.7279444E-002, 1.9412032E-004, 5.4130391E-004, 2.6609427E-003, 3.2688187E+002
 1.2004041E+001, 1.8196809E-001, 4.6285364E-002, 1.8937422E-002, 1.9890967E-004, 4.6134693E-004, 3.0476338E-003, 3.5188047E+002
 1.3007777E+001, 1.7718968E-001, 5.0784970E-002, 2.0207249E-002, 1.9850551E-004, 3.9670500E-004, 3.3434126E-003, 3.6531999E+002
 1.4008559E+001, 1.7240714E-001, 5.5290007E-002, 2.1478351E-002, 1.9756826E-004, 3.2770854E-004, 3.6394329E-003, 3.7756290E+002
 1.5004063E+001, 1.6679752E-001, 6.0570809E-002, 2.2968234E-002, 1.9644309E-004, 2.6224435E-004, 3.9864227E-003, 3.9125365E+002
 1.6000292E+001, 1.6263924E-001, 6.4488734E-002, 2.4072930E-002, 1.9424111E-004, 2.0525004E-004, 4.2435646E-003, 4.0035822E+002
 1.7006534E+001, 1.5725606E-001, 6.9551517E-002, 2.5502207E-002, 1.9500680E-004, 1.5509328E-004, 4.5766284E-003, 4.1072278E+002
 1.8002872E+001, 1.5444232E-001, 7.2196625E-002, 2.6249141E-002, 1.9580660E-004, 1.3211630E-004, 4.7507280E-003, 4.1083046E+002
 1.9006241E+001, 1.4854866E-001, 7.7729965E-002, 2.7813360E-002, 2.0084915E-004, 9.9161100E-005, 5.1156591E-003, 4.1906794E+002
 2.0004169E+001, 1.4519521E-001, 8.0880634E-002, 2.8703317E-002, 2.0235517E-004, 7.7227257E-005, 5.3231543E-003, 4.2275213E+002
 2.1006321E+001, 1.4216214E-001, 8.3726513E-002, 2.9508147E-002, 2.0561785E-004, 6.4864047E-005, 5.5109889E-003, 4.2430286E+002
 2.2009503E+001, 1.3824896E-001, 8.7398347E-002, 3.0546442E-002, 2.0960998E-004, 4.9317620E-005, 5.7532912E-003, 4.2887170E+002
 2.3000008E+001, 1.3622163E-001, 8.9300464E-002, 3.1084404E-002, 2.1185461E-004, 4.1165490E-005, 5.8788491E-003, 4.2861153E+002
 2.4003559E+001, 1.3314624E-001, 9.2183160E-002, 3.1900388E-002, 2.1662582E-004, 3.4307406E-005, 6.0694311E-003, 4.3067948E+002
 2.5000580E+001, 1.3052934E-001, 9.4635553E-002, 3.2594718E-002, 2.2097604E-004, 2.9427027E-005, 6.2316278E-003, 4.3103275E+002
 2.6007619E+001, 1.2818972E-001, 9.6827570E-002, 3.3215464E-002, 2.2512934E-004, 2.6119853E-005, 6.3766611E-003, 4.3284525E+002
 2.7000205E+001, 1.2504969E-001, 9.9769698E-002, 3.4048509E-002, 2.3047855E-004, 2.1968866E-005, 6.5712763E-003, 4.3314555E+002
 2.8009893E+001, 1.2366571E-001, 1.0106629E-001, 3.4415670E-002, 2.3291490E-004, 2.0460893E-005, 6.6570599E-003, 4.3251382E+002
 2.9004090E+001, 1.2182447E-001, 1.0279154E-001, 3.4904165E-002, 2.3604817E-004, 1.7746933E-005, 6.7711809E-003, 4.3036864E+002
 3.0009466E+001, 1.1893938E-001, 1.0549294E-001, 3.5669567E-002, 2.4197833E-004, 1.7170055E-005, 6.9500924E-003, 4.3394049E+002
 3.1004151E+001, 1.1676003E-001, 1.0753330E-001, 3.6247740E-002, 2.4658072E-004, 1.7141458E-005, 7.0852514E-003, 4.3632765E+002
 3.2002152E+001, 1.1509072E-001, 1.0909515E-001, 3.6690666E-002, 2.5077873E-004, 1.8239322E-005, 7.1888578E-003, 4.3310985E+002
 3.3006788E+001, 1.1226125E-001, 1.1174583E-001, 3.7441212E-002, 2.5566132E-004, 1.6299314E-005, 7.3642081E-003, 4.3628799E+002
 3.4002472E+001, 1.0940015E-001, 1.1442295E-001, 3.8200325E-002, 2.6266982E-004, 1.8149632E-005, 7.5417575E-003, 4.3822475E+002
 3.5009354E+001, 1.0870654E-001, 1.1507121E-001, 3.8384372E-002, 2.6481579E-004, 1.9739297E-005, 7.5848476E-003, 4.3611926E+002
 3.6008073E+001, 1.0654250E-001, 1.1709762E-001, 3.8958442E-002, 2.6910681E-004, 1.9418988E-005, 7.7190212E-003, 4.3841437E+002
 3.7010801E+001, 1.0412991E-001, 1.1935357E-001, 3.9598464E-002, 2.7568560E-004, 2.4441258E-005, 7.8687836E-003, 4.3910268E+002
 3.8001834E+001, 1.0157572E-001, 1.2173199E-001, 4.0276301E-002, 2.8858022E-004, 4.4478462E-005, 8.0279665E-003, 4.4033754E+002
 3.9004152E+001, 1.0009523E-001, 1.2308357E-001, 4.0669773E-002, 3.1200230E-004, 9.7253125E-005, 8.1219090E-003, 4.4095433E+002
 4.0006943E+001, 9.8280387E-002, 1.2475424E-001, 4.1151376E-002, 3.3176291E-004, 1.4494274E-004, 8.2360407E-003, 4.3792375E+002
 4.1000660E+001, 9.6690000E-002, 1.2620317E-001, 4.1574473E-002, 3.5931205E-004, 2.0286926E-004, 8.3372779E-003, 4.3889417E+002
 4.2009533E+001, 9.5314576E-002, 1.2741938E-001, 4.1938149E-002, 3.9949528E-004, 3.3725379E-004, 8.4259498E-003, 4.3661519E+002
 4.3001091E+001, 9.3079853E-002, 1.2944109E-001, 4.2532329E-002, 4.4547443E-004, 4.4627273E-004, 8.5688397E-003, 4.3802628E+002
 4.4005223E+001, 9.2079970E-002, 1.3022398E-001, 4.2797554E-002, 5.3207211E-004, 7.1034724E-004, 8.6390677E-003, 4.3527191E+002
 4.5011486E+001, 9.1213612E-002, 1.3091353E-001, 4.3027149E-002, 6.0054057E-004, 9.2183923E-004, 8.6992332E-003, 4.3319771E+002
 4.6005098E+001, 9.0775513E-002, 1.3134243E-001, 4.3143794E-002, 5.9187750E-004, 8.8567236E-004, 8.7255589E-003, 4.3124073E+002
 4.7006927E+001, 8.9626410E-002, 1.3225451E-001, 4.3451304E-002, 6.8941330E-004, 1.1426856E-003, 8.8066485E-003, 4.2817669E+002
 4.8010017E+001, 8.9038058E-002, 1.3276928E-001, 4.3607091E-002, 7.1002027E-004, 1.2075476E-003, 8.8449585E-003, 4.2650355E+002
 4.9001968E+001, 8.8367028E-002, 1.3334578E-001, 4.3780003E-002, 7.3085406E-004, 1.3442132E-003, 8.8873796E-003, 4.2451139E+002
 5.0000970E+001, 8.7912340E-002, 1.3368489E-001, 4.3902760E-002, 7.8340051E-004, 1.4733580E-003, 8.9210535E-003, 4.2266107E+002
 5.1006903E+001, 8.7194898E-002, 1.3411707E-001, 4.4090836E-002, 9.1305437E-004, 1.9066422E-003, 8.9775439E-003, 4.1946004E+002
 5.2007750E+001, 8.6668815E-002, 1.3453523E-001, 4.4230589E-002, 9.5554026E-004, 2.0329092E-003, 9.0142383E-003, 4.1839486E+002
 5.3000439E+001, 8.5952876E-002, 1.3506331E-001, 4.4413467E-002, 1.0229104E-003, 2.3434475E-003, 9.0635524E-003, 4.1692175E+002
 5.4006285E+001, 8.5017702E-002, 1.3572511E-001, 4.4666543E-002, 1.1517340E-003, 2.6648829E-003, 9.1349577E-003, 4.1745900E+002
 5.5007584E+001, 8.4863641E-002, 1.3582765E-001, 4.4702739E-002, 1.1667089E-003, 2.7802232E-003, 9.1449455E-003, 4.1185863E+002
 5.6010572E+001, 8.4446228E-002, 1.3603771E-001, 4.4809027E-002, 1.2593760E-003, 3.1327760E-003, 9.1788239E-003, 4.1137247E+002
 5.7004267E+001, 8.4284677E-002, 1.3619093E-001, 4.4848224E-002, 1.2520856E-003, 3.1635261E-003, 9.1873222E-003, 4.0906163E+002
 5.8001826E+001, 8.3926032E-002, 1.3636785E-001, 4.4944492E-002, 1.3425092E-003, 3.4264732E-003, 9.2185329E-003, 4.0863946E+002
 5.9009353E+001, 8.3837443E-002, 1.3636021E-001, 4.4968673E-002, 1.3938937E-003, 3.5760388E-003, 9.2291558E-003, 4.0667776E+002
 6.0003437E+001, 8.3193550E-002, 1.3672674E-001, 4.5125078E-002, 1.4998839E-003, 4.1171425E-003, 9.2762136E-003, 4.0368413E+002
 6.1009715E+001, 8.3031016E-002, 1.3689912E-001, 4.5163897E-002, 1.4813880E-003, 4.1224520E-003, 9.2835460E-003, 4.0324107E+002
 6.2001346E+001, 8.2612335E-002, 1.3715727E-001, 4.5266739E-002, 1.5414137E-003, 4.4295410E-003, 9.3135214E-003, 4.0021276E+002
 6.3008313E+001, 8.2193216E-002, 1.3747324E-001, 4.5377765E-002, 1.5841759E-003, 4.5626048E-003, 9.3435565E-003, 4.0070904E+002
 6.4000753E+001, 8.2005767E-002, 1.3750807E-001, 4.5417106E-002, 1.6436283E-003, 4.9015556E-003, 9.3587251E-003, 3.9843794E+002
 6.5011354E+001, 8.1703772E-002, 1.3771058E-001, 4.5485717E-002, 1.6679693E-003, 5.1469065E-003, 9.3773181E-003, 3.9699148E+002
 6.6004012E+001, 8.1371136E-002, 1.3791624E-001, 4.5561033E-002, 1.7039279E-003, 5.4495054E-003, 9.3986336E-003, 3.9550892E+002
 6.7006644E+001, 8.1082399E-002, 1.3812787E-001, 4.5630527E-002, 1.7242235E-003, 5.6167755E-003, 9.4169477E-003, 3.9525215E+002
 6.8010089E+001, 8.0993577E-002, 1.3814356E-001, 4.5642985E-002, 1.7417917E-003, 5.8364432E-003, 9.4217895E-003, 3.9351640E+002
 6.9003168E+001, 8.0420770E-002, 1.3849224E-001, 4.5782096E-002, 1.8235543E-003, 6.2791499E-003, 9.4624267E-003, 3.9209559E+002
 7.0002205E+001, 8.0875637E-002, 1.3811812E-001, 4.5662500E-002, 1.7959671E-003, 6.1800522E-003, 9.4318533E-003, 3.9185139E+002
 7.1004497E+001, 8.0338063E-002, 1.3849174E-001, 4.5791952E-002, 1.8451327E-003, 6.5259603E-003, 9.4670729E-003, 3.9102770E+002
 7.2009298E+001, 8.0183805E-002, 1.3854442E-001, 4.5818625E-002, 1.8706097E-003, 6.8167123E-003, 9.4760616E-003, 3.8886143E+002
 7.3009403E+001, 7.9896567E-002, 1.3877345E-001, 4.5892909E-002, 1.8898020E-003, 6.9032771E-003, 9.4952773E-003, 3.8973266E+002
 7.4010061E+001, 7.9908150E-002, 1.3874475E-001, 4.5863335E-002, 1.8522619E-003, 7.1810784E-003, 9.4852776E-003, 3.8826003E+002
 7.5001236E+001, 7.9419332E-002, 1.3906369E-001, 4.5965210E-002, 1.8801315E-003, 7.6790547E-003, 9.5122997E-003, 3.8767682E+002
 7.6002780E+001, 7.9491080E-002, 1.3893458E-001, 4.5944487E-002, 1.9111441E-003, 7.8014090E-003, 9.5105256E-003, 3.8611843E+002
 7.7006583E+001, 7.9342847E-002, 1.3901208E-001, 4.5964290E-002, 1.9103787E-003, 8.0888944E-003, 9.5154671E-003, 3.8601686E+002
 7.8011796E+001, 7.9255283E-002, 1.3904294E-001, 4.5974347E-002, 1.9152231E-003, 8.2996851E-003, 9.5185533E-003, 3.8390745E+002
 7.9000278E+001, 7.9071720E-002, 1.3911442E-001, 4.6021486E-002, 1.9682213E-003, 8.4870019E-003, 9.5347286E-003, 3.8392871E+002
 8.0003322E+001, 7.8907306E-002, 1.3925726E-001, 4.6042001E-002, 1.9333896E-003, 8.7214839E-003, 9.5365928E-003, 3.8403860E+002
 8.1010231E+001, 7.8851549E-002, 1.3923924E-001, 4.6041606E-002, 1.9451134E-003, 8.9839367E-003, 9.5379551E-003, 3.8229437E+002
 8.2005012E+001, 7.8979993E-002, 1.3910945E-001, 4.5990973E-002, 1.9205097E-003, 9.1547267E-003, 9.5241034E-003, 3.8244318E+002
 8.3011328E+001, 7.8705616E-002, 1.3928185E-001, 4.6049899E-002, 1.9429240E-003, 9.4293866E-003, 9.5403007E-003, 3.8237816E+002
 8.4007683E+001, 7.8551122E-002, 1.3934280E-001, 4.6072699E-002, 1.9569259E-003, 9.7429932E-003, 9.5473506E-003, 3.8156588E+002
 8.5006716E+001, 7.8603683E-002, 1.3923317E-001, 4.6033118E-002, 1.9443357E-003, 1.0086021E-002, 9.5374305E-003, 3.7909722E+002
 8.6007877E+001, 7.8478992E-002, 1.3931091E-001, 4.6060055E-002, 1.9551389E-003, 1.0210405E-002, 9.5448851E-003, 3.7933198E+002
 8.7004438E+001, 7.8237993E-002, 1.3941304E-001, 4.6097594E-002, 1.9766201E-003, 1.0669084E-002, 9.5562664E-003, 3.7919512E+002
 8.8005790E+001, 7.8218027E-002, 1.3943204E-001, 4.6091487E-002, 1.9561079E-003, 1.0774884E-002, 9.5530812E-003, 3.7859265E+002
 8.9006371E+001, 7.8253903E-002, 1.3942144E-001, 4.6059271E-002, 1.9027699E-003, 1.0946933E-002, 9.5408494E-003, 3.7810225E+002
 9.0002827E+001, 7.8269519E-002, 1.3935921E-001, 4.6032404E-002, 1.8883928E-003, 1.1240741E-002, 9.5336578E-003, 3.7611286E+002
 9.1002805E+001, 7.8307891E-002, 1.3926226E-001, 4.6014837E-002, 1.9087864E-003, 1.1414658E-002, 9.5317024E-003, 3.7570943E+002
 9.2012696E+001, 7.8277264E-002, 1.3928341E-001, 4.6021858E-002, 1.9110278E-003, 1.1437896E-002, 9.5335792E-003, 3.7368269E+002
 9.3005754E+001, 7.8364377E-002, 1.3912008E-001, 4.5964890E-002, 1.8954532E-003, 1.1894310E-002, 9.5194869E-003, 3.7379724E+002
 9.4008797E+001, 7.8321864E-002, 1.3914980E-001, 4.5972673E-002, 1.8948553E-003, 1.1944242E-002, 9.5213140E-003, 3.7258062E+002
 9.5005612E+001, 7.8387851E-002, 1.3903849E-001, 4.5931002E-002, 1.8788570E-003, 1.2254803E-002, 9.5105449E-003, 3.7275783E+002
 9.6011754E+001, 7.8462748E-002, 1.3893784E-001, 4.5896392E-002, 1.8692010E-003, 1.2444792E-002, 9.5018443E-003, 3.7135462E+002
 9.7002234E+001, 7.8393097E-002, 1.3897375E-001, 4.5890720E-002, 1.8423495E-003, 1.2720375E-002, 9.4984058E-003, 3.7030378E+002
 9.8004693E+001, 7.8372221E-002, 1.3888272E-001, 4.5871619E-002, 1.8593668E-003, 1.3140405E-002, 9.4961194E-003, 3.7100053E+002
 9.9013613E+001, 7.8409684E-002, 1.3882375E-001, 4.5860947E-002, 1.8711687E-003, 1.3188391E-002, 9.4947971E-003, 3.6977593E+002
 1.0000786E+002, 7.8695310E-002, 1.3854147E-001, 4.5772843E-002, 1.8567325E-003, 1.3328913E-002, 9.4731178E-003, 3.6874715E+002
 1.0100228E+002, 7.8610454E-002, 1.3854771E-001, 4.5784703E-002, 1.8782702E-003, 1.3554238E-002, 9.4781973E-003, 3.6853648E+002
 1.0200311E+002, 7.8778349E-002, 1.3832936E-001, 4.5706736E-002, 1.8519207E-003, 1.3971147E-002, 9.4581543E-003, 3.6780445E+002
 1.0300237E+002, 7.8824768E-002, 1.3821696E-001, 4.5674117E-002, 1.8535744E-003, 1.4279097E-002, 9.4511335E-003, 3.6704791E+002
 1.0400702E+002, 7.8706108E-002, 1.3830096E-001, 4.5697302E-002, 1.8539485E-003, 1.4403063E-002, 9.4567427E-003, 3.6640506E+002
 1.0500163E+002, 7.8972808E-002, 1.3803019E-001, 4.5611559E-002, 1.8382264E-003, 1.4579094E-002, 9.4355430E-003, 3.6467500E+002
 1.0600223E+002, 7.9039863E-002, 1.3791623E-001, 4.5585328E-002, 1.8512385E-003, 1.4745895E-002, 9.4308720E-003, 3.6629277E+002
 1.0700442E+002, 7.9035721E-002, 1.3786077E-001, 4.5567942E-002, 1.8509558E-003, 1.5020380E-002, 9.4271742E-003, 3.6440149E+002
 1.0801023E+002, 7.9021834E-002, 1.3784635E-001, 4.5552747E-002, 1.8323719E-003, 1.5243592E-002, 9.4222134E-003, 3.6488500E+002
 1.0901042E+002, 7.9070679E-002, 1.3775024E-001, 4.5541149E-002, 1.8625008E-003, 1.5317615E-002, 9.4224165E-003, 3.6297019E+002
 1.1001049E+002, 7.9239745E-002, 1.3756296E-001, 4.5482518E-002, 1.8535135E-003, 1.5495979E-002, 9.4081645E-003, 3.6275910E+002
 1.1101310E+002, 7.9191886E-002, 1.3750120E-001, 4.5466519E-002, 1.8611350E-003, 1.5946949E-002, 9.4057698E-003, 3.6076163E+002
 1.1201331E+002, 7.9382349E-002, 1.3727944E-001, 4.5402156E-002, 1.8599774E-003, 1.6150697E-002, 9.3909458E-003, 3.6139396E+002
 1.1300262E+002, 7.9590799E-002, 1.3711296E-001, 4.5348229E-002, 1.8461663E-003, 1.6088535E-002, 9.3770081E-003, 3.6042369E+002
 1.1400950E+002, 7.9511246E-002, 1.3712446E-001, 4.5362784E-002, 1.8693846E-003, 1.6258014E-002, 9.3827947E-003, 3.5857902E+002
 1.1500328E+002, 7.9433516E-002, 1.3712442E-001, 4.5356630E-002, 1.8618661E-003, 1.6632964E-002, 9.3811802E-003, 3.6054535E+002
 1.1600471E+002, 7.9569901E-002, 1.3698959E-001, 4.5322626E-002, 1.8694143E-003, 1.6624943E-002, 9.3739476E-003, 3.6017696E+002
 1.1700062E+002, 7.9663504E-002, 1.3680073E-001, 4.5271447E-002, 1.8779849E-003, 1.7044821E-002, 9.3634001E-003, 3.5927347E+002
 1.1800691E+002, 7.9743694E-002, 1.3657561E-001, 4.5222248E-002, 1.9107049E-003, 1.7563422E-002, 9.3556979E-003, 3.5821135E+002
 1.1900786E+002, 7.9753803E-002, 1.3653936E-001, 4.5218617E-002, 1.9237721E-003, 1.7618381E-002, 9.3561438E-003, 3.5737439E+002
 1.2000701E+002, 7.9800105E-002, 1.3646633E-001, 4.5196685E-002, 1.9228032E-003, 1.7759420E-002, 9.3511380E-003, 3.5875882E+002
 1.2101260E+002, 7.9838107E-002, 1.3644856E-001, 4.5176994E-002, 1.8957228E-003, 1.7818368E-002, 9.3441114E-003, 3.5825885E+002
 1.2200402E+002, 7.9706808E-002, 1.3651571E-001, 4.5213306E-002, 1.9294210E-003, 1.7900566E-002, 9.3558224E-003, 3.5739109E+002
 1.2301054E+002, 7.9861783E-002, 1.3622932E-001, 4.5155374E-002, 1.9770108E-003, 1.8300568E-002, 9.3473044E-003, 3.5689882E+002
 1.2401138E+002, 7.9978052E-002, 1.3608583E-001, 4.5108326E-002, 1.9669150E-003, 1.8511243E-002, 9.3356931E-003, 3.5398446E+002
 1.2500559E+002, 7.9938199E-002, 1.3604756E-001, 4.5126349E-002, 2.0220244E-003, 1.8571854E-002, 9.3451046E-003, 3.5558882E+002
 1.2600232E+002, 7.9824893E-002, 1.3609549E-001, 4.5141338E-002, 2.0274199E-003, 1.8812463E-002, 9.3494326E-003, 3.5681944E+002
 1.2701350E+002, 7.9823286E-002, 1.3611211E-001, 4.5134376E-002, 2.0058740E-003, 1.8855328E-002, 9.3458648E-003, 3.5644346E+002
 1.2800799E+002, 8.0032698E-002, 1.3586842E-001, 4.5078404E-002, 2.0309766E-003, 1.8941197E-002, 9.3352763E-003, 3.5514723E+002
 1.2900040E+002, 7.9998597E-002, 1.3577710E-001, 4.5069296E-002, 2.0666093E-003, 1.9322591E-002, 9.3369973E-003, 3.5461543E+002
 1.3000749E+002, 8.0015942E-002, 1.3568296E-001, 4.5049759E-002, 2.0828658E-003, 1.9595909E-002, 9.3343357E-003, 3.5624860E+002
 1.3100283E+002, 7.9900016E-002, 1.3585479E-001, 4.5106407E-002, 2.0944648E-003, 1.9245553E-002, 9.3481305E-003, 3.5522162E+002
 1.3201428E+002, 8.0003911E-002, 1.3570416E-001, 4.5063358E-002, 2.0960109E-003, 1.9481781E-002, 9.3385697E-003, 3.5461747E+002
 1.3300237E+002, 8.0162333E-002, 1.3545376E-001, 4.4993567E-002, 2.1023838E-003, 1.9916325E-002, 9.3235009E-003, 3.5249444E+002
 1.3400838E+002, 8.0239024E-002, 1.3532789E-001, 4.4966023E-002, 2.1191943E-003, 2.0076495E-002, 9.3188683E-003, 3.5225277E+002
 1.3500751E+002, 8.0062263E-002, 1.3543769E-001, 4.5021314E-002, 2.1653112E-003, 2.0094051E-002, 9.3360680E-003, 3.5295266E+002
 1.3601307E+002, 7.9803039E-002, 1.3567224E-001, 4.5099964E-002, 2.1880089E-003, 2.0015961E-002, 9.3563993E-003, 3.5737475E+002
 1.3700906E+002, 7.9939260E-002, 1.3562482E-001, 4.5053906E-002, 2.1257780E-003, 1.9970548E-002, 9.3398134E-003, 3.5702550E+002
 1.3800864E+002, 8.0314159E-002, 1.3510791E-001, 4.4926556E-002, 2.1666950E-003, 2.0516160E-002, 9.3146998E-003, 3.5186378E+002
 1.3900323E+002, 8.0552913E-002, 1.3470020E-001, 4.4824305E-002, 2.1982810E-003, 2.1195955E-002, 9.2947524E-003, 3.5007345E+002
 1.4000373E+002, 8.0222950E-002, 1.3495791E-001, 4.4919310E-002, 2.2405860E-003, 2.1214473E-002, 9.3208531E-003, 3.5377475E+002
 1.4101420E+002, 8.0228986E-002, 1.3504852E-001, 4.4945744E-002, 2.2375644E-003, 2.0787407E-002, 9.3261406E-003, 3.5376450E+002
 1.4200888E+002, 8.0069078E-002, 1.3521435E-001, 4.4991959E-002, 2.2357852E-003, 2.0724302E-002, 9.3366572E-003, 3.5422832E+002
 1.4300071E+002, 8.0139976E-002, 1.3502315E-001, 4.4946127E-002, 2.2562125E-003, 2.1191086E-002, 9.3285238E-003, 3.5268145E+002
 1.4401122E+002, 8.0238416E-002, 1.3480238E-001, 4.4892093E-002, 2.2770785E-003, 2.1672742E-002, 9.3185408E-003, 3.5145768E+002
 1.4500358E+002, 8.0319459E-002, 1.3467090E-001, 4.4878676E-002, 2.3220400E-003, 2.1693072E-002, 9.3196259E-003, 3.5055194E+002
 1.4601078E+002, 8.0266082E-002, 1.3479281E-001, 4.4909735E-002, 2.3126614E-003, 2.1411714E-002, 9.3256013E-003, 3.5327023E+002
 1.4700953E+002, 8.0207445E-002, 1.3475287E-001, 4.4912947E-002, 2.3430564E-003, 2.1690037E-002, 9.3295632E-003, 3.5251707E+002
 1.4800829E+002, 8.0222172E-002, 1.3467243E-001, 4.4894612E-002, 2.3540163E-003, 2.1939259E-002, 9.3266556E-003, 3.5324916E+002
 1.4900551E+002, 8.0127325E-002, 1.3475299E-001, 4.4930891E-002, 2.3786334E-003, 2.1849802E-002, 9.3372761E-003, 3.5386152E+002
 1.5001159E+002, 8.0285105E-002, 1.3449824E-001, 4.4857714E-002, 2.3813874E-003, 2.2326023E-002, 9.3211394E-003, 3.5112091E+002
 1.5100128E+002, 8.0229840E-002, 1.3454000E-001, 4.4867757E-002, 2.3787539E-003, 2.2386253E-002, 9.3233181E-003, 3.5176933E+002
 1.5200984E+002, 8.0029135E-002, 1.3465666E-001, 4.4934613E-002, 2.4428193E-003, 2.2381980E-002, 9.3448524E-003, 3.5227985E+002
 1.5300896E+002, 8.0097969E-002, 1.3461256E-001, 4.4924556E-002, 2.4461155E-003, 2.2270482E-002, 9.3426611E-003, 3.5320820E+002
 1.5400047E+002, 8.0051710E-002, 1.3455882E-001, 4.4923493E-002, 2.4759334E-003, 2.2561851E-002, 9.3455912E-003, 3.5169289E+002
