s,,,,,,,
Time,"O2 EXHAUST","CO2 EXHAUST","H2O EXHAUST","CO EXHAUST","FUEL EXHAUST","SOOT EXHAUST","TEMP EXHAUST"
 0.0000000E+000, 2.3099739E-001, 5.9146498E-004, 5.9412091E-003, 0.0000000E+000, 0.0000000E+000, 0.0000000E+000, 2.0000000E+001
 1.0031598E+000, 2.3099739E-001, 5.9146498E-004, 5.9412091E-003, 5.6358919E-029, 2.1034792E-028, 2.2579630E-029, 2.2149316E+001
 2.0001014E+000, 2.2000771E-001, 8.8090601E-003, 1.0691661E-002, 1.2543309E-004, 1.3699290E-004, 9.2114820E-005, 1.2793965E+002
 3.0012581E+000, 2.1057738E-001, 1.5955598E-002, 1.4753331E-002, 1.7900323E-004, 1.5854949E-004, 1.6021157E-004, 2.1056863E+002
 4.0037995E+000, 2.0293286E-001, 2.1739044E-002, 1.8049120E-002, 2.2932898E-004, 1.7498290E-004, 2.1682873E-004, 2.7352263E+002
 5.0052636E+000, 1.9528717E-001, 2.7631623E-002, 2.1318494E-002, 2.1029641E-004, 1.4471363E-004, 2.5930150E-004, 3.3025367E+002
 6.0045107E+000, 1.8143427E-001, 3.8375772E-002, 2.7225628E-002, 1.3270900E-004, 5.8770527E-005, 3.2746452E-004, 4.1645114E+002
 7.0058574E+000, 1.7132306E-001, 4.6188428E-002, 3.1543706E-002, 9.4312848E-005, 1.4090490E-005, 3.8092905E-004, 4.6367587E+002
 8.0023615E+000, 1.6034959E-001, 5.4602276E-002, 3.6245146E-002, 9.3526840E-005, 2.1599780E-007, 4.4728487E-004, 4.9813856E+002
 9.0019103E+000, 1.4289930E-001, 6.7942296E-002, 4.3730516E-002, 1.1715293E-004, 8.4712346E-007, 5.5787268E-004, 5.4748547E+002
 1.0001435E+001, 1.3564268E-001, 7.3490671E-002, 4.6843052E-002, 1.2636363E-004, 5.2895438E-007, 6.0373506E-004, 5.5262299E+002
 1.1005379E+001, 1.2523762E-001, 8.1445803E-002, 5.1306152E-002, 1.3990115E-004, 3.4309127E-007, 6.6956319E-004, 5.7040299E+002
 1.2008555E+001, 1.1775032E-001, 8.7169017E-002, 5.4517943E-002, 1.5033553E-004, 1.1195294E-006, 7.1707275E-004, 5.7229977E+002
 1.3000391E+001, 1.0543977E-001, 9.6532699E-002, 5.9806370E-002, 1.9422797E-004, 4.6593558E-005, 8.0060599E-004, 5.9257043E+002
 1.4008217E+001, 9.3862135E-002, 1.0525763E-001, 6.4796904E-002, 2.8510315E-004, 1.4457218E-004, 8.8925473E-004, 6.0563559E+002
 1.5003332E+001, 8.9009395E-002, 1.0866532E-001, 6.6931262E-002, 4.6815097E-004, 4.1352232E-004, 9.5580561E-004, 5.9416554E+002
 1.6005630E+001, 8.3692528E-002, 1.1236350E-001, 6.9287201E-002, 6.9799630E-004, 6.6995582E-004, 1.0347789E-003, 5.9093519E+002
 1.7000889E+001, 8.2904457E-002, 1.1267774E-001, 6.9665596E-002, 8.5983010E-004, 9.8834623E-004, 1.0722810E-003, 5.7057993E+002
 1.8000317E+001, 7.9316351E-002, 1.1487992E-001, 7.1333012E-002, 1.2064953E-003, 1.2601740E-003, 1.1647021E-003, 5.6543182E+002
 1.9007540E+001, 7.6682974E-002, 1.1615844E-001, 7.2601279E-002, 1.6471859E-003, 1.8497732E-003, 1.2701659E-003, 5.5870675E+002
 2.0004262E+001, 7.6156312E-002, 1.1646092E-001, 7.2825197E-002, 1.6915225E-003, 2.0595884E-003, 1.2821517E-003, 5.4168287E+002
 2.1000244E+001, 7.5082507E-002, 1.1723430E-001, 7.3310978E-002, 1.7336143E-003, 1.9973892E-003, 1.2973737E-003, 5.4927805E+002
 2.2005514E+001, 7.4029226E-002, 1.1696405E-001, 7.3955435E-002, 2.3670789E-003, 2.9246669E-003, 1.4323039E-003, 5.2964277E+002
 2.3002248E+001, 7.2713078E-002, 1.1757137E-001, 7.4620486E-002, 2.6254245E-003, 3.0886675E-003, 1.4930048E-003, 5.2330559E+002
 2.4006152E+001, 7.1687303E-002, 1.1813333E-001, 7.5096104E-002, 2.7541974E-003, 3.3062869E-003, 1.5253116E-003, 5.2251148E+002
 2.5001646E+001, 7.0110754E-002, 1.1821885E-001, 7.5977468E-002, 3.4178307E-003, 4.2437258E-003, 1.6695824E-003, 5.1542317E+002
 2.6002700E+001, 6.9944688E-002, 1.1788728E-001, 7.6095911E-002, 3.6608549E-003, 4.8554376E-003, 1.7195467E-003, 5.0797291E+002
 2.7000873E+001, 6.8899540E-002, 1.1823396E-001, 7.6621502E-002, 3.9252193E-003, 5.2686712E-003, 1.7794902E-003, 5.0261462E+002
 2.8007761E+001, 6.8250619E-002, 1.1836350E-001, 7.7008599E-002, 4.1744097E-003, 5.3178479E-003, 1.8344320E-003, 5.0210948E+002
 2.9002293E+001, 6.7316712E-002, 1.1837405E-001, 7.7547662E-002, 4.5985678E-003, 5.8471518E-003, 1.9262929E-003, 5.0223453E+002
 3.0000873E+001, 6.8078914E-002, 1.1780696E-001, 7.7204490E-002, 4.5781215E-003, 5.9168856E-003, 1.9173855E-003, 4.8836210E+002
 3.1006460E+001, 6.7230636E-002, 1.1771496E-001, 7.7641054E-002, 4.9686683E-003, 6.9267490E-003, 2.0011653E-003, 4.8574503E+002
 3.2006045E+001, 6.6071003E-002, 1.1809644E-001, 7.8238831E-002, 5.2745798E-003, 7.3009849E-003, 2.0703733E-003, 4.8400584E+002
 3.3003953E+001, 6.6066261E-002, 1.1792323E-001, 7.8220397E-002, 5.3386933E-003, 7.7764835E-003, 2.0828782E-003, 4.7784786E+002
 3.4004048E+001, 6.5592562E-002, 1.1780699E-001, 7.8498367E-002, 5.6121341E-003, 8.2565602E-003, 2.1411257E-003, 4.7947253E+002
 3.5009512E+001, 6.5905749E-002, 1.1725555E-001, 7.8384995E-002, 5.7684141E-003, 8.7419017E-003, 2.1705822E-003, 4.7521270E+002
 3.6002020E+001, 6.5547276E-002, 1.1728025E-001, 7.8568438E-002, 5.9039891E-003, 9.0497613E-003, 2.2001133E-003, 4.6875064E+002
 3.7008544E+001, 6.4947829E-002, 1.1715035E-001, 7.8922301E-002, 6.2438709E-003, 9.6103504E-003, 2.2726290E-003, 4.7175351E+002
 3.8000322E+001, 6.5091849E-002, 1.1686652E-001, 7.8813315E-002, 6.2859618E-003, 1.0245355E-002, 2.2794950E-003, 4.7043027E+002
 3.9008556E+001, 6.4765993E-002, 1.1720171E-001, 7.8935148E-002, 6.2338853E-003, 1.0186787E-002, 2.2708772E-003, 4.6400032E+002
 4.0009903E+001, 6.4607314E-002, 1.1628806E-001, 7.9195342E-002, 6.8474858E-003, 1.1037425E-002, 2.3964218E-003, 4.6315371E+002
 4.1003074E+001, 6.4604844E-002, 1.1650311E-001, 7.9089643E-002, 6.6698449E-003, 1.1278415E-002, 2.3596872E-003, 4.6086645E+002
 4.2008450E+001, 6.5328907E-002, 1.1562996E-001, 7.8722568E-002, 6.7698571E-003, 1.2258587E-002, 2.3744276E-003, 4.6408577E+002
 4.3005858E+001, 6.4893527E-002, 1.1587678E-001, 7.8959565E-002, 6.8475922E-003, 1.2116977E-002, 2.3931980E-003, 4.5679720E+002
 4.4002858E+001, 6.4905303E-002, 1.1539260E-001, 7.9035627E-002, 7.1237786E-003, 1.2551495E-002, 2.4491302E-003, 4.5646549E+002
 4.5003682E+001, 6.5218786E-002, 1.1501988E-001, 7.8843266E-002, 7.1391530E-003, 1.3172516E-002, 2.4495126E-003, 4.5301502E+002
 4.6001015E+001, 6.5505070E-002, 1.1431718E-001, 7.8748187E-002, 7.3781051E-003, 1.3954850E-002, 2.4956623E-003, 4.4932639E+002
 4.7008759E+001, 6.5661789E-002, 1.1399320E-001, 7.8699401E-002, 7.4840390E-003, 1.4243226E-002, 2.5160229E-003, 4.4693419E+002
 4.8000169E+001, 6.5809827E-002, 1.1409970E-001, 7.8580635E-002, 7.3425861E-003, 1.4152419E-002, 2.4862584E-003, 4.4731913E+002
 4.9006417E+001, 6.5872745E-002, 1.1347872E-001, 7.8563527E-002, 7.6083636E-003, 1.5220858E-002, 2.5388597E-003, 4.4518006E+002
 5.0009515E+001, 6.5671449E-002, 1.1343687E-001, 7.8662293E-002, 7.7063759E-003, 1.5529877E-002, 2.5597372E-003, 4.4222983E+002
 5.1000846E+001, 6.5948585E-002, 1.1284341E-001, 7.8586870E-002, 7.9112541E-003, 1.6013156E-002, 2.5993765E-003, 4.3873500E+002
 5.2005207E+001, 6.6342198E-002, 1.1276158E-001, 7.8322901E-002, 7.7392951E-003, 1.6170434E-002, 2.5615236E-003, 4.3562228E+002
 5.3008403E+001, 6.6059012E-002, 1.1246610E-001, 7.8547891E-002, 8.0495776E-003, 1.6538727E-002, 2.6263248E-003, 4.3332207E+002
 5.4007443E+001, 6.6536794E-002, 1.1226818E-001, 7.8265540E-002, 7.9143730E-003, 1.6688257E-002, 2.5955064E-003, 4.3350038E+002
 5.5006966E+001, 6.6385292E-002, 1.1185612E-001, 7.8313178E-002, 8.1393556E-003, 1.7836658E-002, 2.6409331E-003, 4.3536177E+002
 5.6001991E+001, 6.6376244E-002, 1.1184453E-001, 7.8349158E-002, 8.1722244E-003, 1.7674310E-002, 2.6479525E-003, 4.3383828E+002
 5.7003516E+001, 6.6750895E-002, 1.1141098E-001, 7.8137728E-002, 8.1993322E-003, 1.8278648E-002, 2.6503927E-003, 4.3191713E+002
 5.8005175E+001, 6.6929258E-002, 1.1109231E-001, 7.7982923E-002, 8.2215073E-003, 1.9123154E-002, 2.6526751E-003, 4.3136746E+002
 5.9010448E+001, 6.7233674E-002, 1.1131050E-001, 7.7746297E-002, 7.9367974E-003, 1.8890937E-002, 2.5927966E-003, 4.2846427E+002
 6.0000392E+001, 6.7175492E-002, 1.1119663E-001, 7.7705076E-002, 7.9577392E-003, 1.9613130E-002, 2.5964308E-003, 4.2852297E+002
 6.1005439E+001, 6.7352228E-002, 1.1104278E-001, 7.7583874E-002, 7.9312916E-003, 1.9931273E-002, 2.5894933E-003, 4.2688819E+002
 6.2006598E+001, 6.7273960E-002, 1.1079404E-001, 7.7606108E-002, 8.0618781E-003, 2.0609987E-002, 2.6157847E-003, 4.2863027E+002
 6.3006113E+001, 6.7446740E-002, 1.1057931E-001, 7.7488902E-002, 8.0660015E-003, 2.1039876E-002, 2.6149811E-003, 4.2466327E+002
 6.4007701E+001, 6.7813864E-002, 1.1059334E-001, 7.7181859E-002, 7.8184177E-003, 2.1385291E-002, 2.5615240E-003, 4.2555474E+002
 6.5002430E+001, 6.8197976E-002, 1.1046389E-001, 7.6863225E-002, 7.6263629E-003, 2.2014669E-002, 2.5189486E-003, 4.2327307E+002
 6.6000928E+001, 6.8235081E-002, 1.1037691E-001, 7.6835005E-002, 7.6433456E-003, 2.2206468E-002, 2.5219363E-003, 4.2560348E+002
 6.7002416E+001, 6.8795523E-002, 1.1025759E-001, 7.6483822E-002, 7.4186125E-003, 2.2283162E-002, 2.4723677E-003, 4.2052920E+002
 6.8008826E+001, 6.8821602E-002, 1.1013430E-001, 7.6343355E-002, 7.3664539E-003, 2.3287803E-002, 2.4601121E-003, 4.2533174E+002
 6.9001009E+001, 6.9247373E-002, 1.1003097E-001, 7.6070373E-002, 7.1967138E-003, 2.3409382E-002, 2.4225690E-003, 4.2061306E+002
 7.0006055E+001, 6.9583917E-002, 1.0995383E-001, 7.5721618E-002, 6.9589499E-003, 2.4320309E-002, 2.3705184E-003, 4.2196817E+002
 7.1000686E+001, 6.9768407E-002, 1.0986949E-001, 7.5601637E-002, 6.9019485E-003, 2.4461528E-002, 2.3575188E-003, 4.2132853E+002
 7.2007351E+001, 6.9803264E-002, 1.0998233E-001, 7.5512219E-002, 6.7821401E-003, 2.4647773E-002, 2.3324890E-003, 4.1972694E+002
 7.3002117E+001, 7.0371457E-002, 1.0966230E-001, 7.5117947E-002, 6.6148563E-003, 2.5354862E-002, 2.2937667E-003, 4.1924297E+002
 7.4002921E+001, 7.0445901E-002, 1.0958031E-001, 7.5027664E-002, 6.5815065E-003, 2.5765781E-002, 2.2859045E-003, 4.2093862E+002
 7.5004996E+001, 7.0705470E-002, 1.0960179E-001, 7.4868889E-002, 6.4457760E-003, 2.5625962E-002, 2.2567057E-003, 4.1539262E+002
 7.6009274E+001, 7.1194259E-002, 1.0940364E-001, 7.4468423E-002, 6.2202736E-003, 2.6461793E-002, 2.2063510E-003, 4.1393015E+002
 7.7007346E+001, 7.1055647E-002, 1.0949994E-001, 7.4502546E-002, 6.2054724E-003, 2.6637798E-002, 2.2039107E-003, 4.1617101E+002
 7.8002792E+001, 7.1344583E-002, 1.0924735E-001, 7.4373435E-002, 6.2154304E-003, 2.6732340E-002, 2.2040685E-003, 4.1290866E+002
 7.9004046E+001, 7.1536595E-002, 1.0924874E-001, 7.4121202E-002, 6.0186380E-003, 2.7492429E-002, 2.1615032E-003, 4.1582538E+002
 8.0011520E+001, 7.1841995E-002, 1.0937028E-001, 7.3856462E-002, 5.7560237E-003, 2.7620862E-002, 2.1056429E-003, 4.1312941E+002
 8.1010451E+001, 7.1807041E-002, 1.0935662E-001, 7.3791368E-002, 5.7131183E-003, 2.8196594E-002, 2.0962542E-003, 4.1712768E+002
 8.2008317E+001, 7.1993875E-002, 1.0928015E-001, 7.3675676E-002, 5.6557988E-003, 2.8285956E-002, 2.0832478E-003, 4.1569883E+002
 8.3006839E+001, 7.2278502E-002, 1.0906307E-001, 7.3482476E-002, 5.6008858E-003, 2.8725445E-002, 2.0696519E-003, 4.1437968E+002
 8.4003241E+001, 7.2349668E-002, 1.0919055E-001, 7.3297449E-002, 5.4007925E-003, 2.9323860E-002, 2.0273685E-003, 4.1508944E+002
 8.5011781E+001, 7.2313088E-002, 1.0929392E-001, 7.3310692E-002, 5.3649715E-003, 2.9190337E-002, 2.0204346E-003, 4.1286137E+002
 8.6010140E+001, 7.2378948E-002, 1.0921111E-001, 7.3235293E-002, 5.3435130E-003, 2.9546403E-002, 2.0151386E-003, 4.1336973E+002
 8.7004429E+001, 7.2581740E-002, 1.0899475E-001, 7.3088523E-002, 5.3252424E-003, 3.0037661E-002, 2.0094770E-003, 4.1326287E+002
 8.8003884E+001, 7.2501277E-002, 1.0911490E-001, 7.3113502E-002, 5.2916327E-003, 2.9981122E-002, 2.0031545E-003, 4.1141329E+002
 8.9008187E+001, 7.2491068E-002, 1.0900833E-001, 7.3105656E-002, 5.3338822E-003, 3.0282383E-002, 2.0114548E-003, 4.1290592E+002
 9.0000278E+001, 7.2527015E-002, 1.0929344E-001, 7.2979195E-002, 5.1080872E-003, 3.0353854E-002, 1.9648542E-003, 4.1399451E+002
 9.1009966E+001, 7.2632997E-002, 1.0904286E-001, 7.2821039E-002, 5.0983413E-003, 3.1386306E-002, 1.9607691E-003, 4.1352520E+002
 9.2003244E+001, 7.2615831E-002, 1.0918993E-001, 7.2804912E-002, 5.0200282E-003, 3.1267700E-002, 1.9449868E-003, 4.1323110E+002
 9.3002019E+001, 7.2699594E-002, 1.0912384E-001, 7.2800613E-002, 5.0449989E-003, 3.1075813E-002, 1.9498662E-003, 4.0940339E+002
 9.4006349E+001, 7.2819234E-002, 1.0899759E-001, 7.2652631E-002, 4.9867088E-003, 3.1743195E-002, 1.9362589E-003, 4.1647290E+002
 9.5000486E+001, 7.2686660E-002, 1.0914262E-001, 7.2657147E-002, 4.9272125E-003, 3.1981368E-002, 1.9245335E-003, 4.1837720E+002
 9.6001014E+001, 7.2968896E-002, 1.0882343E-001, 7.2513292E-002, 4.9560646E-003, 3.2326467E-002, 1.9282541E-003, 4.1316847E+002
 9.7011687E+001, 7.2749914E-002, 1.0893850E-001, 7.2549984E-002, 4.9362459E-003, 3.2784255E-002, 1.9248780E-003, 4.1583398E+002
 9.8002095E+001, 7.2523793E-002, 1.0925393E-001, 7.2628511E-002, 4.8581634E-003, 3.2617547E-002, 1.9104765E-003, 4.1491611E+002
 9.9003633E+001, 7.2855904E-002, 1.0901649E-001, 7.2508067E-002, 4.8671138E-003, 3.2448733E-002, 1.9105349E-003, 4.1034232E+002
 1.0000038E+002, 7.2726864E-002, 1.0922126E-001, 7.2530678E-002, 4.7944321E-003, 3.2442289E-002, 1.8964278E-003, 4.1054215E+002
 1.0100353E+002, 7.3066399E-002, 1.0882310E-001, 7.2348217E-002, 4.8283518E-003, 3.2943640E-002, 1.9006212E-003, 4.1145373E+002
 1.0200734E+002, 7.2651589E-002, 1.0896644E-001, 7.2510336E-002, 4.8951909E-003, 3.3384274E-002, 1.9162186E-003, 4.1367545E+002
 1.0301161E+002, 7.2925849E-002, 1.0890395E-001, 7.2331368E-002, 4.7816276E-003, 3.3473923E-002, 1.8911533E-003, 4.1657125E+002
 1.0400964E+002, 7.2993981E-002, 1.0877948E-001, 7.2315786E-002, 4.8245961E-003, 3.3532153E-002, 1.8994664E-003, 4.1155707E+002
 1.0500246E+002, 7.3031011E-002, 1.0860181E-001, 7.2289959E-002, 4.8842996E-003, 3.3888262E-002, 1.9109814E-003, 4.1144112E+002
 1.0600208E+002, 7.2841019E-002, 1.0881209E-001, 7.2338250E-002, 4.8298752E-003, 3.3965737E-002, 1.9008685E-003, 4.1554362E+002
 1.0700202E+002, 7.2895334E-002, 1.0860397E-001, 7.2233478E-002, 4.8427032E-003, 3.4798933E-002, 1.9020025E-003, 4.1308420E+002
 1.0800953E+002, 7.2697140E-002, 1.0883228E-001, 7.2385283E-002, 4.8593438E-003, 3.4233765E-002, 1.9074056E-003, 4.1671461E+002
 1.0900543E+002, 7.2772622E-002, 1.0866796E-001, 7.2353693E-002, 4.9079178E-003, 3.4439117E-002, 1.9166173E-003, 4.1215978E+002
 1.1000876E+002, 7.2878551E-002, 1.0860883E-001, 7.2204002E-002, 4.8183104E-003, 3.5041838E-002, 1.8967642E-003, 4.1484124E+002
 1.1100769E+002, 7.2700658E-002, 1.0884307E-001, 7.2337522E-002, 4.8179411E-003, 3.4493700E-002, 1.8985338E-003, 4.1131992E+002
 1.1200714E+002, 7.2778009E-002, 1.0859681E-001, 7.2289611E-002, 4.8909666E-003, 3.4953949E-002, 1.9123893E-003, 4.1314638E+002
 1.1300774E+002, 7.3054713E-002, 1.0845203E-001, 7.2220567E-002, 4.8984067E-003, 3.4514750E-002, 1.9128524E-003, 4.1039722E+002
 1.1400347E+002, 7.2669533E-002, 1.0867944E-001, 7.2372959E-002, 4.9193627E-003, 3.4726478E-002, 1.9191857E-003, 4.1384405E+002
 1.1500038E+002, 7.3164638E-002, 1.0809620E-001, 7.2085022E-002, 4.9533131E-003, 3.5598264E-002, 1.9219241E-003, 4.1322069E+002
 1.1600733E+002, 7.2711399E-002, 1.0857185E-001, 7.2333434E-002, 4.9369194E-003, 3.5009121E-002, 1.9221350E-003, 4.1422463E+002
 1.1700144E+002, 7.2843083E-002, 1.0832361E-001, 7.2244613E-002, 4.9785903E-003, 3.5500407E-002, 1.9291909E-003, 4.1249986E+002
 1.1800213E+002, 7.2715688E-002, 1.0858527E-001, 7.2311782E-002, 4.9142516E-003, 3.5098909E-002, 1.9173370E-003, 4.1264743E+002
 1.1900679E+002, 7.2594227E-002, 1.0838583E-001, 7.2363160E-002, 5.0456597E-003, 3.5679752E-002, 1.9441955E-003, 4.1359236E+002
 1.2000987E+002, 7.2670755E-002, 1.0840343E-001, 7.2307921E-002, 4.9941266E-003, 3.5668520E-002, 1.9331844E-003, 4.1342736E+002
 1.2101028E+002, 7.2859635E-002, 1.0807165E-001, 7.2217191E-002, 5.0709552E-003, 3.6098178E-002, 1.9471865E-003, 4.1404097E+002
 1.2201022E+002, 7.2514478E-002, 1.0847514E-001, 7.2384887E-002, 5.0234583E-003, 3.5701195E-002, 1.9400980E-003, 4.1352838E+002
 1.2300706E+002, 7.2969724E-002, 1.0810879E-001, 7.2106054E-002, 4.9673027E-003, 3.6254916E-002, 1.9250536E-003, 4.1075856E+002
 1.2400467E+002, 7.2373856E-002, 1.0854704E-001, 7.2485415E-002, 5.0704050E-003, 3.5522325E-002, 1.9508235E-003, 4.1345289E+002
 1.2500043E+002, 7.2684119E-002, 1.0815198E-001, 7.2299007E-002, 5.1004542E-003, 3.6163918E-002, 1.9542047E-003, 4.1057541E+002
 1.2600115E+002, 7.2317512E-002, 1.0842067E-001, 7.2433485E-002, 5.0887698E-003, 3.6327846E-002, 1.9538018E-003, 4.1586968E+002
 1.2700925E+002, 7.2482610E-002, 1.0812906E-001, 7.2336542E-002, 5.1431757E-003, 3.6815813E-002, 1.9632702E-003, 4.1270213E+002
 1.2801169E+002, 7.2446221E-002, 1.0824169E-001, 7.2406107E-002, 5.1461853E-003, 3.6314331E-002, 1.9648095E-003, 4.1474283E+002
 1.2900196E+002, 7.2835311E-002, 1.0793237E-001, 7.2209054E-002, 5.1279913E-003, 3.6524529E-002, 1.9584281E-003, 4.0854012E+002
 1.3000028E+002, 7.2663502E-002, 1.0808179E-001, 7.2292338E-002, 5.1273917E-003, 3.6429500E-002, 1.9594794E-003, 4.1132428E+002
 1.3100242E+002, 7.2708217E-002, 1.0797576E-001, 7.2250782E-002, 5.1426419E-003, 3.6709785E-002, 1.9619420E-003, 4.1182393E+002
 1.3200704E+002, 7.2241891E-002, 1.0831493E-001, 7.2538429E-002, 5.2179889E-003, 3.6201204E-002, 1.9809242E-003, 4.0978762E+002
 1.3300196E+002, 7.2424390E-002, 1.0805272E-001, 7.2379364E-002, 5.2113782E-003, 3.6943555E-002, 1.9774241E-003, 4.1384044E+002
 1.3400924E+002, 7.2567865E-002, 1.0789864E-001, 7.2340941E-002, 5.2488574E-003, 3.6887862E-002, 1.9843150E-003, 4.1144995E+002
 1.3501189E+002, 7.2714966E-002, 1.0779987E-001, 7.2207614E-002, 5.1888618E-003, 3.7295918E-002, 1.9705547E-003, 4.1633586E+002
 1.3600390E+002, 7.2585913E-002, 1.0777296E-001, 7.2313739E-002, 5.2844230E-003, 3.7229038E-002, 1.9910181E-003, 4.1114607E+002
 1.3700671E+002, 7.2430371E-002, 1.0784878E-001, 7.2397555E-002, 5.3171176E-003, 3.7208103E-002, 1.9986916E-003, 4.1209835E+002
 1.3800647E+002, 7.2382716E-002, 1.0795959E-001, 7.2419721E-002, 5.2849606E-003, 3.7050759E-002, 1.9926092E-003, 4.1329914E+002
 1.3900190E+002, 7.2270928E-002, 1.0792437E-001, 7.2445447E-002, 5.3225534E-003, 3.7426401E-002, 2.0004665E-003, 4.1571058E+002
 1.4000020E+002, 7.2408267E-002, 1.0790950E-001, 7.2435095E-002, 5.3188113E-003, 3.6947868E-002, 1.9995370E-003, 4.0816595E+002
 1.4100273E+002, 7.2583693E-002, 1.0775803E-001, 7.2350374E-002, 5.3191719E-003, 3.7040778E-002, 1.9984178E-003, 4.0931577E+002
 1.4201107E+002, 7.2518415E-002, 1.0767464E-001, 7.2357790E-002, 5.3636449E-003, 3.7431147E-002, 2.0073829E-003, 4.1162712E+002
 1.4300010E+002, 7.2428683E-002, 1.0759950E-001, 7.2447196E-002, 5.4674572E-003, 3.7399165E-002, 2.0292505E-003, 4.1359294E+002
 1.4400787E+002, 7.2677249E-002, 1.0755688E-001, 7.2336335E-002, 5.3974224E-003, 3.7134756E-002, 2.0137589E-003, 4.1020281E+002
 1.4501120E+002, 7.2430004E-002, 1.0760668E-001, 7.2406838E-002, 5.4333749E-003, 3.7629509E-002, 2.0219340E-003, 4.1051901E+002
 1.4600622E+002, 7.2541991E-002, 1.0755393E-001, 7.2352530E-002, 5.4136197E-003, 3.7603557E-002, 2.0172424E-003, 4.1394530E+002
 1.4700340E+002, 7.2569439E-002, 1.0752849E-001, 7.2308097E-002, 5.3906506E-003, 3.7814649E-002, 2.0120724E-003, 4.1383926E+002
 1.4800625E+002, 7.2530559E-002, 1.0759418E-001, 7.2330333E-002, 5.3787326E-003, 3.7709312E-002, 2.0100125E-003, 4.1168590E+002
 1.4900718E+002, 7.2175016E-002, 1.0767360E-001, 7.2508577E-002, 5.4856077E-003, 3.7929255E-002, 2.0337661E-003, 4.1485715E+002
 1.5000971E+002, 7.2326046E-002, 1.0754960E-001, 7.2373626E-002, 5.4356728E-003, 3.8380745E-002, 2.0219834E-003, 4.1599003E+002
 1.5100860E+002, 7.2609273E-002, 1.0732333E-001, 7.2296014E-002, 5.4731958E-003, 3.8128156E-002, 2.0283120E-003, 4.1404237E+002
 1.5200975E+002, 7.2449303E-002, 1.0748482E-001, 7.2435406E-002, 5.5097817E-003, 3.7612453E-002, 2.0375025E-003, 4.1436800E+002
 1.5300556E+002, 7.2680097E-002, 1.0718099E-001, 7.2262637E-002, 5.5105836E-003, 3.8320642E-002, 2.0352770E-003, 4.0915607E+002
 1.5401069E+002, 7.2181016E-002, 1.0767704E-001, 7.2527225E-002, 5.4981843E-003, 3.7781961E-002, 2.0365138E-003, 4.1377148E+002
