s,,,,,,,
Time,"O2 EXHAUST","CO2 EXHAUST","H2O EXHAUST","CO EXHAUST","FUEL EXHAUST","SOOT EXHAUST","TEMP EXHAUST"
 0.0000000E+000, 2.3099739E-001, 5.9146498E-004, 5.9412092E-003, 0.0000000E+000, 0.0000000E+000, 0.0000000E+000, 2.0000000E+001
 1.0020433E+000, 2.3099739E-001, 5.9146498E-004, 5.9412092E-003, 6.7376500E-033, 6.5843724E-032, 1.0261476E-032, 2.0520127E+001
 2.0037578E+000, 2.2481151E-001, 6.2852907E-003, 7.5901732E-003, 1.7169131E-005, 2.8857110E-004, 3.7895305E-004, 8.0143570E+001
 3.0023763E+000, 2.2184534E-001, 9.0098203E-003, 8.3946431E-003, 5.2361471E-005, 3.1080441E-004, 5.6606439E-004, 1.0464526E+002
 4.0062048E+000, 2.1762835E-001, 1.2889178E-002, 9.5276820E-003, 8.0701274E-005, 4.2973576E-004, 8.2782084E-004, 1.4276214E+002
 5.0056580E+000, 2.1423880E-001, 1.6017978E-002, 1.0441024E-002, 1.0222516E-004, 4.8284624E-004, 1.0386466E-003, 1.7041170E+002
 6.0059477E+000, 2.1064857E-001, 1.9313763E-002, 1.1405207E-002, 1.2937750E-004, 6.0045881E-004, 1.2616871E-003, 2.0086629E+002
 7.0003640E+000, 2.0545825E-001, 2.4130294E-002, 1.2808883E-002, 1.5727033E-004, 5.9062673E-004, 1.5851085E-003, 2.3424361E+002
 8.0020721E+000, 2.0269395E-001, 2.6697029E-002, 1.3550398E-002, 1.6080432E-004, 6.3826045E-004, 1.7550328E-003, 2.5750244E+002
 9.0041209E+000, 1.9635041E-001, 3.2597420E-002, 1.5266679E-002, 1.8868965E-004, 5.9573181E-004, 2.1498848E-003, 2.9288396E+002
 1.0002543E+001, 1.9201844E-001, 3.6642328E-002, 1.6436513E-002, 1.9543259E-004, 5.5974063E-004, 2.4179150E-003, 3.1592075E+002
 1.1001473E+001, 1.8763049E-001, 4.0732209E-002, 1.7623129E-002, 2.0912178E-004, 5.2080749E-004, 2.6903987E-003, 3.3345049E+002
 1.2004137E+001, 1.8236008E-001, 4.5667494E-002, 1.9047239E-002, 2.1110291E-004, 4.4458422E-004, 3.0160880E-003, 3.5290148E+002
 1.3007738E+001, 1.7736793E-001, 5.0342123E-002, 2.0395343E-002, 2.1161204E-004, 3.8004483E-004, 3.3242832E-003, 3.6911527E+002
 1.4004525E+001, 1.7233536E-001, 5.5060476E-002, 2.1754322E-002, 2.0885538E-004, 3.0511355E-004, 3.6346595E-003, 3.8481283E+002
 1.5000104E+001, 1.6879558E-001, 5.8372962E-002, 2.2710212E-002, 2.1037204E-004, 2.6319176E-004, 3.8532975E-003, 3.9253623E+002
 1.6007651E+001, 1.6264783E-001, 6.4132260E-002, 2.4368916E-002, 2.0706603E-004, 1.9261086E-004, 4.2321612E-003, 4.0678894E+002
 1.7010853E+001, 1.5788389E-001, 6.8592948E-002, 2.5653845E-002, 2.0500644E-004, 1.4559961E-004, 4.5257062E-003, 4.1634710E+002
 1.8003790E+001, 1.5630203E-001, 7.0069394E-002, 2.6080799E-002, 2.0740774E-004, 1.3551152E-004, 4.6235281E-003, 4.1420210E+002
 1.9002122E+001, 1.5213505E-001, 7.3966266E-002, 2.7204545E-002, 2.0795712E-004, 1.0442242E-004, 4.8804740E-003, 4.2045721E+002
 2.0006436E+001, 1.4725483E-001, 7.8525201E-002, 2.8520374E-002, 2.1084087E-004, 7.9045124E-005, 5.1815550E-003, 4.2538000E+002
 2.1003816E+001, 1.4440446E-001, 8.1186555E-002, 2.9289225E-002, 2.1382501E-004, 6.3687552E-005, 5.3575949E-003, 4.2710665E+002
 2.2006594E+001, 1.4165502E-001, 8.3754275E-002, 3.0030213E-002, 2.1526847E-004, 5.3623563E-005, 5.5271335E-003, 4.2840673E+002
 2.3003534E+001, 1.3877557E-001, 8.6440487E-002, 3.0806779E-002, 2.1930759E-004, 4.3275875E-005, 5.7050381E-003, 4.2974690E+002
 2.4003818E+001, 1.3564708E-001, 8.9359524E-002, 3.1650074E-002, 2.2267386E-004, 3.5127494E-005, 5.8981432E-003, 4.3230054E+002
 2.5007460E+001, 1.3278371E-001, 9.2028994E-002, 3.2422183E-002, 2.2743180E-004, 2.8946612E-005, 6.0750986E-003, 4.3264408E+002
 2.6010156E+001, 1.2914765E-001, 9.5419416E-002, 3.3402279E-002, 2.3251659E-004, 2.3504390E-005, 6.2996397E-003, 4.3435726E+002
 2.7005089E+001, 1.2685566E-001, 9.7555383E-002, 3.4020312E-002, 2.3676455E-004, 2.0021197E-005, 6.4413246E-003, 4.3501691E+002
 2.8001905E+001, 1.2477043E-001, 9.9496574E-002, 3.4582832E-002, 2.4218411E-004, 1.8290092E-005, 6.5704238E-003, 4.3409167E+002
 2.9008370E+001, 1.2173769E-001, 1.0232456E-001, 3.5400162E-002, 2.4610938E-004, 1.4787609E-005, 6.7576482E-003, 4.3807737E+002
 3.0009117E+001, 1.1990051E-001, 1.0403708E-001, 3.5895335E-002, 2.4891503E-004, 1.3322247E-005, 6.8711157E-003, 4.3571296E+002
 3.1003714E+001, 1.1679587E-001, 1.0692659E-001, 3.6732819E-002, 2.5728814E-004, 1.2295259E-005, 7.0633487E-003, 4.3603038E+002
 3.2000534E+001, 1.1517032E-001, 1.0844054E-001, 3.7171077E-002, 2.6069321E-004, 1.2092033E-005, 7.1638581E-003, 4.3395773E+002
 3.3010615E+001, 1.1317162E-001, 1.1030304E-001, 3.7709834E-002, 2.6414753E-004, 1.1066302E-005, 7.2873494E-003, 4.3529717E+002
 3.4008388E+001, 1.1023229E-001, 1.1303241E-001, 3.8503717E-002, 2.7721793E-004, 1.1947039E-005, 7.4700354E-003, 4.3544837E+002
 3.5009849E+001, 1.0840162E-001, 1.1473011E-001, 3.8998498E-002, 2.8714107E-004, 1.3269565E-005, 7.5840529E-003, 4.3632472E+002
 3.6008993E+001, 1.0631831E-001, 1.1665968E-001, 3.9561862E-002, 3.0027099E-004, 1.6218489E-005, 7.7140398E-003, 4.3652614E+002
 3.7010146E+001, 1.0403211E-001, 1.1875921E-001, 4.0182967E-002, 3.2944852E-004, 2.4476016E-005, 7.8586696E-003, 4.3482109E+002
 3.8000169E+001, 1.0170441E-001, 1.2091948E-001, 4.0811651E-002, 3.4042763E-004, 2.7245365E-005, 8.0033994E-003, 4.3716639E+002
 3.9007210E+001, 1.0082458E-001, 1.2171969E-001, 4.1052170E-002, 3.5847699E-004, 3.0304179E-005, 8.0600091E-003, 4.3656321E+002
 4.0003428E+001, 9.8723580E-002, 1.2366396E-001, 4.1620524E-002, 3.7300035E-004, 3.4362349E-005, 8.1912631E-003, 4.3458981E+002
 4.1005925E+001, 9.6594378E-002, 1.2561464E-001, 4.2199835E-002, 4.0420372E-004, 4.2318469E-005, 8.3265173E-003, 4.3568050E+002
 4.2008963E+001, 9.3991921E-002, 1.2798514E-001, 4.2909791E-002, 4.5310299E-004, 5.8806169E-005, 8.4932348E-003, 4.3741031E+002
 4.3005601E+001, 9.2789973E-002, 1.2908403E-001, 4.3237237E-002, 4.7269692E-004, 6.3438724E-005, 8.5698600E-003, 4.3727439E+002
 4.4000099E+001, 9.0347747E-002, 1.3132393E-001, 4.3901087E-002, 5.0607063E-004, 7.4059144E-005, 8.7246410E-003, 4.3674153E+002
 4.5010285E+001, 8.8914013E-002, 1.3261873E-001, 4.4293780E-002, 5.4180151E-004, 8.8241921E-005, 8.8176386E-003, 4.3650361E+002
 4.6006266E+001, 8.7049319E-002, 1.3431891E-001, 4.4802452E-002, 5.7588418E-004, 9.7317413E-005, 8.9370001E-003, 4.3746375E+002
 4.7001687E+001, 8.5693707E-002, 1.3557386E-001, 4.5168448E-002, 5.8375316E-004, 1.0567307E-004, 9.0213975E-003, 4.3781857E+002
 4.8004988E+001, 8.3424730E-002, 1.3763825E-001, 4.5787774E-002, 6.2826692E-004, 1.2101775E-004, 9.1669996E-003, 4.3884467E+002
 4.9001691E+001, 8.1639889E-002, 1.3927575E-001, 4.6272330E-002, 6.5133002E-004, 1.3337944E-004, 9.2798676E-003, 4.3929512E+002
 5.0001196E+001, 8.1067465E-002, 1.3977588E-001, 4.6432097E-002, 6.7992717E-004, 1.4106581E-004, 9.3189620E-003, 4.3833173E+002
 5.1011275E+001, 7.8731681E-002, 1.4189607E-001, 4.7070910E-002, 7.3063376E-004, 1.5409174E-004, 9.4695696E-003, 4.3742959E+002
 5.2003831E+001, 7.6825838E-002, 1.4363954E-001, 4.7589403E-002, 7.5989615E-004, 1.6615063E-004, 9.5907503E-003, 4.3873054E+002
 5.3005562E+001, 7.6394422E-002, 1.4405290E-001, 4.7702859E-002, 7.4954942E-004, 1.7207183E-004, 9.6157754E-003, 4.3936053E+002
 5.4002611E+001, 7.4157180E-002, 1.4607094E-001, 4.8316304E-002, 8.0778023E-004, 1.9220007E-004, 9.7612646E-003, 4.3970112E+002
 5.5010599E+001, 7.2636212E-002, 1.4745550E-001, 4.8731157E-002, 8.3669862E-004, 2.0395919E-004, 9.8587173E-003, 4.3950412E+002
 5.6009742E+001, 7.1530580E-002, 1.4847232E-001, 4.9030302E-002, 8.4788714E-004, 2.1664271E-004, 9.9281317E-003, 4.4133563E+002
 5.7000915E+001, 7.0262552E-002, 1.4961301E-001, 4.9378944E-002, 8.8422983E-004, 2.2473560E-004, 1.0011104E-002, 4.4025529E+002
 5.8007126E+001, 6.8255247E-002, 1.5145108E-001, 4.9924463E-002, 9.1307251E-004, 2.3959383E-004, 1.0138430E-002, 4.4135334E+002
 5.9012147E+001, 6.7113281E-002, 1.5246781E-001, 5.0240347E-002, 9.5484849E-004, 2.4788972E-004, 1.0214398E-002, 4.4091278E+002
 6.0005755E+001, 6.5510963E-002, 1.5391726E-001, 5.0679382E-002, 9.9375974E-004, 2.5800684E-004, 1.0318270E-002, 4.4186895E+002
 6.1011403E+001, 6.3826512E-002, 1.5547008E-001, 5.1135757E-002, 1.0098789E-003, 2.6523411E-004, 1.0424067E-002, 4.4418702E+002
 6.2001186E+001, 6.3460460E-002, 1.5583078E-001, 5.1230430E-002, 9.9291205E-004, 2.6746112E-004, 1.0444201E-002, 4.4267099E+002
 6.3000031E+001, 6.1406471E-002, 1.5768567E-001, 5.1793611E-002, 1.0451678E-003, 2.8234648E-004, 1.0577657E-002, 4.4395054E+002
 6.4004231E+001, 5.9937433E-002, 1.5903266E-001, 5.2193239E-002, 1.0659728E-003, 2.8649356E-004, 1.0670894E-002, 4.4378480E+002
 6.5010414E+001, 5.8667450E-002, 1.6018697E-001, 5.2539455E-002, 1.0907794E-003, 3.0104834E-004, 1.0752290E-002, 4.4524306E+002
 6.6010905E+001, 5.8055351E-002, 1.6075455E-001, 5.2704731E-002, 1.0938517E-003, 3.0302637E-004, 1.0790356E-002, 4.4640360E+002
 6.7000956E+001, 5.5940433E-002, 1.6267508E-001, 5.3283445E-002, 1.1398488E-003, 3.1059512E-004, 1.0926795E-002, 4.4659462E+002
 6.8006628E+001, 5.5152872E-002, 1.6337790E-001, 5.3500478E-002, 1.1663599E-003, 3.2096427E-004, 1.0978800E-002, 4.4479077E+002
 6.9003013E+001, 5.3866511E-002, 1.6459312E-001, 5.3844882E-002, 1.1555243E-003, 3.1289618E-004, 1.1056567E-002, 4.4575832E+002
 7.0005166E+001, 5.2881042E-002, 1.6550259E-001, 5.4111608E-002, 1.1639367E-003, 3.1783161E-004, 1.1118311E-002, 4.4624087E+002
 7.1004795E+001, 5.1362461E-002, 1.6687944E-001, 5.4526860E-002, 1.1976448E-003, 3.2961345E-004, 1.1216283E-002, 4.4662892E+002
 7.2002365E+001, 5.0533664E-002, 1.6764348E-001, 5.4751909E-002, 1.2064317E-003, 3.2857307E-004, 1.1268523E-002, 4.4690086E+002
 7.3001918E+001, 4.9678498E-002, 1.6836774E-001, 5.4994411E-002, 1.2682529E-003, 3.4504052E-004, 1.1329513E-002, 4.4825772E+002
 7.4003658E+001, 4.8872588E-002, 1.6904314E-001, 5.5224602E-002, 1.3332815E-003, 3.5787613E-004, 1.1387970E-002, 4.4876065E+002
 7.5002808E+001, 4.6373250E-002, 1.7139388E-001, 5.5894768E-002, 1.3196277E-003, 3.5108147E-004, 1.1539972E-002, 4.4994624E+002
 7.6002870E+001, 4.6070226E-002, 1.7165792E-001, 5.5978857E-002, 1.3343151E-003, 3.6086368E-004, 1.1560523E-002, 4.4942023E+002
 7.7000802E+001, 4.5190433E-002, 1.7248966E-001, 5.6213942E-002, 1.3257718E-003, 3.5856516E-004, 1.1613508E-002, 4.4952284E+002
 7.8001105E+001, 4.4304625E-002, 1.7324260E-001, 5.6465976E-002, 1.3897803E-003, 3.6316335E-004, 1.1676857E-002, 4.4929158E+002
 7.9001913E+001, 4.3362730E-002, 1.7414085E-001, 5.6715882E-002, 1.3733097E-003, 3.6332172E-004, 1.1732526E-002, 4.5053860E+002
 8.0005249E+001, 4.2530739E-002, 1.7486778E-001, 5.6948392E-002, 1.4153837E-003, 3.7178547E-004, 1.1789458E-002, 4.5028558E+002
 8.1001330E+001, 4.0571916E-002, 1.7661146E-001, 5.7490817E-002, 1.4882366E-003, 3.8120533E-004, 1.1920000E-002, 4.5270139E+002
 8.2009906E+001, 4.0480719E-002, 1.7669191E-001, 5.7515747E-002, 1.4914665E-003, 3.8587940E-004, 1.1925994E-002, 4.5208580E+002
 8.3011720E+001, 3.9454457E-002, 1.7763744E-001, 5.7794328E-002, 1.5024969E-003, 3.8633894E-004, 1.1990676E-002, 4.5233743E+002
 8.4011118E+001, 3.8019205E-002, 1.7891738E-001, 5.8192042E-002, 1.5550830E-003, 3.8669666E-004, 1.2086309E-002, 4.5195201E+002
 8.5011087E+001, 3.7543495E-002, 1.7939370E-001, 5.8313689E-002, 1.5265070E-003, 3.8908534E-004, 1.2111574E-002, 4.5253496E+002
 8.6001061E+001, 3.7135698E-002, 1.7967415E-001, 5.8440969E-002, 1.6115301E-003, 4.0363362E-004, 1.2148289E-002, 4.5223745E+002
 8.7006943E+001, 3.5490267E-002, 1.8118259E-001, 5.8889600E-002, 1.6367506E-003, 3.9947038E-004, 1.2253113E-002, 4.5313476E+002
 8.8010419E+001, 3.5222028E-002, 1.8139562E-001, 5.8968617E-002, 1.6689600E-003, 4.0228238E-004, 1.2274060E-002, 4.5312692E+002
 8.9005840E+001, 3.4317556E-002, 1.8223579E-001, 5.9213829E-002, 1.6744161E-003, 3.9358469E-004, 1.2330602E-002, 4.5256963E+002
 9.0010655E+001, 3.4089551E-002, 1.8240139E-001, 5.9282658E-002, 1.7131124E-003, 4.0773069E-004, 1.2349814E-002, 4.5314113E+002
 9.1009860E+001, 3.2854072E-002, 1.8359541E-001, 5.9608332E-002, 1.6792232E-003, 3.9988165E-004, 1.2421241E-002, 4.5446660E+002
 9.2005627E+001, 3.2498280E-002, 1.8399752E-001, 5.9690871E-002, 1.6182347E-003, 3.9896604E-004, 1.2434665E-002, 4.5550653E+002
 9.3009523E+001, 3.0607990E-002, 1.8559818E-001, 6.0230609E-002, 1.7614467E-003, 4.0198897E-004, 1.2570868E-002, 4.5686080E+002
 9.4001796E+001, 3.0059340E-002, 1.8604408E-001, 6.0389940E-002, 1.8178287E-003, 4.1096790E-004, 1.2612346E-002, 4.5468890E+002
 9.5002602E+001, 2.9784695E-002, 1.8632833E-001, 6.0458231E-002, 1.7929305E-003, 4.1398441E-004, 1.2625741E-002, 4.5575580E+002
 9.6002344E+001, 2.9259824E-002, 1.8685268E-001, 6.0594228E-002, 1.7651324E-003, 4.0244599E-004, 1.2654337E-002, 4.5582949E+002
 9.7010848E+001, 2.8231155E-002, 1.8766527E-001, 6.0896715E-002, 1.8901152E-003, 4.2576640E-004, 1.2734693E-002, 4.5528313E+002
 9.8008033E+001, 2.8186561E-002, 1.8768869E-001, 6.0912283E-002, 1.9062182E-003, 4.2489687E-004, 1.2739690E-002, 4.5557276E+002
 9.9006877E+001, 2.6928016E-002, 1.8882096E-001, 6.1258886E-002, 1.9432145E-003, 4.2756229E-004, 1.2822246E-002, 4.5668027E+002
 1.0000848E+002, 2.7470931E-002, 1.8848160E-001, 6.1082327E-002, 1.7991822E-003, 4.1392890E-004, 1.2768995E-002, 4.5710644E+002
 1.0100043E+002, 2.5616635E-002, 1.9004206E-001, 6.1614567E-002, 1.9497757E-003, 4.0840316E-004, 1.2904131E-002, 4.5703707E+002
 1.0200680E+002, 2.6145901E-002, 1.8953381E-001, 6.1472462E-002, 1.9580349E-003, 4.2978775E-004, 1.2872406E-002, 4.5537182E+002
 1.0301073E+002, 2.5035967E-002, 1.9053342E-001, 6.1778265E-002, 1.9903137E-003, 4.2913568E-004, 1.2945208E-002, 4.5630741E+002
 1.0400103E+002, 2.3270566E-002, 1.9203789E-001, 6.2281413E-002, 2.1172418E-003, 4.2380961E-004, 1.3071579E-002, 4.5694512E+002
 1.0500845E+002, 2.4351063E-002, 1.9109989E-001, 6.1975972E-002, 2.0532703E-003, 4.3413417E-004, 1.2996042E-002, 4.5714215E+002
 1.0600856E+002, 2.3751831E-002, 1.9164971E-001, 6.2139225E-002, 2.0619722E-003, 4.3295026E-004, 1.3034145E-002, 4.5694779E+002
 1.0700601E+002, 2.2119272E-002, 1.9280452E-001, 6.2645968E-002, 2.3800004E-003, 4.6092340E-004, 1.3178449E-002, 4.5828588E+002
 1.0800736E+002, 2.2552894E-002, 1.9262298E-001, 6.2487792E-002, 2.1864696E-003, 4.5099904E-004, 1.3124986E-002, 4.5701732E+002
 1.0900902E+002, 2.1432092E-002, 1.9359716E-001, 6.2803904E-002, 2.2509245E-003, 4.4482548E-004, 1.3203012E-002, 4.5830499E+002
 1.1000767E+002, 2.1321303E-002, 1.9374377E-001, 6.2827605E-002, 2.2168054E-003, 4.2555390E-004, 1.3205357E-002, 4.5796865E+002
 1.1100763E+002, 2.1091301E-002, 1.9394593E-001, 6.2891477E-002, 2.2270797E-003, 4.2949529E-004, 1.3220884E-002, 4.5509311E+002
 1.1201167E+002, 2.0250581E-002, 1.9453293E-001, 6.3152946E-002, 2.3959352E-003, 4.5262893E-004, 1.3295779E-002, 4.5820517E+002
 1.1301069E+002, 2.0320446E-002, 1.9440006E-001, 6.3144836E-002, 2.4513207E-003, 4.7270135E-004, 1.3298899E-002, 4.5847288E+002
 1.1400092E+002, 1.9220800E-002, 1.9524405E-001, 6.3476341E-002, 2.6124711E-003, 4.6610382E-004, 1.3389079E-002, 4.5717330E+002
 1.1500842E+002, 1.8641927E-002, 1.9563017E-001, 6.3661369E-002, 2.7472256E-003, 4.6781567E-004, 1.3443421E-002, 4.5870777E+002
 1.1600958E+002, 1.8970557E-002, 1.9541734E-001, 6.3553154E-002, 2.6617622E-003, 4.8476819E-004, 1.3411069E-002, 4.5850806E+002
 1.1700475E+002, 1.8366573E-002, 1.9584926E-001, 6.3739768E-002, 2.7753748E-003, 4.9482788E-004, 1.3463898E-002, 4.5713546E+002
 1.1800668E+002, 1.8624973E-002, 1.9578225E-001, 6.3638200E-002, 2.6249512E-003, 4.8402783E-004, 1.3427226E-002, 4.5789798E+002
 1.1900718E+002, 1.8021917E-002, 1.9602947E-001, 6.3860722E-002, 2.9013661E-003, 4.8374100E-004, 1.3502790E-002, 4.5798403E+002
 1.2000144E+002, 1.6821434E-002, 1.9676628E-001, 6.4252167E-002, 3.2290507E-003, 5.2802153E-004, 1.3621617E-002, 4.5803804E+002
 1.2101015E+002, 1.6796182E-002, 1.9680616E-001, 6.4254678E-002, 3.2127483E-003, 5.3880719E-004, 1.3620750E-002, 4.5930534E+002
 1.2201136E+002, 1.7334830E-002, 1.9660042E-001, 6.4055492E-002, 2.9568935E-003, 5.1671356E-004, 1.3552327E-002, 4.5745205E+002
 1.2301108E+002, 1.6905443E-002, 1.9666798E-001, 6.4231770E-002, 3.2437047E-003, 5.4237758E-004, 1.3618281E-002, 4.5702869E+002
 1.2400090E+002, 1.5514557E-002, 1.9796751E-001, 6.4608537E-002, 3.2474417E-003, 5.1876720E-004, 1.3704729E-002, 4.5758356E+002
 1.2500163E+002, 1.5671150E-002, 1.9781693E-001, 6.4567701E-002, 3.2520911E-003, 5.1441485E-004, 1.3695801E-002, 4.5986244E+002
 1.2600776E+002, 1.5596344E-002, 1.9788564E-001, 6.4587372E-002, 3.2519075E-003, 5.2061140E-004, 1.3700291E-002, 4.5700417E+002
 1.2701231E+002, 1.5388927E-002, 1.9815507E-001, 6.4629109E-002, 3.1862249E-003, 5.1743445E-004, 1.3703964E-002, 4.5620523E+002
 1.2801150E+002, 1.4864035E-002, 1.9839017E-001, 6.4816563E-002, 3.4051758E-003, 5.3942199E-004, 1.3766408E-002, 4.5693405E+002
 1.2900383E+002, 1.5394014E-002, 1.9832087E-001, 6.4596153E-002, 3.0385755E-003, 5.0911355E-004, 1.3683231E-002, 4.5768848E+002
 1.3000102E+002, 1.3789845E-002, 1.9938375E-001, 6.5110745E-002, 3.4190812E-003, 5.0941734E-004, 1.3834872E-002, 4.5960602E+002
 1.3101117E+002, 1.3435595E-002, 1.9953644E-001, 6.5237655E-002, 3.5707967E-003, 5.3104362E-004, 1.3877468E-002, 4.5821752E+002
 1.3200772E+002, 1.3333778E-002, 1.9968389E-001, 6.5257080E-002, 3.5284327E-003, 5.1272790E-004, 1.3878101E-002, 4.5841284E+002
 1.3300500E+002, 1.3920404E-002, 1.9933033E-001, 6.5061738E-002, 3.3577438E-003, 5.1690720E-004, 1.3818200E-002, 4.5762799E+002
 1.3400399E+002, 1.3022862E-002, 1.9954690E-001, 6.5419065E-002, 3.8969074E-003, 5.4118350E-004, 1.3948085E-002, 4.5631983E+002
 1.3501052E+002, 1.3140206E-002, 1.9953496E-001, 6.5366041E-002, 3.8065739E-003, 5.6717203E-004, 1.3927929E-002, 4.5759617E+002
 1.3600075E+002, 1.2877293E-002, 1.9963286E-001, 6.5465086E-002, 3.9359848E-003, 5.6567366E-004, 1.3962130E-002, 4.5883256E+002
 1.3700259E+002, 1.2796578E-002, 1.9978356E-001, 6.5474243E-002, 3.8731635E-003, 5.4932522E-004, 1.3958591E-002, 4.5777996E+002
 1.3800867E+002, 1.2825370E-002, 1.9977197E-001, 6.5464587E-002, 3.8615280E-003, 5.4011821E-004, 1.3955332E-002, 4.5726780E+002
 1.3900980E+002, 1.2540837E-002, 1.9981244E-001, 6.5581566E-002, 4.0542249E-003, 5.6307916E-004, 1.3999319E-002, 4.5835259E+002
 1.4000491E+002, 1.2052246E-002, 1.9994514E-001, 6.5769781E-002, 4.3287456E-003, 6.0813273E-004, 1.4066932E-002, 4.5625654E+002
 1.4100065E+002, 1.1924623E-002, 2.0009128E-001, 6.5803480E-002, 4.3129110E-003, 5.6704508E-004, 1.4073167E-002, 4.5818978E+002
 1.4201158E+002, 1.1782032E-002, 1.9991415E-001, 6.5896130E-002, 4.5759928E-003, 6.1135998E-004, 1.4117906E-002, 4.5727160E+002
 1.4301282E+002, 1.1080720E-002, 2.0038367E-001, 6.6119533E-002, 4.7369861E-003, 6.1737587E-004, 1.4183372E-002, 4.5620405E+002
 1.4400193E+002, 1.1822837E-002, 1.9959920E-001, 6.5933645E-002, 4.8108577E-003, 6.5026539E-004, 1.4147512E-002, 4.5438034E+002
 1.4501074E+002, 1.1456043E-002, 2.0019534E-001, 6.5987562E-002, 4.5950343E-003, 6.1799642E-004, 1.4140521E-002, 4.5564626E+002
 1.4600597E+002, 1.1384729E-002, 2.0020206E-001, 6.6019382E-002, 4.6495186E-003, 6.0683113E-004, 1.4152647E-002, 4.5690772E+002
 1.4701047E+002, 1.0707745E-002, 2.0030530E-001, 6.6297645E-002, 5.1040939E-003, 6.4992236E-004, 1.4256926E-002, 4.5600710E+002
 1.4800275E+002, 1.0768722E-002, 2.0059070E-001, 6.6219515E-002, 4.8106479E-003, 6.1782373E-004, 1.4212812E-002, 4.5595735E+002
 1.4901135E+002, 1.0513230E-002, 2.0030847E-001, 6.6380257E-002, 5.2537542E-003, 6.8415952E-004, 1.4289227E-002, 4.5653324E+002
 1.5000573E+002, 1.0819390E-002, 2.0015566E-001, 6.6276221E-002, 5.1437700E-003, 6.5015475E-004, 1.4255571E-002, 4.5653707E+002
 1.5100157E+002, 1.0287236E-002, 2.0054840E-001, 6.6436845E-002, 5.2306563E-003, 6.7250445E-004, 1.4300087E-002, 4.5750845E+002
 1.5200069E+002, 1.0249030E-002, 2.0080571E-001, 6.6406911E-002, 5.0402225E-003, 6.5409337E-004, 1.4276211E-002, 4.5685259E+002
 1.5300343E+002, 1.0080702E-002, 2.0084979E-001, 6.6474662E-002, 5.1407294E-003, 6.4588547E-004, 1.4300667E-002, 4.5647497E+002
 1.5401061E+002, 9.8467074E-003, 2.0055664E-001, 6.6629262E-002, 5.5782258E-003, 6.9950168E-004, 1.4375160E-002, 4.5554177E+002
