s,,,,,,,
Time,O2 EXHAUST,CO2 EXHAUST,H2O EXHAUST,CO EXHAUST,FUEL EXHAUST,SOOT EXHAUST,TEMP EXHAUST
 0.0000000E+000, 2.3099739E-001, 5.9146498E-004, 5.9412092E-003, 0.0000000E+000, 0.0000000E+000, 0.0000000E+000, 2.0000000E+001
 1.0000929E+000, 2.3099739E-001, 5.9146498E-004, 5.9412092E-003, 4.4154860E-023, 2.2279292E-022, 5.3169671E-023, 2.2270387E+001
 2.0008728E+000, 2.1925413E-001, 9.4289797E-003, 1.0994626E-002, 8.4428944E-005, 1.9703667E-004, 8.8028108E-005, 1.3743154E+002
 3.0047962E+000, 2.0873888E-001, 1.7394260E-002, 1.5525480E-002, 1.4133782E-004, 2.3388926E-004, 1.6325367E-004, 2.3422607E+002
 4.0035566E+000, 1.9489037E-001, 2.7995139E-002, 2.1472648E-002, 1.5199532E-004, 1.8507366E-004, 2.4941612E-004, 3.4820931E+002
 5.0003326E+000, 1.8069004E-001, 3.8968799E-002, 2.7549584E-002, 1.0079307E-004, 6.0502228E-005, 3.2526486E-004, 4.3472135E+002
 6.0074463E+000, 1.6887732E-001, 4.8053360E-002, 3.2611740E-002, 8.3056731E-005, 1.4015611E-006, 3.9334193E-004, 4.8602779E+002
 7.0032957E+000, 1.5240489E-001, 6.0640260E-002, 3.9683779E-002, 1.0430599E-004, 3.0162789E-007, 4.9748957E-004, 5.3791957E+002
 8.0017837E+000, 1.3874843E-001, 7.1072593E-002, 4.5547571E-002, 1.2372604E-004, 5.7580115E-007, 5.8419738E-004, 5.6481527E+002
 9.0094547E+000, 1.2224892E-001, 8.3674748E-002, 5.2632747E-002, 1.4856970E-004, 9.7473405E-007, 6.8923638E-004, 5.9299006E+002
 1.0000154E+001, 1.1228708E-001, 9.1289383E-002, 5.6908706E-002, 1.5957131E-004, 7.3703257E-007, 7.5184468E-004, 5.9872781E+002
 1.1003271E+001, 1.0044688E-001, 1.0033444E-001, 6.1992565E-002, 1.7627498E-004, 1.0505789E-006, 8.2699347E-004, 6.1080990E+002
 1.2006548E+001, 9.1336776E-002, 1.0729567E-001, 6.5903674E-002, 1.8794352E-004, 9.4682544E-007, 8.8457484E-004, 6.1245045E+002
 1.3004845E+001, 8.4518381E-002, 1.1250357E-001, 6.8831592E-002, 1.9815829E-004, 1.0601115E-006, 9.2797158E-004, 6.0939413E+002
 1.4009893E+001, 7.5777403E-002, 1.1917736E-001, 7.2585880E-002, 2.1299611E-004, 1.5187369E-006, 9.8395809E-004, 6.1404023E+002
 1.5007538E+001, 6.8758731E-002, 1.2453934E-001, 7.5599459E-002, 2.2276050E-004, 1.5349657E-006, 1.0284774E-003, 6.1526753E+002
 1.6009455E+001, 6.3636160E-002, 1.2845122E-001, 7.7799379E-002, 2.3093035E-004, 1.7990913E-006, 1.0611811E-003, 6.1441387E+002
 1.7006756E+001, 5.7035762E-002, 1.3349409E-001, 8.0633243E-002, 2.3982761E-004, 1.7012985E-006, 1.1029896E-003, 6.1507855E+002
 1.8001889E+001, 5.2888620E-002, 1.3666517E-001, 8.2413022E-002, 2.4368987E-004, 1.3997612E-006, 1.1289083E-003, 6.1472935E+002
 1.9006564E+001, 4.8948688E-002, 1.3967387E-001, 8.4105081E-002, 2.5001737E-004, 1.5134963E-006, 1.1540708E-003, 6.1089028E+002
 2.0000889E+001, 4.3438357E-002, 1.4388361E-001, 8.6470953E-002, 2.5759523E-004, 1.8584668E-006, 1.1890043E-003, 6.1604936E+002
 2.1002759E+001, 3.7816973E-002, 1.4817932E-001, 8.8884252E-002, 2.6463256E-004, 1.5307378E-006, 1.2245023E-003, 6.2203163E+002
 2.2001388E+001, 3.3256914E-002, 1.5165778E-001, 9.0843821E-002, 2.7454268E-004, 1.8956129E-006, 1.2541497E-003, 6.1809069E+002
 2.3005198E+001, 3.0589854E-002, 1.5368473E-001, 9.1992312E-002, 2.8548142E-004, 2.3313904E-006, 1.2725330E-003, 6.1221243E+002
 2.4009937E+001, 2.5369121E-002, 1.5768029E-001, 9.4231660E-002, 2.8786890E-004, 2.0550108E-006, 1.3046591E-003, 6.1812780E+002
 2.5002533E+001, 2.0475932E-002, 1.6140260E-001, 9.6337622E-002, 3.0551613E-004, 2.9376200E-006, 1.3378948E-003, 6.2455091E+002
 2.6010749E+001, 1.7240179E-002, 1.6386883E-001, 9.7728801E-002, 3.1397759E-004, 2.9450177E-006, 1.3592226E-003, 6.2129880E+002
 2.7009037E+001, 1.2572822E-002, 1.6701226E-001, 9.9868698E-002, 6.1084496E-004, 5.9334779E-006, 1.4477437E-003, 6.2428588E+002
 2.8000877E+001, 9.1917138E-003, 1.6975200E-001, 1.0126993E-001, 5.0773229E-004, 5.2359891E-006, 1.4473138E-003, 6.2091580E+002
 2.9009185E+001, 4.7115615E-003, 1.7310755E-001, 1.0321551E-001, 5.6037954E-004, 3.5073711E-006, 1.4851518E-003, 6.2747044E+002
 3.0006861E+001, 2.2924106E-003, 1.7326399E-001, 1.0479988E-001, 1.7280267E-003, 7.9071030E-006, 1.7367368E-003, 6.2230098E+002
 3.1008013E+001, 3.0451580E-004, 1.7279012E-001, 1.0629126E-001, 3.0984642E-003, 4.3000521E-005, 2.0268137E-003, 6.1817057E+002
 3.2001772E+001, 1.7456120E-004, 1.7032536E-001, 1.0716001E-001, 4.8526846E-003, 1.3650429E-004, 2.3834224E-003, 6.0011994E+002
 3.3010257E+001, 3.8178661E-004, 1.6757982E-001, 1.0787782E-001, 6.6121237E-003, 3.1410212E-004, 2.7389289E-003, 5.8492036E+002
 3.4007628E+001, 4.6799291E-004, 1.6726517E-001, 1.0791085E-001, 6.7755454E-003, 3.7760239E-004, 2.7714777E-003, 5.8587081E+002
 3.5008882E+001, 4.3899075E-004, 1.6615816E-001, 1.0827704E-001, 7.5448142E-003, 4.4516805E-004, 2.9276526E-003, 5.7682499E+002
 3.6006721E+001, 4.4680823E-004, 1.6500489E-001, 1.0861406E-001, 8.3120531E-003, 6.3103475E-004, 3.0830269E-003, 5.6868967E+002
 3.7001905E+001, 4.4417219E-004, 1.6313996E-001, 1.0917530E-001, 9.5652483E-003, 8.9517625E-004, 3.3369612E-003, 5.6408070E+002
 3.8000949E+001, 4.2822084E-004, 1.6308994E-001, 1.0915439E-001, 9.5720716E-003, 1.1899654E-003, 3.3380297E-003, 5.6196518E+002
 3.9002333E+001, 5.2405905E-004, 1.6218431E-001, 1.0934704E-001, 1.0118703E-002, 1.4058975E-003, 3.4480644E-003, 5.5374367E+002
 4.0008040E+001, 4.5449045E-004, 1.6109472E-001, 1.0972828E-001, 1.0892291E-002, 1.5150231E-003, 3.6053034E-003, 5.5100879E+002
 4.1004411E+001, 4.4664869E-004, 1.5939846E-001, 1.1022277E-001, 1.2020205E-002, 1.8764371E-003, 3.8337121E-003, 5.4862546E+002
 4.2002432E+001, 4.1123994E-004, 1.5821535E-001, 1.1057488E-001, 1.2812879E-002, 2.2088513E-003, 3.9943044E-003, 5.4843167E+002
 4.3009228E+001, 4.1042181E-004, 1.5744716E-001, 1.1079000E-001, 1.3316988E-002, 2.4154659E-003, 4.0963097E-003, 5.3948618E+002
 4.4003762E+001, 3.7146616E-004, 1.5682427E-001, 1.1098819E-001, 1.3744335E-002, 2.5961589E-003, 4.1830066E-003, 5.3979756E+002
 4.5003681E+001, 3.3104300E-004, 1.5527958E-001, 1.1142813E-001, 1.4764268E-002, 3.1277588E-003, 4.3894637E-003, 5.3699439E+002
 4.6009433E+001, 3.3053443E-004, 1.5444777E-001, 1.1165985E-001, 1.5309206E-002, 3.3574527E-003, 4.4997196E-003, 5.3419866E+002
 4.7005949E+001, 3.3321544E-004, 1.5314318E-001, 1.1202691E-001, 1.6166538E-002, 3.6808081E-003, 4.6732136E-003, 5.3116280E+002
 4.8004638E+001, 3.2197388E-004, 1.5253930E-001, 1.1221242E-001, 1.6575370E-002, 3.7863321E-003, 4.7560908E-003, 5.2914743E+002
 4.9005824E+001, 3.1025518E-004, 1.5160750E-001, 1.1246672E-001, 1.7182037E-002, 4.1225623E-003, 4.8787910E-003, 5.2708942E+002
 5.0001122E+001, 2.9399913E-004, 1.5068702E-001, 1.1273391E-001, 1.7793462E-002, 4.3757394E-003, 5.0026004E-003, 5.2422512E+002
 5.1001471E+001, 2.8922154E-004, 1.4980951E-001, 1.1297107E-001, 1.8362923E-002, 4.6806315E-003, 5.1177529E-003, 5.2403483E+002
 5.2005196E+001, 2.8555773E-004, 1.4874652E-001, 1.1327734E-001, 1.9067008E-002, 4.9241255E-003, 5.2603013E-003, 5.2289821E+002
 5.3011102E+001, 2.8318844E-004, 1.4842621E-001, 1.1336410E-001, 1.9275029E-002, 5.0368435E-003, 5.3023679E-003, 5.2023597E+002
 5.4007625E+001, 2.7769327E-004, 1.4705077E-001, 1.1374302E-001, 2.0172998E-002, 5.4621632E-003, 5.4840142E-003, 5.1885899E+002
 5.5009625E+001, 2.8182080E-004, 1.4656410E-001, 1.1387859E-001, 2.0491738E-002, 5.5781415E-003, 5.5485030E-003, 5.1562137E+002
 5.6011666E+001, 2.8768619E-004, 1.4570103E-001, 1.1412154E-001, 2.1058941E-002, 5.7742420E-003, 5.6632850E-003, 5.1523918E+002
 5.7005791E+001, 2.7114599E-004, 1.4501945E-001, 1.1430935E-001, 2.1504196E-002, 6.0423417E-003, 5.7533574E-003, 5.1567551E+002
 5.8007590E+001, 2.7228737E-004, 1.4426312E-001, 1.1451322E-001, 2.1994516E-002, 6.2865149E-003, 5.8525004E-003, 5.1276973E+002
 5.9003950E+001, 2.7767508E-004, 1.4322551E-001, 1.1478932E-001, 2.2664407E-002, 6.6277195E-003, 5.9879190E-003, 5.1294964E+002
 6.0005803E+001, 2.8150957E-004, 1.4276439E-001, 1.1490183E-001, 2.2954415E-002, 6.8361168E-003, 6.0464500E-003, 5.1054417E+002
 6.1009338E+001, 2.8800321E-004, 1.4225590E-001, 1.1504936E-001, 2.3291844E-002, 6.9119755E-003, 6.1147727E-003, 5.1206369E+002
 6.2004698E+001, 2.8961652E-004, 1.4153557E-001, 1.1525051E-001, 2.3764067E-002, 7.0993542E-003, 6.2103203E-003, 5.1156725E+002
 6.3006497E+001, 2.9629190E-004, 1.4062303E-001, 1.1547111E-001, 2.4336453E-002, 7.5281952E-003, 6.3258232E-003, 5.1057180E+002
 6.4006082E+001, 3.0079233E-004, 1.4026686E-001, 1.1555968E-001, 2.4561677E-002, 7.6725341E-003, 6.3712946E-003, 5.0954636E+002
 6.5008559E+001, 3.0016640E-004, 1.3937447E-001, 1.1578923E-001, 2.5131958E-002, 8.0366254E-003, 6.4865054E-003, 5.0848734E+002
 6.6007124E+001, 3.0064112E-004, 1.3870740E-001, 1.1596238E-001, 2.5559404E-002, 8.2952640E-003, 6.5728743E-003, 5.0738677E+002
 6.7003353E+001, 2.9697713E-004, 1.3822525E-001, 1.1608761E-001, 2.5868490E-002, 8.4983669E-003, 6.6353293E-003, 5.0751697E+002
 6.8001824E+001, 3.0179329E-004, 1.3768646E-001, 1.1622836E-001, 2.6214337E-002, 8.6832364E-003, 6.7052177E-003, 5.0729660E+002
 6.9002535E+001, 3.0003708E-004, 1.3719211E-001, 1.1636150E-001, 2.6534773E-002, 8.8540035E-003, 6.7700096E-003, 5.0618478E+002
 7.0002847E+001, 3.0816502E-004, 1.3651618E-001, 1.1652688E-001, 2.6960173E-002, 9.1462437E-003, 6.8558700E-003, 5.0638730E+002
 7.1007756E+001, 3.1856739E-004, 1.3609849E-001, 1.1662614E-001, 2.7220740E-002, 9.3225181E-003, 6.9084323E-003, 5.0533276E+002
 7.2007922E+001, 3.3051334E-004, 1.3544372E-001, 1.1679747E-001, 2.7641131E-002, 9.5200777E-003, 6.9933854E-003, 5.0589273E+002
 7.3008726E+001, 3.2985282E-004, 1.3485048E-001, 1.1696180E-001, 2.8029080E-002, 9.6908766E-003, 7.0718698E-003, 5.0548868E+002
 7.4009003E+001, 3.3631228E-004, 1.3441698E-001, 1.1706845E-001, 2.8302320E-002, 9.8695042E-003, 7.1270242E-003, 5.0503081E+002
 7.5007270E+001, 3.4271660E-004, 1.3399019E-001, 1.1718015E-001, 2.8576383E-002, 1.0003872E-002, 7.1824079E-003, 5.0503788E+002
 7.6005537E+001, 3.4821840E-004, 1.3363792E-001, 1.1726747E-001, 2.8798915E-002, 1.0143937E-002, 7.2273329E-003, 5.0403570E+002
 7.7010077E+001, 3.5084902E-004, 1.3313716E-001, 1.1740669E-001, 2.9126714E-002, 1.0271691E-002, 7.2936525E-003, 5.0348177E+002
 7.8008301E+001, 3.5144304E-004, 1.3260018E-001, 1.1753646E-001, 2.9463556E-002, 1.0538209E-002, 7.3616249E-003, 5.0379445E+002
 7.9001657E+001, 3.6482240E-004, 1.3221976E-001, 1.1764467E-001, 2.9714207E-002, 1.0572819E-002, 7.4123554E-003, 5.0365497E+002
 8.0001718E+001, 3.6944247E-004, 1.3154476E-001, 1.1781840E-001, 3.0145547E-002, 1.0826395E-002, 7.4994963E-003, 5.0386117E+002
 8.1002009E+001, 3.6870116E-004, 1.3113680E-001, 1.1793037E-001, 3.0411558E-002, 1.0951381E-002, 7.5533028E-003, 5.0315637E+002
 8.2010437E+001, 3.7251688E-004, 1.3069377E-001, 1.1804171E-001, 3.0692626E-002, 1.1131115E-002, 7.6100599E-003, 5.0315063E+002
 8.3004849E+001, 3.8003064E-004, 1.3018082E-001, 1.1817674E-001, 3.1022607E-002, 1.1288550E-002, 7.6767511E-003, 5.0296365E+002
 8.4011539E+001, 3.9854689E-004, 1.2975570E-001, 1.1829997E-001, 3.1304384E-002, 1.1298179E-002, 7.7338012E-003, 5.0328553E+002
 8.5005951E+001, 3.8955720E-004, 1.2946055E-001, 1.1838277E-001, 3.1498335E-002, 1.1412804E-002, 7.7730502E-003, 5.0334976E+002
 8.6000364E+001, 3.9466142E-004, 1.2898637E-001, 1.1851100E-001, 3.1805975E-002, 1.1545065E-002, 7.8352579E-003, 5.0369088E+002
 8.7000171E+001, 4.0354125E-004, 1.2865881E-001, 1.1859436E-001, 3.2014455E-002, 1.1646285E-002, 7.8773654E-003, 5.0330788E+002
 8.8007137E+001, 4.1213590E-004, 1.2821466E-001, 1.1870583E-001, 3.2296035E-002, 1.1807538E-002, 7.9342235E-003, 5.0324321E+002
 8.9000695E+001, 4.3192751E-004, 1.2794070E-001, 1.1875470E-001, 3.2454480E-002, 1.1969117E-002, 7.9660276E-003, 5.0369093E+002
 9.0009980E+001, 4.4350396E-004, 1.2769566E-001, 1.1883222E-001, 3.2621765E-002, 1.1930893E-002, 7.9999551E-003, 5.0357096E+002
 9.1006956E+001, 4.4067382E-004, 1.2734718E-001, 1.1893547E-001, 3.2854758E-002, 1.2000011E-002, 8.0471525E-003, 5.0357105E+002
 9.2003932E+001, 4.5144699E-004, 1.2706374E-001, 1.1896837E-001, 3.3005559E-002, 1.2316412E-002, 8.0772435E-003, 5.0267277E+002
 9.3000908E+001, 4.5888410E-004, 1.2667275E-001, 1.1911061E-001, 3.3286662E-002, 1.2187089E-002, 8.1344186E-003, 5.0308652E+002
 9.4007192E+001, 4.5602958E-004, 1.2632882E-001, 1.1919991E-001, 3.3507116E-002, 1.2333217E-002, 8.1789642E-003, 5.0462185E+002
 9.5008455E+001, 4.7553567E-004, 1.2612574E-001, 1.1924910E-001, 3.3634244E-002, 1.2352992E-002, 8.2046140E-003, 5.0404830E+002
 9.6012716E+001, 4.8061612E-004, 1.2572119E-001, 1.1934417E-001, 3.3885900E-002, 1.2551106E-002, 8.2553698E-003, 5.0518009E+002
 9.7004102E+001, 5.0672182E-004, 1.2540405E-001, 1.1939883E-001, 3.4067819E-002, 1.2736638E-002, 8.2918655E-003, 5.0331087E+002
 9.8004774E+001, 5.1168867E-004, 1.2518971E-001, 1.1947367E-001, 3.4219538E-002, 1.2681348E-002, 8.3226984E-003, 5.0408239E+002
 9.9002534E+001, 5.3314924E-004, 1.2486943E-001, 1.1952526E-001, 3.4400620E-002, 1.2911465E-002, 8.3589898E-003, 5.0346437E+002
 1.0000029E+002, 5.3541597E-004, 1.2458888E-001, 1.1961547E-001, 3.4593448E-002, 1.2904490E-002, 8.3981129E-003, 5.0285028E+002
 1.0101069E+002, 5.3142062E-004, 1.2435680E-001, 1.1967297E-001, 3.4740176E-002, 1.3028699E-002, 8.4277360E-003, 5.0409082E+002
 1.0200845E+002, 5.4306523E-004, 1.2401048E-001, 1.1976799E-001, 3.4965746E-002, 1.3083871E-002, 8.4733590E-003, 5.0327473E+002
 1.0300814E+002, 5.3264570E-004, 1.2378169E-001, 1.1985205E-001, 3.5131126E-002, 1.3064629E-002, 8.5070066E-003, 5.0398404E+002
 1.0400012E+002, 5.5359390E-004, 1.2366381E-001, 1.1986033E-001, 3.5189472E-002, 1.3160924E-002, 8.5185839E-003, 5.0384373E+002
 1.0501004E+002, 5.7275246E-004, 1.2324049E-001, 1.1996311E-001, 3.5455036E-002, 1.3290270E-002, 8.5721729E-003, 5.0290300E+002
 1.0600757E+002, 5.6927373E-004, 1.2297829E-001, 1.2001655E-001, 3.5612103E-002, 1.3497260E-002, 8.6037749E-003, 5.0339653E+002
 1.0700856E+002, 5.6434748E-004, 1.2300571E-001, 1.2004778E-001, 3.5623508E-002, 1.3270803E-002, 8.6064361E-003, 5.0435691E+002
 1.0800955E+002, 5.5878791E-004, 1.2282976E-001, 1.2006659E-001, 3.5716129E-002, 1.3528148E-002, 8.6249033E-003, 5.0420390E+002
 1.0900627E+002, 5.6666264E-004, 1.2274881E-001, 1.2008787E-001, 3.5768060E-002, 1.3525318E-002, 8.6353969E-003, 5.0487402E+002
 1.1001198E+002, 5.5810464E-004, 1.2269269E-001, 1.2009533E-001, 3.5798821E-002, 1.3626694E-002, 8.6415487E-003, 5.0571514E+002
 1.1100514E+002, 5.7017248E-004, 1.2261351E-001, 1.2012244E-001, 3.5854280E-002, 1.3566982E-002, 8.6528125E-003, 5.0480374E+002
 1.1201087E+002, 5.7386346E-004, 1.2261928E-001, 1.2012587E-001, 3.5854225E-002, 1.3519005E-002, 8.6528460E-003, 5.0494215E+002
 1.1300866E+002, 5.8429561E-004, 1.2224004E-001, 1.2022318E-001, 3.6096202E-002, 1.3630618E-002, 8.7017266E-003, 5.0458000E+002
 1.1401173E+002, 6.0763350E-004, 1.2178567E-001, 1.2029857E-001, 3.6354893E-002, 1.3973074E-002, 8.7535971E-003, 5.0410907E+002
 1.1500160E+002, 6.0525399E-004, 1.2162070E-001, 1.2034831E-001, 3.6465859E-002, 1.4004795E-002, 8.7760834E-003, 5.0429079E+002
 1.1600999E+002, 6.2193483E-004, 1.2154923E-001, 1.2036898E-001, 3.6512945E-002, 1.3950189E-002, 8.7856131E-003, 5.0595143E+002
 1.1700709E+002, 6.0554688E-004, 1.2166984E-001, 1.2036918E-001, 3.6459688E-002, 1.3777224E-002, 8.7751481E-003, 5.0601992E+002
 1.1800420E+002, 5.9787674E-004, 1.2133431E-001, 1.2046164E-001, 3.6678875E-002, 1.3907164E-002, 8.8194884E-003, 5.0479012E+002
 1.1901115E+002, 5.9398577E-004, 1.2112256E-001, 1.2050075E-001, 3.6802697E-002, 1.4103768E-002, 8.8443616E-003, 5.0453891E+002
 1.2001318E+002, 6.0426796E-004, 1.2093009E-001, 1.2056929E-001, 3.6939835E-002, 1.4021647E-002, 8.8722411E-003, 5.0497055E+002
 1.2100505E+002, 6.0964173E-004, 1.2098826E-001, 1.2055977E-001, 3.6906660E-002, 1.3942187E-002, 8.8655883E-003, 5.0630219E+002
 1.2200434E+002, 6.1644880E-004, 1.2063612E-001, 1.2066732E-001, 3.7144348E-002, 1.3951923E-002, 8.9137631E-003, 5.0581192E+002
 1.2300053E+002, 6.1499778E-004, 1.2025182E-001, 1.2075753E-001, 3.7383444E-002, 1.4166901E-002, 8.9619863E-003, 5.0550138E+002
 1.2400983E+002, 6.1880840E-004, 1.2023442E-001, 1.2077855E-001, 3.7406956E-002, 1.4056131E-002, 8.9668892E-003, 5.0506026E+002
 1.2500603E+002, 6.1657492E-004, 1.1983044E-001, 1.2085456E-001, 3.7644139E-002, 1.4401013E-002, 9.0145471E-003, 5.0476655E+002
 1.2600222E+002, 6.2234783E-004, 1.1976907E-001, 1.2087240E-001, 3.7684792E-002, 1.4389212E-002, 9.0227777E-003, 5.0494616E+002
 1.2701152E+002, 6.2505553E-004, 1.1973512E-001, 1.2091012E-001, 3.7728268E-002, 1.4213079E-002, 9.0318297E-003, 5.0554019E+002
 1.2800771E+002, 6.1319179E-004, 1.1982260E-001, 1.2087996E-001, 3.7666817E-002, 1.4274219E-002, 9.0193467E-003, 5.0544022E+002
 1.2900391E+002, 6.1682464E-004, 1.1953675E-001, 1.2095874E-001, 3.7853371E-002, 1.4342547E-002, 9.0570831E-003, 5.0495681E+002
 1.3000010E+002, 6.1132486E-004, 1.1955907E-001, 1.2098862E-001, 3.7866036E-002, 1.4136969E-002, 9.0599741E-003, 5.0615441E+002
 1.3100940E+002, 6.5307103E-004, 1.1927849E-001, 1.2100382E-001, 3.8001674E-002, 1.4427684E-002, 9.0868366E-003, 5.0606981E+002
 1.3200559E+002, 6.8249471E-004, 1.1914915E-001, 1.2102111E-001, 3.8071749E-002, 1.4456001E-002, 9.1008377E-003, 5.0500786E+002
 1.3300659E+002, 6.6681638E-004, 1.1917713E-001, 1.2103678E-001, 3.8071378E-002, 1.4369088E-002, 9.1009791E-003, 5.0505315E+002
 1.3401253E+002, 6.8479502E-004, 1.1939429E-001, 1.2097630E-001, 3.7928800E-002, 1.4234688E-002, 9.0721277E-003, 5.0589287E+002
 1.3500557E+002, 6.7154494E-004, 1.1945413E-001, 1.2098227E-001, 3.7906891E-002, 1.4134031E-002, 9.0679031E-003, 5.0696021E+002
 1.3601151E+002, 6.7737657E-004, 1.1905336E-001, 1.2108736E-001, 3.8164397E-002, 1.4259741E-002, 9.1199430E-003, 5.0634565E+002
 1.3700124E+002, 6.7722221E-004, 1.1923204E-001, 1.2105190E-001, 3.8058123E-002, 1.4123300E-002, 9.0985705E-003, 5.0612550E+002
 1.3800112E+002, 6.8703730E-004, 1.1922364E-001, 1.2106955E-001, 3.8074978E-002, 1.3990387E-002, 9.1021172E-003, 5.0561330E+002
 1.3900100E+002, 6.8059476E-004, 1.1927721E-001, 1.2105802E-001, 3.8042551E-002, 1.3981694E-002, 9.0955887E-003, 5.0799599E+002
 1.4000088E+002, 7.0161960E-004, 1.1933649E-001, 1.2105378E-001, 3.8012579E-002, 1.3802293E-002, 9.0896307E-003, 5.0868335E+002
 1.4100076E+002, 7.0873677E-004, 1.1916317E-001, 1.2108145E-001, 3.8110469E-002, 1.3947044E-002, 9.1092479E-003, 5.0794953E+002
 1.4200065E+002, 6.9707298E-004, 1.1902595E-001, 1.2114546E-001, 3.8219997E-002, 1.3874306E-002, 9.1316451E-003, 5.0720402E+002
 1.4300053E+002, 7.1627349E-004, 1.1914346E-001, 1.2110454E-001, 3.8136499E-002, 1.3812604E-002, 9.1146723E-003, 5.0793421E+002
 1.4401053E+002, 7.2832890E-004, 1.1902980E-001, 1.2113275E-001, 3.8208138E-002, 1.3814752E-002, 9.1291327E-003, 5.0813751E+002
 1.4501295E+002, 7.3781002E-004, 1.1891071E-001, 1.2115209E-001, 3.8275560E-002, 1.3893083E-002, 9.1426463E-003, 5.0781669E+002
 1.4600144E+002, 7.3335659E-004, 1.1917190E-001, 1.2108271E-001, 3.8107086E-002, 1.3819313E-002, 9.1085911E-003, 5.0830058E+002
 1.4700385E+002, 7.4636532E-004, 1.1871806E-001, 1.2120057E-001, 3.8397708E-002, 1.3942084E-002, 9.1673111E-003, 5.0811954E+002
 1.4800626E+002, 7.6709758E-004, 1.1857322E-001, 1.2118250E-001, 3.8448222E-002, 1.4255245E-002, 9.1769968E-003, 5.0821237E+002
 1.4900867E+002, 8.0984078E-004, 1.1822503E-001, 1.2126716E-001, 3.8666253E-002, 1.4248472E-002, 9.2209883E-003, 5.0682392E+002
 1.5000959E+002, 7.7063414E-004, 1.1853387E-001, 1.2121514E-001, 3.8490263E-002, 1.4117755E-002, 9.1856984E-003, 5.0805043E+002
 1.5100912E+002, 7.7654208E-004, 1.1864673E-001, 1.2116119E-001, 3.8399270E-002, 1.4200917E-002, 9.1670828E-003, 5.0903365E+002
 1.5200901E+002, 7.6883463E-004, 1.1814105E-001, 1.2130334E-001, 3.8731643E-002, 1.4363506E-002, 9.2343443E-003, 5.0696214E+002
 1.5300889E+002, 7.2468297E-004, 1.1815785E-001, 1.2130785E-001, 3.8728364E-002, 1.4486218E-002, 9.2337746E-003, 5.0746065E+002
 1.5400878E+002, 7.3128332E-004, 1.1796864E-001, 1.2135677E-001, 3.8849346E-002, 1.4533828E-002, 9.2582166E-003, 5.0661743E+002
