s,,,,,,,
Time,"O2 EXHAUST","CO2 EXHAUST","H2O EXHAUST","CO EXHAUST","FUEL EXHAUST","SOOT EXHAUST","TEMP EXHAUST"
 0.0000000E+000, 2.3099739E-001, 5.9146498E-004, 5.9412092E-003, 0.0000000E+000, 0.0000000E+000, 0.0000000E+000, 2.0000000E+001
 1.0004598E+000, 2.3099739E-001, 5.9146498E-004, 5.9412092E-003, 5.0484876E-032, 6.1386308E-031, 1.5406788E-032, 2.0525854E+001
 2.0020575E+000, 2.2319187E-001, 6.9484020E-003, 9.5265498E-003, 3.7913154E-005, 2.8068543E-004, 5.0842439E-005, 9.6734726E+001
 3.0035636E+000, 2.1939275E-001, 1.0042901E-002, 1.1288724E-002, 6.9125295E-005, 3.2270981E-004, 7.8326710E-005, 1.3146485E+002
 4.0009924E+000, 2.1257160E-001, 1.5626046E-002, 1.4436743E-002, 1.0111440E-004, 4.3089794E-004, 1.2269918E-004, 1.9381328E+002
 5.0000361E+000, 2.0810443E-001, 1.9274111E-002, 1.6501466E-002, 1.2809753E-004, 5.0154922E-004, 1.5299628E-004, 2.3034098E+002
 6.0026955E+000, 2.0191407E-001, 2.4399852E-002, 1.9355970E-002, 1.2918802E-004, 4.9491678E-004, 1.8767019E-004, 2.7769697E+002
 7.0016758E+000, 1.9313178E-001, 3.1700123E-002, 2.3414038E-002, 1.2449343E-004, 3.8281570E-004, 2.3571412E-004, 3.3579530E+002
 8.0009001E+000, 1.8665283E-001, 3.7092856E-002, 2.6405403E-002, 1.1606649E-004, 2.9899432E-004, 2.7014109E-004, 3.7199060E+002
 9.0056084E+000, 1.8029371E-001, 4.2395141E-002, 2.9341410E-002, 1.0365101E-004, 1.9829784E-004, 3.0310510E-004, 4.0066966E+002
 1.0003099E+001, 1.7136332E-001, 4.9830579E-002, 3.3463055E-002, 8.9852338E-005, 8.6768839E-005, 3.5010528E-004, 4.3727073E+002
 1.1006764E+001, 1.6413619E-001, 5.5832828E-002, 3.6798076E-002, 8.4970686E-005, 2.9506375E-005, 3.8938784E-004, 4.5815643E+002
 1.2004904E+001, 1.5664235E-001, 6.2039592E-002, 4.0256145E-002, 8.7424469E-005, 4.3185998E-006, 4.3161742E-004, 4.7628130E+002
 1.3005498E+001, 1.5070806E-001, 6.6945808E-002, 4.2994829E-002, 9.3503939E-005, 6.2729282E-007, 4.6588600E-004, 4.8163731E+002
 1.4007695E+001, 1.4488795E-001, 7.1756270E-002, 4.5680734E-002, 1.0000274E-004, 1.2805260E-007, 4.9960112E-004, 4.8975926E+002
 1.5006594E+001, 1.3714718E-001, 7.8153608E-002, 4.9253110E-002, 1.0899445E-004, 5.3377309E-008, 5.4451303E-004, 5.0058234E+002
 1.6001148E+001, 1.3192183E-001, 8.2472073E-002, 5.1664617E-002, 1.1507091E-004, 5.8182006E-008, 5.7483184E-004, 5.0183864E+002
 1.7008396E+001, 1.2591259E-001, 8.7438369E-002, 5.4437890E-002, 1.2206225E-004, 6.0344007E-008, 6.0969962E-004, 5.0759720E+002
 1.8000807E+001, 1.2065789E-001, 9.1781146E-002, 5.6862918E-002, 1.2812900E-004, 4.5964731E-008, 6.4017971E-004, 5.0964169E+002
 1.9000454E+001, 1.1474177E-001, 9.6670389E-002, 5.9593243E-002, 1.3507539E-004, 7.9069959E-008, 6.7452013E-004, 5.1279465E+002
 2.0006725E+001, 1.0967784E-001, 1.0085539E-001, 6.1930271E-002, 1.4100407E-004, 9.7806973E-008, 7.0391048E-004, 5.1509785E+002
 2.1003391E+001, 1.0653180E-001, 1.0345556E-001, 6.3382129E-002, 1.4456409E-004, 5.7840044E-008, 7.2214447E-004, 5.0979866E+002
 2.2005788E+001, 1.0300114E-001, 1.0637342E-001, 6.5011538E-002, 1.4868918E-004, 6.7039824E-008, 7.4263415E-004, 5.0868198E+002
 2.3007739E+001, 9.9194616E-002, 1.0951871E-001, 6.6768443E-002, 1.5352256E-004, 2.2697291E-007, 7.6480380E-004, 5.0912096E+002
 2.4008297E+001, 9.5388394E-002, 1.1266462E-001, 6.8524923E-002, 1.5774963E-004, 1.8127892E-007, 7.8684767E-004, 5.1081304E+002
 2.5004857E+001, 9.0243983E-002, 1.1690349E-001, 7.0903026E-002, 1.7235584E-004, 3.9687047E-006, 8.1846051E-004, 5.1464955E+002
 2.6003062E+001, 8.6677193E-002, 1.1982939E-001, 7.2556198E-002, 1.9156763E-004, 8.8779716E-006, 8.4223887E-004, 5.1401727E+002
 2.7000362E+001, 8.4167105E-002, 1.2188592E-001, 7.3720462E-002, 2.0686444E-004, 1.2677506E-005, 8.5933654E-004, 5.0914902E+002
 2.8006061E+001, 8.0910392E-002, 1.2456619E-001, 7.5226883E-002, 2.1823843E-004, 1.6289385E-005, 8.7978403E-004, 5.0650405E+002
 2.9005548E+001, 7.6715000E-002, 1.2800294E-001, 7.7172982E-002, 2.4415577E-004, 2.3035534E-005, 9.0843257E-004, 5.1096137E+002
 3.0001407E+001, 7.2241212E-002, 1.3167438E-001, 7.9245998E-002, 2.6717320E-004, 2.9121677E-005, 9.3803619E-004, 5.1498479E+002
 3.1000066E+001, 7.0733876E-002, 1.3290703E-001, 7.9945883E-002, 2.7794096E-004, 3.2040426E-005, 9.4862711E-004, 5.0863404E+002
 3.2010041E+001, 6.6452267E-002, 1.3643537E-001, 8.1925290E-002, 2.9003542E-004, 3.3571881E-005, 9.7492731E-004, 5.1170027E+002
 3.3003559E+001, 6.4372863E-002, 1.3813839E-001, 8.2889876E-002, 3.0306089E-004, 3.7531283E-005, 9.8916276E-004, 5.1070134E+002
 3.4010153E+001, 6.0778974E-002, 1.4110326E-001, 8.4550570E-002, 3.1118167E-004, 3.6555320E-005, 1.0108250E-003, 5.0885202E+002
 3.5008951E+001, 5.8057309E-002, 1.4333426E-001, 8.5812842E-002, 3.2717446E-004, 3.9142872E-005, 1.0292441E-003, 5.0584355E+002
 3.6006743E+001, 5.4086014E-002, 1.4660568E-001, 8.7649260E-002, 3.3927946E-004, 4.0384548E-005, 1.0538203E-003, 5.1168995E+002
 3.7003492E+001, 5.1257177E-002, 1.4891989E-001, 8.8962873E-002, 3.5919974E-004, 4.3411141E-005, 1.0736406E-003, 5.0933656E+002
 3.8005254E+001, 4.9521657E-002, 1.5033833E-001, 8.9768743E-002, 3.7198561E-004, 4.8213575E-005, 1.0859125E-003, 5.0491209E+002
 3.9008192E+001, 4.4721883E-002, 1.5427866E-001, 9.1992714E-002, 3.9599808E-004, 5.2522835E-005, 1.1175362E-003, 5.1357059E+002
 4.0005244E+001, 4.2425203E-002, 1.5616996E-001, 9.3054514E-002, 4.0309816E-004, 5.5804858E-005, 1.1317662E-003, 5.1178120E+002
 4.1006547E+001, 3.8206281E-002, 1.5960228E-001, 9.5020386E-002, 4.4637932E-004, 6.1530601E-005, 1.1641079E-003, 5.1673638E+002
 4.2006321E+001, 3.7222488E-002, 1.6040863E-001, 9.5477390E-002, 4.5275266E-004, 5.8606186E-005, 1.1708923E-003, 5.1384314E+002
 4.3006425E+001, 3.5182998E-002, 1.6205905E-001, 9.6430249E-002, 4.7950371E-004, 6.5212866E-005, 1.1877170E-003, 5.0730554E+002
 4.4011324E+001, 3.2416371E-002, 1.6434418E-001, 9.7708409E-002, 4.8433953E-004, 6.0430391E-005, 1.2041077E-003, 5.1017017E+002
 4.5004436E+001, 2.9672762E-002, 1.6655372E-001, 9.8994603E-002, 5.2836268E-004, 6.6757333E-005, 1.2283925E-003, 5.0687489E+002
 4.6005856E+001, 2.6627067E-002, 1.6896135E-001, 1.0043881E-001, 6.0969348E-004, 7.4436966E-005, 1.2620071E-003, 5.1236726E+002
 4.7005840E+001, 2.3547209E-002, 1.7154443E-001, 1.0184710E-001, 5.8663433E-004, 7.0409830E-005, 1.2744191E-003, 5.1381030E+002
 4.8006897E+001, 2.1115615E-002, 1.7345931E-001, 1.0300298E-001, 6.5697211E-004, 7.5499655E-005, 1.3023659E-003, 5.1594715E+002
 4.9003330E+001, 1.8747851E-002, 1.7528624E-001, 1.0414196E-001, 7.5235417E-004, 8.2284216E-005, 1.3350914E-003, 5.1368741E+002
 5.0000453E+001, 1.6412896E-002, 1.7722085E-001, 1.0521746E-001, 7.5131728E-004, 8.3897588E-005, 1.3478679E-003, 5.1948888E+002
 5.1009899E+001, 1.3803154E-002, 1.7923936E-001, 1.0647178E-001, 8.5348169E-004, 8.7414339E-005, 1.3833348E-003, 5.2134336E+002
 5.2002527E+001, 1.2336108E-002, 1.8014959E-001, 1.0725579E-001, 1.0702019E-003, 1.0665359E-004, 1.4359164E-003, 5.1714217E+002
 5.3005023E+001, 9.8200419E-003, 1.8214625E-001, 1.0844777E-001, 1.1331428E-003, 1.0358321E-004, 1.4628268E-003, 5.1399173E+002
 5.4006173E+001, 9.2465795E-003, 1.8192016E-001, 1.0896085E-001, 1.6323590E-003, 1.4470895E-004, 1.5683417E-003, 5.1082762E+002
 5.5003044E+001, 6.2235839E-003, 1.8292268E-001, 1.1089279E-001, 2.7057074E-003, 1.9978890E-004, 1.8052078E-003, 5.1070559E+002
 5.6001980E+001, 5.8536210E-003, 1.8263773E-001, 1.1125425E-001, 3.1125186E-003, 3.3807190E-004, 1.8905155E-003, 5.0514901E+002
 5.7005541E+001, 5.2502185E-003, 1.8304042E-001, 1.1156266E-001, 3.1784568E-003, 3.6628524E-004, 1.9073588E-003, 5.0214490E+002
 5.8003278E+001, 4.9257910E-003, 1.8242733E-001, 1.1201888E-001, 3.8017044E-003, 4.5223053E-004, 2.0368663E-003, 4.9451286E+002
 5.9010181E+001, 4.5717584E-003, 1.8268453E-001, 1.1220580E-001, 3.8356261E-003, 3.9416339E-004, 2.0458672E-003, 4.9466434E+002
 6.0001836E+001, 4.0405150E-003, 1.8267930E-001, 1.1260500E-001, 4.1498949E-003, 4.4021210E-004, 2.1132126E-003, 4.8877179E+002
 6.1008799E+001, 3.8666078E-003, 1.8055465E-001, 1.1340522E-001, 5.7012222E-003, 1.0393203E-003, 2.4315497E-003, 4.8137562E+002
 6.2002174E+001, 3.5356665E-003, 1.8177766E-001, 1.1329435E-001, 5.0809230E-003, 5.8168893E-004, 2.3067708E-003, 4.8147833E+002
 6.3000291E+001, 3.2707622E-003, 1.8019290E-001, 1.1399893E-001, 6.3220639E-003, 1.0040760E-003, 2.5622296E-003, 4.7741768E+002
 6.4007007E+001, 3.1260408E-003, 1.7908139E-001, 1.1447007E-001, 7.1743681E-003, 1.2547186E-003, 2.7374996E-003, 4.7486882E+002
 6.5005741E+001, 3.0432272E-003, 1.7928947E-001, 1.1448314E-001, 7.0934997E-003, 1.1127897E-003, 2.7215586E-003, 4.7068692E+002
 6.6005138E+001, 3.1053866E-003, 1.7773998E-001, 1.1495410E-001, 8.1361295E-003, 1.3761722E-003, 2.9346922E-003, 4.6776872E+002
 6.7009458E+001, 3.1048248E-003, 1.7631365E-001, 1.1539466E-001, 9.1022795E-003, 1.8217335E-003, 3.1322566E-003, 4.6166859E+002
 6.8007190E+001, 3.0330093E-003, 1.7637277E-001, 1.1540095E-001, 9.0821364E-003, 1.9693013E-003, 3.1283356E-003, 4.6061660E+002
 6.9000897E+001, 2.9670567E-003, 1.7585660E-001, 1.1563533E-001, 9.4897200E-003, 1.9950365E-003, 3.2122550E-003, 4.6095655E+002
 7.0009553E+001, 2.9822395E-003, 1.7529189E-001, 1.1581345E-001, 9.8747445E-003, 2.0867943E-003, 3.2910117E-003, 4.5292202E+002
 7.1007942E+001, 2.8711026E-003, 1.7469603E-001, 1.1604932E-001, 1.0319627E-002, 2.4529795E-003, 3.3823941E-003, 4.5432021E+002
 7.2010958E+001, 2.5480477E-003, 1.7434716E-001, 1.1638434E-001, 1.0733908E-002, 2.6678619E-003, 3.4688741E-003, 4.5603196E+002
 7.3000886E+001, 2.7358425E-003, 1.7301140E-001, 1.1666269E-001, 1.1533627E-002, 3.0327420E-003, 3.6313634E-003, 4.5050121E+002
 7.4005617E+001, 2.8446221E-003, 1.7187900E-001, 1.1689446E-001, 1.2209341E-002, 3.5759783E-003, 3.7686325E-003, 4.4455457E+002
 7.5009322E+001, 2.9620721E-003, 1.7147645E-001, 1.1693496E-001, 1.2416396E-002, 3.6689849E-003, 3.8103215E-003, 4.4456352E+002
 7.6009075E+001, 3.2752735E-003, 1.7168536E-001, 1.1671082E-001, 1.2148310E-002, 3.1682445E-003, 3.7542445E-003, 4.4174657E+002
 7.7005229E+001, 2.9706687E-003, 1.7005040E-001, 1.1739186E-001, 1.3394620E-002, 3.9861928E-003, 4.0104758E-003, 4.3626270E+002
 7.8003449E+001, 3.2161935E-003, 1.6882417E-001, 1.1753271E-001, 1.4040613E-002, 4.6433635E-003, 4.1407426E-003, 4.3686034E+002
 7.9006608E+001, 3.1646748E-003, 1.6933183E-001, 1.1746374E-001, 1.3764182E-002, 4.2200195E-003, 4.0848840E-003, 4.3417361E+002
 8.0007747E+001, 3.1767738E-003, 1.6829836E-001, 1.1781138E-001, 1.4485504E-002, 4.3348569E-003, 4.2325948E-003, 4.3731609E+002
 8.1000160E+001, 3.2938383E-003, 1.6742841E-001, 1.1792773E-001, 1.4957289E-002, 4.9500688E-003, 4.3279044E-003, 4.3030700E+002
 8.2002961E+001, 3.2191251E-003, 1.6668329E-001, 1.1822482E-001, 1.5514044E-002, 5.1274824E-003, 4.4422689E-003, 4.2864521E+002
 8.3007387E+001, 3.2556123E-003, 1.6670888E-001, 1.1821276E-001, 1.5492903E-002, 4.9896369E-003, 4.4379075E-003, 4.2494809E+002
 8.4008114E+001, 3.3258522E-003, 1.6538430E-001, 1.1857320E-001, 1.6351967E-002, 5.3741540E-003, 4.6131957E-003, 4.3040705E+002
 8.5006137E+001, 3.3485075E-003, 1.6404936E-001, 1.1892522E-001, 1.7210123E-002, 6.0246034E-003, 4.7882207E-003, 4.2413556E+002
 8.6006391E+001, 3.3248906E-003, 1.6338564E-001, 1.1914090E-001, 1.7668216E-002, 6.2711940E-003, 4.8819788E-003, 4.2046538E+002
 8.7005792E+001, 3.2819530E-003, 1.6244712E-001, 1.1948389E-001, 1.8344920E-002, 6.4515697E-003, 5.0207615E-003, 4.2190232E+002
 8.8010325E+001, 3.3122654E-003, 1.6282550E-001, 1.1937593E-001, 1.8094804E-002, 6.1583963E-003, 4.9696769E-003, 4.2957234E+002
 8.9005067E+001, 3.4335588E-003, 1.6169810E-001, 1.1960486E-001, 1.8765927E-002, 6.6547878E-003, 5.1059951E-003, 4.2088859E+002
 9.0010933E+001, 3.4662047E-003, 1.6094596E-001, 1.1977701E-001, 1.9229245E-002, 7.0815883E-003, 5.2002802E-003, 4.2021964E+002
 9.1000859E+001, 3.4119044E-003, 1.6008883E-001, 1.2003466E-001, 1.9805452E-002, 7.6139452E-003, 5.3180640E-003, 4.2095141E+002
 9.2000302E+001, 3.5413925E-003, 1.6021615E-001, 1.1996501E-001, 1.9693877E-002, 7.1988465E-003, 5.2949957E-003, 4.1960578E+002
 9.3004901E+001, 3.4813688E-003, 1.5937310E-001, 1.2024682E-001, 2.0282239E-002, 7.5945971E-003, 5.4154799E-003, 4.1713660E+002
 9.4003729E+001, 3.4687263E-003, 1.5817358E-001, 1.2063508E-001, 2.1108417E-002, 7.9229872E-003, 5.5845573E-003, 4.1388003E+002
 9.5001067E+001, 3.5817639E-003, 1.5765519E-001, 1.2068270E-001, 2.1372319E-002, 8.2274467E-003, 5.6376568E-003, 4.1640888E+002
 9.6008632E+001, 3.5507477E-003, 1.5777070E-001, 1.2062670E-001, 2.1279254E-002, 8.4326505E-003, 5.6184803E-003, 4.1625213E+002
 9.7004047E+001, 3.6495037E-003, 1.5704770E-001, 1.2077512E-001, 2.1710479E-002, 8.6544612E-003, 5.7060796E-003, 4.1638954E+002
 9.8001393E+001, 3.5177471E-003, 1.5524199E-001, 1.2148961E-001, 2.3054672E-002, 8.9081498E-003, 5.9821479E-003, 4.1834057E+002
 9.9004261E+001, 3.5976832E-003, 1.5491909E-001, 1.2150522E-001, 2.3208242E-002, 9.1349011E-003, 6.0129051E-003, 4.1368989E+002
 1.0000162E+002, 3.8618761E-003, 1.5444428E-001, 1.2149024E-001, 2.3402641E-002, 9.0627444E-003, 6.0513946E-003, 4.1161157E+002
 1.0100870E+002, 3.7892029E-003, 1.5298583E-001, 1.2198430E-001, 2.4424863E-002, 9.5812233E-003, 6.2607654E-003, 4.1108509E+002
 1.0200213E+002, 3.7003893E-003, 1.5216089E-001, 1.2238027E-001, 2.5092136E-002, 9.4358592E-003, 6.3982877E-003, 4.1308114E+002
 1.0300305E+002, 3.9105118E-003, 1.5169438E-001, 1.2225754E-001, 2.5202282E-002, 1.0163412E-002, 6.4187718E-003, 4.1331330E+002
 1.0400058E+002, 3.8950454E-003, 1.5075680E-001, 1.2259446E-001, 2.5873465E-002, 1.0260276E-002, 6.5563766E-003, 4.0979212E+002
 1.0500280E+002, 4.1393521E-003, 1.5021695E-001, 1.2276902E-001, 2.6240578E-002, 9.3632682E-003, 6.6314561E-003, 4.1246645E+002
 1.0600490E+002, 3.9786332E-003, 1.5000937E-001, 1.2289843E-001, 2.6433556E-002, 9.7424619E-003, 6.6714382E-003, 4.0997036E+002
 1.0701139E+002, 4.0671093E-003, 1.4902578E-001, 1.2315553E-001, 2.7062824E-002, 9.9338169E-003, 6.7997475E-003, 4.0778800E+002
 1.0801049E+002, 5.4573980E-003, 1.4732872E-001, 1.2265725E-001, 2.7412793E-002, 1.0246284E-002, 6.8633809E-003, 3.9862764E+002
 1.0900174E+002, 6.0443834E-003, 1.4398016E-001, 1.2351754E-001, 2.9538488E-002, 9.7845793E-003, 7.2966367E-003, 4.1166628E+002
 1.1000286E+002, 6.7422878E-003, 1.4398424E-001, 1.2281485E-001, 2.8991912E-002, 1.0706166E-002, 7.1794799E-003, 4.0474908E+002
 1.1100399E+002, 7.9078129E-003, 1.4346315E-001, 1.2202436E-001, 2.8603227E-002, 1.1204288E-002, 7.0926451E-003, 3.9566345E+002
 1.1200906E+002, 7.8650174E-003, 1.4041249E-001, 1.2312254E-001, 3.0788426E-002, 1.1477348E-002, 7.5406634E-003, 4.0894401E+002
 1.1300871E+002, 8.6223346E-003, 1.4059769E-001, 1.2231659E-001, 3.0082263E-002, 1.2353272E-002, 7.3905072E-003, 4.0005141E+002
 1.1401035E+002, 8.9757207E-003, 1.3922302E-001, 1.2261798E-001, 3.0913648E-002, 1.1977141E-002, 7.5595213E-003, 3.9875740E+002
 1.1501296E+002, 8.3399378E-003, 1.3836634E-001, 1.2345507E-001, 3.1938977E-002, 1.1767020E-002, 7.7735987E-003, 4.0507121E+002
 1.1600027E+002, 1.0912802E-002, 1.3851683E-001, 1.2124117E-001, 3.0149036E-002, 1.2830202E-002, 7.3908441E-003, 3.8176362E+002
 1.1700459E+002, 1.5335265E-002, 1.3636463E-001, 1.1830409E-001, 2.8799003E-002, 1.4729376E-002, 7.0869389E-003, 3.7888477E+002
 1.1801122E+002, 1.1988682E-002, 1.3536082E-001, 1.2167490E-001, 3.1857435E-002, 1.2274391E-002, 7.7359236E-003, 4.1028749E+002
 1.1900100E+002, 1.3102770E-002, 1.3526670E-001, 1.2066528E-001, 3.1114425E-002, 1.3332954E-002, 7.5759914E-003, 3.8107780E+002
 1.2000284E+002, 1.4022363E-002, 1.3516820E-001, 1.1997070E-001, 3.0615420E-002, 1.3488226E-002, 7.4683416E-003, 3.7125160E+002
 1.2100711E+002, 1.5254637E-002, 1.3596083E-001, 1.1882492E-001, 2.9373873E-002, 1.3022363E-002, 7.2074732E-003, 3.7258529E+002
 1.2201072E+002, 1.5404352E-002, 1.3426970E-001, 1.1937210E-001, 3.0535426E-002, 1.2785629E-002, 7.4451506E-003, 3.7284181E+002
 1.2300977E+002, 1.5249198E-002, 1.3540186E-001, 1.1916065E-001, 2.9876052E-002, 1.2325544E-002, 7.3113837E-003, 3.6826904E+002
 1.2400860E+002, 1.6119762E-002, 1.3447377E-001, 1.1881598E-001, 3.0010786E-002, 1.2430591E-002, 7.3340357E-003, 3.6409902E+002
 1.2500640E+002, 1.5912685E-002, 1.3264227E-001, 1.1963688E-001, 3.1448359E-002, 1.2468069E-002, 7.6299510E-003, 3.6793696E+002
 1.2600826E+002, 1.6435279E-002, 1.3135193E-001, 1.1973236E-001, 3.2083361E-002, 1.2343182E-002, 7.7574274E-003, 3.6961527E+002
 1.2700201E+002, 1.6851547E-002, 1.3004878E-001, 1.1988817E-001, 3.2771661E-002, 1.2358210E-002, 7.8962456E-003, 3.6787099E+002
 1.2801123E+002, 1.7093205E-002, 1.2870298E-001, 1.2020970E-001, 3.3607545E-002, 1.2281317E-002, 8.0664193E-003, 3.6688603E+002
 1.2900367E+002, 1.7903617E-002, 1.2699881E-001, 1.2011209E-001, 3.4274630E-002, 1.2838881E-002, 8.1979967E-003, 3.6355887E+002
 1.3000594E+002, 1.8245477E-002, 1.2577486E-001, 1.2025001E-001, 3.4915624E-002, 1.3104615E-002, 8.3272054E-003, 3.6511430E+002
 1.3100832E+002, 1.8156640E-002, 1.2351090E-001, 1.2118816E-001, 3.6631598E-002, 1.2871319E-002, 8.6799041E-003, 3.6704875E+002
 1.3200759E+002, 1.7373785E-002, 1.2485666E-001, 1.2140125E-001, 3.6210392E-002, 1.2283679E-002, 8.5986358E-003, 3.7124956E+002
 1.3300928E+002, 1.8377829E-002, 1.2162797E-001, 1.2165492E-001, 3.7816026E-002, 1.3160224E-002, 8.9211995E-003, 3.6668279E+002
 1.3400039E+002, 1.8728366E-002, 1.2014972E-001, 1.2191037E-001, 3.8658628E-002, 1.3255118E-002, 9.0919244E-003, 3.6617078E+002
 1.3501089E+002, 1.8470348E-002, 1.2130700E-001, 1.2175714E-001, 3.8034079E-002, 1.2856072E-002, 8.9657930E-003, 3.7049741E+002
 1.3600899E+002, 1.8895241E-002, 1.1949912E-001, 1.2205613E-001, 3.9054472E-002, 1.3061587E-002, 9.1724227E-003, 3.6992403E+002
 1.3701090E+002, 1.9509483E-002, 1.1786378E-001, 1.2209883E-001, 3.9800857E-002, 1.3533307E-002, 9.3214642E-003, 3.6670550E+002
 1.3800658E+002, 1.9525877E-002, 1.1623511E-001, 1.2268950E-001, 4.0970068E-002, 1.3490968E-002, 9.5612042E-003, 3.6711600E+002
 1.3901109E+002, 1.9715241E-002, 1.1640863E-001, 1.2247802E-001, 4.0729536E-002, 1.3509777E-002, 9.5107993E-003, 3.6617016E+002
 1.4000995E+002, 2.0404841E-002, 1.1511920E-001, 1.2229767E-001, 4.1152258E-002, 1.4195313E-002, 9.5927714E-003, 3.6970383E+002
 1.4100140E+002, 2.0054961E-002, 1.1412174E-001, 1.2304328E-001, 4.2165528E-002, 1.3572287E-002, 9.8033158E-003, 3.7160910E+002
 1.4200434E+002, 2.0003447E-002, 1.1451960E-001, 1.2297031E-001, 4.1934772E-002, 1.3390714E-002, 9.7565133E-003, 3.7104765E+002
 1.4301069E+002, 1.9842130E-002, 1.1313900E-001, 1.2360826E-001, 4.3033016E-002, 1.3335937E-002, 9.9827042E-003, 3.7329105E+002
 1.4400685E+002, 2.0324609E-002, 1.1265963E-001, 1.2333763E-001, 4.3031903E-002, 1.3760120E-002, 9.9792466E-003, 3.6945345E+002
 1.4500827E+002, 2.1505810E-002, 1.0996564E-001, 1.2322200E-001, 4.4117562E-002, 1.4847690E-002, 1.0193919E-002, 3.6574428E+002
 1.4600953E+002, 2.1214254E-002, 1.1032106E-001, 1.2343124E-001, 4.4123677E-002, 1.4209329E-002, 1.0197616E-002, 3.6916345E+002
 1.4700940E+002, 2.0732373E-002, 1.1061227E-001, 1.2377610E-001, 4.4264426E-002, 1.3752871E-002, 1.0229748E-002, 3.7298516E+002
 1.4800671E+002, 2.0380944E-002, 1.0993355E-001, 1.2435649E-001, 4.5011278E-002, 1.3402981E-002, 1.0385314E-002, 3.7881522E+002
 1.4901263E+002, 2.0123537E-002, 1.0986080E-001, 1.2461694E-001, 4.5245435E-002, 1.3198756E-002, 1.0435028E-002, 3.7735314E+002
 1.5000437E+002, 2.1265131E-002, 1.0710102E-001, 1.2457734E-001, 4.6418563E-002, 1.4167284E-002, 1.0668012E-002, 3.7462025E+002
 1.5100748E+002, 2.0679209E-002, 1.0781376E-001, 1.2482251E-001, 4.6298788E-002, 1.3847861E-002, 1.0647120E-002, 3.7382896E+002
 1.5200292E+002, 2.1778768E-002, 1.0546908E-001, 1.2466010E-001, 4.7195608E-002, 1.4833611E-002, 1.0823651E-002, 3.7231193E+002
 1.5300336E+002, 2.1266471E-002, 1.0497795E-001, 1.2530872E-001, 4.7913864E-002, 1.4407212E-002, 1.0974346E-002, 3.7382541E+002
 1.5400741E+002, 2.0839940E-002, 1.0527724E-001, 1.2562955E-001, 4.8031818E-002, 1.3834679E-002, 1.1001644E-002, 3.7741331E+002
