s,,,,,,,
Time,"O2 EXHAUST","CO2 EXHAUST","H2O EXHAUST","CO EXHAUST","FUEL EXHAUST","SOOT EXHAUST","TEMP EXHAUST"
 0.0000000E+000, 2.3099745E-001, 5.9146511E-004, 5.9409840E-003, 0.0000000E+000, 0.0000000E+000, 0.0000000E+000, 2.0000000E+001
 1.0033175E+000, 2.3099745E-001, 5.9146511E-004, 5.9409840E-003, 3.3347290E-028, 2.8076101E-027, 1.0002215E-028, 2.0551888E+001
 2.0019802E+000, 2.2331337E-001, 7.5761755E-003, 8.9064137E-003, 7.0629892E-005, 2.3757418E-004, 5.7343007E-005, 1.1209074E+002
 3.0035053E+000, 2.1798585E-001, 1.2407376E-002, 1.0979073E-002, 1.4188678E-004, 3.2402335E-004, 1.0185330E-004, 1.5056466E+002
 4.0001560E+000, 2.0934832E-001, 2.0294576E-002, 1.4324701E-002, 2.1760860E-004, 4.4599839E-004, 1.6573218E-004, 2.2345115E+002
 5.0010195E+000, 1.9953278E-001, 2.9351926E-002, 1.8119401E-002, 2.5343126E-004, 4.4110367E-004, 2.2802394E-004, 2.9950346E+002
 6.0051712E+000, 1.8860406E-001, 3.9583850E-002, 2.2318750E-002, 2.0013141E-004, 2.9930163E-004, 2.7810476E-004, 3.6095203E+002
 7.0034996E+000, 1.8406841E-001, 4.3832583E-002, 2.4061574E-002, 1.7698723E-004, 2.3593982E-004, 2.9868152E-004, 3.8927589E+002
 8.0062706E+000, 1.7465525E-001, 5.2650286E-002, 2.7676952E-002, 1.2728349E-004, 1.1425397E-004, 3.4102444E-004, 4.2691789E+002
 9.0066145E+000, 1.6825114E-001, 5.8638354E-002, 3.0138285E-002, 1.0012738E-004, 4.3083683E-005, 3.7120691E-004, 4.4894316E+002
 1.0010097E+001, 1.5842308E-001, 6.7764095E-002, 3.3923878E-002, 9.5919300E-005, 1.0018896E-005, 4.2524896E-004, 4.7040357E+002
 1.1002616E+001, 1.5165314E-001, 7.4037975E-002, 3.6533223E-002, 1.0031580E-004, 1.3614051E-006, 4.6397976E-004, 4.8162417E+002
 1.2010747E+001, 1.4410034E-001, 8.1030016E-002, 3.9445238E-002, 1.0950035E-004, 6.0191085E-007, 5.0807114E-004, 4.9542078E+002
 1.3004625E+001, 1.3731995E-001, 8.7307228E-002, 4.2059324E-002, 1.1751428E-004, 1.5660640E-007, 5.4760473E-004, 5.0692270E+002
 1.4002694E+001, 1.3421347E-001, 9.0182937E-002, 4.3257039E-002, 1.2134922E-004, 1.4502253E-007, 5.6575122E-004, 5.0662670E+002
 1.5006133E+001, 1.2708148E-001, 9.6784955E-002, 4.6006847E-002, 1.3026748E-004, 1.0107734E-007, 6.0743638E-004, 5.1344564E+002
 1.6000957E+001, 1.2153561E-001, 1.0191867E-001, 4.8145110E-002, 1.3722109E-004, 1.5163509E-007, 6.3985476E-004, 5.1970761E+002
 1.7008390E+001, 1.1500693E-001, 1.0795962E-001, 5.0662851E-002, 1.4711959E-004, 1.9315974E-006, 6.7837341E-004, 5.2629889E+002
 1.8011467E+001, 1.0786807E-001, 1.1456977E-001, 5.3414917E-002, 1.5484647E-004, 7.2039133E-007, 7.1984971E-004, 5.3446225E+002
 1.9004462E+001, 1.0551956E-001, 1.1674350E-001, 5.4320480E-002, 1.5797429E-004, 8.1241786E-007, 7.3361611E-004, 5.2511328E+002
 2.0002987E+001, 1.0362507E-001, 1.1849754E-001, 5.5050831E-002, 1.6010494E-004, 6.8549327E-007, 7.4463945E-004, 5.1733965E+002
 2.1003656E+001, 9.6732816E-002, 1.2484302E-001, 5.7714464E-002, 1.9083573E-004, 3.1315839E-005, 7.8949950E-004, 5.3094774E+002
 2.2003056E+001, 9.1177064E-002, 1.2974138E-001, 5.9898337E-002, 3.5152595E-004, 2.6273834E-004, 8.5376542E-004, 5.3518563E+002
 2.3001029E+001, 8.7903918E-002, 1.3210950E-001, 6.1229484E-002, 7.2657383E-004, 1.1552856E-003, 9.4917776E-004, 5.2430293E+002
 2.4004097E+001, 8.4604318E-002, 1.3492841E-001, 6.2526800E-002, 8.6322781E-004, 1.4697485E-003, 9.9572141E-004, 5.2523391E+002
 2.5008048E+001, 8.2586800E-002, 1.3614613E-001, 6.3381163E-002, 1.2388268E-003, 2.2942650E-003, 1.0843254E-003, 5.1727121E+002
 2.6003068E+001, 8.0479502E-002, 1.3761376E-001, 6.4295872E-002, 1.5653286E-003, 2.6325185E-003, 1.1638094E-003, 5.1128611E+002
 2.7010747E+001, 7.9803445E-002, 1.3810441E-001, 6.4589092E-002, 1.6608549E-003, 2.7031934E-003, 1.1874332E-003, 5.0160516E+002
 2.8000212E+001, 7.8449060E-002, 1.3907570E-001, 6.5140274E-002, 1.8203230E-003, 3.0873079E-003, 1.2277875E-003, 5.0117673E+002
 2.9008011E+001, 7.7730377E-002, 1.3959696E-001, 6.5458344E-002, 1.9285532E-003, 3.1246002E-003, 1.2543443E-003, 4.9994505E+002
 3.0008136E+001, 7.6782808E-002, 1.3934941E-001, 6.5859895E-002, 2.4767139E-003, 5.1337591E-003, 1.3714662E-003, 4.8816173E+002
 3.1005153E+001, 7.4811959E-002, 1.4059697E-001, 6.6714733E-002, 2.8380916E-003, 5.7017285E-003, 1.4571719E-003, 4.8979200E+002
 3.2005323E+001, 7.2036918E-002, 1.4167810E-001, 6.8122455E-002, 3.8625306E-003, 6.6043371E-003, 1.6853431E-003, 4.9898185E+002
 3.3003355E+001, 7.2795911E-002, 1.4115009E-001, 6.7699225E-002, 3.6484378E-003, 7.0490594E-003, 1.6358420E-003, 4.7431614E+002
 3.4009438E+001, 7.2032725E-002, 1.4237104E-001, 6.7984166E-002, 3.4066279E-003, 6.0861085E-003, 1.5908704E-003, 4.8192649E+002
 3.5005971E+001, 7.2457493E-002, 1.4195317E-001, 6.7794466E-002, 3.3906730E-003, 6.2919456E-003, 1.5849027E-003, 4.8027457E+002
 3.6001243E+001, 7.0897448E-002, 1.4222981E-001, 6.8443302E-002, 3.9704205E-003, 8.3184257E-003, 1.7120156E-003, 4.8090168E+002
 3.7003478E+001, 7.0703606E-002, 1.4238823E-001, 6.8589062E-002, 4.0530687E-003, 7.9300885E-003, 1.7308507E-003, 4.6770920E+002
 3.8005663E+001, 7.0104111E-002, 1.4269476E-001, 6.8824137E-002, 4.1704593E-003, 8.3984478E-003, 1.7580980E-003, 4.6655683E+002
 3.9002706E+001, 6.9659753E-002, 1.4247683E-001, 6.9071527E-002, 4.5343111E-003, 9.1847170E-003, 1.8355150E-003, 4.6731540E+002
 4.0011009E+001, 6.8923154E-002, 1.4295414E-001, 6.9234891E-002, 4.5041624E-003, 1.0320345E-002, 1.8318701E-003, 4.6847173E+002
 4.1005617E+001, 6.9299138E-002, 1.4267570E-001, 6.9068023E-002, 4.4496652E-003, 1.0315041E-002, 1.8184018E-003, 4.6140246E+002
 4.2005978E+001, 6.8431756E-002, 1.4211114E-001, 6.9417751E-002, 5.0863278E-003, 1.2931804E-002, 1.9527661E-003, 4.6258902E+002
 4.3006292E+001, 6.8112581E-002, 1.4290113E-001, 6.9598297E-002, 4.9215439E-003, 1.1603972E-002, 1.9218642E-003, 4.5410393E+002
 4.4009834E+001, 6.7730301E-002, 1.4310975E-001, 6.9689766E-002, 4.9304810E-003, 1.2230320E-002, 1.9250564E-003, 4.5446015E+002
 4.5008012E+001, 6.7775083E-002, 1.4297524E-001, 6.9682042E-002, 4.9823980E-003, 1.2356922E-002, 1.9354801E-003, 4.4694993E+002
 4.6011320E+001, 6.7976434E-002, 1.4173597E-001, 6.9526636E-002, 5.3796061E-003, 1.4913829E-002, 2.0139705E-003, 4.4624709E+002
 4.7008531E+001, 6.7711734E-002, 1.4233157E-001, 6.9506048E-002, 5.0951736E-003, 1.4961746E-002, 1.9560147E-003, 4.5310987E+002
 4.8008114E+001, 6.7763862E-002, 1.4184012E-001, 6.9472978E-002, 5.2826997E-003, 1.5918383E-002, 1.9936337E-003, 4.3939079E+002
 4.9011722E+001, 6.7699520E-002, 1.4205859E-001, 6.9528907E-002, 5.2426817E-003, 1.5415131E-002, 1.9862887E-003, 4.3770757E+002
 5.0009435E+001, 6.7744672E-002, 1.4202203E-001, 6.9504412E-002, 5.2329798E-003, 1.5447660E-002, 1.9839695E-003, 4.3886777E+002
 5.1009656E+001, 6.7003955E-002, 1.4242454E-001, 6.9823264E-002, 5.3963918E-003, 1.5807312E-002, 2.0217520E-003, 4.4422345E+002
 5.2006314E+001, 6.7851745E-002, 1.4176985E-001, 6.9354843E-002, 5.1911139E-003, 1.6406491E-002, 1.9733959E-003, 4.3778976E+002
 5.3002542E+001, 6.7232282E-002, 1.4154887E-001, 6.9739905E-002, 5.7020328E-003, 1.7095205E-002, 2.0826151E-003, 4.3417088E+002
 5.4007273E+001, 6.7310256E-002, 1.4134432E-001, 6.9676143E-002, 5.7273563E-003, 1.7561473E-002, 2.0868643E-003, 4.2957225E+002
 5.5012720E+001, 6.7518243E-002, 1.4081073E-001, 6.9624913E-002, 5.9114174E-003, 1.8061881E-002, 2.1234781E-003, 4.3734130E+002
 5.6007412E+001, 6.7514058E-002, 1.4118190E-001, 6.9536708E-002, 5.6527636E-003, 1.7877935E-002, 2.0697477E-003, 4.3193795E+002
 5.7007389E+001, 6.6979671E-002, 1.4130349E-001, 6.9836511E-002, 5.9187616E-003, 1.8049451E-002, 2.1280345E-003, 4.3170449E+002
 5.8000001E+001, 6.7657858E-002, 1.4001802E-001, 6.9595080E-002, 6.2366124E-003, 1.9231124E-002, 2.1890712E-003, 4.3531077E+002
 5.9010382E+001, 6.7167591E-002, 1.4051531E-001, 6.9817271E-002, 6.2515590E-003, 1.8944256E-002, 2.1952987E-003, 4.2744505E+002
 6.0006122E+001, 6.7803987E-002, 1.3956086E-001, 6.9511597E-002, 6.3544911E-003, 2.0033203E-002, 2.2118266E-003, 4.2738703E+002
 6.1006218E+001, 6.7259045E-002, 1.3980312E-001, 6.9831919E-002, 6.5871119E-003, 1.9885406E-002, 2.2636171E-003, 4.3123803E+002
 6.2009558E+001, 6.7768318E-002, 1.3896389E-001, 6.9626914E-002, 6.7443222E-003, 2.0666506E-002, 2.2925818E-003, 4.1941086E+002
 6.3008422E+001, 6.7904247E-002, 1.3895310E-001, 6.9524995E-002, 6.6412025E-003, 2.0738325E-002, 2.2702051E-003, 4.1907560E+002
 6.4012534E+001, 6.8176155E-002, 1.3858277E-001, 6.9339946E-002, 6.6123279E-003, 2.1458970E-002, 2.2617300E-003, 4.2868032E+002
 6.5007694E+001, 6.8265653E-002, 1.3827980E-001, 6.9352791E-002, 6.7605840E-003, 2.1608424E-002, 2.2919843E-003, 4.2189509E+002
 6.6010873E+001, 6.7750645E-002, 1.3890480E-001, 6.9491996E-002, 6.6331100E-003, 2.1674048E-002, 2.2681666E-003, 4.2415282E+002
 6.7013591E+001, 6.8392419E-002, 1.3817518E-001, 6.9181679E-002, 6.6292278E-003, 2.2323241E-002, 2.2629353E-003, 4.2048645E+002
 6.8011642E+001, 6.9653917E-002, 1.3549641E-001, 6.8713583E-002, 7.3313507E-003, 2.5206305E-002, 2.3987330E-003, 4.1216414E+002
 6.9007003E+001, 6.8224014E-002, 1.3766303E-001, 6.9251506E-002, 6.9372832E-003, 2.3617179E-002, 2.3265098E-003, 4.2473034E+002
 7.0001532E+001, 6.8924297E-002, 1.3652297E-001, 6.9069329E-002, 7.2494628E-003, 2.4059915E-002, 2.3871925E-003, 4.1686649E+002
 7.1009708E+001, 6.9846367E-002, 1.3443688E-001, 6.8847967E-002, 7.9446685E-003, 2.5689777E-002, 2.5250580E-003, 4.0772183E+002
 7.2009086E+001, 6.9624307E-002, 1.3446513E-001, 6.8940507E-002, 8.0324193E-003, 2.5999156E-002, 2.5442159E-003, 4.1571543E+002
 7.3003386E+001, 6.9725358E-002, 1.3502390E-001, 6.8771091E-002, 7.6027414E-003, 2.5496523E-002, 2.4546095E-003, 4.1286697E+002
 7.4008887E+001, 6.9748124E-002, 1.3462787E-001, 6.8823151E-002, 7.8351064E-003, 2.5871103E-002, 2.5025028E-003, 4.1143420E+002
 7.5001115E+001, 7.0110201E-002, 1.3382776E-001, 6.8724375E-002, 8.0873005E-003, 2.6545113E-002, 2.5522544E-003, 4.0155870E+002
 7.6009880E+001, 7.1103183E-002, 1.3258005E-001, 6.8253063E-002, 8.1442074E-003, 2.7731555E-002, 2.5570581E-003, 3.9631895E+002
 7.7006598E+001, 7.1447185E-002, 1.3155106E-001, 6.8191316E-002, 8.5385993E-003, 2.8710200E-002, 2.6361999E-003, 4.0178764E+002
 7.8008027E+001, 6.9727872E-002, 1.3373668E-001, 6.8901761E-002, 8.3202537E-003, 2.7245319E-002, 2.6021124E-003, 4.1841147E+002
 7.9014016E+001, 6.9617954E-002, 1.3391144E-001, 6.8923449E-002, 8.2660640E-003, 2.7225932E-002, 2.5914397E-003, 4.1754860E+002
 8.0004143E+001, 7.0861008E-002, 1.3226006E-001, 6.8397561E-002, 8.4436368E-003, 2.8500189E-002, 2.6199215E-003, 3.9707271E+002
 8.1003803E+001, 7.1760623E-002, 1.3055663E-001, 6.7970873E-002, 8.7552632E-003, 3.0708556E-002, 2.6770983E-003, 3.8576549E+002
 8.2009688E+001, 7.2741365E-002, 1.2790064E-001, 6.7876501E-002, 9.8376278E-003, 3.2454174E-002, 2.8953020E-003, 3.9696553E+002
 8.3002569E+001, 7.1319138E-002, 1.3049435E-001, 6.8347040E-002, 9.1806262E-003, 3.0394824E-002, 2.7687579E-003, 4.1005960E+002
 8.4008455E+001, 7.1093713E-002, 1.3099927E-001, 6.8350054E-002, 8.9605298E-003, 3.0315819E-002, 2.7241759E-003, 4.1141281E+002
 8.5007176E+001, 7.1977134E-002, 1.2880281E-001, 6.8197724E-002, 9.7775735E-003, 3.1907518E-002, 2.8877387E-003, 4.0318038E+002
 8.6010004E+001, 7.2418112E-002, 1.2919769E-001, 6.7750720E-002, 9.1287687E-003, 3.1993227E-002, 2.7497351E-003, 3.9851477E+002
 8.7007949E+001, 7.3063164E-002, 1.2756272E-001, 6.7501188E-002, 9.5975676E-003, 3.4054524E-002, 2.8413310E-003, 3.9739908E+002
 8.8010144E+001, 7.2435642E-002, 1.2845852E-001, 6.7836961E-002, 9.5518843E-003, 3.2862569E-002, 2.8368365E-003, 3.9971312E+002
 8.9010143E+001, 7.1793673E-002, 1.2866045E-001, 6.8162362E-002, 9.8104463E-003, 3.3168370E-002, 2.8939987E-003, 4.1980321E+002
 9.0006105E+001, 7.0760411E-002, 1.3066485E-001, 6.8486996E-002, 9.2610483E-003, 3.1538629E-002, 2.7871896E-003, 4.2694067E+002
 9.1005282E+001, 7.1181569E-002, 1.2966518E-001, 6.8425102E-002, 9.6400567E-003, 3.2138478E-002, 2.8631780E-003, 4.1204846E+002
 9.2011911E+001, 7.2215227E-002, 1.2825426E-001, 6.7965172E-002, 9.7815947E-003, 3.3409806E-002, 2.8853109E-003, 3.9617926E+002
 9.3001182E+001, 7.2813890E-002, 1.2726540E-001, 6.7664652E-002, 9.9063634E-003, 3.4693003E-002, 2.9063571E-003, 3.8550261E+002
 9.4008060E+001, 7.3594502E-002, 1.2584232E-001, 6.7464864E-002, 1.0326737E-002, 3.5468279E-002, 2.9887465E-003, 3.8962448E+002
 9.5011834E+001, 7.3216034E-002, 1.2620793E-001, 6.7630556E-002, 1.0340576E-002, 3.5318335E-002, 2.9939419E-003, 4.0033299E+002
 9.6000770E+001, 7.2275475E-002, 1.2693703E-001, 6.8054734E-002, 1.0469070E-002, 3.5226282E-002, 3.0261344E-003, 4.1250519E+002
 9.7002195E+001, 7.1944529E-002, 1.2724818E-001, 6.8255791E-002, 1.0542685E-002, 3.4772050E-002, 3.0439345E-003, 4.0586712E+002
 9.8001544E+001, 7.2193496E-002, 1.2692884E-001, 6.8100905E-002, 1.0522228E-002, 3.5304693E-002, 3.0375870E-003, 3.9373411E+002
 9.9008035E+001, 7.3587742E-002, 1.2479976E-001, 6.7554339E-002, 1.0891307E-002, 3.7020381E-002, 3.1046301E-003, 3.8062516E+002
 1.0000791E+002, 7.3789787E-002, 1.2406729E-001, 6.7575102E-002, 1.1239541E-002, 3.7503735E-002, 3.1755682E-003, 4.1201988E+002
 1.0100961E+002, 7.0728740E-002, 1.2865136E-001, 6.8760231E-002, 1.0454921E-002, 3.4005744E-002, 3.0333917E-003, 4.2329857E+002
 1.0200795E+002, 7.2180069E-002, 1.2614803E-001, 6.8228538E-002, 1.1007470E-002, 3.6134957E-002, 3.1378800E-003, 4.0346199E+002
 1.0300816E+002, 7.3631110E-002, 1.2390428E-001, 6.7669332E-002, 1.1414128E-002, 3.7917640E-002, 3.2123636E-003, 3.8848021E+002
 1.0400946E+002, 7.3797639E-002, 1.2359802E-001, 6.7669351E-002, 1.1548771E-002, 3.7830178E-002, 3.2396517E-003, 3.8850416E+002
 1.0500797E+002, 7.4268727E-002, 1.2322048E-001, 6.7448834E-002, 1.1481742E-002, 3.7949585E-002, 3.2228758E-003, 4.0322526E+002
 1.0600410E+002, 7.3717492E-002, 1.2365696E-001, 6.7783543E-002, 1.1641251E-002, 3.7356141E-002, 3.2600149E-003, 3.9228091E+002
 1.0700500E+002, 7.3964143E-002, 1.2317409E-001, 6.7632885E-002, 1.1699315E-002, 3.8196831E-002, 3.2696735E-003, 3.9456207E+002
 1.0800215E+002, 7.4071457E-002, 1.2335555E-001, 6.7507230E-002, 1.1485416E-002, 3.8150726E-002, 3.2244847E-003, 3.9498075E+002
 1.0900050E+002, 7.3646235E-002, 1.2289035E-001, 6.7927336E-002, 1.2138097E-002, 3.8301487E-002, 3.3629043E-003, 4.0307405E+002
 1.1001133E+002, 7.2556204E-002, 1.2469514E-001, 6.8303384E-002, 1.1733367E-002, 3.6992589E-002, 3.2861962E-003, 4.1335644E+002
 1.1100497E+002, 7.3123665E-002, 1.2386215E-001, 6.8114349E-002, 1.1902666E-002, 3.7422083E-002, 3.3178131E-003, 4.0261953E+002
 1.1200502E+002, 7.3521608E-002, 1.2316698E-001, 6.7996248E-002, 1.2086559E-002, 3.7855687E-002, 3.3534173E-003, 3.8230430E+002
 1.1300912E+002, 7.4288181E-002, 1.2168147E-001, 6.7686413E-002, 1.2422661E-002, 3.9479396E-002, 3.4172001E-003, 3.7904838E+002
 1.1400896E+002, 7.3074014E-002, 1.2283888E-001, 6.8312317E-002, 1.2570901E-002, 3.8457926E-002, 3.4562408E-003, 4.0676871E+002
 1.1500765E+002, 7.3093142E-002, 1.2327571E-001, 6.8195172E-002, 1.2252201E-002, 3.8221907E-002, 3.3899133E-003, 4.0831634E+002
 1.1601007E+002, 7.3334998E-002, 1.2228461E-001, 6.8235555E-002, 1.2736798E-002, 3.8932971E-002, 3.4888000E-003, 4.0028638E+002
 1.1700705E+002, 7.4345461E-002, 1.2107589E-001, 6.7757007E-002, 1.2768162E-002, 4.0013088E-002, 3.4883115E-003, 3.8887104E+002
 1.1800035E+002, 7.4696816E-002, 1.2040632E-001, 6.7622076E-002, 1.2924354E-002, 4.0692034E-002, 3.5180770E-003, 3.8355343E+002
 1.1900924E+002, 7.6071423E-002, 1.1887691E-001, 6.6924653E-002, 1.2867304E-002, 4.2214776E-002, 3.4965290E-003, 3.9226120E+002
 1.2000771E+002, 7.3377081E-002, 1.2125863E-001, 6.8349173E-002, 1.3317393E-002, 4.0102455E-002, 3.6082491E-003, 4.1313080E+002
 1.2100352E+002, 7.4262999E-002, 1.2088387E-001, 6.7803437E-002, 1.2904925E-002, 4.0456157E-002, 3.5167480E-003, 4.0435704E+002
 1.2200069E+002, 7.4105824E-002, 1.2111130E-001, 6.7826624E-002, 1.2829592E-002, 4.0520329E-002, 3.5018181E-003, 4.0554119E+002
 1.2300419E+002, 7.3992579E-002, 1.2098415E-001, 6.7992467E-002, 1.3060258E-002, 4.0240249E-002, 3.5509607E-003, 3.9217005E+002
 1.2400115E+002, 7.4323882E-002, 1.2025407E-001, 6.7930084E-002, 1.3318830E-002, 4.0683462E-002, 3.6025130E-003, 3.8761690E+002
 1.2500046E+002, 7.5900973E-002, 1.1858264E-001, 6.7026607E-002, 1.3109616E-002, 4.2891065E-002, 3.5471882E-003, 3.8778720E+002
 1.2601219E+002, 7.3730970E-002, 1.2118759E-001, 6.8121617E-002, 1.3107165E-002, 4.0145750E-002, 3.5623345E-003, 4.0801969E+002
 1.2701357E+002, 7.3814194E-002, 1.2138594E-001, 6.7961811E-002, 1.2851177E-002, 4.0373355E-002, 3.5081416E-003, 4.0155804E+002
 1.2800202E+002, 7.4237844E-002, 1.2068548E-001, 6.7781793E-002, 1.2973282E-002, 4.1085125E-002, 3.5303460E-003, 3.9177596E+002
 1.2900367E+002, 7.5156731E-002, 1.1917157E-001, 6.7443720E-002, 1.3289443E-002, 4.2301183E-002, 3.5896417E-003, 3.7881597E+002
 1.3000319E+002, 7.6021561E-002, 1.1719656E-001, 6.7297414E-002, 1.4012757E-002, 4.3495147E-002, 3.7342564E-003, 3.9975132E+002
 1.3100002E+002, 7.2731983E-002, 1.2227737E-001, 6.8542617E-002, 1.3070377E-002, 3.9601851E-002, 3.5609351E-003, 4.1701827E+002
 1.3200078E+002, 7.3353412E-002, 1.2116470E-001, 6.8380900E-002, 1.3393125E-002, 4.0195147E-002, 3.6240700E-003, 4.0134003E+002
 1.3300503E+002, 7.4075410E-002, 1.1981258E-001, 6.8159860E-002, 1.3761005E-002, 4.1202807E-002, 3.6955295E-003, 3.8630181E+002
 1.3400574E+002, 7.4812838E-002, 1.1854756E-001, 6.7775216E-002, 1.3921131E-002, 4.2964039E-002, 3.7225648E-003, 3.8609358E+002
 1.3500444E+002, 7.4446141E-002, 1.1912221E-001, 6.8023731E-002, 1.3924908E-002, 4.1849462E-002, 3.7268383E-003, 4.1389649E+002
 1.3601575E+002, 7.3123607E-002, 1.2080149E-001, 6.8557066E-002, 1.3744329E-002, 4.0806127E-002, 3.6978750E-003, 4.0914152E+002
 1.3700905E+002, 7.4501157E-002, 1.1851041E-001, 6.8180643E-002, 1.4361855E-002, 4.1882326E-002, 3.8176964E-003, 3.9424852E+002
 1.3800680E+002, 7.4154829E-002, 1.1921349E-001, 6.8209772E-002, 1.4081778E-002, 4.1756552E-002, 3.7613297E-003, 3.8533693E+002
 1.3901085E+002, 7.3981951E-002, 1.1904259E-001, 6.8360393E-002, 1.4318162E-002, 4.1903875E-002, 3.8114475E-003, 3.8676936E+002
 1.4000415E+002, 7.4742090E-002, 1.1840416E-001, 6.8022010E-002, 1.4241163E-002, 4.2048950E-002, 3.7909431E-003, 3.8049462E+002
 1.4100420E+002, 7.6263820E-002, 1.1588845E-001, 6.7503371E-002, 1.4810940E-002, 4.3830204E-002, 3.8990832E-003, 3.8379202E+002
 1.4200426E+002, 7.6513450E-002, 1.1541235E-001, 6.7447965E-002, 1.4963601E-002, 4.4068401E-002, 3.9292483E-003, 3.9184517E+002
 1.4300187E+002, 7.3821949E-002, 1.1952003E-001, 6.8498190E-002, 1.4247179E-002, 4.0790643E-002, 3.7989598E-003, 4.1517262E+002
 1.4400881E+002, 7.3921452E-002, 1.1870009E-001, 6.8581110E-002, 1.4701427E-002, 4.1498414E-002, 3.8923104E-003, 4.1319660E+002
 1.4500075E+002, 7.4028172E-002, 1.1828971E-001, 6.8589958E-002, 1.4893838E-002, 4.1813088E-002, 3.9314724E-003, 3.9913530E+002
 1.4600078E+002, 7.4737980E-002, 1.1721254E-001, 6.8306626E-002, 1.5073471E-002, 4.2703920E-002, 3.9638564E-003, 3.8627283E+002
 1.4700517E+002, 7.5026183E-002, 1.1734958E-001, 6.8028374E-002, 1.4718557E-002, 4.2915658E-002, 3.8878896E-003, 3.9137660E+002
 1.4800353E+002, 7.5717264E-002, 1.1688015E-001, 6.7643386E-002, 1.4518868E-002, 4.3295877E-002, 3.8418575E-003, 3.9684429E+002
 1.4900272E+002, 7.5259415E-002, 1.1701739E-001, 6.7925610E-002, 1.4757805E-002, 4.3223791E-002, 3.8943825E-003, 3.9238252E+002
 1.5000224E+002, 7.5876531E-002, 1.1610038E-001, 6.7675377E-002, 1.4901142E-002, 4.3983289E-002, 3.9198769E-003, 3.8401021E+002
 1.5100050E+002, 7.5949377E-002, 1.1608311E-001, 6.7710333E-002, 1.4943001E-002, 4.3502232E-002, 3.9288282E-003, 3.9308824E+002
 1.5200799E+002, 7.5626877E-002, 1.1673240E-001, 6.7731065E-002, 1.4678092E-002, 4.3434553E-002, 3.8754195E-003, 4.0230262E+002
 1.5300038E+002, 7.5396662E-002, 1.1628871E-001, 6.7999619E-002, 1.5160593E-002, 4.3647387E-002, 3.9771473E-003, 4.0553861E+002
 1.5400511E+002, 7.4834172E-002, 1.1747727E-001, 6.8195548E-002, 1.4837062E-002, 4.2450927E-002, 3.9142978E-003, 4.1145319E+002
