s,,,,,,,
Time,O2 EXHAUST,CO2 EXHAUST,H2O EXHAUST,CO EXHAUST,FUEL EXHAUST,SOOT EXHAUST,TEMP EXHAUST
 0.0000000E+000, 2.3099739E-001, 5.9146498E-004, 5.9412092E-003, 0.0000000E+000, 0.0000000E+000, 0.0000000E+000, 2.0000000E+001
 1.0048016E+000, 2.3099739E-001, 5.9146498E-004, 5.9412092E-003, 3.6481261E-031, 4.0691486E-030, 1.1654364E-031, 2.0451244E+001
 2.0030948E+000, 2.2311821E-001, 7.7831630E-003, 8.9682441E-003, 3.9776338E-005, 2.7947316E-004, 5.1863973E-005, 9.7377842E+001
 3.0048424E+000, 2.1908941E-001, 1.1469863E-002, 1.0522072E-002, 6.1996947E-005, 3.6723529E-004, 7.8843295E-005, 1.3627960E+002
 4.0004234E+000, 2.1239616E-001, 1.7609177E-002, 1.3109820E-002, 9.8831795E-005, 4.4637007E-004, 1.2373457E-004, 1.9638018E+002
 5.0063135E+000, 2.0596072E-001, 2.3531173E-002, 1.5598676E-002, 1.2650162E-004, 4.7949985E-004, 1.6535118E-004, 2.4827929E+002
 6.0053128E+000, 2.0130254E-001, 2.7839581E-002, 1.7386221E-002, 1.2271257E-004, 5.4369054E-004, 1.9050008E-004, 2.8677280E+002
 7.0006815E+000, 1.9592017E-001, 3.2826801E-002, 1.9469051E-002, 1.3183388E-004, 4.9541351E-004, 2.2250689E-004, 3.2468842E+002
 8.0020037E+000, 1.8844116E-001, 3.9809671E-002, 2.2359561E-002, 1.1723243E-004, 3.4454728E-004, 2.6145223E-004, 3.6706137E+002
 9.0000378E+000, 1.8174475E-001, 4.6060525E-002, 2.4946256E-002, 1.0338952E-004, 2.2029632E-004, 2.9614941E-004, 4.0313155E+002
 1.0004423E+001, 1.7257636E-001, 5.4600495E-002, 2.8486779E-002, 9.1570051E-005, 9.3179227E-005, 3.4507388E-004, 4.3532503E+002
 1.1003585E+001, 1.6553383E-001, 6.1147426E-002, 3.1205569E-002, 8.7431232E-005, 2.6128246E-005, 3.8363591E-004, 4.5600970E+002
 1.2000534E+001, 1.5939988E-001, 6.6832499E-002, 3.3573002E-002, 9.0895806E-005, 5.6959307E-006, 4.1863503E-004, 4.7065845E+002
 1.3006333E+001, 1.5232069E-001, 7.3384952E-002, 3.6305134E-002, 9.8642731E-005, 2.6407522E-007, 4.5977890E-004, 4.8782143E+002
 1.4008717E+001, 1.4803998E-001, 7.7345671E-002, 3.7957199E-002, 1.0396011E-004, 6.9790157E-008, 4.8478496E-004, 4.8671987E+002
 1.5003386E+001, 1.4178476E-001, 8.3133113E-002, 4.0371305E-002, 1.1182679E-004, 6.8088339E-008, 5.2134482E-004, 4.9481207E+002
 1.6008054E+001, 1.3802898E-001, 8.6608101E-002, 4.1820774E-002, 1.1650183E-004, 4.0587615E-008, 5.4328630E-004, 4.9591450E+002
 1.7000340E+001, 1.3225195E-001, 9.1953039E-002, 4.4050350E-002, 1.2382104E-004, 7.7500974E-008, 5.7706239E-004, 4.9968743E+002
 1.8005305E+001, 1.2760686E-001, 9.6250792E-002, 4.5843042E-002, 1.2963966E-004, 7.4045124E-008, 6.0420677E-004, 5.0351816E+002
 1.9003198E+001, 1.2442213E-001, 9.9197474E-002, 4.7072102E-002, 1.3355749E-004, 6.0976194E-008, 6.2280250E-004, 5.0924648E+002
 2.0000139E+001, 1.2117546E-001, 1.0220144E-001, 4.8325081E-002, 1.3757751E-004, 3.4339127E-008, 6.4176531E-004, 5.0544418E+002
 2.1003895E+001, 1.1805022E-001, 1.0509295E-001, 4.9531229E-002, 1.4152506E-004, 4.3691164E-008, 6.6003498E-004, 5.0434986E+002
 2.2005142E+001, 1.1559720E-001, 1.0736251E-001, 5.0477938E-002, 1.4462334E-004, 4.8925955E-008, 6.7437487E-004, 5.0265352E+002
 2.3009048E+001, 1.1084093E-001, 1.1176298E-001, 5.2313578E-002, 1.5068754E-004, 9.6764386E-008, 7.0219084E-004, 5.0922643E+002
 2.4006593E+001, 1.0823227E-001, 1.1417649E-001, 5.3320375E-002, 1.5402719E-004, 1.3045738E-007, 7.1744986E-004, 5.1266297E+002
 2.5000662E+001, 1.0789185E-001, 1.1449169E-001, 5.3451683E-002, 1.5427368E-004, 6.2991156E-008, 7.1940206E-004, 5.0128522E+002
 2.6009392E+001, 1.0504428E-001, 1.1712641E-001, 5.4550637E-002, 1.5779157E-004, 3.4404216E-008, 7.3603222E-004, 5.0290571E+002
 2.7002581E+001, 1.0281412E-001, 1.1918960E-001, 5.5411382E-002, 1.6073160E-004, 8.8558781E-008, 7.4909470E-004, 5.0291603E+002
 2.8006481E+001, 1.0112469E-001, 1.2075277E-001, 5.6063373E-002, 1.6280409E-004, 7.6534100E-008, 7.5895817E-004, 5.0240976E+002
 2.9007814E+001, 9.8761699E-002, 1.2293811E-001, 5.6975608E-002, 1.6647444E-004, 3.1073901E-007, 7.7291323E-004, 5.0077898E+002
 3.0005833E+001, 9.5684465E-002, 1.2578302E-001, 5.8163831E-002, 1.7194210E-004, 1.0429731E-006, 7.9122800E-004, 5.0505569E+002
 3.1005063E+001, 9.4390502E-002, 1.2697264E-001, 5.8665418E-002, 1.7916008E-004, 2.9342533E-006, 7.9994388E-004, 4.9884489E+002
 3.2001804E+001, 9.2457857E-002, 1.2875533E-001, 5.9412784E-002, 1.8551048E-004, 4.8268349E-006, 8.1204733E-004, 4.9734571E+002
 3.3000654E+001, 9.0485427E-002, 1.3057581E-001, 6.0175266E-002, 1.9123781E-004, 6.1979158E-006, 8.2424487E-004, 5.0098795E+002
 3.4003118E+001, 8.6374582E-002, 1.3435553E-001, 6.1768579E-002, 2.1381593E-004, 1.2742451E-005, 8.5186106E-004, 5.0556068E+002
 3.5006587E+001, 8.6204808E-002, 1.3451414E-001, 6.1833520E-002, 2.1276034E-004, 1.3164872E-005, 8.5259049E-004, 4.9708445E+002
 3.6005563E+001, 8.4547839E-002, 1.3604849E-001, 6.2472524E-002, 2.1378593E-004, 1.3450843E-005, 8.6205589E-004, 4.9898595E+002
 3.7003636E+001, 8.1518507E-002, 1.3883702E-001, 6.3645898E-002, 2.2823370E-004, 1.6419921E-005, 8.8195628E-004, 4.9892732E+002
 3.8009536E+001, 7.9079445E-002, 1.4109201E-001, 6.4587639E-002, 2.3247039E-004, 1.7223837E-005, 8.9645250E-004, 5.0632200E+002
 3.9004832E+001, 7.9370790E-002, 1.4082130E-001, 6.4475284E-002, 2.3270319E-004, 1.9012390E-005, 8.9487121E-004, 5.0526687E+002
 4.0002560E+001, 7.6529458E-002, 1.4343830E-001, 6.5575334E-002, 2.4506488E-004, 2.1783864E-005, 9.1329077E-004, 5.0577465E+002
 4.1004979E+001, 7.5348953E-002, 1.4452807E-001, 6.6031427E-002, 2.4814439E-004, 2.3724436E-005, 9.2051760E-004, 4.9929908E+002
 4.2000749E+001, 7.4154819E-002, 1.4562805E-001, 6.6493322E-002, 2.5285151E-004, 2.7181735E-005, 9.2815499E-004, 4.9879037E+002
 4.3001122E+001, 7.2785417E-002, 1.4688568E-001, 6.7024725E-002, 2.6167248E-004, 2.8456359E-005, 9.3762428E-004, 4.9508763E+002
 4.4008260E+001, 7.0674475E-002, 1.4884324E-001, 6.7838198E-002, 2.6111116E-004, 2.6800579E-005, 9.4929953E-004, 5.0117546E+002
 4.5003824E+001, 6.8913431E-002, 1.5046306E-001, 6.8520629E-002, 2.7037446E-004, 2.9116518E-005, 9.6104613E-004, 4.9825663E+002
 4.6007656E+001, 6.8288211E-002, 1.5104050E-001, 6.8761923E-002, 2.7161725E-004, 3.1170653E-005, 9.6479205E-004, 4.9814595E+002
 4.7007796E+001, 6.6880699E-002, 1.5233114E-001, 6.9308635E-002, 2.8209165E-004, 3.3312023E-005, 9.7481479E-004, 4.9434224E+002
 4.8005871E+001, 6.4374005E-002, 1.5464723E-001, 7.0276923E-002, 2.8752288E-004, 3.4399046E-005, 9.8993525E-004, 5.0101937E+002
 4.9000048E+001, 6.2646365E-002, 1.5623601E-001, 7.0946644E-002, 2.9698503E-004, 3.5887341E-005, 1.0015375E-003, 4.9977163E+002
 5.0005266E+001, 6.1730418E-002, 1.5707862E-001, 7.1301433E-002, 3.0159621E-004, 3.7785505E-005, 1.0076034E-003, 4.9535206E+002
 5.1010158E+001, 6.1110995E-002, 1.5765386E-001, 7.1539925E-002, 3.0085529E-004, 3.6918444E-005, 1.0109107E-003, 4.9260682E+002
 5.2004692E+001, 5.8456924E-002, 1.6010776E-001, 7.2565128E-002, 3.0585911E-004, 3.4868258E-005, 1.0267700E-003, 5.0398106E+002
 5.3006566E+001, 5.8147488E-002, 1.6037871E-001, 7.2689400E-002, 3.1796877E-004, 3.6374891E-005, 1.0309990E-003, 4.9833177E+002
 5.4004490E+001, 5.7400493E-002, 1.6107440E-001, 7.2975835E-002, 3.1501139E-004, 3.8437322E-005, 1.0345569E-003, 5.0094391E+002
 5.5005807E+001, 5.5985540E-002, 1.6238947E-001, 7.3519917E-002, 3.1213482E-004, 3.8588742E-005, 1.0418644E-003, 5.0240662E+002
 5.6003880E+001, 5.4730535E-002, 1.6353193E-001, 7.4009975E-002, 3.2779302E-004, 4.1641121E-005, 1.0521056E-003, 4.9660914E+002
 5.7003093E+001, 5.3636873E-002, 1.6454147E-001, 7.4432343E-002, 3.3049449E-004, 4.4587809E-005, 1.0587680E-003, 4.9722205E+002
 5.8002429E+001, 5.1828532E-002, 1.6620283E-001, 7.5134520E-002, 3.4231105E-004, 4.2370889E-005, 1.0713123E-003, 4.9754440E+002
 5.9004208E+001, 5.1139737E-002, 1.6685010E-001, 7.5397024E-002, 3.3537902E-004, 4.2409338E-005, 1.0737263E-003, 5.0060294E+002
 6.0000631E+001, 5.1060775E-002, 1.6692728E-001, 7.5425722E-002, 3.3185537E-004, 4.4862215E-005, 1.0734358E-003, 5.0128230E+002
 6.1009270E+001, 4.9377962E-002, 1.6845030E-001, 7.6085796E-002, 3.5979081E-004, 4.8880400E-005, 1.0886025E-003, 4.9847241E+002
 6.2004384E+001, 4.7792591E-002, 1.6991967E-001, 7.6697009E-002, 3.6000226E-004, 4.7593495E-005, 1.0975018E-003, 5.0312020E+002
 6.3007689E+001, 4.8585859E-002, 1.6919810E-001, 7.6386661E-002, 3.4926443E-004, 4.8099587E-005, 1.0908516E-003, 4.9496843E+002
 6.4006746E+001, 4.6812729E-002, 1.7083124E-001, 7.7073587E-002, 3.5741933E-004, 4.7162425E-005, 1.1024409E-003, 4.9444431E+002
 6.5007831E+001, 4.6034864E-002, 1.7153502E-001, 7.7378599E-002, 3.7033251E-004, 5.0085764E-005, 1.1094502E-003, 4.9838748E+002
 6.6004167E+001, 4.4415052E-002, 1.7302984E-001, 7.8004790E-002, 3.7514547E-004, 5.1490776E-005, 1.1194894E-003, 5.0181823E+002
 6.7001133E+001, 4.3306781E-002, 1.7404668E-001, 7.8434990E-002, 3.8284700E-004, 5.3675109E-005, 1.1272678E-003, 4.9999689E+002
 6.8010117E+001, 4.2122876E-002, 1.7515815E-001, 7.8887056E-002, 3.7228390E-004, 5.0617987E-005, 1.1317004E-003, 5.0292693E+002
 6.9009289E+001, 4.1659762E-002, 1.7558679E-001, 7.9065870E-002, 3.7288023E-004, 4.9815192E-005, 1.1344111E-003, 4.9988137E+002
 7.0002842E+001, 4.1929836E-002, 1.7533596E-001, 7.8961966E-002, 3.7329425E-004, 4.9750613E-005, 1.1329884E-003, 4.9484518E+002
 7.1007781E+001, 4.0597453E-002, 1.7655218E-001, 7.9481105E-002, 3.8729288E-004, 5.3164155E-005, 1.1433183E-003, 4.9968542E+002
 7.2001320E+001, 4.0609240E-002, 1.7653110E-001, 7.9479176E-002, 3.9445104E-004, 5.7753738E-005, 1.1447261E-003, 4.9770744E+002
 7.3003890E+001, 3.8988207E-002, 1.7804944E-001, 8.0099689E-002, 3.8309332E-004, 5.1365646E-005, 1.1514400E-003, 4.9558593E+002
 7.4003340E+001, 3.9305836E-002, 1.7774220E-001, 7.9980525E-002, 3.9209336E-004, 5.7510998E-005, 1.1515183E-003, 4.9281314E+002
 7.5009466E+001, 3.8161429E-002, 1.7878207E-001, 8.0428728E-002, 4.0856287E-004, 5.6114840E-005, 1.1613153E-003, 4.9942003E+002
 7.6000973E+001, 3.7378817E-002, 1.7952399E-001, 8.0725428E-002, 3.9622515E-004, 5.2547738E-005, 1.1631406E-003, 5.0012594E+002
 7.7007815E+001, 3.6090152E-002, 1.8069822E-001, 8.1228189E-002, 4.1135450E-004, 5.6074111E-005, 1.1734599E-003, 4.9710103E+002
 7.8009478E+001, 3.5508548E-002, 1.8125253E-001, 8.1447966E-002, 4.0015076E-004, 5.1855088E-005, 1.1743979E-003, 5.0100165E+002
 7.9000330E+001, 3.4849941E-002, 1.8182767E-001, 8.1712524E-002, 4.2667981E-004, 5.7859657E-005, 1.1835514E-003, 4.9757457E+002
 8.0007730E+001, 3.3402968E-002, 1.8315652E-001, 8.2274515E-002, 4.3649860E-004, 5.6319724E-005, 1.1936638E-003, 4.9803630E+002
 8.1003477E+001, 3.4143217E-002, 1.8248105E-001, 8.1985693E-002, 4.2821168E-004, 5.6328808E-005, 1.1878169E-003, 4.9784071E+002
 8.2004795E+001, 3.3361124E-002, 1.8321261E-001, 8.2284887E-002, 4.2298759E-004, 5.6309357E-005, 1.1911050E-003, 5.0403921E+002
 8.3007497E+001, 3.3128344E-002, 1.8341320E-001, 8.2378657E-002, 4.3382908E-004, 6.2221239E-005, 1.1946381E-003, 4.9511893E+002
 8.4003612E+001, 3.1713780E-002, 1.8470591E-001, 8.2930392E-002, 4.4861238E-004, 5.9433186E-005, 1.2055972E-003, 5.0063776E+002
 8.5008297E+001, 3.1560807E-002, 1.8486599E-001, 8.2983377E-002, 4.3444586E-004, 5.8746670E-005, 1.2035244E-003, 4.9668327E+002
 8.6001875E+001, 3.0623414E-002, 1.8573055E-001, 8.3346567E-002, 4.3827159E-004, 5.5702440E-005, 1.2095542E-003, 5.0084216E+002
 8.7007294E+001, 3.0521279E-002, 1.8581615E-001, 8.3388009E-002, 4.4440507E-004, 6.1319009E-005, 1.2113850E-003, 4.9635153E+002
 8.8003882E+001, 2.8765143E-002, 1.8744716E-001, 8.4064867E-002, 4.4294594E-004, 5.4297045E-005, 1.2209001E-003, 5.0033428E+002
 8.9010542E+001, 2.9506345E-002, 1.8676058E-001, 8.3778429E-002, 4.4198804E-004, 5.8213149E-005, 1.2165577E-003, 4.9932866E+002
 9.0000783E+001, 2.8955437E-002, 1.8728107E-001, 8.3987698E-002, 4.3450687E-004, 5.6777220E-005, 1.2180900E-003, 5.0162491E+002
 9.1007932E+001, 2.8284653E-002, 1.8786370E-001, 8.4259226E-002, 4.6502241E-004, 5.6683953E-005, 1.2281433E-003, 5.0061433E+002
 9.2007647E+001, 2.7733630E-002, 1.8837771E-001, 8.4469994E-002, 4.6194133E-004, 5.9664260E-005, 1.2305800E-003, 5.0176240E+002
 9.3005445E+001, 2.6736182E-002, 1.8926773E-001, 8.4865033E-002, 4.8798563E-004, 6.4637442E-005, 1.2415270E-003, 5.0324118E+002
 9.4006077E+001, 2.7198827E-002, 1.8886152E-001, 8.4679977E-002, 4.7112325E-004, 6.0100662E-005, 1.2354639E-003, 4.9660647E+002
 9.5005273E+001, 2.5511560E-002, 1.9044018E-001, 8.5326284E-002, 4.6051563E-004, 5.4259141E-005, 1.2427020E-003, 5.0108448E+002
 9.6000766E+001, 2.5995518E-002, 1.9000491E-001, 8.5135594E-002, 4.5039839E-004, 5.2810033E-005, 1.2379101E-003, 5.0590659E+002
 9.7010169E+001, 2.5482504E-002, 1.9042146E-001, 8.5351086E-002, 4.9455702E-004, 6.3716421E-005, 1.2498878E-003, 4.9964715E+002
 9.8009114E+001, 2.5974865E-002, 1.9000835E-001, 8.5147821E-002, 4.6168857E-004, 5.8529064E-005, 1.2403515E-003, 4.9921542E+002
 9.9003130E+001, 2.4559893E-002, 1.9127662E-001, 8.5707590E-002, 4.9546669E-004, 5.7994979E-005, 1.2552358E-003, 5.0212115E+002
 1.0000219E+002, 2.4633009E-002, 1.9119079E-001, 8.5684893E-002, 5.0903773E-004, 6.1152557E-005, 1.2576283E-003, 5.0090151E+002
 1.0100950E+002, 2.5822400E-002, 1.9008592E-001, 8.5226005E-002, 5.0965183E-004, 6.9148231E-005, 1.2511024E-003, 4.9521381E+002
 1.0200951E+002, 2.3528116E-002, 1.9218053E-001, 8.6120639E-002, 5.3431410E-004, 7.0066211E-005, 1.2690115E-003, 5.0671274E+002
 1.0300970E+002, 2.2807120E-002, 1.9286690E-001, 8.6393494E-002, 5.2118669E-004, 6.4005279E-005, 1.2703328E-003, 5.0411886E+002
 1.0400398E+002, 2.2939855E-002, 1.9273544E-001, 8.6344862E-002, 5.2748801E-004, 6.5692483E-005, 1.2708917E-003, 4.9892031E+002
 1.0500563E+002, 2.3160551E-002, 1.9253330E-001, 8.6258704E-002, 5.2530488E-004, 6.7497669E-005, 1.2692056E-003, 4.9814139E+002
 1.0600669E+002, 2.1814072E-002, 1.9376582E-001, 8.6783568E-002, 5.3815897E-004, 6.2697370E-005, 1.2793883E-003, 5.0673038E+002
 1.0700976E+002, 2.1810127E-002, 1.9378955E-001, 8.6778294E-002, 5.2237045E-004, 6.3420731E-005, 1.2761462E-003, 4.9748121E+002
 1.0800127E+002, 2.1936864E-002, 1.9369444E-001, 8.6722316E-002, 5.0522463E-004, 6.1618736E-005, 1.2718970E-003, 4.9751481E+002
 1.0900956E+002, 2.1646908E-002, 1.9395491E-001, 8.6837162E-002, 5.1203074E-004, 5.9540669E-005, 1.2749257E-003, 5.0078065E+002
 1.1000495E+002, 2.2118477E-002, 1.9355386E-001, 8.6644079E-002, 4.8456092E-004, 5.5723713E-005, 1.2666195E-003, 4.9870098E+002
 1.1100144E+002, 2.2002901E-002, 1.9363531E-001, 8.6696642E-002, 5.0407580E-004, 5.8817885E-005, 1.2712943E-003, 4.9924341E+002
 1.1200466E+002, 2.0501476E-002, 1.9494642E-001, 8.7300748E-002, 5.6556692E-004, 6.6586259E-005, 1.2923785E-003, 4.9966748E+002
 1.1300790E+002, 2.0316102E-002, 1.9508462E-001, 8.7382677E-002, 5.9109872E-004, 7.0709432E-005, 1.2986854E-003, 4.9587987E+002
 1.1400565E+002, 2.0492073E-002, 1.9500506E-001, 8.7288580E-002, 5.2741663E-004, 6.1733973E-005, 1.2845523E-003, 5.0560954E+002
 1.1500419E+002, 2.0979877E-002, 1.9455449E-001, 8.7099854E-002, 5.2599757E-004, 6.3021839E-005, 1.2815331E-003, 5.0248923E+002
 1.1600176E+002, 2.0557602E-002, 1.9489415E-001, 8.7278239E-002, 5.6479371E-004, 7.2369953E-005, 1.2918978E-003, 4.9735928E+002
 1.1700128E+002, 1.8757625E-002, 1.9654308E-001, 8.7979134E-002, 5.8064727E-004, 6.7819617E-005, 1.3052328E-003, 5.0614694E+002
 1.1800074E+002, 1.8305921E-002, 1.9699278E-001, 8.8144081E-002, 5.5761141E-004, 6.0714554E-005, 1.3030035E-003, 5.0270174E+002
 1.1900338E+002, 1.8314339E-002, 1.9693754E-001, 8.8156217E-002, 5.9423580E-004, 6.3059021E-005, 1.3105231E-003, 5.0150002E+002
 1.2000283E+002, 1.9445106E-002, 1.9590643E-001, 8.7713737E-002, 5.7996457E-004, 6.9419455E-005, 1.3012502E-003, 4.9259916E+002
 1.2100839E+002, 1.8177775E-002, 1.9708649E-001, 8.8201623E-002, 5.7698709E-004, 6.1772414E-005, 1.3077224E-003, 5.0304657E+002
 1.2200783E+002, 1.9392313E-002, 1.9591894E-001, 8.7745127E-002, 6.0731491E-004, 7.5817783E-005, 1.3071896E-003, 4.9490635E+002
 1.2300931E+002, 1.8583237E-002, 1.9671476E-001, 8.8043244E-002, 5.7304959E-004, 6.6369018E-005, 1.3046383E-003, 4.9986350E+002
 1.2400878E+002, 1.7885097E-002, 1.9731621E-001, 8.8327171E-002, 6.0833814E-004, 6.8145737E-005, 1.3158284E-003, 4.9825277E+002
 1.2500003E+002, 1.8517985E-002, 1.9677210E-001, 8.8069526E-002, 5.7558569E-004, 6.5802437E-005, 1.3055276E-003, 4.9749398E+002
 1.2600655E+002, 1.8664626E-002, 1.9661445E-001, 8.8019692E-002, 5.9200484E-004, 6.9104607E-005, 1.3080979E-003, 4.9733398E+002
 1.2700031E+002, 1.7780694E-002, 1.9746237E-001, 8.8351360E-002, 5.7016768E-004, 6.5899779E-005, 1.3085253E-003, 5.0228136E+002
 1.2800337E+002, 1.7373981E-002, 1.9780175E-001, 8.8520556E-002, 5.9944761E-004, 6.6162059E-005, 1.3168479E-003, 5.0317399E+002
 1.2900649E+002, 1.6951581E-002, 1.9815596E-001, 8.8695856E-002, 6.2865474E-004, 6.5481993E-005, 1.3252444E-003, 5.0092428E+002
 1.3000910E+002, 1.8443532E-002, 1.9683745E-001, 8.8099724E-002, 5.7873120E-004, 6.4079708E-005, 1.3065957E-003, 4.9766159E+002
 1.3100639E+002, 1.7892766E-002, 1.9736661E-001, 8.8305890E-002, 5.6425879E-004, 6.3380452E-005, 1.3066813E-003, 4.9858231E+002
 1.3200572E+002, 1.7174131E-002, 1.9798278E-001, 8.8598827E-002, 6.0257712E-004, 6.7046731E-005, 1.3186097E-003, 4.9817418E+002
 1.3300585E+002, 1.6625108E-002, 1.9846171E-001, 8.8819882E-002, 6.2543891E-004, 6.9964030E-005, 1.3263973E-003, 5.0165290E+002
 1.3400007E+002, 1.6452796E-002, 1.9865421E-001, 8.8876162E-002, 6.0062288E-004, 6.5299702E-005, 1.3222366E-003, 5.0132221E+002
 1.3500478E+002, 1.5497709E-002, 1.9951001E-001, 8.9252876E-002, 6.2240935E-004, 7.2224910E-005, 1.3320645E-003, 5.0472626E+002
 1.3600477E+002, 1.6492810E-002, 1.9861222E-001, 8.8861935E-002, 6.0400814E-004, 6.7912461E-005, 1.3227094E-003, 5.0132744E+002
 1.3701070E+002, 1.5450277E-002, 1.9955538E-001, 8.9270963E-002, 6.2158865E-004, 7.0574699E-005, 1.3321619E-003, 5.0146376E+002
 1.3800027E+002, 1.5865485E-002, 1.9918438E-001, 8.9107233E-002, 6.1169184E-004, 6.5237005E-005, 1.3278044E-003, 5.0797061E+002
 1.3900369E+002, 1.5546200E-002, 1.9943283E-001, 8.9245809E-002, 6.4847645E-004, 6.6781889E-005, 1.3371883E-003, 5.0094291E+002
 1.4000151E+002, 1.5945504E-002, 1.9907115E-001, 8.9088667E-002, 6.4145599E-004, 6.9518456E-005, 1.3335037E-003, 4.9938789E+002
 1.4100273E+002, 1.5824282E-002, 1.9922980E-001, 8.9120728E-002, 6.0606720E-004, 6.5109778E-005, 1.3268722E-003, 5.0273933E+002
 1.4200762E+002, 1.4891745E-002, 2.0003436E-001, 8.9499454E-002, 6.5215098E-004, 6.8326040E-005, 1.3416007E-003, 4.9687686E+002
 1.4300652E+002, 1.4904120E-002, 2.0006630E-001, 8.9480677E-002, 6.1870003E-004, 6.5771963E-005, 1.3346212E-003, 5.0191328E+002
 1.4400021E+002, 1.5027559E-002, 1.9990668E-001, 8.9447362E-002, 6.5320750E-004, 7.0434030E-005, 1.3410579E-003, 5.0329512E+002
 1.4500966E+002, 1.5683704E-002, 1.9936426E-001, 8.9174079E-002, 6.0337563E-004, 6.1750945E-005, 1.3271053E-003, 5.0176162E+002
 1.4601027E+002, 1.6636239E-002, 1.9847373E-001, 8.8808876E-002, 6.0871981E-004, 6.5690889E-005, 1.3228851E-003, 4.9889353E+002
 1.4700983E+002, 1.4383311E-002, 2.0050255E-001, 8.9696267E-002, 6.5437582E-004, 6.9216563E-005, 1.3448989E-003, 5.0265322E+002
 1.4800256E+002, 1.5220168E-002, 1.9966773E-001, 8.9392101E-002, 6.9924219E-004, 7.7181713E-005, 1.3494880E-003, 4.9858275E+002
 1.4900870E+002, 1.5172577E-002, 1.9973321E-001, 8.9403396E-002, 6.8261930E-004, 7.6815532E-005, 1.3463186E-003, 5.0308958E+002
 1.5000020E+002, 1.4502399E-002, 2.0032299E-001, 8.9672362E-002, 7.0735264E-004, 7.5307492E-005, 1.3551753E-003, 5.0343117E+002
 1.5100648E+002, 1.4276801E-002, 2.0046754E-001, 8.9781104E-002, 7.5806051E-004, 7.3251757E-005, 1.3669183E-003, 4.9639768E+002
 1.5200822E+002, 1.3902289E-002, 2.0082544E-001, 8.9921309E-002, 7.4908967E-004, 7.6519497E-005, 1.3671515E-003, 4.9630937E+002
 1.5300235E+002, 1.3766558E-002, 2.0100706E-001, 8.9955845E-002, 7.0631697E-004, 7.1804158E-005, 1.3590753E-003, 5.0141033E+002
 1.5400672E+002, 1.2919491E-002, 2.0179578E-001, 9.0281606E-002, 7.0399914E-004, 6.8758690E-005, 1.3633308E-003, 5.0493940E+002
