s,,,,,,,
Time,O2 EXHAUST,CO2 EXHAUST,H2O EXHAUST,CO EXHAUST,FUEL EXHAUST,SOOT EXHAUST,TEMP EXHAUST
 0.0000000E+000, 2.3099739E-001, 5.9146498E-004, 5.9412092E-003, 0.0000000E+000, 0.0000000E+000, 0.0000000E+000, 2.0000000E+001
 1.0019084E+000, 2.3099739E-001, 5.9146498E-004, 5.9412092E-003, 1.2587506E-029, 8.3916440E-029, 4.9555320E-030, 2.1376350E+001
 2.0008478E+000, 2.2319130E-001, 6.4887963E-003, 9.3063027E-003, 5.0452898E-005, 4.9077255E-005, 5.7479136E-005, 9.7488531E+001
 3.0017942E+000, 2.1596616E-001, 1.1905451E-002, 1.2433722E-002, 1.2536979E-004, 9.8948953E-005, 1.1640016E-004, 1.6616259E+002
 4.0025278E+000, 2.1112475E-001, 1.5561895E-002, 1.4523720E-002, 1.5937769E-004, 1.1357511E-004, 1.5262263E-004, 2.0681360E+002
 5.0049699E+000, 2.0500718E-001, 2.0205522E-002, 1.7157636E-002, 1.8667837E-004, 1.2855186E-004, 1.9521797E-004, 2.5792340E+002
 6.0028490E+000, 2.0144890E-001, 2.2930992E-002, 1.8683972E-002, 1.8736656E-004, 1.2353477E-004, 2.1693032E-004, 2.8497058E+002
 7.0023322E+000, 1.9583833E-001, 2.7226791E-002, 2.1090890E-002, 1.8936111E-004, 1.1726693E-004, 2.5134772E-004, 3.2559823E+002
 8.0032233E+000, 1.8908809E-001, 3.2439700E-002, 2.3975878E-002, 1.6377306E-004, 8.8023885E-005, 2.8710770E-004, 3.6487841E+002
 9.0005134E+000, 1.8379311E-001, 3.6551933E-002, 2.6233143E-002, 1.2905309E-004, 5.4465889E-005, 3.1220082E-004, 3.9654865E+002
 1.0000557E+001, 1.7720205E-001, 4.1650054E-002, 2.9048028E-002, 9.8883827E-005, 2.2467117E-005, 3.4607032E-004, 4.2692244E+002
 1.1003659E+001, 1.7263552E-001, 4.5169882E-002, 3.1001174E-002, 8.5651935E-005, 7.0576392E-006, 3.7108334E-004, 4.4240121E+002
 1.2003154E+001, 1.6820920E-001, 4.8562919E-002, 3.2898878E-002, 8.4571929E-005, 1.4522059E-006, 3.9769859E-004, 4.5260335E+002
 1.3002132E+001, 1.6053954E-001, 5.4425731E-002, 3.6191069E-002, 9.3005595E-005, 7.0248821E-008, 4.4589531E-004, 4.7585863E+002
 1.4003870E+001, 1.5726305E-001, 5.6929340E-002, 3.7597731E-002, 9.7226688E-005, 9.4941624E-009, 4.6660971E-004, 4.7798562E+002
 1.5000319E+001, 1.5286959E-001, 6.0286190E-002, 3.9483994E-002, 1.0304548E-004, 1.8739267E-008, 4.9441779E-004, 4.8948883E+002
 1.6005610E+001, 1.5162718E-001, 6.1235533E-002, 4.0017386E-002, 1.0464576E-004, 3.6991395E-009, 5.0227241E-004, 4.8104951E+002
 1.7002838E+001, 1.4782920E-001, 6.4137380E-002, 4.1647994E-002, 1.0968998E-004, 1.8902331E-008, 5.2631429E-004, 4.9734820E+002
 1.8003223E+001, 1.4432789E-001, 6.6812645E-002, 4.3151209E-002, 1.1428397E-004, 8.0176564E-009, 5.4846684E-004, 4.9572235E+002
 1.9005517E+001, 1.4275998E-001, 6.8010602E-002, 4.3824374E-002, 1.1637285E-004, 2.5334887E-008, 5.5839334E-004, 4.9176877E+002
 2.0007255E+001, 1.3990708E-001, 7.0190446E-002, 4.5049202E-002, 1.2010613E-004, 6.1996981E-009, 5.7644142E-004, 4.9382124E+002
 2.1006627E+001, 1.3841608E-001, 7.1329622E-002, 4.5689349E-002, 1.2210171E-004, 1.7566956E-008, 5.8588282E-004, 4.9764777E+002
 2.2004101E+001, 1.3826419E-001, 7.1445703E-002, 4.5754553E-002, 1.2228494E-004, 1.3504061E-008, 5.8684057E-004, 4.9559216E+002
 2.3004073E+001, 1.3515533E-001, 7.3821066E-002, 4.7089288E-002, 1.2638908E-004, 1.6368683E-008, 6.0651518E-004, 4.9760777E+002
 2.4000618E+001, 1.3273052E-001, 7.5673782E-002, 4.8130335E-002, 1.2958496E-004, 1.5525968E-008, 6.2185968E-004, 5.0537045E+002
 2.5004210E+001, 1.3056769E-001, 7.7326330E-002, 4.9058908E-002, 1.3243514E-004, 1.4875781E-008, 6.3554628E-004, 4.9539229E+002
 2.6005306E+001, 1.3013911E-001, 7.7653805E-002, 4.9242911E-002, 1.3299525E-004, 1.1745654E-008, 6.3825746E-004, 5.0087357E+002
 2.7001368E+001, 1.2874718E-001, 7.8717353E-002, 4.9840501E-002, 1.3481302E-004, 4.0951631E-009, 6.4706234E-004, 4.9104462E+002
 2.8000209E+001, 1.2817456E-001, 7.9154825E-002, 5.0086361E-002, 1.3560118E-004, 1.4414138E-008, 6.5069275E-004, 4.9268395E+002
 2.9001221E+001, 1.2726663E-001, 7.9848586E-002, 5.0476149E-002, 1.3676679E-004, 4.0194366E-009, 6.5643193E-004, 4.8592831E+002
 3.0004299E+001, 1.2446748E-001, 8.1987256E-002, 5.1677936E-002, 1.4050362E-004, 2.8958576E-008, 6.7415498E-004, 4.9236255E+002
 3.1004480E+001, 1.2359881E-001, 8.2651043E-002, 5.2050862E-002, 1.4160301E-004, 5.5693355E-009, 6.7964280E-004, 4.9637028E+002
 3.2000161E+001, 1.2452568E-001, 8.1942830E-002, 5.1652936E-002, 1.4039779E-004, 1.3091303E-008, 6.7378078E-004, 4.8622770E+002
 3.3006077E+001, 1.2130752E-001, 8.4401728E-002, 5.3034589E-002, 1.4463070E-004, 7.9825858E-009, 6.9414395E-004, 4.8581084E+002
 3.4005038E+001, 1.2279526E-001, 8.3265010E-002, 5.2395856E-002, 1.4266456E-004, 6.1264709E-009, 6.8472831E-004, 4.8237485E+002
 3.5001096E+001, 1.1950886E-001, 8.5776011E-002, 5.3806818E-002, 1.4701252E-004, 1.4119705E-008, 7.0552840E-004, 4.8962307E+002
 3.6000126E+001, 1.2097185E-001, 8.4658208E-002, 5.3178705E-002, 1.4507210E-004, 7.5680161E-009, 6.9626794E-004, 4.9078941E+002
 3.7005780E+001, 1.1896942E-001, 8.6188142E-002, 5.4038428E-002, 1.4774878E-004, 2.4559407E-008, 7.0894718E-004, 4.9652771E+002
 3.8001154E+001, 1.1773995E-001, 8.7127592E-002, 5.4566260E-002, 1.4933147E-004, 8.2937705E-009, 7.1671975E-004, 4.9062764E+002
 3.9002125E+001, 1.1620877E-001, 8.8297509E-002, 5.5223649E-002, 1.5135557E-004, 6.7149575E-009, 7.2641050E-004, 4.9258583E+002
 4.0004141E+001, 1.1453519E-001, 8.9576183E-002, 5.5942184E-002, 1.5359518E-004, 2.7971925E-008, 7.3700797E-004, 4.9736397E+002
 4.1002501E+001, 1.1360186E-001, 9.0289364E-002, 5.6342875E-002, 1.5478821E-004, 9.0479979E-009, 7.4290668E-004, 4.9189308E+002
 4.2007160E+001, 1.1253142E-001, 9.1107132E-002, 5.6802482E-002, 1.5627661E-004, 3.7333006E-008, 7.4969626E-004, 5.0583401E+002
 4.3002341E+001, 1.1302677E-001, 9.0728753E-002, 5.6589787E-002, 1.5556004E-004, 1.3341271E-008, 7.4654876E-004, 4.9282423E+002
 4.4004316E+001, 1.1077021E-001, 9.2452856E-002, 5.7558613E-002, 1.5856986E-004, 2.3794921E-008, 7.6083575E-004, 4.9142179E+002
 4.5006619E+001, 1.1104579E-001, 9.2242361E-002, 5.7440282E-002, 1.5816463E-004, 9.3510814E-009, 7.5908337E-004, 4.8991115E+002
 4.6005704E+001, 1.0937194E-001, 9.3521275E-002, 5.8158922E-002, 1.6038136E-004, 1.2083016E-008, 7.6967783E-004, 4.9692539E+002
 4.7006571E+001, 1.0997558E-001, 9.3060065E-002, 5.7899757E-002, 1.5957914E-004, 1.3949700E-008, 7.6585658E-004, 4.9060307E+002
 4.8005375E+001, 1.0867747E-001, 9.4051932E-002, 5.8457074E-002, 1.6127656E-004, 6.7533902E-009, 7.7406850E-004, 4.8665324E+002
 4.9005769E+001, 1.0850966E-001, 9.4180108E-002, 5.8529131E-002, 1.6152462E-004, 1.8013592E-008, 7.7513585E-004, 4.9362836E+002
 5.0004119E+001, 1.0802851E-001, 9.4547674E-002, 5.8735720E-002, 1.6219898E-004, 3.2145982E-008, 7.7818875E-004, 5.0464172E+002
 5.1002773E+001, 1.0656774E-001, 9.5663902E-002, 5.9362846E-002, 1.6405728E-004, 4.8831427E-009, 7.8741914E-004, 4.9266955E+002
 5.2004799E+001, 1.0521506E-001, 9.6697411E-002, 5.9943605E-002, 1.6586084E-004, 1.4574587E-008, 7.9598329E-004, 4.9540708E+002
 5.3004660E+001, 1.0667404E-001, 9.5582655E-002, 5.9317218E-002, 1.6393638E-004, 1.1463641E-008, 7.8675036E-004, 4.8989605E+002
 5.4006915E+001, 1.0547696E-001, 9.6497137E-002, 5.9831208E-002, 1.6562249E-004, 4.6518220E-008, 7.9434756E-004, 4.9622990E+002
 5.5001287E+001, 1.0494242E-001, 9.6905739E-002, 6.0060652E-002, 1.6620939E-004, 9.3232522E-009, 7.9770638E-004, 4.8707624E+002
 5.6000264E+001, 1.0470991E-001, 9.7083396E-002, 6.0160477E-002, 1.6651483E-004, 1.0626944E-008, 7.9917755E-004, 4.9099584E+002
 5.7003870E+001, 1.0588508E-001, 9.6185483E-002, 5.9655942E-002, 1.6497109E-004, 1.1875520E-008, 7.9174198E-004, 4.9153659E+002
 5.8000701E+001, 1.0269324E-001, 9.8624242E-002, 6.1026306E-002, 1.6918994E-004, 1.4777370E-008, 8.1194279E-004, 4.9110119E+002
 5.9002886E+001, 1.0550413E-001, 9.6476566E-002, 5.9819491E-002, 1.6546353E-004, 8.0234903E-009, 7.9415071E-004, 4.8547643E+002
 6.0004189E+001, 1.0381657E-001, 9.7765919E-002, 6.0544029E-002, 1.6772307E-004, 2.5292857E-008, 8.0483695E-004, 4.9410793E+002
 6.1005184E+001, 1.0171653E-001, 9.9370511E-002, 6.1445636E-002, 1.7047657E-004, 1.3429070E-008, 8.1812337E-004, 4.9547650E+002
 6.2001854E+001, 1.0585570E-001, 9.6207926E-002, 5.9668557E-002, 1.6501274E-004, 1.3652785E-008, 7.9192849E-004, 4.9645574E+002
 6.3003394E+001, 1.0267541E-001, 9.8637838E-002, 6.1033964E-002, 1.6922746E-004, 2.1369848E-008, 8.1205841E-004, 4.8467960E+002
 6.4003854E+001, 1.0070434E-001, 1.0014390E-001, 6.1880201E-002, 1.7180747E-004, 1.2926733E-008, 8.2452802E-004, 4.9312269E+002
 6.5001295E+001, 1.0239271E-001, 9.8853903E-002, 6.1155323E-002, 1.6956270E-004, 4.7754653E-009, 8.1383986E-004, 4.9050686E+002
 6.6006474E+001, 1.0138052E-001, 9.9627285E-002, 6.1589883E-002, 1.7089149E-004, 3.4799857E-009, 8.2024402E-004, 4.8479079E+002
 6.7004665E+001, 1.0202735E-001, 9.9133052E-002, 6.1312181E-002, 1.7004658E-004, 7.0163214E-009, 8.1615233E-004, 4.7998130E+002
 6.8001351E+001, 1.0098739E-001, 9.9927643E-002, 6.1758672E-002, 1.7142308E-004, 9.4404636E-009, 8.2273452E-004, 4.8659265E+002
 6.9000624E+001, 9.9276895E-002, 1.0123457E-001, 6.2493046E-002, 1.7368292E-004, 1.0841810E-008, 8.3355987E-004, 4.9199037E+002
 7.0001219E+001, 9.9412833E-002, 1.0113071E-001, 6.2434682E-002, 1.7350122E-004, 1.1547690E-008, 8.3269912E-004, 4.9605012E+002
 7.1005600E+001, 1.0050081E-001, 1.0029941E-001, 6.1967582E-002, 1.7207257E-004, 1.3996450E-008, 8.2581534E-004, 4.9897607E+002
 7.2005709E+001, 9.9993633E-002, 1.0068695E-001, 6.2185323E-002, 1.7272962E-004, 9.0379770E-009, 8.2902251E-004, 4.8693649E+002
 7.3006127E+001, 9.9290863E-002, 1.0122387E-001, 6.2487056E-002, 1.7367995E-004, 1.6070107E-008, 8.3347461E-004, 4.9393882E+002
 7.4003121E+001, 1.0215563E-001, 9.9035042E-002, 6.1257109E-002, 1.6987809E-004, 8.8877649E-009, 8.1534071E-004, 4.8592225E+002
 7.5006105E+001, 9.9770418E-002, 1.0085740E-001, 6.2281186E-002, 1.7308944E-004, 3.0819718E-008, 8.3044833E-004, 4.9051296E+002
 7.6002545E+001, 9.9930162E-002, 1.0073540E-001, 6.2212587E-002, 1.7284337E-004, 1.8651612E-008, 8.2943026E-004, 4.9151601E+002
 7.7000770E+001, 1.0023418E-001, 1.0050314E-001, 6.2082055E-002, 1.7242229E-004, 1.0949715E-008, 8.2750229E-004, 4.9016255E+002
 7.8000100E+001, 9.8458535E-002, 1.0185983E-001, 6.2844399E-002, 1.7477353E-004, 1.7738857E-008, 8.3874099E-004, 4.9618036E+002
 7.9001506E+001, 9.7611362E-002, 1.0250714E-001, 6.3208113E-002, 1.7588087E-004, 1.0396536E-008, 8.4410015E-004, 4.8781128E+002
 8.0005521E+001, 9.8818092E-002, 1.0158514E-001, 6.2690020E-002, 1.7427693E-004, 6.5252973E-009, 8.3646108E-004, 4.9020809E+002
 8.1000376E+001, 9.9094089E-002, 1.0137425E-001, 6.2571529E-002, 1.7392120E-004, 8.3840713E-009, 8.3471616E-004, 4.9125315E+002
 8.2002603E+001, 9.9521343E-002, 1.0104779E-001, 6.2388097E-002, 1.7336275E-004, 1.2320172E-008, 8.3201338E-004, 4.8587763E+002
 8.3000962E+001, 9.7581523E-002, 1.0252993E-001, 6.3220928E-002, 1.7592919E-004, 1.6848892E-008, 8.4429079E-004, 4.8849215E+002
 8.4005229E+001, 9.7985977E-002, 1.0222087E-001, 6.3047292E-002, 1.7541594E-004, 2.2636784E-008, 8.4173537E-004, 4.9726779E+002
 8.5006361E+001, 9.6584573E-002, 1.0329159E-001, 6.3648972E-002, 1.7729319E-004, 3.7420938E-008, 8.5060974E-004, 4.8258711E+002
 8.6000544E+001, 9.8385058E-002, 1.0191599E-001, 6.2875940E-002, 1.7485770E-004, 1.0366577E-008, 8.3920340E-004, 4.8537610E+002
 8.7001558E+001, 9.8824496E-002, 1.0158022E-001, 6.2687278E-002, 1.7428523E-004, 1.1451626E-008, 8.3642394E-004, 4.8735531E+002
 8.8003897E+001, 9.7826608E-002, 1.0234265E-001, 6.3115711E-002, 1.7561808E-004, 1.7536257E-008, 8.4274228E-004, 4.8440755E+002
 8.9006251E+001, 9.6430130E-002, 1.0340940E-001, 6.3715333E-002, 1.7762291E-004, 8.4009237E-008, 8.5161261E-004, 4.8399598E+002
 9.0005371E+001, 9.5147018E-002, 1.0438963E-001, 6.4266256E-002, 1.7941255E-004, 1.1925140E-007, 8.5975225E-004, 4.8816175E+002
 9.1006250E+001, 9.7018503E-002, 1.0296007E-001, 6.3462662E-002, 1.7669729E-004, 2.4491769E-008, 8.4785892E-004, 4.9390657E+002
 9.2006447E+001, 9.6783257E-002, 1.0313986E-001, 6.3563648E-002, 1.7697916E-004, 1.5549351E-008, 8.4934189E-004, 4.9417261E+002
 9.3007681E+001, 9.8108930E-002, 1.0212694E-001, 6.2994498E-002, 1.7524020E-004, 1.9555416E-008, 8.4095453E-004, 4.9715060E+002
 9.4005284E+001, 9.6535641E-002, 1.0332896E-001, 6.3669982E-002, 1.7736458E-004, 4.3104452E-008, 8.5092078E-004, 4.9023509E+002
 9.5005583E+001, 9.5354427E-002, 1.0423125E-001, 6.4177187E-002, 1.7908409E-004, 8.8811235E-008, 8.5842861E-004, 4.9450320E+002
 9.6006248E+001, 9.7339390E-002, 1.0271491E-001, 6.3324889E-002, 1.7626269E-004, 2.4932531E-008, 8.4582594E-004, 4.8678326E+002
 9.7000515E+001, 9.7056817E-002, 1.0293062E-001, 6.3446265E-002, 1.7676485E-004, 5.2757964E-008, 8.4764039E-004, 4.8983025E+002
 9.8004861E+001, 9.7466789E-002, 1.0261756E-001, 6.3270196E-002, 1.7610233E-004, 2.4374393E-008, 8.4502128E-004, 4.8635104E+002
 9.9001970E+001, 9.6282676E-002, 1.0352197E-001, 6.3778672E-002, 1.7788568E-004, 8.7793197E-008, 8.5255960E-004, 4.8834548E+002
 1.0000484E+002, 9.5717098E-002, 1.0395429E-001, 6.4021436E-002, 1.7850621E-004, 6.9422243E-008, 8.5611333E-004, 4.8761201E+002
 1.0100402E+002, 9.5657867E-002, 1.0399945E-001, 6.4046891E-002, 1.7864649E-004, 1.0320284E-007, 8.5650073E-004, 4.9704574E+002
 1.0200432E+002, 9.5520772E-002, 1.0410267E-001, 6.4106190E-002, 1.7984081E-004, 4.4539180E-007, 8.5757349E-004, 4.9397468E+002
 1.0300473E+002, 9.7584784E-002, 1.0252722E-001, 6.3219589E-002, 1.7606716E-004, 6.9444476E-008, 8.4429895E-004, 4.8982487E+002
 1.0400041E+002, 9.5653367E-002, 1.0400216E-001, 6.4049030E-002, 1.7913174E-004, 2.6963853E-007, 8.5662623E-004, 4.9067343E+002
 1.0500514E+002, 9.6108338E-002, 1.0365535E-001, 6.3853468E-002, 1.7799799E-004, 6.4240209E-008, 8.5363903E-004, 4.9018937E+002
 1.0600478E+002, 9.5696712E-002, 1.0396966E-001, 6.4030244E-002, 1.7866730E-004, 1.3192014E-007, 8.5626948E-004, 4.9558609E+002
 1.0700654E+002, 9.5882424E-002, 1.0382769E-001, 6.3950537E-002, 1.7847493E-004, 1.3380912E-007, 8.5510491E-004, 4.9412015E+002
 1.0800177E+002, 9.5153706E-002, 1.0438364E-001, 6.4263647E-002, 1.7999290E-004, 2.6165950E-007, 8.5982928E-004, 4.9165413E+002
 1.0900182E+002, 9.5727121E-002, 1.0394654E-001, 6.4017159E-002, 1.7855256E-004, 7.8638804E-008, 8.5606198E-004, 4.9309359E+002
 1.1000155E+002, 9.4054650E-002, 1.0522375E-001, 6.4735395E-002, 1.8119756E-004, 2.3698285E-007, 8.6673479E-004, 4.9452368E+002
 1.1100339E+002, 9.5614278E-002, 1.0403200E-001, 6.4065819E-002, 1.7919942E-004, 2.8435351E-007, 8.5687685E-004, 4.8369123E+002
 1.1200066E+002, 9.8644245E-002, 1.0171780E-001, 6.2764707E-002, 1.7462103E-004, 5.3755352E-008, 8.3758447E-004, 4.8471785E+002
 1.1300309E+002, 9.6447332E-002, 1.0339633E-001, 6.3707926E-002, 1.7754993E-004, 6.9453063E-008, 8.5149357E-004, 4.8961805E+002
 1.1400270E+002, 9.6218303E-002, 1.0357145E-001, 6.3806221E-002, 1.7777097E-004, 3.5411719E-008, 8.5292654E-004, 4.8472931E+002
 1.1500165E+002, 9.8535472E-002, 1.0180104E-001, 6.2811370E-002, 1.7467846E-004, 1.7700025E-008, 8.3825541E-004, 4.9459036E+002
 1.1600601E+002, 9.5831373E-002, 1.0386664E-001, 6.3972475E-002, 1.7858176E-004, 1.1824945E-007, 8.5543601E-004, 4.8748733E+002
 1.1700714E+002, 9.6305527E-002, 1.0350468E-001, 6.3768808E-002, 1.7773818E-004, 6.6834238E-008, 8.5239120E-004, 4.8898456E+002
 1.1800505E+002, 9.7153907E-002, 1.0285659E-001, 6.3404537E-002, 1.7653803E-004, 3.3742340E-008, 8.4700596E-004, 4.8789662E+002
 1.1900205E+002, 9.6845450E-002, 1.0309218E-001, 6.3536994E-002, 1.7700569E-004, 4.8986383E-008, 8.4897029E-004, 4.9082877E+002
 1.2000799E+002, 9.5603484E-002, 1.0404102E-001, 6.4070233E-002, 1.7870362E-004, 1.0011092E-007, 8.5684193E-004, 5.0420482E+002
 1.2100496E+002, 9.7097043E-002, 1.0289997E-001, 6.3428970E-002, 1.7665547E-004, 4.0151358E-008, 8.4737442E-004, 4.9092679E+002
 1.2200039E+002, 9.6260104E-002, 1.0353909E-001, 6.3788398E-002, 1.7799508E-004, 1.0779790E-007, 8.5271857E-004, 4.8687311E+002
 1.2300408E+002, 9.6439490E-002, 1.0340244E-001, 6.3711261E-002, 1.7748302E-004, 3.1654366E-008, 8.5152757E-004, 4.9165700E+002
 1.2400472E+002, 9.4847133E-002, 1.0461860E-001, 6.4395055E-002, 1.7991815E-004, 1.5188079E-007, 8.6167231E-004, 4.9543842E+002
 1.2500267E+002, 9.5790764E-002, 1.0389802E-001, 6.3989805E-002, 1.7840052E-004, 6.0871524E-008, 8.5564543E-004, 4.8443961E+002
 1.2600660E+002, 9.5487229E-002, 1.0413002E-001, 6.4120099E-002, 1.7874674E-004, 4.1426490E-008, 8.5755534E-004, 4.9680170E+002
 1.2700467E+002, 9.5685892E-002, 1.0397772E-001, 6.4034953E-002, 1.7882310E-004, 1.5833988E-007, 8.5636664E-004, 4.8412489E+002
 1.2800381E+002, 9.6871165E-002, 1.0307261E-001, 6.3525931E-002, 1.7691980E-004, 3.4211477E-008, 8.4879703E-004, 4.9421112E+002
 1.2900264E+002, 9.5173301E-002, 1.0436746E-001, 6.4255565E-002, 1.8075579E-004, 6.3257755E-007, 8.5986480E-004, 4.8634662E+002
 1.3000326E+002, 9.5643208E-002, 1.0401042E-001, 6.4053253E-002, 1.7882057E-004, 1.3945150E-007, 8.5662485E-004, 4.7863305E+002
 1.3100246E+002, 9.3326292E-002, 1.0577935E-001, 6.5048368E-002, 1.8276869E-004, 4.3324545E-007, 8.7146767E-004, 4.9223270E+002
 1.3200063E+002, 9.6566639E-002, 1.0330521E-001, 6.3656694E-002, 1.7736877E-004, 5.0068310E-008, 8.5073375E-004, 4.9682874E+002
 1.3300220E+002, 9.6302805E-002, 1.0350665E-001, 6.3770011E-002, 1.7781756E-004, 7.9736358E-008, 8.5242379E-004, 4.9602328E+002
 1.3400604E+002, 9.4299452E-002, 1.0503714E-001, 6.4630168E-002, 1.8058615E-004, 1.4362693E-007, 8.6512719E-004, 4.9229924E+002
 1.3500581E+002, 9.4519701E-002, 1.0486869E-001, 6.4535657E-002, 1.8040837E-004, 1.7518496E-007, 8.6375621E-004, 4.9332670E+002
 1.3600333E+002, 9.5102929E-002, 1.0442195E-001, 6.4285576E-002, 1.8037467E-004, 4.3747775E-007, 8.6021424E-004, 4.9604756E+002
 1.3700046E+002, 9.5215411E-002, 1.0433738E-001, 6.4236890E-002, 1.7931705E-004, 1.2328208E-007, 8.5931836E-004, 4.9579514E+002
 1.3800521E+002, 9.5307310E-002, 1.0426709E-001, 6.4197456E-002, 1.7924822E-004, 1.6076577E-007, 8.5874737E-004, 4.9417847E+002
 1.3900601E+002, 9.4934227E-002, 1.0455198E-001, 6.4357682E-002, 1.7985354E-004, 1.9176630E-007, 8.6113129E-004, 4.8717018E+002
 1.4000195E+002, 9.5287982E-002, 1.0428192E-001, 6.4205736E-002, 1.7923063E-004, 1.4221313E-007, 8.5886097E-004, 4.8555797E+002
 1.4100172E+002, 9.4049939E-002, 1.0522649E-001, 6.4737662E-002, 1.8177213E-004, 4.4358267E-007, 8.6687964E-004, 4.9219829E+002
 1.4200378E+002, 9.5719212E-002, 1.0395229E-001, 6.4020640E-002, 1.7876010E-004, 1.5237823E-007, 8.5615192E-004, 4.8759993E+002
 1.4300518E+002, 9.4628417E-002, 1.0478556E-001, 6.4488997E-002, 1.8030629E-004, 2.1752837E-007, 8.6307654E-004, 4.9304725E+002
 1.4400193E+002, 9.5753980E-002, 1.0392590E-001, 6.4005660E-002, 1.7859473E-004, 1.1803997E-007, 8.5590769E-004, 4.9326405E+002
 1.4500254E+002, 9.4529248E-002, 1.0486118E-001, 6.4531619E-002, 1.8053916E-004, 2.3854364E-007, 8.6372480E-004, 4.8243373E+002
 1.4600271E+002, 9.6491188E-002, 1.0336283E-001, 6.3689097E-002, 1.7749069E-004, 6.7726689E-008, 8.5121575E-004, 4.9002366E+002
 1.4700073E+002, 9.4581588E-002, 1.0482096E-001, 6.4509208E-002, 1.8061585E-004, 3.0928562E-007, 8.6342304E-004, 4.9278946E+002
 1.4800398E+002, 9.4827125E-002, 1.0463404E-001, 6.4403599E-002, 1.7984353E-004, 1.3898143E-007, 8.6177845E-004, 4.8598072E+002
 1.4900554E+002, 9.2976578E-002, 1.0604633E-001, 6.5198574E-002, 1.8337669E-004, 4.9101797E-007, 8.7371047E-004, 4.9596735E+002
 1.5000205E+002, 9.4124002E-002, 1.0517078E-001, 6.4705613E-002, 1.8109504E-004, 2.5104680E-007, 8.6629365E-004, 4.9581644E+002
 1.5100081E+002, 9.4360423E-002, 1.0499014E-001, 6.4604110E-002, 1.8078359E-004, 2.4548299E-007, 8.6479758E-004, 4.9214848E+002
 1.5200107E+002, 9.3971125E-002, 1.0528776E-001, 6.4771198E-002, 1.8118121E-004, 2.0595839E-007, 8.6723774E-004, 4.9230361E+002
 1.5300088E+002, 9.5766974E-002, 1.0391615E-001, 6.4000030E-002, 1.7846047E-004, 8.4663127E-008, 8.5580175E-004, 4.9706026E+002
 1.5400251E+002, 9.4330263E-002, 1.0501363E-001, 6.4616930E-002, 1.8052591E-004, 1.4229928E-007, 8.6492823E-004, 4.9209030E+002
