s,,,,,,,
Time,"O2 EXHAUST","CO2 EXHAUST","H2O EXHAUST","CO EXHAUST","FUEL EXHAUST","SOOT EXHAUST","TEMP EXHAUST"
 0.0000000E+000, 2.3099739E-001, 5.9146498E-004, 5.9412092E-003, 0.0000000E+000, 0.0000000E+000, 0.0000000E+000, 2.0000000E+001
 1.0036738E+000, 2.3099739E-001, 5.9146498E-004, 5.9412092E-003, 2.6326633E-025, 1.7049406E-025, 6.6873470E-025, 2.3032869E+001
 2.0033688E+000, 2.1785488E-001, 1.0337618E-002, 1.1637542E-002, 1.8949868E-004, 2.5651856E-004, 1.1774512E-004, 1.4634253E+002
 3.0011221E+000, 2.0649549E-001, 1.8926312E-002, 1.6540782E-002, 2.6463225E-004, 2.7488567E-004, 2.0181068E-004, 2.4338044E+002
 4.0019646E+000, 1.8823662E-001, 3.3007763E-002, 2.4355436E-002, 2.1218032E-004, 1.6600565E-004, 3.0198144E-004, 3.6945511E+002
 5.0035971E+000, 1.7733974E-001, 4.1470280E-002, 2.9004319E-002, 1.4351104E-004, 7.5948172E-005, 3.5421635E-004, 4.2831810E+002
 6.0019105E+000, 1.5868502E-001, 5.5835604E-002, 3.6988830E-002, 9.9785622E-005, 4.5927072E-006, 4.5850437E-004, 5.0502435E+002
 7.0003383E+000, 1.4193391E-001, 6.8633221E-002, 4.4181579E-002, 1.2318831E-004, 1.3545640E-006, 5.6478097E-004, 5.5755096E+002
 8.0062554E+000, 1.2785309E-001, 7.9398761E-002, 5.0224886E-002, 1.3715910E-004, 2.5101671E-007, 6.5295688E-004, 5.7277872E+002
 9.0036081E+000, 1.1404269E-001, 8.9908490E-002, 5.6166891E-002, 1.8382357E-004, 5.8482635E-006, 7.4611838E-004, 5.9576767E+002
 1.0009955E+001, 9.3049155E-002, 1.0596961E-001, 6.5173845E-002, 1.9759322E-004, 3.1823108E-006, 8.7615154E-004, 6.2057173E+002
 1.1005787E+001, 8.2469182E-002, 1.1406622E-001, 6.9712289E-002, 2.0291460E-004, 1.5678442E-006, 9.4135555E-004, 6.1963153E+002
 1.2010054E+001, 6.7950000E-002, 1.2512542E-001, 7.5956407E-002, 2.4533801E-004, 4.9291520E-006, 1.0379554E-003, 6.3938151E+002
 1.3005226E+001, 5.5087645E-002, 1.3492534E-001, 8.1487473E-002, 2.8132561E-004, 5.6984278E-006, 1.1232114E-003, 6.4095443E+002
 1.4006465E+001, 4.6418943E-002, 1.4153817E-001, 8.5212343E-002, 2.9983585E-004, 7.6270272E-006, 1.1795030E-003, 6.4299343E+002
 1.5001293E+001, 4.1773240E-002, 1.4512847E-001, 8.7194524E-002, 2.7853129E-004, 2.8885432E-006, 1.2033428E-003, 6.3976264E+002
 1.6005792E+001, 3.6539156E-002, 1.4801964E-001, 8.9785755E-002, 1.0379683E-003, 8.7861890E-005, 1.3890448E-003, 6.3536889E+002
 1.7005568E+001, 3.1192329E-002, 1.5322154E-001, 9.1734667E-002, 2.8672640E-004, 1.7545381E-006, 1.2691350E-003, 6.2908386E+002
 1.8000198E+001, 2.4986572E-002, 1.5778822E-001, 9.4454878E-002, 4.1489164E-004, 5.5640511E-006, 1.3327471E-003, 6.3908866E+002
 1.9003179E+001, 1.7080289E-002, 1.6338542E-001, 9.7988864E-002, 7.2801539E-004, 2.8634230E-005, 1.4441688E-003, 6.3783577E+002
 2.0000794E+001, 1.9398710E-002, 1.6214891E-001, 9.6825080E-002, 3.5992497E-004, 1.8225197E-006, 1.3554652E-003, 6.2606841E+002
 2.1001861E+001, 1.5649766E-002, 1.6484280E-001, 9.8488500E-002, 4.8138997E-004, 9.2337867E-006, 1.4028228E-003, 6.3590594E+002
 2.2007101E+001, 1.2316659E-002, 1.6709883E-001, 1.0001406E-001, 6.8643289E-004, 5.1624085E-006, 1.4646350E-003, 6.2549870E+002
 2.3006951E+001, 7.9046154E-003, 1.6819507E-001, 1.0259017E-001, 2.2188010E-003, 3.3071389E-004, 1.8018549E-003, 6.2025611E+002
 2.4004808E+001, 2.8685024E-003, 1.7044223E-001, 1.0529246E-001, 3.3450593E-003, 1.8827929E-004, 2.0611078E-003, 6.2865802E+002
 2.5004504E+001, 3.3417743E-003, 1.7085929E-001, 1.0480564E-001, 2.7840755E-003, 3.8630582E-004, 1.9441320E-003, 6.1365565E+002
 2.6001988E+001, 1.9358053E-003, 1.7126643E-001, 1.0565196E-001, 3.2657790E-003, 2.1850573E-004, 2.0506314E-003, 6.0388970E+002
 2.7000797E+001, 2.8838325E-003, 1.7069060E-001, 1.0519187E-001, 3.1584189E-003, 2.4992227E-004, 2.0230570E-003, 6.1203932E+002
 2.8008357E+001, 8.5908388E-004, 1.6876294E-001, 1.0712780E-001, 5.5117127E-003, 5.9253936E-004, 2.5123599E-003, 5.9371298E+002
 2.9000337E+001, 5.9486268E-004, 1.6571138E-001, 1.0819524E-001, 7.6793239E-003, 1.1888473E-003, 2.9529604E-003, 5.7651862E+002
 3.0001843E+001, 1.1905853E-003, 1.6843738E-001, 1.0698348E-001, 5.5419595E-003, 7.4865187E-004, 2.5162696E-003, 5.8993017E+002
 3.1002449E+001, 1.0925869E-003, 1.6681388E-001, 1.0751215E-001, 6.6648526E-003, 1.1302531E-003, 2.7441776E-003, 5.7906859E+002
 3.2009301E+001, 7.0427879E-004, 1.6329266E-001, 1.0883484E-001, 9.2361052E-003, 1.6054008E-003, 3.2676034E-003, 5.6862160E+002
 3.3001822E+001, 7.4267827E-004, 1.6375844E-001, 1.0866716E-001, 8.9017027E-003, 1.5517170E-003, 3.1995916E-003, 5.7163618E+002
 3.4008705E+001, 1.4970349E-003, 1.6391107E-001, 1.0797106E-001, 8.2957443E-003, 2.3944276E-003, 3.0708838E-003, 5.6948937E+002
 3.5007431E+001, 1.4138174E-003, 1.6252999E-001, 1.0838218E-001, 9.2218906E-003, 2.9562794E-003, 3.2585276E-003, 5.5979693E+002
 3.6005588E+001, 1.0549524E-003, 1.6163030E-001, 1.0896610E-001, 1.0068837E-002, 2.6438568E-003, 3.4329954E-003, 5.6120240E+002
 3.7003034E+001, 1.2209027E-003, 1.6203699E-001, 1.0872828E-001, 9.7055979E-003, 2.6085493E-003, 3.3583335E-003, 5.5520689E+002
 3.8010828E+001, 7.3443041E-004, 1.6087991E-001, 1.0940061E-001, 1.0736073E-002, 2.7951545E-003, 3.5701162E-003, 5.5984080E+002
 3.9000430E+001, 6.6642059E-004, 1.6080382E-001, 1.0947475E-001, 1.0827032E-002, 2.7730786E-003, 3.5890160E-003, 5.5666243E+002
 4.0005627E+001, 1.3648235E-003, 1.6110293E-001, 1.0881606E-001, 1.0185030E-002, 3.3268839E-003, 3.4537381E-003, 5.6038235E+002
 4.1005203E+001, 7.4030104E-004, 1.6185568E-001, 1.0902455E-001, 1.0018221E-002, 3.1459755E-003, 3.4239289E-003, 5.5434675E+002
 4.2002758E+001, 8.1535825E-004, 1.5973396E-001, 1.0946256E-001, 1.1291554E-002, 4.3566547E-003, 3.6801533E-003, 5.5738379E+002
 4.3004810E+001, 7.1571261E-004, 1.6047155E-001, 1.0944979E-001, 1.0955299E-002, 3.3827066E-003, 3.6138907E-003, 5.5867491E+002
 4.4000100E+001, 9.9168147E-004, 1.6086685E-001, 1.0908378E-001, 1.0498587E-002, 3.7015438E-003, 3.5190994E-003, 5.5369974E+002
 4.5004347E+001, 1.1773181E-003, 1.5847197E-001, 1.0971998E-001, 1.2040802E-002, 3.7741104E-003, 3.8308065E-003, 5.5003825E+002
 4.6007468E+001, 1.2922692E-003, 1.5478970E-001, 1.1060980E-001, 1.4348596E-002, 5.1403517E-003, 4.2964757E-003, 5.4147480E+002
 4.7001119E+001, 1.0639276E-003, 1.5653698E-001, 1.1023929E-001, 1.3295645E-002, 4.8973245E-003, 4.0845435E-003, 5.5682106E+002
 4.8001498E+001, 1.3050798E-003, 1.5565165E-001, 1.1024359E-001, 1.3688729E-002, 5.6280123E-003, 4.1618206E-003, 5.4312483E+002
 4.9008908E+001, 1.1809294E-003, 1.5549810E-001, 1.1047509E-001, 1.3933716E-002, 5.0244510E-003, 4.2131286E-003, 5.4864612E+002
 5.0009858E+001, 1.4177492E-003, 1.5455046E-001, 1.1065625E-001, 1.4487827E-002, 4.8075267E-003, 4.3244328E-003, 5.4415264E+002
 5.1006550E+001, 1.2956958E-003, 1.5428633E-001, 1.1071599E-001, 1.4652664E-002, 5.4734800E-003, 4.3576874E-003, 5.4294793E+002
 5.2004827E+001, 1.0815847E-003, 1.5253751E-001, 1.1125163E-001, 1.5838735E-002, 6.5451722E-003, 4.5981526E-003, 5.4704881E+002
 5.3009921E+001, 1.3127952E-003, 1.5279962E-001, 1.1102437E-001, 1.5546643E-002, 6.4606478E-003, 4.5376008E-003, 5.3631007E+002
 5.4009422E+001, 1.2677205E-003, 1.5492300E-001, 1.1043110E-001, 1.4155105E-002, 6.0782723E-003, 4.2560498E-003, 5.5007600E+002
 5.5006653E+001, 9.9528080E-004, 1.5380954E-001, 1.1089885E-001, 1.5008176E-002, 6.5469811E-003, 4.4301429E-003, 5.4479552E+002
 5.6003106E+001, 1.2252818E-003, 1.5313642E-001, 1.1089784E-001, 1.5302971E-002, 6.9345162E-003, 4.4880238E-003, 5.3909513E+002
 5.7003131E+001, 1.1705833E-003, 1.5419369E-001, 1.1066819E-001, 1.4660205E-002, 6.4734222E-003, 4.3585760E-003, 5.4566797E+002
 5.8001894E+001, 1.3759777E-003, 1.5138635E-001, 1.1131278E-001, 1.6392047E-002, 7.2327639E-003, 4.7076794E-003, 5.3861815E+002
 5.9006798E+001, 1.5777385E-003, 1.5078681E-001, 1.1131731E-001, 1.6658758E-002, 7.5574316E-003, 4.7601209E-003, 5.3544800E+002
 6.0011389E+001, 1.4034406E-003, 1.4958637E-001, 1.1179879E-001, 1.7559121E-002, 7.7057530E-003, 4.9436638E-003, 5.4107668E+002
 6.1007638E+001, 1.4060479E-003, 1.5261075E-001, 1.1100224E-001, 1.5612386E-002, 6.5843490E-003, 4.5502024E-003, 5.4248635E+002
 6.2011004E+001, 1.3797358E-003, 1.4994005E-001, 1.1165315E-001, 1.7292368E-002, 7.9980257E-003, 4.8892710E-003, 5.4352831E+002
 6.3003362E+001, 1.6721062E-003, 1.4921083E-001, 1.1172524E-001, 1.7666061E-002, 7.7870676E-003, 4.9636211E-003, 5.4171680E+002
 6.4004911E+001, 1.2423817E-003, 1.5181193E-001, 1.1144882E-001, 1.6307417E-002, 6.1042756E-003, 4.6928966E-003, 5.5310643E+002
 6.5006861E+001, 1.3691170E-003, 1.4997383E-001, 1.1178809E-001, 1.7379145E-002, 7.1436784E-003, 4.9081395E-003, 5.3986705E+002
 6.6006420E+001, 1.2110718E-003, 1.4955090E-001, 1.1184633E-001, 1.7614220E-002, 8.2847634E-003, 4.9551993E-003, 5.4985158E+002
 6.7008489E+001, 1.1578067E-003, 1.4794961E-001, 1.1239777E-001, 1.8743561E-002, 8.2955842E-003, 5.1846637E-003, 5.4187356E+002
 6.8006326E+001, 1.1624023E-003, 1.4756949E-001, 1.1259067E-001, 1.9058022E-002, 7.8443644E-003, 5.2490754E-003, 5.4168185E+002
 6.9005393E+001, 1.2923057E-003, 1.4825098E-001, 1.1230358E-001, 1.8535966E-002, 7.7159522E-003, 5.1425366E-003, 5.4347876E+002
 7.0010787E+001, 1.4794475E-003, 1.4772742E-001, 1.1233659E-001, 1.8790567E-002, 7.7748141E-003, 5.1929815E-003, 5.3689235E+002
 7.1003224E+001, 1.4971499E-003, 1.4669662E-001, 1.1266997E-001, 1.9500345E-002, 7.6983071E-003, 5.3370036E-003, 5.4032739E+002
 7.2004122E+001, 1.5547543E-003, 1.4562683E-001, 1.1294216E-001, 2.0180673E-002, 7.9101104E-003, 5.4744046E-003, 5.3681100E+002
 7.3006047E+001, 1.5738590E-003, 1.4550093E-001, 1.1276180E-001, 2.0100558E-002, 9.1922719E-003, 5.4562374E-003, 5.4168282E+002
 7.4010766E+001, 1.5628860E-003, 1.4679603E-001, 1.1250385E-001, 1.9329768E-002, 8.2501434E-003, 5.3012205E-003, 5.4776562E+002
 7.5008525E+001, 1.3776449E-003, 1.4618948E-001, 1.1278184E-001, 1.9812611E-002, 8.5159879E-003, 5.3999456E-003, 5.4376265E+002
 7.6003180E+001, 1.2304060E-003, 1.4539294E-001, 1.1310031E-001, 2.0409847E-002, 8.7522064E-003, 5.5216936E-003, 5.3919858E+002
 7.7001702E+001, 1.2831871E-003, 1.4442358E-001, 1.1323611E-001, 2.0942821E-002, 9.6245961E-003, 5.6282991E-003, 5.3881611E+002
 7.8007916E+001, 1.3361602E-003, 1.4457248E-001, 1.1329290E-001, 2.0918317E-002, 8.7577776E-003, 5.6242194E-003, 5.4269914E+002
 7.9011728E+001, 1.2656712E-003, 1.4539831E-001, 1.1318198E-001, 2.0468320E-002, 8.0914453E-003, 5.5342697E-003, 5.4717776E+002
 8.0002220E+001, 1.0652722E-003, 1.4462048E-001, 1.1356804E-001, 2.1109098E-002, 8.0954637E-003, 5.6655000E-003, 5.4433789E+002
 8.1000467E+001, 1.4658476E-003, 1.4184966E-001, 1.1405146E-001, 2.2699737E-002, 8.9621228E-003, 5.9846185E-003, 5.3562831E+002
 8.2005621E+001, 1.4556203E-003, 1.4207266E-001, 1.1380458E-001, 2.2414694E-002, 1.0081996E-002, 5.9252740E-003, 5.3747552E+002
 8.3000211E+001, 1.6502414E-003, 1.4129071E-001, 1.1397122E-001, 2.2884851E-002, 9.8006113E-003, 6.0198888E-003, 5.3430393E+002
 8.4000464E+001, 1.9550214E-003, 1.4045066E-001, 1.1397205E-001, 2.3254007E-002, 1.0197492E-002, 6.0923922E-003, 5.2161768E+002
 8.5001296E+001, 2.1168556E-003, 1.3905348E-001, 1.1418013E-001, 2.4029948E-002, 1.1021562E-002, 6.2477053E-003, 5.1647228E+002
 8.6010071E+001, 2.1275869E-003, 1.3925815E-001, 1.1404922E-001, 2.3840018E-002, 1.1376146E-002, 6.2086048E-003, 5.1542706E+002
 8.7002443E+001, 2.0911604E-003, 1.3967461E-001, 1.1411428E-001, 2.3704229E-002, 1.0298346E-002, 6.1827812E-003, 5.1203838E+002
 8.8002895E+001, 1.9368948E-003, 1.3901985E-001, 1.1429793E-001, 2.4136919E-002, 1.1112352E-002, 6.2703745E-003, 5.1425247E+002
 8.9002975E+001, 2.0176944E-003, 1.3874270E-001, 1.1432340E-001, 2.4278047E-002, 1.1170353E-002, 6.2984401E-003, 5.1112742E+002
 9.0004152E+001, 2.0455072E-003, 1.3669858E-001, 1.1475277E-001, 2.5511171E-002, 1.2476673E-002, 6.5466582E-003, 5.0846929E+002
 9.1008124E+001, 1.7995559E-003, 1.3728172E-001, 1.1496683E-001, 2.5417185E-002, 1.1022004E-002, 6.5311146E-003, 5.1960367E+002
 9.2003456E+001, 2.1303803E-003, 1.3623002E-001, 1.1498649E-001, 2.5894296E-002, 1.1615593E-002, 6.6250898E-003, 5.1490508E+002
 9.3009771E+001, 2.2348478E-003, 1.3478707E-001, 1.1524186E-001, 2.6727282E-002, 1.2478306E-002, 6.7922717E-003, 5.0959341E+002
 9.4009188E+001, 2.3742231E-003, 1.3553695E-001, 1.1513506E-001, 2.6310378E-002, 1.1063577E-002, 6.7088127E-003, 5.1701158E+002
 9.5009311E+001, 2.0556817E-003, 1.3539409E-001, 1.1537593E-001, 2.6561202E-002, 1.1190780E-002, 6.7614604E-003, 5.2169076E+002
 9.6004236E+001, 2.4117279E-003, 1.3398077E-001, 1.1546176E-001, 2.7248713E-002, 1.1991175E-002, 6.8976862E-003, 5.1277582E+002
 9.7010593E+001, 2.4179481E-003, 1.3496665E-001, 1.1521727E-001, 2.6625449E-002, 1.1509793E-002, 6.7718547E-003, 5.1620797E+002
 9.8008342E+001, 2.3779305E-003, 1.3357864E-001, 1.1554402E-001, 2.7490360E-002, 1.2425338E-002, 6.9463161E-003, 5.1487643E+002
 9.9010659E+001, 2.6630680E-003, 1.3363578E-001, 1.1544305E-001, 2.7383671E-002, 1.1745954E-002, 6.9238908E-003, 5.1354566E+002
 1.0000744E+002, 2.2905329E-003, 1.3425680E-001, 1.1552797E-001, 2.7177874E-002, 1.1538807E-002, 6.8846799E-003, 5.1978804E+002
 1.0100098E+002, 2.4617546E-003, 1.3342316E-001, 1.1559430E-001, 2.7595934E-002, 1.2075777E-002, 6.9677196E-003, 5.1724315E+002
 1.0200060E+002, 2.3434179E-003, 1.3357219E-001, 1.1573592E-001, 2.7638383E-002, 1.1399637E-002, 6.9779970E-003, 5.2278206E+002
 1.0300890E+002, 2.2830785E-003, 1.3327931E-001, 1.1584992E-001, 2.7855759E-002, 1.1531403E-002, 7.0222863E-003, 5.2727227E+002
 1.0400978E+002, 2.1468228E-003, 1.3175920E-001, 1.1629290E-001, 2.8868780E-002, 1.2394572E-002, 7.2274576E-003, 5.2362355E+002
 1.0500594E+002, 2.0677753E-003, 1.3334786E-001, 1.1599905E-001, 2.7941473E-002, 1.1373035E-002, 7.0412053E-003, 5.2655956E+002
 1.0600188E+002, 2.4134509E-003, 1.3230870E-001, 1.1602080E-001, 2.8414298E-002, 1.1866944E-002, 7.1343606E-003, 5.1947363E+002
 1.0700968E+002, 2.5699696E-003, 1.3129892E-001, 1.1612672E-001, 2.8940884E-002, 1.2571664E-002, 7.2392760E-003, 5.1690273E+002
 1.0800919E+002, 2.2783395E-003, 1.3148301E-001, 1.1632706E-001, 2.9015102E-002, 1.2185849E-002, 7.2566433E-003, 5.1589608E+002
 1.0900917E+002, 2.1554596E-003, 1.3185898E-001, 1.1629262E-001, 2.8823975E-002, 1.2161815E-002, 7.2186398E-003, 5.2043400E+002
 1.1000011E+002, 2.0857003E-003, 1.3094088E-001, 1.1650488E-001, 2.9393949E-002, 1.2971504E-002, 7.3335834E-003, 5.2212117E+002
 1.1100467E+002, 1.9507365E-003, 1.3206421E-001, 1.1646646E-001, 2.8867241E-002, 1.1535172E-002, 7.2295370E-003, 5.2353356E+002
 1.1201133E+002, 2.0735351E-003, 1.3186202E-001, 1.1645082E-001, 2.8943259E-002, 1.1522361E-002, 7.2442357E-003, 5.2142442E+002
 1.1300673E+002, 1.9172419E-003, 1.3284720E-001, 1.1617819E-001, 2.8302080E-002, 1.1892665E-002, 7.1145617E-003, 5.2815401E+002
 1.1401169E+002, 1.7804921E-003, 1.3321697E-001, 1.1616080E-001, 2.8126807E-002, 1.1833668E-002, 7.0799080E-003, 5.2652422E+002
 1.1500130E+002, 2.0674183E-003, 1.3257346E-001, 1.1615684E-001, 2.8405161E-002, 1.1943344E-002, 7.1344968E-003, 5.2467595E+002
 1.1600499E+002, 2.0244190E-003, 1.3356321E-001, 1.1592350E-001, 2.7789463E-002, 1.1590629E-002, 7.0103189E-003, 5.3135455E+002
 1.1700433E+002, 2.0970628E-003, 1.3220633E-001, 1.1647632E-001, 2.8808713E-002, 1.0582097E-002, 7.2181083E-003, 5.2839511E+002
 1.1800248E+002, 1.5177373E-003, 1.3556038E-001, 1.1577580E-001, 2.6798107E-002, 1.0637083E-002, 6.8135668E-003, 5.4283079E+002
 1.1900733E+002, 1.7544477E-003, 1.3388444E-001, 1.1604897E-001, 2.7745827E-002, 1.1302965E-002, 7.0035035E-003, 5.3808387E+002
 1.2000968E+002, 1.9420563E-003, 1.3254592E-001, 1.1643124E-001, 2.8626359E-002, 1.0829790E-002, 7.1816992E-003, 5.3482230E+002
 1.2101272E+002, 1.6716281E-003, 1.3416026E-001, 1.1610611E-001, 2.7667551E-002, 1.0747049E-002, 6.9889005E-003, 5.4400257E+002
 1.2200733E+002, 1.9118803E-003, 1.3214546E-001, 1.1667237E-001, 2.8986844E-002, 1.0266699E-002, 7.2558172E-003, 5.3951578E+002
 1.2301032E+002, 1.8514778E-003, 1.3251701E-001, 1.1679579E-001, 2.8915437E-002, 9.0185995E-003, 7.2434412E-003, 5.3446007E+002
 1.2400554E+002, 1.8453363E-003, 1.2966361E-001, 1.1758806E-001, 3.0782867E-002, 9.8409003E-003, 7.6212508E-003, 5.2796511E+002
 1.2501072E+002, 2.1671936E-003, 1.2809860E-001, 1.1773517E-001, 3.1584704E-002, 1.0708005E-002, 7.7807884E-003, 5.3153298E+002
 1.2600056E+002, 1.7831954E-003, 1.2734871E-001, 1.1782351E-001, 3.1992174E-002, 1.3255416E-002, 7.8622298E-003, 5.3597367E+002
 1.2700517E+002, 1.6004665E-003, 1.3135517E-001, 1.1723450E-001, 2.9767792E-002, 9.6731988E-003, 7.4169991E-003, 5.4291349E+002
 1.2800087E+002, 1.7748415E-003, 1.3205960E-001, 1.1730178E-001, 2.9501589E-002, 7.1306180E-003, 7.3654861E-003, 5.3855280E+002
 1.2901361E+002, 1.8848542E-003, 1.2798453E-001, 1.1823426E-001, 3.2016525E-002, 9.0361485E-003, 7.8724618E-003, 5.3434804E+002
 1.3000087E+002, 1.6752487E-003, 1.2877665E-001, 1.1821965E-001, 3.1656597E-002, 8.4231073E-003, 7.8015569E-003, 5.4722127E+002
 1.3100565E+002, 1.3769126E-003, 1.3042400E-001, 1.1803708E-001, 3.0790965E-002, 7.5125885E-003, 7.6289927E-003, 5.5614287E+002
 1.3200223E+002, 1.7261197E-003, 1.3488253E-001, 1.1653415E-001, 2.7667282E-002, 6.4456839E-003, 6.9945378E-003, 5.7223994E+002
 1.3301128E+002, 2.3728821E-003, 1.3362786E-001, 1.1655697E-001, 2.8231401E-002, 6.1075986E-003, 7.1055577E-003, 5.7712553E+002
 1.3401559E+002, 2.5700948E-003, 1.2850140E-001, 1.1801396E-001, 3.1607951E-002, 6.5105901E-003, 7.7889400E-003, 5.6115148E+002
 1.3500812E+002, 2.6662605E-003, 1.2762855E-001, 1.1812441E-001, 3.2078070E-002, 7.1663612E-003, 7.8828318E-003, 5.5580372E+002
 1.3600867E+002, 2.6197001E-003, 1.2892446E-001, 1.1776463E-001, 3.1230877E-002, 6.9982489E-003, 7.7114440E-003, 5.5464541E+002
 1.3700712E+002, 3.6923551E-003, 1.2650063E-001, 1.1792661E-001, 3.2412676E-002, 6.3551906E-003, 7.9456441E-003, 5.5797138E+002
 1.3801042E+002, 3.7881832E-003, 1.2519431E-001, 1.1797562E-001, 3.3029560E-002, 8.2534800E-003, 8.0675790E-003, 5.5407918E+002
 1.3900537E+002, 4.2177099E-003, 1.2903670E-001, 1.1671298E-001, 3.0359757E-002, 6.5975931E-003, 7.5255592E-003, 5.7262767E+002
 1.4000311E+002, 4.0054171E-003, 1.3038913E-001, 1.1645545E-001, 2.9567428E-002, 6.3773724E-003, 7.3663814E-003, 5.6289010E+002
 1.4100394E+002, 7.0311773E-003, 1.3074577E-001, 1.1444001E-001, 2.7835598E-002, 5.4810213E-003, 6.9978892E-003, 5.7486775E+002
 1.4200480E+002, 2.2879430E-003, 1.2930700E-001, 1.1795259E-001, 3.1208137E-002, 6.4609381E-003, 7.7095926E-003, 5.7262259E+002
 1.4300970E+002, 2.9930522E-003, 1.2575383E-001, 1.1865459E-001, 3.3306231E-002, 6.2690994E-003, 8.1313158E-003, 5.5895356E+002
 1.4401230E+002, 3.7802086E-003, 1.2814040E-001, 1.1717165E-001, 3.1112295E-002, 7.3776267E-003, 7.6798176E-003, 5.6740553E+002
 1.4500039E+002, 3.3098155E-003, 1.2932130E-001, 1.1721949E-001, 3.0631032E-002, 6.6924883E-003, 7.5859738E-003, 5.6421932E+002
 1.4600399E+002, 3.7680274E-003, 1.2476077E-001, 1.1806821E-001, 3.3292718E-002, 8.6296541E-003, 8.1205723E-003, 5.6259095E+002
 1.4701178E+002, 2.7508856E-003, 1.2539405E-001, 1.1859871E-001, 3.3428773E-002, 8.3380517E-003, 8.1547523E-003, 5.5798205E+002
 1.4800393E+002, 3.6127823E-003, 1.1805495E-001, 1.2033732E-001, 3.7990621E-002, 8.6400250E-003, 9.0747586E-003, 5.4785513E+002
 1.4901431E+002, 3.6910487E-003, 1.2326917E-001, 1.1867687E-001, 3.4416733E-002, 8.1684547E-003, 8.3497605E-003, 5.5863198E+002
 1.5000542E+002, 4.2959986E-003, 1.2745578E-001, 1.1714431E-001, 3.1387168E-002, 6.7598720E-003, 7.7333314E-003, 5.6878627E+002
 1.5101316E+002, 6.5728660E-003, 1.2658804E-001, 1.1578142E-001, 3.0705664E-002, 7.3990541E-003, 7.5803520E-003, 5.8199001E+002
 1.5200749E+002, 1.5086642E-003, 1.2397865E-001, 1.2022172E-001, 3.5304027E-002, 6.3295918E-003, 8.5456040E-003, 5.8621111E+002
 1.5300073E+002, 1.9102099E-003, 1.1810912E-001, 1.2172143E-001, 3.9039925E-002, 7.0968070E-003, 9.3001541E-003, 5.7066653E+002
 1.5401067E+002, 2.8410607E-003, 1.1701246E-001, 1.2143316E-001, 3.9294214E-002, 7.1775351E-003, 9.3459978E-003, 5.6160659E+002
