s,,,,,,,
Time,"O2 EXHAUST","CO2 EXHAUST","H2O EXHAUST","CO EXHAUST","FUEL EXHAUST","SOOT EXHAUST","TEMP EXHAUST"
 0.0000000E+000, 2.3099739E-001, 5.9146498E-004, 5.9412092E-003, 0.0000000E+000, 0.0000000E+000, 0.0000000E+000, 2.0000000E+001
 1.0002046E+000, 2.3099739E-001, 5.9146498E-004, 5.9412092E-003, 9.3321529E-031, 5.1105492E-030, 2.8754299E-031, 2.0461821E+001
 2.0033782E+000, 2.2268364E-001, 7.3803717E-003, 9.7747531E-003, 4.3543038E-005, 1.8198368E-004, 5.4951542E-005, 1.0024154E+002
 3.0051006E+000, 2.1828360E-001, 1.0971959E-002, 1.1813869E-002, 7.4959230E-005, 2.2520561E-004, 8.5819529E-005, 1.4122231E+002
 4.0010636E+000, 2.1390405E-001, 1.4571484E-002, 1.3838377E-002, 9.1419891E-005, 2.4677550E-004, 1.1353424E-004, 1.8113107E+002
 5.0041768E+000, 2.0947988E-001, 1.8187703E-002, 1.5884561E-002, 1.1770361E-004, 3.0290087E-004, 1.4346737E-004, 2.1938455E+002
 6.0009798E+000, 2.0426700E-001, 2.2479984E-002, 1.8292816E-002, 1.3270206E-004, 3.2094592E-004, 1.7552322E-004, 2.6130218E+002
 7.0038222E+000, 1.9991065E-001, 2.6078798E-002, 2.0301864E-002, 1.3734897E-004, 3.3163521E-004, 2.0070021E-004, 2.9451107E+002
 8.0039985E+000, 1.9466012E-001, 3.0437375E-002, 2.2725804E-002, 1.3550833E-004, 2.8850888E-004, 2.2959091E-004, 3.2931959E+002
 9.0013679E+000, 1.8975014E-001, 3.4524050E-002, 2.4990384E-002, 1.2737633E-004, 2.3828753E-004, 2.5530577E-004, 3.5757140E+002
 1.0001714E+001, 1.8429946E-001, 3.9064325E-002, 2.7503436E-002, 1.1607887E-004, 1.8040733E-004, 2.8338967E-004, 3.8449690E+002
 1.1000673E+001, 1.7984445E-001, 4.2783179E-002, 2.9556213E-002, 1.0239862E-004, 1.2382815E-004, 3.0544354E-004, 4.0440072E+002
 1.2003876E+001, 1.7577604E-001, 4.6173291E-002, 3.1431299E-002, 9.2915586E-005, 8.1781190E-005, 3.2618852E-004, 4.1778455E+002
 1.3002125E+001, 1.7158907E-001, 4.9659497E-002, 3.3361150E-002, 8.4445163E-005, 4.3261960E-005, 3.4779628E-004, 4.3472964E+002
 1.4000017E+001, 1.6881469E-001, 5.1966120E-002, 3.4640128E-002, 8.0511300E-005, 2.3390136E-005, 3.6245109E-004, 4.4337617E+002
 1.5002681E+001, 1.6336849E-001, 5.6476591E-002, 3.7152635E-002, 8.1938430E-005, 9.4650042E-006, 3.9306311E-004, 4.5772425E+002
 1.6003698E+001, 1.6219172E-001, 5.7450639E-002, 3.7695541E-002, 8.2502775E-005, 7.3593193E-006, 3.9972879E-004, 4.5295290E+002
 1.7006797E+001, 1.6081274E-001, 5.8591758E-002, 3.8331784E-002, 8.3335880E-005, 5.3067505E-006, 4.0757463E-004, 4.5253689E+002
 1.8003314E+001, 1.5829427E-001, 6.0675114E-002, 3.9493865E-002, 8.5237535E-005, 2.3916832E-006, 4.2198053E-004, 4.6189238E+002
 1.9003718E+001, 1.5819067E-001, 6.0760118E-002, 3.9541730E-002, 8.5671185E-005, 3.3293740E-006, 4.2264465E-004, 4.5428517E+002
 2.0000237E+001, 1.5724737E-001, 6.1540753E-002, 3.9976969E-002, 8.6229862E-005, 1.7400051E-006, 4.2800956E-004, 4.6281252E+002
 2.1003703E+001, 1.5601793E-001, 6.2556551E-002, 4.0544385E-002, 8.7798849E-005, 2.1162000E-006, 4.3517116E-004, 4.5659987E+002
 2.2005164E+001, 1.5623394E-001, 6.2378152E-002, 4.0444677E-002, 8.7479790E-005, 1.9801147E-006, 4.3390408E-004, 4.5996531E+002
 2.3001243E+001, 1.5586889E-001, 6.2680035E-002, 4.0613123E-002, 8.7801398E-005, 1.7425287E-006, 4.3600140E-004, 4.5739659E+002
 2.4006564E+001, 1.5584134E-001, 6.2702684E-002, 4.0625841E-002, 8.7889044E-005, 1.9827405E-006, 4.3617237E-004, 4.5375551E+002
 2.5002967E+001, 1.5477960E-001, 6.3580522E-002, 4.1115818E-002, 8.8946866E-005, 1.3439608E-006, 4.4229741E-004, 4.5648829E+002
 2.6005664E+001, 1.5439012E-001, 6.3902387E-002, 4.1295567E-002, 8.9411045E-005, 1.3656657E-006, 4.4455956E-004, 4.5407154E+002
 2.7005209E+001, 1.5310612E-001, 6.4963565E-002, 4.1888133E-002, 9.0892195E-005, 1.2965088E-006, 4.5200724E-004, 4.5706504E+002
 2.8002996E+001, 1.5205881E-001, 6.5829108E-002, 4.2371472E-002, 9.2113517E-005, 1.2878914E-006, 4.5808472E-004, 4.5555180E+002
 2.9005901E+001, 1.5216594E-001, 6.5740668E-002, 4.2322016E-002, 9.1934617E-005, 1.1536560E-006, 4.5745213E-004, 4.5474153E+002
 3.0001186E+001, 1.5252019E-001, 6.5447935E-002, 4.2158519E-002, 9.1498865E-005, 1.1782398E-006, 4.5539182E-004, 4.5774972E+002
 3.1005600E+001, 1.5261253E-001, 6.5371491E-002, 4.2115909E-002, 9.1453364E-005, 1.3879269E-006, 4.5486843E-004, 4.4927795E+002
 3.2002609E+001, 1.5129315E-001, 6.6462079E-002, 4.2724799E-002, 9.2897177E-005, 1.0466754E-006, 4.6250571E-004, 4.5149757E+002
 3.3000329E+001, 1.5077891E-001, 6.6887286E-002, 4.2962102E-002, 9.3384963E-005, 6.8720589E-007, 4.6546727E-004, 4.5436483E+002
 3.4007531E+001, 1.4991002E-001, 6.7605432E-002, 4.3363091E-002, 9.4366536E-005, 6.2602778E-007, 4.7050299E-004, 4.5539396E+002
 3.5004075E+001, 1.4931130E-001, 6.8100246E-002, 4.3639391E-002, 9.5052390E-005, 6.6147369E-007, 4.7397472E-004, 4.5873481E+002
 3.6005678E+001, 1.4907577E-001, 6.8294985E-002, 4.3748085E-002, 9.5285889E-005, 5.1696849E-007, 4.7533324E-004, 4.5909337E+002
 3.7003187E+001, 1.4896837E-001, 6.8383563E-002, 4.3797673E-002, 9.5508509E-005, 7.4535159E-007, 4.7597614E-004, 4.5302644E+002
 3.8002098E+001, 1.4784643E-001, 6.9311005E-002, 4.4315419E-002, 9.6692162E-005, 4.5560112E-007, 4.8246145E-004, 4.5850034E+002
 3.9004496E+001, 1.4764877E-001, 6.9474217E-002, 4.4406667E-002, 9.7005576E-005, 5.8601838E-007, 4.8362528E-004, 4.5401376E+002
 4.0005372E+001, 1.4825229E-001, 6.8975554E-002, 4.4128125E-002, 9.6241791E-005, 4.7721153E-007, 4.8011098E-004, 4.5870897E+002
 4.1005761E+001, 1.4898534E-001, 6.8369672E-002, 4.3789827E-002, 9.5418315E-005, 5.6081926E-007, 4.7586347E-004, 4.5727150E+002
 4.2000764E+001, 1.4808765E-001, 6.9111406E-002, 4.4204138E-002, 9.6551396E-005, 7.1345557E-007, 4.8109016E-004, 4.5550565E+002
 4.3002935E+001, 1.4859409E-001, 6.8692900E-002, 4.3970419E-002, 9.5948559E-005, 6.2195632E-007, 4.7814894E-004, 4.5410413E+002
 4.4002620E+001, 1.4858581E-001, 6.8699826E-002, 4.3974216E-002, 9.5903111E-005, 6.1540351E-007, 4.7818573E-004, 4.5078023E+002
 4.5002354E+001, 1.4823365E-001, 6.8990869E-002, 4.4136743E-002, 9.6314910E-005, 5.6769727E-007, 4.8022956E-004, 4.5127735E+002
 4.6001592E+001, 1.4610144E-001, 7.0753153E-002, 4.5120751E-002, 9.8728779E-005, 3.4828190E-007, 4.9258798E-004, 4.5715224E+002
 4.7004791E+001, 1.4748111E-001, 6.9612767E-002, 4.4484035E-002, 9.7200693E-005, 6.5015744E-007, 4.8459804E-004, 4.5241277E+002
 4.8001184E+001, 1.4936734E-001, 6.8053614E-002, 4.3613555E-002, 9.5148458E-005, 1.1441312E-006, 4.7368200E-004, 4.4699054E+002
 4.9004586E+001, 1.4731438E-001, 6.9750374E-002, 4.4561013E-002, 9.7501245E-005, 8.8291422E-007, 4.8558707E-004, 4.4852371E+002
 5.0005455E+001, 1.4827527E-001, 6.8956333E-002, 4.4117541E-002, 9.6332262E-005, 8.1830670E-007, 4.8000123E-004, 4.4311154E+002
 5.1005159E+001, 1.4628497E-001, 7.0601446E-002, 4.5036045E-002, 9.8523747E-005, 4.3977843E-007, 4.9152469E-004, 4.5643408E+002
 5.2000207E+001, 1.4750422E-001, 6.9593849E-002, 4.4473353E-002, 9.7081070E-005, 4.0063648E-007, 4.8444527E-004, 4.5531846E+002
 5.3002468E+001, 1.4832344E-001, 6.8916639E-002, 4.4095311E-002, 9.6225794E-005, 5.7051636E-007, 4.7971169E-004, 4.5028484E+002
 5.4004167E+001, 1.4824036E-001, 6.8985331E-002, 4.4133654E-002, 9.6309377E-005, 5.2373254E-007, 4.8019116E-004, 4.4892699E+002
 5.5002394E+001, 1.4671496E-001, 7.0245846E-002, 4.4837654E-002, 9.8166274E-005, 6.5569126E-007, 4.8905875E-004, 4.5330387E+002
 5.6001003E+001, 1.4760899E-001, 6.9507009E-002, 4.4425045E-002, 9.7104734E-005, 6.6821370E-007, 4.8386687E-004, 4.4868619E+002
 5.7005715E+001, 1.4673241E-001, 7.0231644E-002, 4.4829562E-002, 9.8020041E-005, 4.2216467E-007, 4.8893198E-004, 4.5860068E+002
 5.8002886E+001, 1.4672903E-001, 7.0234451E-002, 4.4831114E-002, 9.8011887E-005, 4.5467966E-007, 4.8894909E-004, 4.5777602E+002
 5.9004565E+001, 1.4711184E-001, 6.9918002E-002, 4.4654457E-002, 9.7608757E-005, 5.6266222E-007, 4.8673642E-004, 4.5283976E+002
 6.0004173E+001, 1.4515572E-001, 7.1534684E-002, 4.5557218E-002, 9.9864285E-005, 3.6678562E-007, 4.9808259E-004, 4.5576002E+002
 6.1002613E+001, 1.4707043E-001, 6.9952280E-002, 4.4673557E-002, 9.7624669E-005, 5.0694987E-007, 4.8697015E-004, 4.4713978E+002
 6.2001793E+001, 1.4567606E-001, 7.1104752E-002, 4.5317053E-002, 9.9194704E-005, 3.0856006E-007, 4.9505029E-004, 4.5705582E+002
 6.3002645E+001, 1.4460998E-001, 7.1985713E-002, 4.5809075E-002, 1.0049504E-004, 3.7550151E-007, 5.0124831E-004, 4.5097472E+002
 6.4003627E+001, 1.4799815E-001, 6.9185644E-002, 4.4245407E-002, 9.6508846E-005, 3.8375485E-007, 4.8157984E-004, 4.5379147E+002
 6.5000020E+001, 1.4673526E-001, 7.0229159E-002, 4.4828260E-002, 9.8084046E-005, 6.0757022E-007, 4.8892900E-004, 4.4740040E+002
 6.6006668E+001, 1.4604408E-001, 7.0800525E-002, 4.5147218E-002, 9.8806799E-005, 4.2597126E-007, 4.9292300E-004, 4.5505439E+002
 6.7000320E+001, 1.4466545E-001, 7.1939941E-002, 4.5783464E-002, 1.0039045E-004, 2.9842080E-007, 5.0091834E-004, 4.6213062E+002
 6.8003374E+001, 1.4601797E-001, 7.0822151E-002, 4.5159269E-002, 9.8816864E-005, 3.6372018E-007, 4.9307047E-004, 4.5325684E+002
 6.9007011E+001, 1.4670333E-001, 7.0255734E-002, 4.4842973E-002, 9.8021485E-005, 3.6900878E-007, 4.8909414E-004, 4.5242556E+002
 7.0004343E+001, 1.4580499E-001, 7.0998107E-002, 4.5257565E-002, 9.9095426E-005, 4.2143926E-007, 4.9431245E-004, 4.5202196E+002
 7.1000897E+001, 1.4602701E-001, 7.0814513E-002, 4.5155118E-002, 9.8896240E-005, 5.6841904E-007, 4.9303616E-004, 4.5432510E+002
 7.2001359E+001, 1.4628589E-001, 7.0600640E-002, 4.5035628E-002, 9.8548566E-005, 5.2077970E-007, 4.9152460E-004, 4.5243865E+002
 7.3003037E+001, 1.4587506E-001, 7.0940162E-002, 4.5225233E-002, 9.9034336E-005, 4.8050810E-007, 4.9391001E-004, 4.5266003E+002
 7.4001151E+001, 1.4536472E-001, 7.1361936E-002, 4.5460749E-002, 9.9619336E-005, 5.0482318E-007, 4.9686936E-004, 4.5285189E+002
 7.5000773E+001, 1.4458918E-001, 7.2002960E-002, 4.5818655E-002, 1.0047937E-004, 3.5341492E-007, 5.0136083E-004, 4.5958519E+002
 7.6006257E+001, 1.4591740E-001, 7.0905001E-002, 4.5205730E-002, 9.9087886E-005, 6.1331305E-007, 4.9368525E-004, 4.4646638E+002
 7.7000873E+001, 1.4432055E-001, 7.2224958E-002, 4.5942637E-002, 1.0080326E-004, 3.5008139E-007, 5.0292189E-004, 4.5982540E+002
 7.8003548E+001, 1.4439944E-001, 7.2159506E-002, 4.5906262E-002, 1.0084807E-004, 6.5307912E-007, 5.0249173E-004, 4.4983457E+002
 7.9004445E+001, 1.4346450E-001, 7.2932434E-002, 4.6337692E-002, 1.0178876E-004, 3.9378322E-007, 5.0788676E-004, 4.5538445E+002
 8.0000495E+001, 1.4504532E-001, 7.1626017E-002, 4.5608135E-002, 9.9926980E-005, 3.8529752E-007, 4.9870970E-004, 4.5709929E+002
 8.1000776E+001, 1.4521609E-001, 7.1484789E-002, 4.5529339E-002, 9.9782314E-005, 4.6100681E-007, 4.9772976E-004, 4.5225286E+002
 8.2004643E+001, 1.4625281E-001, 7.0628060E-002, 4.5050877E-002, 9.8537937E-005, 4.1977376E-007, 4.9170655E-004, 4.5842168E+002
 8.3005285E+001, 1.4559997E-001, 7.1167452E-002, 4.5352185E-002, 9.9377076E-005, 5.9356675E-007, 4.9551067E-004, 4.5004050E+002
 8.4004102E+001, 1.4505506E-001, 7.1617791E-002, 4.5603674E-002, 1.0001928E-004, 5.3682175E-007, 4.9867422E-004, 4.5145641E+002
 8.5003378E+001, 1.4571178E-001, 7.1075056E-002, 4.5300591E-002, 9.9248071E-005, 5.6381214E-007, 4.9486220E-004, 4.5027855E+002
 8.6003757E+001, 1.4573925E-001, 7.1052302E-002, 4.5287920E-002, 9.9244148E-005, 5.9837964E-007, 4.9470847E-004, 4.5053604E+002
 8.7005771E+001, 1.4676437E-001, 7.0205213E-002, 4.4814813E-002, 9.7991179E-005, 4.5342549E-007, 4.8874820E-004, 4.5487637E+002
 8.8003489E+001, 1.4645877E-001, 7.0457752E-002, 4.4955853E-002, 9.8360677E-005, 4.8980988E-007, 4.9052424E-004, 4.5368862E+002
 8.9001014E+001, 1.4523006E-001, 7.1473189E-002, 4.5522903E-002, 9.9798417E-005, 5.3937764E-007, 4.9765527E-004, 4.5483239E+002
 9.0003206E+001, 1.4534880E-001, 7.1375151E-002, 4.5468086E-002, 9.9604780E-005, 4.5068233E-007, 4.9695503E-004, 4.5613923E+002
 9.1005912E+001, 1.4505274E-001, 7.1619676E-002, 4.5604745E-002, 1.0003680E-004, 5.9238670E-007, 4.9869064E-004, 4.4876058E+002
 9.2001701E+001, 1.4568577E-001, 7.1096404E-002, 4.5312609E-002, 9.9355009E-005, 7.4932160E-007, 4.9502857E-004, 4.4845689E+002
 9.3003302E+001, 1.4558157E-001, 7.1182747E-002, 4.5360657E-002, 9.9344392E-005, 5.4133853E-007, 4.9560643E-004, 4.5497238E+002
 9.4002058E+001, 1.4557438E-001, 7.1188686E-002, 4.5363983E-002, 9.9360254E-005, 4.9518180E-007, 4.9564974E-004, 4.5270123E+002
 9.5002313E+001, 1.4574554E-001, 7.1047017E-002, 4.5285031E-002, 9.9285671E-005, 7.0720105E-007, 4.9468187E-004, 4.4821537E+002
 9.6000092E+001, 1.4695473E-001, 7.0047568E-002, 4.4726954E-002, 9.7906878E-005, 1.1505897E-006, 4.8767090E-004, 4.4525642E+002
 9.7002043E+001, 1.4531130E-001, 7.1405982E-002, 4.5485414E-002, 9.9736030E-005, 6.3372610E-007, 4.9719033E-004, 4.4638559E+002
 9.8003661E+001, 1.4399732E-001, 7.2492055E-002, 4.6091820E-002, 1.0120324E-004, 3.5916256E-007, 5.0480229E-004, 4.5726225E+002
 9.9000561E+001, 1.4498663E-001, 7.1674464E-002, 4.5635240E-002, 1.0003561E-004, 3.8635061E-007, 4.9905851E-004, 4.5222996E+002
 1.0000422E+002, 1.4475452E-001, 7.1866269E-002, 4.5742362E-002, 1.0031631E-004, 3.9176741E-007, 5.0040744E-004, 4.4886299E+002
 1.0100483E+002, 1.4611425E-001, 7.0742501E-002, 4.5114833E-002, 9.8738340E-005, 5.2578895E-007, 4.9251846E-004, 4.4903673E+002
 1.0200592E+002, 1.4589501E-001, 7.0923728E-002, 4.5216005E-002, 9.8971532E-005, 4.7539308E-007, 4.9378613E-004, 4.5171607E+002
 1.0300442E+002, 1.4564443E-001, 7.1130673E-002, 4.5331696E-002, 9.9363381E-005, 5.3080761E-007, 4.9526062E-004, 4.4766143E+002
 1.0400187E+002, 1.4508726E-001, 7.1591291E-002, 4.5588793E-002, 9.9916738E-005, 4.0887153E-007, 4.9847418E-004, 4.5436054E+002
 1.0500291E+002, 1.4389916E-001, 7.2573123E-002, 4.6137125E-002, 1.0134533E-004, 4.2633868E-007, 5.0537745E-004, 4.5769123E+002
 1.0600276E+002, 1.4492361E-001, 7.1726456E-002, 4.5664333E-002, 1.0015601E-004, 5.0753960E-007, 4.9943366E-004, 4.5314346E+002
 1.0700257E+002, 1.4318909E-001, 7.3160110E-002, 4.6464800E-002, 1.0208501E-004, 2.5516398E-007, 5.0948004E-004, 4.6050503E+002
 1.0800232E+002, 1.4519376E-001, 7.1503249E-002, 4.5539643E-002, 9.9804970E-005, 4.5875750E-007, 4.9785865E-004, 4.5032051E+002
 1.0900104E+002, 1.4605898E-001, 7.0788169E-002, 4.5140347E-002, 9.8812156E-005, 4.8606149E-007, 4.9284113E-004, 4.5179725E+002
 1.1000250E+002, 1.4478196E-001, 7.1843656E-002, 4.5729681E-002, 1.0024268E-004, 3.5513429E-007, 5.0023971E-004, 4.5517644E+002
 1.1100357E+002, 1.4533292E-001, 7.1388293E-002, 4.5475422E-002, 9.9620656E-005, 3.5821278E-007, 4.9704674E-004, 4.5338411E+002
 1.1200764E+002, 1.4445833E-001, 7.2110928E-002, 4.5879072E-002, 1.0073031E-004, 5.6809534E-007, 5.0214008E-004, 4.5215001E+002
 1.1300232E+002, 1.4504995E-001, 7.1621849E-002, 4.5606055E-002, 1.0011633E-004, 7.4653298E-007, 4.9872229E-004, 4.5227652E+002
 1.1400154E+002, 1.4641420E-001, 7.0494572E-002, 4.4976409E-002, 9.8408904E-005, 5.6701773E-007, 4.9078198E-004, 4.5674655E+002
 1.1500310E+002, 1.4507999E-001, 7.1597231E-002, 4.5592159E-002, 9.9963960E-005, 5.0877866E-007, 4.9852421E-004, 4.5010362E+002
 1.1600383E+002, 1.4524761E-001, 7.1458683E-002, 4.5514803E-002, 9.9778152E-005, 5.2979173E-007, 4.9755346E-004, 4.4883592E+002
 1.1700149E+002, 1.4386593E-001, 7.2600642E-002, 4.6152443E-002, 1.0134572E-004, 3.9765129E-007, 5.0556244E-004, 4.5683007E+002
 1.1800380E+002, 1.4463825E-001, 7.1962439E-002, 4.5796000E-002, 1.0040110E-004, 3.5489386E-007, 5.0107179E-004, 4.5336160E+002
 1.1900010E+002, 1.4579196E-001, 7.1008922E-002, 4.5263564E-002, 9.9078843E-005, 4.3010147E-007, 4.9438156E-004, 4.5091013E+002
 1.2000422E+002, 1.4420969E-001, 7.2316491E-002, 4.5993810E-002, 1.0097902E-004, 4.4257436E-007, 5.0357459E-004, 4.5231649E+002
 1.2100411E+002, 1.4430807E-001, 7.2235282E-002, 4.5948387E-002, 1.0080575E-004, 3.8315923E-007, 5.0299180E-004, 4.5452198E+002
 1.2200696E+002, 1.4518503E-001, 7.1510583E-002, 4.5543641E-002, 9.9738105E-005, 3.8910641E-007, 4.9789360E-004, 4.5236014E+002
 1.2300502E+002, 1.4430007E-001, 7.2241795E-002, 4.5952075E-002, 1.0085550E-004, 5.7814806E-007, 5.0304622E-004, 4.5400445E+002
 1.2400149E+002, 1.4501556E-001, 7.1650510E-002, 4.5621875E-002, 1.0001119E-004, 5.6155348E-007, 4.9889232E-004, 4.5066843E+002
 1.2500232E+002, 1.4424863E-001, 7.2284330E-002, 4.5975837E-002, 1.0092255E-004, 4.4184449E-007, 5.0334639E-004, 4.5453808E+002
 1.2600417E+002, 1.4386488E-001, 7.2601466E-002, 4.6152934E-002, 1.0137076E-004, 4.5760787E-007, 5.0557334E-004, 4.5097559E+002
 1.2700525E+002, 1.4648870E-001, 7.0433043E-002, 4.4942014E-002, 9.8293872E-005, 5.7573481E-007, 4.9034390E-004, 4.5483093E+002
 1.2800724E+002, 1.4408149E-001, 7.2422406E-002, 4.6052984E-002, 1.0115034E-004, 4.7850938E-007, 5.0432297E-004, 4.5238181E+002
 1.2900254E+002, 1.4466542E-001, 7.1939940E-002, 4.5783472E-002, 1.0039767E-004, 3.8060459E-007, 5.0091988E-004, 4.5257193E+002
 1.3000035E+002, 1.4386034E-001, 7.2605320E-002, 4.6155016E-002, 1.0132074E-004, 3.4499189E-007, 5.0558852E-004, 4.5636910E+002
 1.3100182E+002, 1.4406642E-001, 7.2434925E-002, 4.6059910E-002, 1.0111803E-004, 4.7868046E-007, 5.0440016E-004, 4.5376337E+002
 1.3200170E+002, 1.4467128E-001, 7.1934641E-002, 4.5780753E-002, 1.0058187E-004, 1.3783791E-006, 5.0092378E-004, 4.5700744E+002
 1.3300598E+002, 1.4438328E-001, 7.2173098E-002, 4.5913673E-002, 1.0072689E-004, 4.5386181E-007, 5.0255707E-004, 4.5626691E+002
 1.3400699E+002, 1.4402820E-001, 7.2466510E-002, 4.6077555E-002, 1.0116807E-004, 4.6310578E-007, 5.0462311E-004, 4.5165858E+002
 1.3500578E+002, 1.4453300E-001, 7.2049401E-002, 4.5844571E-002, 1.0053140E-004, 4.0149587E-007, 5.0168403E-004, 4.5334684E+002
 1.3600452E+002, 1.4503008E-001, 7.1638616E-002, 4.5615170E-002, 9.9944212E-005, 3.6787105E-007, 4.9879804E-004, 4.5627391E+002
 1.3700469E+002, 1.4588849E-001, 7.0929075E-002, 4.5219024E-002, 9.9004321E-005, 5.0070134E-007, 4.9382909E-004, 4.4929221E+002
 1.3800388E+002, 1.4561211E-001, 7.1157474E-002, 4.5346572E-002, 9.9331016E-005, 5.6923043E-007, 4.9543375E-004, 4.5238107E+002
 1.3900516E+002, 1.4386615E-001, 7.2600498E-002, 4.6152335E-002, 1.0132390E-004, 3.8984045E-007, 5.0555679E-004, 4.5526853E+002
 1.4000432E+002, 1.4502516E-001, 7.1642471E-002, 4.5617464E-002, 1.0006152E-004, 6.4501040E-007, 4.9884910E-004, 4.5367422E+002
 1.4100019E+002, 1.4562026E-001, 7.1150512E-002, 4.5342845E-002, 9.9447960E-005, 8.3348242E-007, 4.9541205E-004, 4.3941623E+002
 1.4200208E+002, 1.4678494E-001, 7.0187761E-002, 4.4805348E-002, 9.8188865E-005, 1.1948389E-006, 4.8867332E-004, 4.4383893E+002
 1.4300532E+002, 1.4445878E-001, 7.2110641E-002, 4.5878839E-002, 1.0067325E-004, 5.0073855E-007, 5.0212591E-004, 4.5217948E+002
 1.4400191E+002, 1.4445225E-001, 7.2115981E-002, 4.5881874E-002, 1.0072168E-004, 5.2009486E-007, 5.0217218E-004, 4.5499783E+002
 1.4500042E+002, 1.4536714E-001, 7.1359975E-002, 4.5459620E-002, 9.9590046E-005, 4.7832830E-007, 4.9684991E-004, 4.5584411E+002
 1.4600334E+002, 1.4500233E-001, 7.1661445E-002, 4.5627994E-002, 1.0003628E-004, 4.7185687E-007, 4.9897117E-004, 4.5193195E+002
 1.4700667E+002, 1.4327256E-001, 7.3090997E-002, 4.6426298E-002, 1.0206035E-004, 4.0413580E-007, 5.0901038E-004, 4.5106323E+002
 1.4800457E+002, 1.4503638E-001, 7.1633322E-002, 4.5612279E-002, 9.9988001E-005, 4.4862813E-007, 4.9877186E-004, 4.5229014E+002
 1.4900512E+002, 1.4428818E-001, 7.2251638E-002, 4.5957588E-002, 1.0088225E-004, 4.2695700E-007, 5.0311809E-004, 4.5475748E+002
 1.5000444E+002, 1.4490111E-001, 7.1745007E-002, 4.5674716E-002, 1.0020069E-004, 5.7837451E-007, 4.9956788E-004, 4.5058859E+002
 1.5100311E+002, 1.4506840E-001, 7.1606961E-002, 4.5597476E-002, 9.9886147E-005, 3.4931904E-007, 4.9857291E-004, 4.5713644E+002
 1.5200215E+002, 1.4534034E-001, 7.1382053E-002, 4.5472012E-002, 9.9671012E-005, 4.8772608E-007, 4.9701561E-004, 4.5102260E+002
 1.5300511E+002, 1.4528719E-001, 7.1426077E-002, 4.5496523E-002, 9.9675426E-005, 3.9161216E-007, 4.9731235E-004, 4.5351490E+002
 1.5400565E+002, 1.4677438E-001, 7.0196909E-002, 4.4810198E-002, 9.7996615E-005, 4.8630458E-007, 4.8869357E-004, 4.5421601E+002
