s,,,,,,,
Time,"O2 EXHAUST","CO2 EXHAUST","H2O EXHAUST","CO EXHAUST","FUEL EXHAUST","SOOT EXHAUST","TEMP EXHAUST"
 0.0000000E+000, 2.3099739E-001, 5.9146498E-004, 5.9412091E-003, 0.0000000E+000, 0.0000000E+000, 0.0000000E+000, 2.0000000E+001
 1.0011609E+000, 2.3099739E-001, 5.9146498E-004, 5.9412091E-003, 2.0998264E-024, 2.3121930E-024, 5.1260371E-024, 2.2107646E+001
 2.0039129E+000, 2.2142745E-001, 8.2572054E-003, 9.5575284E-003, 1.4775796E-004, 1.1054036E-004, 2.8512288E-004, 1.1300103E+002
 3.0053272E+000, 2.1303890E-001, 1.4991232E-002, 1.2731558E-002, 2.7429668E-004, 1.5124128E-004, 5.3488452E-004, 1.8638791E+002
 4.0037938E+000, 2.0766372E-001, 1.9311738E-002, 1.4763616E-002, 3.5085224E-004, 1.7947742E-004, 6.9412776E-004, 2.3457531E+002
 5.0028261E+000, 1.9939718E-001, 2.6045732E-002, 1.7871349E-002, 4.0681458E-004, 1.7691916E-004, 9.2861379E-004, 2.9709042E+002
 6.0019402E+000, 1.8783274E-001, 3.5599343E-002, 2.2190552E-002, 3.9065746E-004, 1.2214616E-004, 1.2406028E-003, 3.7081485E+002
 7.0004214E+000, 1.8019763E-001, 4.1928428E-002, 2.5037849E-002, 3.6494235E-004, 7.5932894E-005, 1.4440407E-003, 4.0857146E+002
 8.0005445E+000, 1.6927073E-001, 5.0957918E-002, 2.9118106E-002, 3.4756619E-004, 2.5199531E-005, 1.7384579E-003, 4.5033249E+002
 9.0002387E+000, 1.5950135E-001, 5.8981724E-002, 3.2775741E-002, 3.6603817E-004, 4.6913460E-006, 2.0074234E-003, 4.7749056E+002
 1.0002263E+001, 1.5014699E-001, 6.6632072E-002, 3.6284573E-002, 4.0648267E-004, 1.3944257E-007, 2.2688116E-003, 5.0791996E+002
 1.1000676E+001, 1.3817079E-001, 7.6413915E-002, 4.0779428E-002, 4.6715544E-004, 2.1258745E-007, 2.6049655E-003, 5.2106581E+002
 1.2000036E+001, 1.3417211E-001, 7.9680751E-002, 4.2279987E-002, 4.8679726E-004, 1.7554326E-007, 2.7170962E-003, 5.2084222E+002
 1.3004885E+001, 1.2836124E-001, 8.4427407E-002, 4.4460775E-002, 5.1586828E-004, 1.3543723E-007, 2.8801353E-003, 5.3086805E+002
 1.4004953E+001, 1.2227942E-001, 8.9395564E-002, 4.6743203E-002, 5.4616356E-004, 7.3459552E-008, 3.0507539E-003, 5.3572135E+002
 1.5007615E+001, 1.1500825E-001, 9.5334537E-002, 4.9472172E-002, 5.8294997E-004, 1.1467186E-007, 3.2548362E-003, 5.3548448E+002
 1.6004781E+001, 1.1093683E-001, 9.8659955E-002, 5.1000238E-002, 6.0357842E-004, 1.4148740E-007, 3.3691150E-003, 5.3732441E+002
 1.7003795E+001, 1.0568086E-001, 1.0295339E-001, 5.2972760E-002, 6.2983152E-004, 1.1645629E-007, 3.5165777E-003, 5.4128675E+002
 1.8000317E+001, 1.0297011E-001, 1.0516577E-001, 5.3990581E-002, 6.4484225E-004, 2.7379258E-007, 3.5928849E-003, 5.3889881E+002
 1.9004903E+001, 9.6053052E-002, 1.1080044E-001, 5.6590441E-002, 6.9112171E-004, 2.0028457E-006, 3.7889730E-003, 5.3834793E+002
 2.0001621E+001, 9.4177576E-002, 1.1233307E-001, 5.7294200E-002, 7.0009404E-004, 1.4893169E-006, 3.8415264E-003, 5.4165112E+002
 2.1002817E+001, 8.7134596E-002, 1.1806630E-001, 5.9942213E-002, 7.5003601E-004, 5.0130839E-006, 4.0416617E-003, 5.4562815E+002
 2.2006268E+001, 8.5978267E-002, 1.1900109E-001, 6.0378626E-002, 7.6312952E-004, 6.1929518E-006, 4.0753645E-003, 5.4456460E+002
 2.3002297E+001, 8.0658870E-002, 1.2332744E-001, 6.2379714E-002, 8.0385822E-004, 8.2806892E-006, 4.2270469E-003, 5.4304340E+002
 2.4001388E+001, 7.6384575E-002, 1.2679042E-001, 6.3991089E-002, 8.4667743E-004, 1.0967284E-005, 4.3506708E-003, 5.4194366E+002
 2.5008165E+001, 7.4178328E-002, 1.2857590E-001, 6.4823306E-002, 8.7025253E-004, 1.2743226E-005, 4.4147341E-003, 5.4043178E+002
 2.6005835E+001, 7.0896083E-002, 1.3127387E-001, 6.6050947E-002, 8.7413111E-004, 1.0309055E-005, 4.5046679E-003, 5.4404041E+002
 2.7002682E+001, 6.6382786E-002, 1.3490644E-001, 6.7758485E-002, 9.3736221E-004, 1.5824320E-005, 4.6383097E-003, 5.4329031E+002
 2.8008816E+001, 6.4936885E-002, 1.3609984E-001, 6.8297945E-002, 9.3529910E-004, 1.4984747E-005, 4.6772725E-003, 5.4483899E+002
 2.9003189E+001, 6.1729431E-002, 1.3870529E-001, 6.9505514E-002, 9.6242800E-004, 1.5526163E-005, 4.7691828E-003, 5.4166035E+002
 3.0005799E+001, 5.7157098E-002, 1.4246458E-001, 7.1215414E-002, 9.6713056E-004, 1.2349798E-005, 4.8943424E-003, 5.4521400E+002
 3.1004938E+001, 5.5145023E-002, 1.4409937E-001, 7.1972735E-002, 9.8376749E-004, 1.3421456E-005, 4.9519282E-003, 5.4812763E+002
 3.2004092E+001, 5.2462180E-002, 1.4627236E-001, 7.2984188E-002, 1.0109918E-003, 1.5962787E-005, 5.0295781E-003, 5.5123132E+002
 3.3004512E+001, 5.0208387E-002, 1.4809540E-001, 7.3834465E-002, 1.0356510E-003, 1.8613666E-005, 5.0951166E-003, 5.4949867E+002
 3.4002057E+001, 4.8685054E-002, 1.4934382E-001, 7.4405375E-002, 1.0404596E-003, 1.6473417E-005, 5.1373837E-003, 5.4820865E+002
 3.5008303E+001, 4.2550634E-002, 1.5431384E-001, 7.6717978E-002, 1.1018967E-003, 2.0526982E-005, 5.3148032E-003, 5.5151186E+002
 3.6000193E+001, 4.2860170E-002, 1.5409628E-001, 7.6592960E-002, 1.0739479E-003, 1.6274130E-005, 5.3015704E-003, 5.4905001E+002
 3.7008055E+001, 3.9389080E-002, 1.5693764E-001, 7.7894233E-002, 1.0869398E-003, 1.4926917E-005, 5.3982113E-003, 5.4741505E+002
 3.8004240E+001, 3.9473550E-002, 1.5686857E-001, 7.7862569E-002, 1.0865902E-003, 1.4801941E-005, 5.3958547E-003, 5.5019582E+002
 3.9008807E+001, 3.3414993E-002, 1.6178085E-001, 8.0146007E-002, 1.1448517E-003, 1.5760054E-005, 5.5706807E-003, 5.5499153E+002
 4.0001595E+001, 3.2141753E-002, 1.6281811E-001, 8.0624679E-002, 1.1534478E-003, 1.5184975E-005, 5.6067941E-003, 5.5748668E+002
 4.1003615E+001, 2.9949735E-002, 1.6456454E-001, 8.1458355E-002, 1.1973844E-003, 2.0814597E-005, 5.6739746E-003, 5.5685225E+002
 4.2001571E+001, 2.7528398E-002, 1.6653602E-001, 8.2369431E-002, 1.2150637E-003, 1.6325578E-005, 5.7429041E-003, 5.5795027E+002
 4.3003278E+001, 2.5514962E-002, 1.6818944E-001, 8.3122469E-002, 1.2181953E-003, 1.8080867E-005, 5.7981824E-003, 5.5862286E+002
 4.4006519E+001, 2.2634091E-002, 1.7048858E-001, 8.4218015E-002, 1.2739060E-003, 1.9030375E-005, 5.8861629E-003, 5.5767700E+002
 4.5007183E+001, 2.4121173E-002, 1.6923604E-001, 8.3670001E-002, 1.2953569E-003, 1.9417597E-005, 5.8494428E-003, 5.5850722E+002
 4.6002464E+001, 1.9007036E-002, 1.7335069E-001, 8.5605393E-002, 1.3682978E-003, 2.4773491E-005, 6.0011054E-003, 5.6072137E+002
 4.7004192E+001, 1.8236889E-002, 1.7403930E-001, 8.5879126E-002, 1.3272515E-003, 2.0195723E-005, 6.0149623E-003, 5.5785153E+002
 4.8002740E+001, 2.0292012E-002, 1.7241177E-001, 8.5094553E-002, 1.2781968E-003, 1.7189687E-005, 5.9506007E-003, 5.5612821E+002
 4.9000892E+001, 1.4545180E-002, 1.7685745E-001, 8.7316581E-002, 1.4959328E-003, 2.6852395E-005, 6.1445302E-003, 5.6034041E+002
 5.0007877E+001, 1.5009498E-002, 1.7631999E-001, 8.7185920E-002, 1.6159332E-003, 1.8535106E-005, 6.1527515E-003, 5.6287573E+002
 5.1008583E+001, 1.3381858E-002, 1.7792038E-001, 8.7724180E-002, 1.4167262E-003, 1.8387615E-005, 6.1624897E-003, 5.6428865E+002
 5.2003206E+001, 1.2063807E-002, 1.7890094E-001, 8.8243745E-002, 1.4960319E-003, 2.4344652E-005, 6.2120333E-003, 5.5583492E+002
 5.3006607E+001, 1.0455596E-002, 1.7982071E-001, 8.8951795E-002, 1.8045579E-003, 3.1998099E-005, 6.3091761E-003, 5.5966350E+002
 5.4002323E+001, 6.5889628E-003, 1.8310255E-001, 9.0370045E-002, 1.7296541E-003, 3.0667484E-005, 6.4013412E-003, 5.6630441E+002
 5.5003916E+001, 6.8768277E-003, 1.8294666E-001, 9.0241551E-002, 1.6683309E-003, 2.5169723E-005, 6.3829221E-003, 5.6398463E+002
 5.6000303E+001, 7.7365492E-003, 1.8183214E-001, 9.0028789E-002, 1.9790350E-003, 2.9547741E-005, 6.4133582E-003, 5.6210098E+002
 5.7006639E+001, 5.8951608E-003, 1.8230785E-001, 9.0990750E-002, 2.7708014E-003, 6.3034661E-005, 6.6004167E-003, 5.6052376E+002
 5.8008204E+001, 7.5973109E-003, 1.8091439E-001, 9.0354901E-002, 2.7667961E-003, 4.8085541E-005, 6.5535339E-003, 5.5545313E+002
 5.9003392E+001, 5.1444638E-003, 1.8264382E-001, 9.1346563E-002, 2.9865856E-003, 6.4717925E-005, 6.6582100E-003, 5.5419310E+002
 6.0006827E+001, 6.7430409E-003, 1.8153169E-001, 9.0695092E-002, 2.8306874E-003, 6.2017048E-005, 6.5877459E-003, 5.5134497E+002
 6.1006433E+001, 3.6601474E-003, 1.8193950E-001, 9.2395356E-002, 4.4391091E-003, 2.1888824E-004, 6.9492998E-003, 5.5128703E+002
 6.2002120E+001, 3.9570094E-003, 1.8130285E-001, 9.2375937E-002, 4.7254838E-003, 3.1423587E-004, 6.9902532E-003, 5.4902305E+002
 6.3007601E+001, 2.9665162E-003, 1.8217248E-001, 9.2752519E-002, 4.7055711E-003, 1.6718874E-004, 7.0146584E-003, 5.5047833E+002
 6.4008856E+001, 3.4101910E-003, 1.8165989E-001, 9.2620996E-002, 4.8129592E-003, 2.0394310E-004, 7.0209723E-003, 5.4936089E+002
 6.5000376E+001, 3.0520781E-003, 1.8097572E-001, 9.2999549E-002, 5.5445691E-003, 3.2720811E-004, 7.1567115E-003, 5.4426492E+002
 6.6004588E+001, 2.8155116E-003, 1.7993893E-001, 9.3421113E-002, 6.4906454E-003, 3.0599624E-004, 7.3272168E-003, 5.4212947E+002
 6.7003527E+001, 2.7170655E-003, 1.8051841E-001, 9.3316104E-002, 6.1006962E-003, 3.6296439E-004, 7.2619639E-003, 5.4218947E+002
 6.8007649E+001, 2.0536193E-003, 1.7985248E-001, 9.3874221E-002, 7.0138927E-003, 4.6528386E-004, 7.4376029E-003, 5.4271696E+002
 6.9008639E+001, 1.8090430E-003, 1.7970473E-001, 9.4063532E-002, 7.2856527E-003, 4.3489676E-004, 7.4915355E-003, 5.3805326E+002
 7.0007860E+001, 1.9304054E-003, 1.7939393E-001, 9.4068076E-002, 7.4403307E-003, 4.8128047E-004, 7.5147475E-003, 5.3946792E+002
 7.1000663E+001, 2.9776073E-003, 1.7918982E-001, 9.3476618E-002, 6.9121094E-003, 6.4763082E-004, 7.3936963E-003, 5.4130938E+002
 7.2006136E+001, 1.7771705E-003, 1.8005301E-001, 9.3989105E-002, 7.0390748E-003, 4.3489978E-004, 7.4496742E-003, 5.4246247E+002
 7.3004091E+001, 1.2958521E-003, 1.8030708E-001, 9.4209631E-002, 7.1506368E-003, 4.1676474E-004, 7.4822074E-003, 5.3589918E+002
 7.4005270E+001, 1.3509860E-003, 1.7825646E-001, 9.4721773E-002, 8.6810614E-003, 4.5032148E-004, 7.7456951E-003, 5.4004256E+002
 7.5000518E+001, 1.1028255E-003, 1.7702825E-001, 9.5130156E-002, 9.7082782E-003, 9.2701042E-004, 7.9274487E-003, 5.3555596E+002
 7.6003842E+001, 1.0866856E-003, 1.7808601E-001, 9.4876401E-002, 8.9291574E-003, 7.8604182E-004, 7.7937640E-003, 5.3642346E+002
 7.7006373E+001, 8.8159413E-004, 1.7714430E-001, 9.5255307E-002, 9.7841514E-003, 7.5411091E-004, 7.9476977E-003, 5.3411320E+002
 7.8001506E+001, 8.3370827E-004, 1.7904665E-001, 9.4813168E-002, 8.3978979E-003, 4.7947723E-004, 7.7105095E-003, 5.3908720E+002
 7.9002569E+001, 6.9916284E-004, 1.7646391E-001, 9.5503773E-002, 1.0376971E-002, 1.0494351E-003, 8.0535291E-003, 5.3212503E+002
 8.0006824E+001, 6.6975528E-004, 1.7516022E-001, 9.5843767E-002, 1.1366221E-002, 1.2375245E-003, 8.2245683E-003, 5.2757660E+002
 8.1001044E+001, 1.0773929E-003, 1.7713993E-001, 9.5109357E-002, 9.6327141E-003, 9.6867531E-004, 7.9147845E-003, 5.4035003E+002
 8.2002162E+001, 7.5691666E-004, 1.7677805E-001, 9.5400619E-002, 1.0115706E-002, 9.4216345E-004, 8.0073595E-003, 5.3269099E+002
 8.3002518E+001, 7.1526888E-004, 1.7511890E-001, 9.5834867E-002, 1.1376369E-002, 1.1882090E-003, 8.2253989E-003, 5.3535018E+002
 8.4007318E+001, 1.0380997E-003, 1.7621689E-001, 9.5387517E-002, 1.0371731E-002, 9.1730585E-004, 8.0442351E-003, 5.4089182E+002
 8.5004276E+001, 7.2949360E-004, 1.7435012E-001, 9.6011701E-002, 1.1934833E-002, 1.3333055E-003, 8.3208736E-003, 5.3212326E+002
 8.6002383E+001, 6.6408452E-004, 1.7594606E-001, 9.5674053E-002, 1.0806397E-002, 9.7542564E-004, 8.1293604E-003, 5.3277590E+002
 8.7000486E+001, 6.8119329E-004, 1.7555059E-001, 9.5775598E-002, 1.1104212E-002, 9.3568629E-004, 8.1807512E-003, 5.3282840E+002
 8.8000987E+001, 6.2078094E-004, 1.7350619E-001, 9.6282265E-002, 1.2628879E-002, 1.4747381E-003, 8.4432081E-003, 5.2890050E+002
 8.9003379E+001, 5.5381521E-004, 1.7359404E-001, 9.6327779E-002, 1.2633654E-002, 1.2705956E-003, 8.4471387E-003, 5.2710903E+002
 9.0003949E+001, 6.3378881E-004, 1.7410878E-001, 9.6127500E-002, 1.2174076E-002, 1.3735748E-003, 8.3646798E-003, 5.3195079E+002
 9.1002827E+001, 5.3226742E-004, 1.7290175E-001, 9.6461056E-002, 1.3110956E-002, 1.7247326E-003, 8.5275807E-003, 5.3084430E+002
 9.2003135E+001, 4.9308640E-004, 1.7418358E-001, 9.6210981E-002, 1.2225800E-002, 1.2346481E-003, 8.3783412E-003, 5.3217157E+002
 9.3003170E+001, 4.3710444E-004, 1.7232488E-001, 9.6679630E-002, 1.3620159E-002, 1.6732942E-003, 8.6187280E-003, 5.2939904E+002
 9.4000437E+001, 5.9284664E-004, 1.7437448E-001, 9.6091016E-002, 1.2007056E-002, 1.3009410E-003, 8.3373075E-003, 5.3466941E+002
 9.5008205E+001, 5.0360784E-004, 1.7221245E-001, 9.6694509E-002, 1.3689033E-002, 1.5040739E-003, 8.6299173E-003, 5.2814585E+002
 9.6004904E+001, 5.5988511E-004, 1.7230149E-001, 9.6577198E-002, 1.3524246E-002, 1.9225425E-003, 8.5972038E-003, 5.3032433E+002
 9.7002016E+001, 5.3001356E-004, 1.7275102E-001, 9.6529903E-002, 1.3255399E-002, 1.5357240E-003, 8.5538587E-003, 5.3394442E+002
 9.8006691E+001, 6.5442005E-004, 1.7419456E-001, 9.6063479E-002, 1.2066081E-002, 1.5742047E-003, 8.3441451E-003, 5.3805121E+002
 9.9004346E+001, 5.4409125E-004, 1.7195254E-001, 9.6664141E-002, 1.3785094E-002, 2.0340515E-003, 8.6421336E-003, 5.3308352E+002
 1.0000592E+002, 6.1399063E-004, 1.7183651E-001, 9.6645684E-002, 1.3821692E-002, 2.0900082E-003, 8.6462234E-003, 5.3176672E+002
 1.0100794E+002, 6.7876839E-004, 1.7229963E-001, 9.6493007E-002, 1.3436419E-002, 2.0204779E-003, 8.5781371E-003, 5.3525380E+002
 1.0200176E+002, 8.4599012E-004, 1.7200998E-001, 9.6484447E-002, 1.3566185E-002, 1.9286404E-003, 8.5966535E-003, 5.3502969E+002
 1.0300365E+002, 8.1668772E-004, 1.7196720E-001, 9.6492420E-002, 1.3596112E-002, 2.0744722E-003, 8.6017201E-003, 5.3044145E+002
 1.0400270E+002, 7.0329723E-004, 1.7191234E-001, 9.6600360E-002, 1.3735937E-002, 1.8941877E-003, 8.6301651E-003, 5.3190803E+002
 1.0500345E+002, 7.6852676E-004, 1.7241242E-001, 9.6425185E-002, 1.3309525E-002, 1.9105974E-003, 8.5543980E-003, 5.3760345E+002
 1.0600057E+002, 6.2058236E-004, 1.7181393E-001, 9.6682117E-002, 1.3869771E-002, 1.8507978E-003, 8.6558779E-003, 5.3555076E+002
 1.0700490E+002, 6.3752867E-004, 1.7115035E-001, 9.6806945E-002, 1.4323367E-002, 2.1506405E-003, 8.7321346E-003, 5.3336562E+002
 1.0800447E+002, 6.8324625E-004, 1.7079655E-001, 9.6893330E-002, 1.4584500E-002, 2.0201529E-003, 8.7769612E-003, 5.3149024E+002
 1.0900997E+002, 6.3575750E-004, 1.6943103E-001, 9.7238107E-002, 1.5609526E-002, 2.3654319E-003, 8.9537041E-003, 5.2907866E+002
 1.1000539E+002, 6.0582303E-004, 1.7035838E-001, 9.7060670E-002, 1.4972742E-002, 1.9931840E-003, 8.8465119E-003, 5.3312654E+002
 1.1100912E+002, 5.4981444E-004, 1.6968047E-001, 9.7237854E-002, 1.5488555E-002, 2.2570212E-003, 8.9357595E-003, 5.2930775E+002
 1.1200804E+002, 5.4951954E-004, 1.7152809E-001, 9.6816133E-002, 1.4148874E-002, 1.7450609E-003, 8.7068383E-003, 5.4009926E+002
 1.1300212E+002, 4.9654660E-004, 1.6911362E-001, 9.7397118E-002, 1.5931345E-002, 2.4268633E-003, 9.0128695E-003, 5.3101599E+002
 1.1400530E+002, 5.6689834E-004, 1.7153834E-001, 9.6805739E-002, 1.4132805E-002, 1.7263742E-003, 8.7036986E-003, 5.3956337E+002
 1.1500720E+002, 4.6268726E-004, 1.6947160E-001, 9.7319049E-002, 1.5676332E-002, 2.4423795E-003, 8.9695031E-003, 5.2947222E+002
 1.1600437E+002, 4.8274427E-004, 1.7111556E-001, 9.6933957E-002, 1.4473774E-002, 1.9713808E-003, 8.7635323E-003, 5.3618988E+002
 1.1700225E+002, 4.5173959E-004, 1.6987888E-001, 9.7297916E-002, 1.5454476E-002, 1.8736497E-003, 8.9349289E-003, 5.3335524E+002
 1.1800289E+002, 5.5195364E-004, 1.6917938E-001, 9.7306701E-002, 1.5805452E-002, 2.7048937E-003, 8.9878014E-003, 5.3174940E+002
 1.1900052E+002, 4.5778075E-004, 1.7099403E-001, 9.6997363E-002, 1.4598853E-002, 1.8598343E-003, 8.7865859E-003, 5.4238663E+002
 1.2000220E+002, 4.6300474E-004, 1.6886516E-001, 9.7484220E-002, 1.6143302E-002, 2.4229366E-003, 9.0505349E-003, 5.3488660E+002
 1.2100265E+002, 5.0008543E-004, 1.7049887E-001, 9.7052289E-002, 1.4897642E-002, 2.2272169E-003, 8.8349033E-003, 5.3333848E+002
 1.2200086E+002, 4.3007793E-004, 1.7064100E-001, 9.7065110E-002, 1.4842450E-002, 2.1622291E-003, 8.8276513E-003, 5.3849106E+002
 1.2300857E+002, 5.0933378E-004, 1.7013717E-001, 9.7132068E-002, 1.5156844E-002, 2.3087327E-003, 8.8790554E-003, 5.3389842E+002
 1.2400802E+002, 6.0814541E-004, 1.7067100E-001, 9.6995398E-002, 1.4752203E-002, 1.8542822E-003, 8.8091054E-003, 5.3213171E+002
 1.2500631E+002, 6.1154083E-004, 1.7043588E-001, 9.7032887E-002, 1.4906121E-002, 2.0183566E-003, 8.8346540E-003, 5.3216370E+002
 1.2600140E+002, 5.8140661E-004, 1.6974490E-001, 9.7218801E-002, 1.5436621E-002, 2.1385030E-003, 8.9266457E-003, 5.3664597E+002
 1.2700907E+002, 5.7802785E-004, 1.6951191E-001, 9.7270742E-002, 1.5604381E-002, 2.2258657E-003, 8.9552589E-003, 5.3559334E+002
 1.2800301E+002, 5.7562950E-004, 1.6973541E-001, 9.7184795E-002, 1.5406794E-002, 2.4173856E-003, 8.9198826E-003, 5.3320152E+002
 1.2900952E+002, 5.7977112E-004, 1.7018002E-001, 9.7062118E-002, 1.5062711E-002, 2.4245356E-003, 8.8601010E-003, 5.3363662E+002
 1.3000300E+002, 7.4102536E-004, 1.7203487E-001, 9.6507725E-002, 1.3580260E-002, 2.1548033E-003, 8.6005260E-003, 5.3843960E+002
 1.3100290E+002, 6.0000888E-004, 1.7091845E-001, 9.6857723E-002, 1.4490257E-002, 2.3855877E-003, 8.7605984E-003, 5.3333697E+002
 1.3200983E+002, 5.7878280E-004, 1.7190157E-001, 9.6645787E-002, 1.3790633E-002, 2.1135742E-003, 8.6416506E-003, 5.3956330E+002
 1.3300541E+002, 6.1216720E-004, 1.7112964E-001, 9.6782991E-002, 1.4309793E-002, 2.4615554E-003, 8.7285192E-003, 5.3561092E+002
 1.3400145E+002, 5.2496661E-004, 1.7045310E-001, 9.7071087E-002, 1.4938719E-002, 2.0785589E-003, 8.8422786E-003, 5.3899001E+002
 1.3500752E+002, 6.1997103E-004, 1.7041873E-001, 9.6958505E-002, 1.4838566E-002, 2.5342578E-003, 8.8194781E-003, 5.3457306E+002
 1.3600694E+002, 5.2377502E-004, 1.6940509E-001, 9.7280425E-002, 1.5668213E-002, 2.5829274E-003, 8.9655524E-003, 5.3344045E+002
 1.3700262E+002, 5.8873324E-004, 1.6977937E-001, 9.7130928E-002, 1.5329930E-002, 2.6565880E-003, 8.9047046E-003, 5.3563863E+002
 1.3800975E+002, 5.1894398E-004, 1.7030448E-001, 9.7033711E-002, 1.4973988E-002, 2.6420943E-003, 8.8450143E-003, 5.3515338E+002
 1.3900088E+002, 8.7840021E-004, 1.7060578E-001, 9.6783068E-002, 1.4561246E-002, 2.3369974E-003, 8.7656352E-003, 5.3695908E+002
 1.4000022E+002, 5.9499044E-004, 1.7089787E-001, 9.6913961E-002, 1.4557818E-002, 2.0526235E-003, 8.7745335E-003, 5.4125116E+002
 1.4100757E+002, 6.4304996E-004, 1.7014440E-001, 9.7046866E-002, 1.5063136E-002, 2.3352289E-003, 8.8590150E-003, 5.3488414E+002
 1.4200103E+002, 6.4567232E-004, 1.7054122E-001, 9.6948043E-002, 1.4766939E-002, 2.2716871E-003, 8.8080167E-003, 5.3423216E+002
 1.4300017E+002, 5.6007891E-004, 1.6979063E-001, 9.7207396E-002, 1.5403010E-002, 2.2209535E-003, 8.9208835E-003, 5.3755448E+002
 1.4400536E+002, 6.4542177E-004, 1.6859652E-001, 9.7427090E-002, 1.6212857E-002, 2.5675938E-003, 9.0567189E-003, 5.3299678E+002
 1.4500639E+002, 5.8215436E-004, 1.6986661E-001, 9.7169206E-002, 1.5326129E-002, 2.2537624E-003, 8.9067549E-003, 5.3550300E+002
 1.4600453E+002, 5.8691689E-004, 1.7044350E-001, 9.7056508E-002, 1.4927050E-002, 1.9414209E-003, 8.8394333E-003, 5.4423684E+002
 1.4700812E+002, 5.0982266E-004, 1.6845420E-001, 9.7566049E-002, 1.6427921E-002, 2.4265465E-003, 9.0985590E-003, 5.3316422E+002
 1.4800078E+002, 4.3470622E-004, 1.6901968E-001, 9.7499609E-002, 1.6083582E-002, 2.1439731E-003, 9.0427080E-003, 5.3537198E+002
 1.4900495E+002, 4.8486031E-004, 1.7096881E-001, 9.7028508E-002, 1.4642334E-002, 1.5775207E-003, 8.7951572E-003, 5.3917709E+002
 1.5000443E+002, 4.1977531E-004, 1.6857712E-001, 9.7604955E-002, 1.6409265E-002, 2.2985868E-003, 9.0985783E-003, 5.3216413E+002
 1.5100124E+002, 3.7421452E-004, 1.6857835E-001, 9.7650060E-002, 1.6455750E-002, 2.1705297E-003, 9.1086767E-003, 5.3422621E+002
 1.5200383E+002, 3.9168645E-004, 1.6879124E-001, 9.7579335E-002, 1.6278403E-002, 2.1933624E-003, 9.0773269E-003, 5.3437906E+002
 1.5300867E+002, 3.5345307E-004, 1.6840950E-001, 9.7721650E-002, 1.6612377E-002, 2.0729801E-003, 9.1369948E-003, 5.3507287E+002
 1.5400783E+002, 3.6258836E-004, 1.6891100E-001, 9.7593606E-002, 1.6234681E-002, 1.9904987E-003, 9.0718159E-003, 5.3630488E+002
