s,,,,,,,
Time,O2 EXHAUST,CO2 EXHAUST,H2O EXHAUST,CO EXHAUST,FUEL EXHAUST,SOOT EXHAUST,TEMP EXHAUST
 0.0000000E+000, 2.3099739E-001, 5.9146498E-004, 5.9412092E-003, 0.0000000E+000, 0.0000000E+000, 0.0000000E+000, 2.0000000E+001
 1.0008301E+000, 2.3099739E-001, 5.9146498E-004, 5.9412092E-003, 8.3227314E-022, 1.6312506E-021, 1.3338463E-021, 2.2909508E+001
 2.0000240E+000, 2.1659292E-001, 1.1454421E-002, 1.2156676E-002, 1.0614563E-004, 9.2577612E-005, 1.0870971E-004, 1.5998024E+002
 3.0029505E+000, 1.9832208E-001, 2.5374497E-002, 2.0012918E-002, 1.5709532E-004, 9.8411372E-005, 2.2977378E-004, 3.1946767E+002
 4.0009523E+000, 1.8536826E-001, 3.5351621E-002, 2.5556029E-002, 1.2490661E-004, 5.3357065E-005, 3.0181454E-004, 4.1327124E+002
 5.0030354E+000, 1.7309091E-001, 4.4831977E-002, 3.0803247E-002, 7.8762090E-005, 1.9446227E-006, 3.6693249E-004, 4.8534839E+002
 6.0055360E+000, 1.5808604E-001, 5.6300110E-002, 3.7244506E-002, 9.6408258E-005, 1.2273042E-007, 4.6145556E-004, 5.4796483E+002
 7.0006553E+000, 1.4525994E-001, 6.6099829E-002, 4.2751235E-002, 1.1349187E-004, 2.0238132E-007, 5.4265698E-004, 5.9239389E+002
 8.0029767E+000, 1.3575408E-001, 7.3362696E-002, 4.6832473E-002, 1.2618124E-004, 2.4330585E-007, 6.0284383E-004, 6.1198447E+002
 9.0060440E+000, 1.3206237E-001, 7.6183284E-002, 4.8417482E-002, 1.3113240E-004, 2.6302064E-007, 6.2622281E-004, 6.2759872E+002
 1.0005862E+001, 1.2639486E-001, 8.0513396E-002, 5.0850795E-002, 1.3876359E-004, 3.0935486E-007, 6.6212025E-004, 6.2347626E+002
 1.1003875E+001, 1.2042059E-001, 8.5078675E-002, 5.3415578E-002, 1.4627580E-004, 2.1448636E-007, 6.9985289E-004, 6.2949833E+002
 1.2003588E+001, 1.1840551E-001, 8.6618540E-002, 5.4280659E-002, 1.4879475E-004, 1.6641780E-007, 7.1257689E-004, 6.2520140E+002
 1.3003094E+001, 1.1437208E-001, 8.9700103E-002, 5.6012413E-002, 1.5427619E-004, 2.0404344E-007, 7.3813448E-004, 6.2926863E+002
 1.4003865E+001, 1.1106964E-001, 9.2223531E-002, 5.7430206E-002, 1.5852735E-004, 1.9168339E-007, 7.5901214E-004, 6.2845766E+002
 1.5003343E+001, 1.1000167E-001, 9.3039177E-002, 5.7888819E-002, 1.6016736E-004, 2.8603463E-007, 7.6581743E-004, 6.2641778E+002
 1.6005814E+001, 1.0966441E-001, 9.3297321E-002, 5.8033492E-002, 1.6031604E-004, 1.3482752E-007, 7.6789183E-004, 6.2209501E+002
 1.7000927E+001, 1.0922658E-001, 9.3631880E-002, 5.8221455E-002, 1.6087216E-004, 1.5668925E-007, 7.7065820E-004, 6.2371006E+002
 1.8001576E+001, 1.0746252E-001, 9.4979420E-002, 5.8978917E-002, 1.6341109E-004, 2.2123532E-007, 7.8186474E-004, 6.2140622E+002
 1.9005040E+001, 1.0592304E-001, 9.6155555E-002, 5.9639903E-002, 1.6552662E-004, 2.2917648E-007, 7.9162429E-004, 6.3071842E+002
 2.0001414E+001, 1.0313927E-001, 9.8282015E-002, 6.0835214E-002, 1.6954202E-004, 3.7465419E-007, 8.0931047E-004, 6.3252797E+002
 2.1000511E+001, 1.0569206E-001, 9.6331882E-002, 5.9739122E-002, 1.6594052E-004, 2.5654883E-007, 7.9310819E-004, 6.2882309E+002
 2.2000681E+001, 1.0095930E-001, 9.9947337E-002, 6.1771243E-002, 1.7263278E-004, 4.0770308E-007, 8.2314972E-004, 6.3394014E+002
 2.3002831E+001, 1.0195017E-001, 9.9191465E-002, 6.1345476E-002, 1.7051670E-004, 1.7715691E-007, 8.1671531E-004, 6.3047607E+002
 2.4002093E+001, 1.0108384E-001, 9.9853298E-002, 6.1717447E-002, 1.7172454E-004, 1.9715367E-007, 8.2221091E-004, 6.3129397E+002
 2.5002947E+001, 1.0049789E-001, 1.0030104E-001, 6.1969002E-002, 1.7247157E-004, 1.8292119E-007, 8.2591376E-004, 6.2613275E+002
 2.6000549E+001, 1.0071938E-001, 1.0013163E-001, 6.1873966E-002, 1.7230275E-004, 2.1439124E-007, 8.2453710E-004, 6.2499520E+002
 2.7003164E+001, 1.0251749E-001, 9.8757970E-002, 6.1101917E-002, 1.6978720E-004, 1.6765517E-007, 8.1312894E-004, 6.2312159E+002
 2.8003740E+001, 1.0164321E-001, 9.9426285E-002, 6.1477180E-002, 1.7073192E-004, 9.8799326E-008, 8.1861943E-004, 6.2395991E+002
 2.9004262E+001, 1.0141617E-001, 9.9599674E-002, 6.1574684E-002, 1.7109121E-004, 1.1266802E-007, 8.2006837E-004, 6.2136748E+002
 3.0003746E+001, 1.0043387E-001, 1.0034975E-001, 6.1996547E-002, 1.7269237E-004, 2.1864502E-007, 8.2634650E-004, 6.2480191E+002
 3.1002429E+001, 9.9927815E-002, 1.0073642E-001, 6.2213810E-002, 1.7334997E-004, 2.1328712E-007, 8.2954700E-004, 6.2741033E+002
 3.2005522E+001, 9.9381812E-002, 1.0115337E-001, 6.2448300E-002, 1.7423158E-004, 2.4198382E-007, 8.3303501E-004, 6.2887015E+002
 3.3003560E+001, 9.6679633E-002, 1.0321811E-001, 6.3608396E-002, 1.7772435E-004, 2.6440699E-007, 8.5012078E-004, 6.3687505E+002
 3.4002628E+001, 9.7985184E-002, 1.0222110E-001, 6.3047734E-002, 1.7565977E-004, 1.3446025E-007, 8.4178949E-004, 6.2086463E+002
 3.5006076E+001, 9.7655916E-002, 1.0247093E-001, 6.3189604E-002, 1.7725356E-004, 5.1054182E-007, 8.4410795E-004, 6.3354455E+002
 3.6003007E+001, 9.5827507E-002, 1.0386883E-001, 6.3974350E-002, 1.7908987E-004, 3.1716922E-007, 8.5556226E-004, 6.3855562E+002
 3.7003093E+001, 9.5961658E-002, 1.0376644E-001, 6.3916721E-002, 1.7883822E-004, 3.0075381E-007, 8.5469817E-004, 6.3922049E+002
 3.8001208E+001, 9.6183776E-002, 1.0359748E-001, 6.3821139E-002, 1.7804271E-004, 1.4260013E-007, 8.5319079E-004, 6.2782966E+002
 3.9001998E+001, 9.5688496E-002, 1.0397571E-001, 6.4033835E-002, 1.7882660E-004, 1.9092953E-007, 8.5635152E-004, 6.3912549E+002
 4.0005024E+001, 9.5050911E-002, 1.0446186E-001, 6.4307868E-002, 1.8034028E-004, 3.6828015E-007, 8.6052262E-004, 6.3494083E+002
 4.1006219E+001, 9.4982576E-002, 1.0451461E-001, 6.4337042E-002, 1.8006835E-004, 3.1392942E-007, 8.6088168E-004, 6.3097185E+002
 4.2001913E+001, 9.5745594E-002, 1.0393085E-001, 6.4009681E-002, 1.7957300E-004, 4.3334635E-007, 8.5615658E-004, 6.3668095E+002
 4.3000120E+001, 9.5804036E-002, 1.0388700E-001, 6.3984355E-002, 1.7895857E-004, 2.6628956E-007, 8.5567794E-004, 6.3209683E+002
 4.4005815E+001, 9.3907631E-002, 1.0533561E-001, 6.4798655E-002, 1.8170952E-004, 3.1768438E-007, 8.6772960E-004, 6.3863928E+002
 4.5002536E+001, 9.4059651E-002, 1.0521714E-001, 6.4734083E-002, 1.8306385E-004, 6.4257486E-007, 8.6708261E-004, 6.3748268E+002
 4.6005305E+001, 9.4773345E-002, 1.0467450E-001, 6.4426863E-002, 1.8032531E-004, 3.1455023E-007, 8.6220190E-004, 6.3581641E+002
 4.7000643E+001, 9.4591211E-002, 1.0481406E-001, 6.4504948E-002, 1.8030702E-004, 2.1571922E-007, 8.6330219E-004, 6.2980055E+002
 4.8001971E+001, 9.5269730E-002, 1.0429470E-001, 6.4213916E-002, 1.8003359E-004, 3.3827323E-007, 8.5913424E-004, 6.2435993E+002
 4.9002192E+001, 9.5799276E-002, 1.0388997E-001, 6.3986590E-002, 1.7940596E-004, 4.1742034E-007, 8.5579736E-004, 6.4354705E+002
 5.0004499E+001, 9.3786239E-002, 1.0542804E-001, 6.4850861E-002, 1.8207885E-004, 4.1152517E-007, 8.6854013E-004, 6.3478501E+002
 5.1003354E+001, 9.5666660E-002, 1.0399161E-001, 6.4043431E-002, 1.7936965E-004, 3.8087330E-007, 8.5659378E-004, 6.3246705E+002
 5.2006055E+001, 9.4734367E-002, 1.0470367E-001, 6.4443776E-002, 1.8078317E-004, 4.3042421E-007, 8.6253088E-004, 6.3595057E+002
 5.3000195E+001, 9.4876150E-002, 1.0459558E-001, 6.4382842E-002, 1.8044249E-004, 3.3842763E-007, 8.6160258E-004, 6.3098135E+002
 5.4001742E+001, 9.5836543E-002, 1.0386239E-001, 6.3970337E-002, 1.7877176E-004, 2.1379035E-007, 8.5544309E-004, 6.2634633E+002
 5.5002322E+001, 9.2612274E-002, 1.0632580E-001, 6.5354655E-002, 1.8311096E-004, 2.6889594E-007, 8.7586480E-004, 6.3870270E+002
 5.6000129E+001, 9.6808931E-002, 1.0311994E-001, 6.3552707E-002, 1.7714023E-004, 1.0670979E-007, 8.4921884E-004, 6.1529584E+002
 5.7003131E+001, 9.6254307E-002, 1.0354292E-001, 6.3791047E-002, 1.7839397E-004, 3.2595449E-007, 8.5283434E-004, 6.3029547E+002
 5.8001499E+001, 9.5129985E-002, 1.0440133E-001, 6.4273947E-002, 1.8030448E-004, 4.1231014E-007, 8.6003606E-004, 6.4205310E+002
 5.9003146E+001, 9.5400200E-002, 1.0419589E-001, 6.4157634E-002, 1.7927002E-004, 2.4092259E-007, 8.5818870E-004, 6.2750783E+002
 6.0002724E+001, 9.4767571E-002, 1.0467882E-001, 6.4429379E-002, 1.8040380E-004, 2.7753544E-007, 8.6225288E-004, 6.3330955E+002
 6.1002220E+001, 9.5276554E-002, 1.0429026E-001, 6.4210750E-002, 1.7950114E-004, 2.5309057E-007, 8.5898496E-004, 6.2411310E+002
 6.2005943E+001, 9.4658292E-002, 1.0476198E-001, 6.4476392E-002, 1.8076915E-004, 3.5217011E-007, 8.6298921E-004, 6.3232499E+002
 6.3000786E+001, 9.4353131E-002, 1.0499507E-001, 6.4607431E-002, 1.8121935E-004, 3.4062108E-007, 8.6493006E-004, 6.2945872E+002
 6.4001301E+001, 9.3123622E-002, 1.0593430E-001, 6.5135355E-002, 1.8296915E-004, 3.8035694E-007, 8.7273674E-004, 6.3785343E+002
 6.5002297E+001, 9.6393119E-002, 1.0343712E-001, 6.3731377E-002, 1.7803602E-004, 2.4223022E-007, 8.5192052E-004, 6.3784948E+002
 6.6002509E+001, 9.6491283E-002, 1.0336229E-001, 6.3689184E-002, 1.7779227E-004, 1.9058358E-007, 8.5127620E-004, 6.2298331E+002
 6.7004367E+001, 9.5196846E-002, 1.0435027E-001, 6.4245235E-002, 1.8020204E-004, 4.1023567E-007, 8.5961005E-004, 6.2921676E+002
 6.8002247E+001, 9.7118320E-002, 1.0288277E-001, 6.3420094E-002, 1.7724225E-004, 3.2091614E-007, 8.4736413E-004, 6.2905459E+002
 6.9003285E+001, 9.6536953E-002, 1.0332728E-001, 6.3669611E-002, 1.7780876E-004, 2.0989066E-007, 8.5100273E-004, 6.3148588E+002
 7.0004019E+001, 9.4891249E-002, 1.0458362E-001, 6.4376486E-002, 1.8070570E-004, 3.9345570E-007, 8.6156440E-004, 6.3440421E+002
 7.1000386E+001, 9.6448967E-002, 1.0339438E-001, 6.3707416E-002, 1.7800697E-004, 2.8981673E-007, 8.5157609E-004, 6.2703736E+002
 7.2002778E+001, 9.5927443E-002, 1.0379264E-001, 6.3931390E-002, 1.7884066E-004, 3.0995429E-007, 8.5490603E-004, 6.3189813E+002
 7.3003521E+001, 9.4736113E-002, 1.0470216E-001, 6.4443082E-002, 1.8090105E-004, 4.3946935E-007, 8.6254421E-004, 6.4091831E+002
 7.4001614E+001, 9.5881389E-002, 1.0382764E-001, 6.3951216E-002, 1.7902497E-004, 3.4619473E-007, 8.5522249E-004, 6.3691154E+002
 7.5002698E+001, 9.4738064E-002, 1.0470072E-001, 6.4442228E-002, 1.8086325E-004, 4.4024602E-007, 8.6252471E-004, 6.3197513E+002
 7.6004518E+001, 9.6509974E-002, 1.0334772E-001, 6.3681245E-002, 1.7796423E-004, 2.5683753E-007, 8.5119772E-004, 6.2918753E+002
 7.7002370E+001, 9.5933974E-002, 1.0378654E-001, 6.3928916E-002, 1.7957469E-004, 4.7679750E-007, 8.5501515E-004, 6.2895541E+002
 7.8001700E+001, 9.5778487E-002, 1.0390644E-001, 6.3995349E-002, 1.7904779E-004, 2.8407846E-007, 8.5585087E-004, 6.3265530E+002
 7.9001366E+001, 9.7130051E-002, 1.0287431E-001, 6.3414921E-002, 1.7690071E-004, 1.5558778E-007, 8.4722396E-004, 6.2221462E+002
 8.0003729E+001, 9.3909282E-002, 1.0533474E-001, 6.4797824E-002, 1.8144203E-004, 2.9675519E-007, 8.6766535E-004, 6.3255894E+002
 8.1002902E+001, 9.6139776E-002, 1.0363044E-001, 6.3840216E-002, 1.7853389E-004, 3.0359715E-007, 8.5355690E-004, 6.3461925E+002
 8.2003847E+001, 9.5221353E-002, 1.0433223E-001, 6.4234512E-002, 1.7971328E-004, 2.8331131E-007, 8.5936252E-004, 6.3071924E+002
 8.3000014E+001, 9.6591165E-002, 1.0328515E-001, 6.3646542E-002, 1.7821181E-004, 3.6565851E-007, 8.5075573E-004, 6.2442498E+002
 8.4004714E+001, 9.7699182E-002, 1.0243929E-001, 6.3170620E-002, 1.7625719E-004, 2.0523716E-007, 8.4364399E-004, 6.2561796E+002
 8.5005144E+001, 9.5258839E-002, 1.0430287E-001, 6.4218623E-002, 1.8013811E-004, 4.5225475E-007, 8.5922129E-004, 6.3140528E+002
 8.6002418E+001, 9.6329274E-002, 1.0348578E-001, 6.3758825E-002, 1.7820192E-004, 2.5498742E-007, 8.5234112E-004, 6.3449102E+002
 8.7001226E+001, 9.5427039E-002, 1.0417471E-001, 6.4146311E-002, 1.7968560E-004, 3.5312515E-007, 8.5811021E-004, 6.3046212E+002
 8.8000841E+001, 9.6241742E-002, 1.0355229E-001, 6.3796517E-002, 1.7856791E-004, 3.1529496E-007, 8.5294580E-004, 6.3491307E+002
 8.9002870E+001, 9.5258204E-002, 1.0430457E-001, 6.4218552E-002, 1.7934122E-004, 1.5314716E-007, 8.5906386E-004, 6.2980609E+002
 9.0005484E+001, 9.6162653E-002, 1.0361334E-001, 6.3830288E-002, 1.7825660E-004, 2.1066041E-007, 8.5336211E-004, 6.2712042E+002
 9.1003172E+001, 9.3985479E-002, 1.0527686E-001, 6.4765022E-002, 1.8112128E-004, 1.5357353E-007, 8.6713866E-004, 6.2773167E+002
 9.2001755E+001, 9.5172110E-002, 1.0436979E-001, 6.4255670E-002, 1.7982140E-004, 3.1962196E-007, 8.5968286E-004, 6.3016549E+002
 9.3001511E+001, 9.4892466E-002, 1.0458358E-001, 6.4375700E-002, 1.8010836E-004, 2.3650383E-007, 8.6143603E-004, 6.2889007E+002
 9.4001552E+001, 9.4780257E-002, 1.0466925E-001, 6.4423892E-002, 1.8030087E-004, 2.8005699E-007, 8.6215510E-004, 6.3083399E+002
 9.5005962E+001, 9.5911019E-002, 1.0380563E-001, 6.3938323E-002, 1.7857994E-004, 1.6661357E-007, 8.5495286E-004, 6.2592463E+002
 9.6002700E+001, 9.4247335E-002, 1.0507520E-001, 6.4653043E-002, 1.8181900E-004, 5.8589193E-007, 8.6569260E-004, 6.4312035E+002
 9.7004741E+001, 9.4499098E-002, 1.0488360E-001, 6.4544744E-002, 1.8099042E-004, 3.5392421E-007, 8.6399893E-004, 6.3107457E+002
 9.8004283E+001, 9.3959219E-002, 1.0529706E-001, 6.4776253E-002, 1.8106316E-004, 1.5080111E-007, 8.6728602E-004, 6.2205277E+002
 9.9002000E+001, 9.5505173E-002, 1.0411478E-001, 6.4112831E-002, 1.7973195E-004, 4.0204026E-007, 8.5764599E-004, 6.3486520E+002
 1.0000394E+002, 9.4222146E-002, 1.0509520E-001, 6.4663652E-002, 1.8136151E-004, 3.4747012E-007, 8.6575276E-004, 6.3291542E+002
 1.0100079E+002, 9.6893272E-002, 1.0305490E-001, 6.3516670E-002, 1.7742743E-004, 2.3780351E-007, 8.4876577E-004, 6.3081309E+002
 1.0200023E+002, 9.7668072E-002, 1.0246324E-001, 6.3183923E-002, 1.7617847E-004, 1.7721564E-007, 8.4381660E-004, 6.2331068E+002
 1.0300287E+002, 9.5640268E-002, 1.0401258E-001, 6.4054537E-002, 1.7887856E-004, 1.7584382E-007, 8.5665438E-004, 6.2953356E+002
 1.0400383E+002, 9.6354447E-002, 1.0346624E-001, 6.3748104E-002, 1.7837261E-004, 3.4330580E-007, 8.5222306E-004, 6.2754132E+002
 1.0500056E+002, 9.5947593E-002, 1.0377746E-001, 6.3922681E-002, 1.7867367E-004, 2.3010547E-007, 8.5475013E-004, 6.2792313E+002
 1.0600336E+002, 9.5732200E-002, 1.0394221E-001, 6.4015103E-002, 1.7883892E-004, 2.0687571E-007, 8.5608912E-004, 6.2957201E+002
 1.0700444E+002, 9.7792532E-002, 1.0236824E-001, 6.3130463E-002, 1.7595395E-004, 1.5403199E-007, 8.4301676E-004, 6.2622548E+002
 1.0800393E+002, 9.4839549E-002, 1.0462398E-001, 6.4398423E-002, 1.8019657E-004, 2.8169647E-007, 8.6177458E-004, 6.3754050E+002
 1.0900520E+002, 9.6308034E-002, 1.0350268E-001, 6.3767753E-002, 1.7778922E-004, 1.0523471E-007, 8.5238631E-004, 6.2633338E+002
 1.1000374E+002, 9.6590462E-002, 1.0328665E-001, 6.3646565E-002, 1.7757221E-004, 1.5791561E-007, 8.5063050E-004, 6.2315323E+002
 1.1100355E+002, 9.6357722E-002, 1.0346448E-001, 6.3746487E-002, 1.7787973E-004, 1.6783587E-007, 8.5210345E-004, 6.3084300E+002
 1.1200139E+002, 9.7216041E-002, 1.0280791E-001, 6.3378205E-002, 1.7725082E-004, 3.0123315E-007, 8.4677364E-004, 6.3538668E+002
 1.1300548E+002, 9.6821876E-002, 1.0310915E-001, 6.3547407E-002, 1.7771857E-004, 3.2067630E-007, 8.4925744E-004, 6.3095948E+002
 1.1400493E+002, 9.6809629E-002, 1.0311859E-001, 6.3552643E-002, 1.7768135E-004, 2.8328901E-007, 8.4932416E-004, 6.2980696E+002
 1.1500093E+002, 9.5997958E-002, 1.0373891E-001, 6.3901077E-002, 1.7865522E-004, 2.6095986E-007, 8.5444110E-004, 6.2524016E+002
 1.1600350E+002, 9.6338567E-002, 1.0347828E-001, 6.3754954E-002, 1.7845847E-004, 3.2430783E-007, 8.5233675E-004, 6.3390990E+002
 1.1700155E+002, 9.6501934E-002, 1.0335392E-001, 6.3684679E-002, 1.7793592E-004, 2.5721475E-007, 8.5124070E-004, 6.2912819E+002
 1.1800349E+002, 9.5104027E-002, 1.0442144E-001, 6.4285013E-002, 1.8016040E-004, 3.5668052E-007, 8.6016422E-004, 6.3470723E+002
 1.1900556E+002, 9.7088645E-002, 1.0290564E-001, 6.3432778E-002, 1.7715010E-004, 2.7042201E-007, 8.4752536E-004, 6.3334609E+002
 1.2000241E+002, 9.6599297E-002, 1.0327932E-001, 6.3642942E-002, 1.7794724E-004, 2.6202112E-007, 8.5065290E-004, 6.3113903E+002
 1.2100286E+002, 9.6757850E-002, 1.0315829E-001, 6.3574835E-002, 1.7766172E-004, 2.6184539E-007, 8.4963403E-004, 6.2905728E+002
 1.2200393E+002, 9.6108877E-002, 1.0365415E-001, 6.3853451E-002, 1.7850759E-004, 3.0475914E-007, 8.5373883E-004, 6.3232961E+002
 1.2300368E+002, 9.5996995E-002, 1.0373986E-001, 6.3901427E-002, 1.7851194E-004, 2.1624362E-007, 8.5441792E-004, 6.3017340E+002
 1.2400583E+002, 9.6527475E-002, 1.0333415E-001, 6.3673781E-002, 1.7806574E-004, 3.4191466E-007, 8.5111213E-004, 6.3799734E+002
 1.2500516E+002, 9.5867685E-002, 1.0383868E-001, 6.3956936E-002, 1.7866570E-004, 2.1957614E-007, 8.5523282E-004, 6.2710113E+002
 1.2600244E+002, 9.5990969E-002, 1.0374424E-001, 6.3904082E-002, 1.7866907E-004, 2.3597835E-007, 8.5448630E-004, 6.2400436E+002
 1.2700619E+002, 9.5180575E-002, 1.0436352E-001, 6.4251981E-002, 1.7967750E-004, 2.4759602E-007, 8.5960245E-004, 6.3527221E+002
 1.2800258E+002, 9.6118431E-002, 1.0364700E-001, 6.3849314E-002, 1.7840448E-004, 2.3118658E-007, 8.5366011E-004, 6.2382279E+002
 1.2900453E+002, 9.6988570E-002, 1.0298228E-001, 6.3475702E-002, 1.7717644E-004, 1.8632038E-007, 8.4813734E-004, 6.2300022E+002
 1.3000220E+002, 9.7475359E-002, 1.0260944E-001, 6.3266974E-002, 1.7713603E-004, 3.3722249E-007, 8.4517865E-004, 6.2628081E+002
 1.3100502E+002, 9.3760573E-002, 1.0544726E-001, 6.4862006E-002, 1.8237942E-004, 4.0705493E-007, 8.6875668E-004, 6.3780590E+002
 1.3200091E+002, 9.5785600E-002, 1.0390055E-001, 6.3992425E-002, 1.7933896E-004, 3.9222705E-007, 8.5586669E-004, 6.3637806E+002
 1.3300277E+002, 9.6176973E-002, 1.0360231E-001, 6.3824166E-002, 1.7829704E-004, 2.2504036E-007, 8.5328351E-004, 6.2435357E+002
 1.3400567E+002, 9.5578058E-002, 1.0405968E-001, 6.4081372E-002, 1.7924896E-004, 2.6455959E-007, 8.5710645E-004, 6.2577952E+002
 1.3500572E+002, 9.9360734E-002, 1.0117008E-001, 6.2457168E-002, 1.7385401E-004, 1.5396510E-007, 8.3308627E-004, 6.2180504E+002
 1.3600054E+002, 9.4821608E-002, 1.0463787E-001, 6.4406076E-002, 1.8010208E-004, 2.3037457E-007, 8.6186421E-004, 6.3277300E+002
 1.3700453E+002, 9.6442888E-002, 1.0339903E-001, 6.3710030E-002, 1.7801376E-004, 2.4629617E-007, 8.5161437E-004, 6.3165024E+002
 1.3800308E+002, 9.5965747E-002, 1.0376319E-001, 6.3914990E-002, 1.7890461E-004, 3.8307702E-007, 8.5468675E-004, 6.3242631E+002
 1.3900561E+002, 9.7913810E-002, 1.0227532E-001, 6.3078467E-002, 1.7596079E-004, 2.0344169E-007, 8.4228305E-004, 6.3062866E+002
 1.4000283E+002, 9.7540319E-002, 1.0256035E-001, 6.3238912E-002, 1.7667536E-004, 3.1298105E-007, 8.4469151E-004, 6.2160737E+002
 1.4100419E+002, 9.6187851E-002, 1.0359413E-001, 6.3819456E-002, 1.7819303E-004, 2.0957862E-007, 8.5319650E-004, 6.2929599E+002
 1.4200164E+002, 9.7146758E-002, 1.0286135E-001, 6.3407806E-002, 1.7701066E-004, 1.9814304E-007, 8.4714495E-004, 6.2402386E+002
 1.4300106E+002, 9.7816374E-002, 1.0234978E-001, 6.3120296E-002, 1.7608137E-004, 1.9735806E-007, 8.4289805E-004, 6.2976098E+002
 1.4400269E+002, 9.7122102E-002, 1.0288017E-001, 6.3418390E-002, 1.7704777E-004, 2.3798526E-007, 8.4730186E-004, 6.3017224E+002
 1.4500134E+002, 9.6004127E-002, 1.0373383E-001, 6.3898537E-002, 1.7889097E-004, 3.1601118E-007, 8.5445147E-004, 6.3150487E+002
 1.4600223E+002, 9.5828826E-002, 1.0386800E-001, 6.3973729E-002, 1.7896469E-004, 2.8289499E-007, 8.5552892E-004, 6.3180255E+002
 1.4700562E+002, 9.6295773E-002, 1.0351115E-001, 6.3773271E-002, 1.7839576E-004, 3.2268014E-007, 8.5258339E-004, 6.2746870E+002
 1.4800551E+002, 9.6690631E-002, 1.0320978E-001, 6.3603656E-002, 1.7766327E-004, 2.3607508E-007, 8.5004177E-004, 6.3037464E+002
 1.4900581E+002, 9.4844522E-002, 1.0462037E-001, 6.4396236E-002, 1.8006698E-004, 2.3164869E-007, 8.6171822E-004, 6.2605015E+002
 1.5000563E+002, 9.5113724E-002, 1.0441449E-001, 6.4280715E-002, 1.7983797E-004, 2.6223395E-007, 8.6004016E-004, 6.2658785E+002
 1.5100218E+002, 9.5155025E-002, 1.0438290E-001, 6.4262987E-002, 1.7980331E-004, 3.1296346E-007, 8.5978274E-004, 6.3393878E+002
 1.5200557E+002, 9.4271097E-002, 1.0505836E-001, 6.4642470E-002, 1.8092257E-004, 2.5305705E-007, 8.6536715E-004, 6.3035423E+002
 1.5300247E+002, 9.7247069E-002, 1.0278500E-001, 6.3364653E-002, 1.7667960E-004, 1.3034068E-007, 8.4646992E-004, 6.2108552E+002
 1.5400508E+002, 9.7966013E-002, 1.0223510E-001, 6.3056158E-002, 1.7611842E-004, 2.2833030E-007, 8.4199861E-004, 6.3117235E+002
