s,,,,,,,
Time,O2 EXHAUST,CO2 EXHAUST,H2O EXHAUST,CO EXHAUST,FUEL EXHAUST,SOOT EXHAUST,TEMP EXHAUST
 0.0000000E+000, 2.3099739E-001, 5.9146498E-004, 5.9412092E-003, 0.0000000E+000, 0.0000000E+000, 0.0000000E+000, 2.0000000E+001
 1.0006693E+000, 2.3099739E-001, 5.9146498E-004, 5.9412092E-003, 5.9763432E-026, 6.4357253E-025, 2.7572445E-025, 2.1534526E+001
 2.0022607E+000, 2.2135620E-001, 8.3750220E-003, 9.5786863E-003, 8.5066084E-005, 1.2335819E-004, 2.7567137E-004, 1.2170309E+002
 3.0019428E+000, 2.1328998E-001, 1.4881453E-002, 1.2629434E-002, 1.6645532E-004, 1.8535927E-004, 5.0831412E-004, 1.9924069E+002
 4.0051214E+000, 2.0856830E-001, 1.8692020E-002, 1.4416891E-002, 2.1481482E-004, 2.0655632E-004, 6.4471236E-004, 2.3729699E+002
 5.0006305E+000, 2.0125970E-001, 2.4632241E-002, 1.7175942E-002, 2.6153995E-004, 2.1364831E-004, 8.5119501E-004, 2.9994095E+002
 6.0052586E+000, 1.9346344E-001, 3.1020481E-002, 2.0112880E-002, 2.8002006E-004, 1.6658781E-004, 1.0664380E-003, 3.5004307E+002
 7.0015798E+000, 1.8625966E-001, 3.6937927E-002, 2.2824356E-002, 2.8767764E-004, 1.1107700E-004, 1.2637896E-003, 3.9838522E+002
 8.0047121E+000, 1.8057377E-001, 4.1613579E-002, 2.4963423E-002, 2.9017949E-004, 6.5173717E-005, 1.4189654E-003, 4.2159418E+002
 9.0010040E+000, 1.7301259E-001, 4.7819823E-002, 2.7809302E-002, 3.0042483E-004, 1.6768535E-005, 1.6264235E-003, 4.5101982E+002
 1.0002869E+001, 1.6625101E-001, 5.3343914E-002, 3.0357311E-002, 3.2525161E-004, 9.3391955E-007, 1.8144475E-003, 4.7569865E+002
 1.1004328E+001, 1.6242714E-001, 5.6460304E-002, 3.1799197E-002, 3.4392595E-004, 1.0395976E-007, 1.9215215E-003, 4.7960222E+002
 1.2006068E+001, 1.5725072E-001, 6.0677874E-002, 3.3751240E-002, 3.6989863E-004, 7.7052316E-008, 2.0665802E-003, 4.9376537E+002
 1.3004228E+001, 1.5387468E-001, 6.3428573E-002, 3.5024350E-002, 3.8682475E-004, 6.4383027E-008, 2.1611847E-003, 4.9739310E+002
 1.4002579E+001, 1.5026566E-001, 6.6369114E-002, 3.6385313E-002, 4.0490682E-004, 5.8578930E-008, 2.2623158E-003, 5.0074141E+002
 1.5000007E+001, 1.4716193E-001, 6.8897930E-002, 3.7555739E-002, 4.2047952E-004, 6.5024233E-008, 2.3492916E-003, 5.0265617E+002
 1.6003601E+001, 1.4445296E-001, 7.1105128E-002, 3.8577293E-002, 4.3405370E-004, 6.0614924E-008, 2.4252019E-003, 5.0767460E+002
 1.7006113E+001, 1.4347101E-001, 7.1905216E-002, 3.8947586E-002, 4.3896422E-004, 4.7138406E-008, 2.4527165E-003, 5.0552297E+002
 1.8006681E+001, 1.4202526E-001, 7.3083207E-002, 3.9492771E-002, 4.4618565E-004, 2.8917605E-008, 2.4932252E-003, 5.0267363E+002
 1.9004773E+001, 1.4002767E-001, 7.4710763E-002, 4.0246070E-002, 4.5621625E-004, 4.0088662E-008, 2.5492049E-003, 5.0861127E+002
 2.0005076E+001, 1.3774055E-001, 7.6574210E-002, 4.1108552E-002, 4.6770389E-004, 5.2535391E-008, 2.6132988E-003, 5.0907816E+002
 2.1004358E+001, 1.3709867E-001, 7.7097215E-002, 4.1350604E-002, 4.7091008E-004, 4.6211074E-008, 2.6312838E-003, 5.1022751E+002
 2.2003468E+001, 1.3617752E-001, 7.7847725E-002, 4.1697970E-002, 4.7553582E-004, 6.2995053E-008, 2.6570976E-003, 5.0745622E+002
 2.3003155E+001, 1.3470909E-001, 7.9044180E-002, 4.2251715E-002, 4.8288574E-004, 4.1653815E-008, 2.6982445E-003, 5.0390938E+002
 2.4002889E+001, 1.3306513E-001, 8.0383597E-002, 4.2871660E-002, 4.9114911E-004, 5.7360312E-008, 2.7443155E-003, 5.1079536E+002
 2.5004409E+001, 1.3293100E-001, 8.0492902E-002, 4.2922242E-002, 4.9181396E-004, 4.6653495E-008, 2.7480732E-003, 5.0717054E+002
 2.6005214E+001, 1.3145689E-001, 8.1693986E-002, 4.3478122E-002, 4.9918359E-004, 3.3344957E-008, 2.7893774E-003, 5.0659264E+002
 2.7003824E+001, 1.2969588E-001, 8.3128768E-002, 4.4142214E-002, 5.0804345E-004, 4.9851652E-008, 2.8387304E-003, 5.0514495E+002
 2.8003526E+001, 1.2862471E-001, 8.4001489E-002, 4.4546162E-002, 5.1344070E-004, 6.1035140E-008, 2.8687516E-003, 5.0850812E+002
 2.9006240E+001, 1.2865144E-001, 8.3979686E-002, 4.4536084E-002, 5.1332023E-004, 7.3371826E-008, 2.8680047E-003, 5.0867668E+002
 3.0005440E+001, 1.2783577E-001, 8.4644344E-002, 4.4843660E-002, 5.1735949E-004, 4.5240124E-008, 2.8908533E-003, 5.0544735E+002
 3.1000980E+001, 1.2711508E-001, 8.5231526E-002, 4.5115435E-002, 5.2098152E-004, 4.9873615E-008, 2.9110501E-003, 5.0480339E+002
 3.2002288E+001, 1.2612453E-001, 8.6038612E-002, 4.5488971E-002, 5.2593902E-004, 5.0176824E-008, 2.9388062E-003, 5.0625211E+002
 3.3005395E+001, 1.2487496E-001, 8.7056666E-002, 4.5960197E-002, 5.3224362E-004, 7.2482621E-008, 2.9738286E-003, 5.1064587E+002
 3.4006267E+001, 1.2525676E-001, 8.6745658E-002, 4.5816207E-002, 5.3028210E-004, 3.4247982E-008, 2.9631220E-003, 5.0277660E+002
 3.5005033E+001, 1.2360355E-001, 8.8092563E-002, 4.6439653E-002, 5.3862834E-004, 6.9470571E-008, 3.0094584E-003, 5.0924790E+002
 3.6004130E+001, 1.2389616E-001, 8.7854178E-002, 4.6329301E-002, 5.3714079E-004, 5.6002514E-008, 3.0012552E-003, 5.0698516E+002
 3.7005379E+001, 1.2240354E-001, 8.9070348E-002, 4.6892167E-002, 5.4460847E-004, 4.5823403E-008, 3.0430794E-003, 5.0689509E+002
 3.8004567E+001, 1.2159770E-001, 8.9726944E-002, 4.7196042E-002, 5.4862978E-004, 3.8291176E-008, 3.0656576E-003, 5.0813582E+002
 3.9003094E+001, 1.2209450E-001, 8.9322169E-002, 4.7008700E-002, 5.4614001E-004, 3.6154553E-008, 3.0517364E-003, 5.0814663E+002
 4.0000873E+001, 1.2179356E-001, 8.9567344E-002, 4.7122188E-002, 5.4766229E-004, 4.2669611E-008, 3.0601716E-003, 5.0684930E+002
 4.1002513E+001, 1.2128134E-001, 8.9984663E-002, 4.7315352E-002, 5.5024606E-004, 5.1135794E-008, 3.0745278E-003, 5.0721962E+002
 4.2005920E+001, 1.2115035E-001, 9.0091405E-002, 4.7364745E-002, 5.5089244E-004, 5.6117135E-008, 3.0781967E-003, 5.1106524E+002
 4.3004547E+001, 1.2052325E-001, 9.0602346E-002, 4.7601226E-002, 5.5403737E-004, 5.4537343E-008, 3.0957696E-003, 5.0476625E+002
 4.4004467E+001, 1.1993324E-001, 9.1083077E-002, 4.7823722E-002, 5.5699462E-004, 4.6607966E-008, 3.1123032E-003, 5.0553930E+002
 4.5000057E+001, 1.1943866E-001, 9.1485998E-002, 4.8010236E-002, 5.5950488E-004, 6.1177443E-008, 3.1261674E-003, 5.1128495E+002
 4.6006936E+001, 1.1965823E-001, 9.1307152E-002, 4.7927426E-002, 5.5836795E-004, 4.0801915E-008, 3.1200086E-003, 5.0344258E+002
 4.7005348E+001, 1.1969777E-001, 9.1274940E-002, 4.7912516E-002, 5.5816888E-004, 3.7233308E-008, 3.1189005E-003, 5.0206502E+002
 4.8000201E+001, 1.1891491E-001, 9.1912797E-002, 4.8207731E-002, 5.6208871E-004, 3.8028044E-008, 3.1408372E-003, 5.0774511E+002
 4.9000314E+001, 1.1943895E-001, 9.1485817E-002, 4.8010118E-002, 5.5946789E-004, 4.1346684E-008, 3.1261535E-003, 5.0874627E+002
 5.0001684E+001, 1.1892250E-001, 9.1906560E-002, 4.8204882E-002, 5.6208905E-004, 6.0470353E-008, 3.1406310E-003, 5.0792920E+002
 5.1006018E+001, 1.1801286E-001, 9.2647695E-002, 4.8547908E-002, 5.6665548E-004, 7.0828679E-008, 3.1661220E-003, 5.1161555E+002
 5.2000604E+001, 1.1828682E-001, 9.2424517E-002, 4.8444590E-002, 5.6525671E-004, 4.9925105E-008, 3.1584408E-003, 5.0747862E+002
 5.3004109E+001, 1.1840163E-001, 9.2330996E-002, 4.8401288E-002, 5.6466333E-004, 3.9283158E-008, 3.1552205E-003, 5.0614632E+002
 5.4005361E+001, 1.1775939E-001, 9.2854245E-002, 4.8643487E-002, 5.6790684E-004, 4.9338578E-008, 3.1732217E-003, 5.0916396E+002
 5.5002359E+001, 1.1860392E-001, 9.2166184E-002, 4.8325008E-002, 5.6364925E-004, 3.6614838E-008, 3.1495522E-003, 5.0352533E+002
 5.6004306E+001, 1.1724745E-001, 9.3271347E-002, 4.8836543E-002, 5.7048169E-004, 5.5024468E-008, 3.1875688E-003, 5.0903397E+002
 5.7006640E+001, 1.1748287E-001, 9.3079574E-002, 4.8747755E-002, 5.6927123E-004, 3.7026307E-008, 3.1809666E-003, 5.0741949E+002
 5.8004452E+001, 1.1748961E-001, 9.3073993E-002, 4.8745235E-002, 5.6930239E-004, 7.0809532E-008, 3.1807887E-003, 5.0653986E+002
 5.9000460E+001, 1.1707051E-001, 9.3415520E-002, 4.8903265E-002, 5.7136325E-004, 5.7311420E-008, 3.1925261E-003, 5.0879318E+002
 6.0002356E+001, 1.1654656E-001, 9.3842401E-002, 4.9100850E-002, 5.7400134E-004, 5.5406807E-008, 3.2072102E-003, 5.0812732E+002
 6.1004295E+001, 1.1702794E-001, 9.3450161E-002, 4.8919329E-002, 5.7160808E-004, 7.7383715E-008, 3.1937243E-003, 5.0992909E+002
 6.2002867E+001, 1.1766630E-001, 9.2930119E-002, 4.8678586E-002, 5.6835520E-004, 4.1462385E-008, 3.1758272E-003, 5.0903659E+002
 6.3006207E+001, 1.1727953E-001, 9.3245231E-002, 4.8824440E-002, 5.7030495E-004, 4.5128005E-008, 3.1866671E-003, 5.0656309E+002
 6.4001551E+001, 1.1706283E-001, 9.3421826E-002, 4.8906153E-002, 5.7136910E-004, 3.4106953E-008, 3.1927359E-003, 5.0330378E+002
 6.5003319E+001, 1.1691099E-001, 9.3545469E-002, 4.8963425E-002, 5.7217852E-004, 5.5045552E-008, 3.1969988E-003, 5.0619754E+002
 6.6003848E+001, 1.1675809E-001, 9.3670108E-002, 4.9021070E-002, 5.7290217E-004, 3.7955532E-008, 3.2012762E-003, 5.0729529E+002
 6.7007223E+001, 1.1647778E-001, 9.3898432E-002, 4.9126792E-002, 5.7435567E-004, 6.3963574E-008, 3.2091393E-003, 5.1341477E+002
 6.8005131E+001, 1.1640230E-001, 9.3959994E-002, 4.9155239E-002, 5.7468595E-004, 3.8502904E-008, 3.2112462E-003, 5.0589620E+002
 6.9002700E+001, 1.1676141E-001, 9.3667368E-002, 4.9019830E-002, 5.7291407E-004, 4.7303373E-008, 3.2011881E-003, 5.0530601E+002
 7.0001028E+001, 1.1564773E-001, 9.4574707E-002, 4.9439810E-002, 5.7853450E-004, 7.6103712E-008, 3.2324021E-003, 5.0915794E+002
 7.1003507E+001, 1.1596446E-001, 9.4316726E-002, 4.9320353E-002, 5.7688849E-004, 3.3646716E-008, 3.2235169E-003, 5.0632341E+002
 7.2004130E+001, 1.1718794E-001, 9.3319820E-002, 4.8858985E-002, 5.7078771E-004, 5.8569744E-008, 3.1892376E-003, 5.0760304E+002
 7.3004985E+001, 1.1583847E-001, 9.4419366E-002, 4.9367867E-002, 5.7752966E-004, 4.6778948E-008, 3.2270490E-003, 5.0557132E+002
 7.4004867E+001, 1.1690883E-001, 9.3547248E-002, 4.8964235E-002, 5.7217569E-004, 5.5952069E-008, 3.1970570E-003, 5.0916026E+002
 7.5005841E+001, 1.1721832E-001, 9.3295124E-002, 4.8847516E-002, 5.7059464E-004, 4.0136052E-008, 3.1883794E-003, 5.0691851E+002
 7.6006120E+001, 1.1657971E-001, 9.3815465E-002, 4.9088334E-002, 5.7378461E-004, 2.9164344E-008, 3.2062729E-003, 5.0127563E+002
 7.7006344E+001, 1.1601534E-001, 9.4275264E-002, 4.9301167E-002, 5.7663786E-004, 3.9733861E-008, 3.2220918E-003, 5.0729737E+002
 7.8006195E+001, 1.1555307E-001, 9.4651883E-002, 4.9475493E-002, 5.7897059E-004, 5.7419568E-008, 3.2350481E-003, 5.0848776E+002
 7.9006429E+001, 1.1694413E-001, 9.3518536E-002, 4.8950916E-002, 5.7196757E-004, 3.2212402E-008, 3.1960628E-003, 5.0436340E+002
 8.0001362E+001, 1.1659566E-001, 9.3802405E-002, 4.9082337E-002, 5.7375328E-004, 5.7564658E-008, 3.2058342E-003, 5.0851737E+002
 8.1001669E+001, 1.1720202E-001, 9.3308384E-002, 4.8853669E-002, 5.7069355E-004, 4.6910084E-008, 3.1888391E-003, 5.0875523E+002
 8.2000257E+001, 1.1672862E-001, 9.3694129E-002, 4.9032183E-002, 5.7304494E-004, 3.0458206E-008, 3.2021013E-003, 5.0401282E+002
 8.3003545E+001, 1.1667682E-001, 9.3736342E-002, 4.9051713E-002, 5.7329626E-004, 2.8975163E-008, 3.2035513E-003, 5.0622024E+002
 8.4000230E+001, 1.1620844E-001, 9.4117925E-002, 4.9228349E-002, 5.7567306E-004, 4.6512968E-008, 3.2166812E-003, 5.0789198E+002
 8.5002524E+001, 1.1575051E-001, 9.4491031E-002, 4.9401037E-002, 5.7797164E-004, 4.9736681E-008, 3.2295140E-003, 5.0621541E+002
 8.6005999E+001, 1.1581284E-001, 9.4440228E-002, 4.9377536E-002, 5.7767287E-004, 6.0769707E-008, 3.2277697E-003, 5.1222978E+002
 8.7004814E+001, 1.1614211E-001, 9.4172020E-002, 4.9253351E-002, 5.7597024E-004, 2.1573417E-008, 3.2185340E-003, 5.0109149E+002
 8.8002271E+001, 1.1676834E-001, 9.3661732E-002, 4.9017211E-002, 5.7286897E-004, 4.5273507E-008, 3.2009921E-003, 5.0665525E+002
 8.9004105E+001, 1.1560841E-001, 9.4606759E-002, 4.9454633E-002, 5.7871902E-004, 6.7818855E-008, 3.2335018E-003, 5.1109745E+002
 9.0004007E+001, 1.1572980E-001, 9.4507898E-002, 4.9408845E-002, 5.7807778E-004, 5.0053972E-008, 3.2300946E-003, 5.1076886E+002
 9.1001637E+001, 1.1592934E-001, 9.4345329E-002, 4.9333596E-002, 5.7706979E-004, 4.9840171E-008, 3.2245017E-003, 5.0661925E+002
 9.2006502E+001, 1.1600060E-001, 9.4287287E-002, 4.9306725E-002, 5.7670471E-004, 3.7565347E-008, 3.2225038E-003, 5.0368565E+002
 9.3000982E+001, 1.1584030E-001, 9.4417886E-002, 4.9367174E-002, 5.7751255E-004, 4.4385388E-008, 3.2269964E-003, 5.1121545E+002
 9.4005395E+001, 1.1596400E-001, 9.4317070E-002, 4.9320532E-002, 5.7691173E-004, 4.9022865E-008, 3.2235332E-003, 5.0707142E+002
 9.5000172E+001, 1.1547994E-001, 9.4711488E-002, 4.9503068E-002, 5.7932542E-004, 4.2691846E-008, 3.2370955E-003, 5.0904654E+002
 9.6004727E+001, 1.1568880E-001, 9.4541342E-002, 4.9424302E-002, 5.7826039E-004, 3.4429767E-008, 3.2312399E-003, 5.0728904E+002
 9.7004657E+001, 1.1641372E-001, 9.3950627E-002, 4.9150944E-002, 5.7467100E-004, 7.1283865E-008, 3.2109332E-003, 5.0865694E+002
 9.8006867E+001, 1.1623058E-001, 9.4099883E-002, 4.9220000E-002, 5.7556389E-004, 4.7777754E-008, 3.2160611E-003, 5.0600719E+002
 9.9001257E+001, 1.1591576E-001, 9.4356351E-002, 4.9338731E-002, 5.7717285E-004, 6.1941069E-008, 3.2248884E-003, 5.0902316E+002
 1.0000189E+002, 1.1589672E-001, 9.4371901E-002, 4.9345899E-002, 5.7723832E-004, 4.5995253E-008, 3.2254167E-003, 5.0651668E+002
 1.0100400E+002, 1.1602702E-001, 9.4265750E-002, 4.9296760E-002, 5.7657554E-004, 4.1178433E-008, 3.2217638E-003, 5.0762225E+002
 1.0200388E+002, 1.1585615E-001, 9.4404982E-002, 4.9361192E-002, 5.7742330E-004, 3.3355791E-008, 3.2265505E-003, 5.0467287E+002
 1.0300635E+002, 1.1553660E-001, 9.4665337E-002, 4.9481700E-002, 5.7903301E-004, 3.7444263E-008, 3.2355064E-003, 5.0707350E+002
 1.0400444E+002, 1.1548559E-001, 9.4706850E-002, 4.9500942E-002, 5.7931849E-004, 5.9436923E-008, 3.2369406E-003, 5.0878894E+002
 1.0500098E+002, 1.1568259E-001, 9.4546339E-002, 4.9426656E-002, 5.7833388E-004, 5.7895537E-008, 3.2314209E-003, 5.0878774E+002
 1.0600460E+002, 1.1568227E-001, 9.4546617E-002, 4.9426772E-002, 5.7832283E-004, 5.4411472E-008, 3.2314277E-003, 5.0766541E+002
 1.0700062E+002, 1.1591172E-001, 9.4359676E-002, 4.9340247E-002, 5.7716878E-004, 4.8285764E-008, 3.2249975E-003, 5.1338387E+002
 1.0800074E+002, 1.1606972E-001, 9.4230961E-002, 4.9280657E-002, 5.7635999E-004, 3.7430171E-008, 3.2205670E-003, 5.0472107E+002
 1.0900400E+002, 1.1541068E-001, 9.4767950E-002, 4.9529181E-002, 5.7965211E-004, 3.6147638E-008, 3.2390330E-003, 5.0623271E+002
 1.1000095E+002, 1.1682137E-001, 9.3618541E-002, 4.8997208E-002, 5.7258945E-004, 4.4996441E-008, 3.1995036E-003, 5.0866319E+002
 1.1100024E+002, 1.1532682E-001, 9.4836235E-002, 4.9560813E-002, 5.8010115E-004, 5.0184118E-008, 3.2413877E-003, 5.0577983E+002
 1.1200544E+002, 1.1602763E-001, 9.4265194E-002, 4.9296545E-002, 5.7661606E-004, 5.9518737E-008, 3.2217541E-003, 5.0861219E+002
 1.1300699E+002, 1.1647544E-001, 9.3900413E-002, 4.9127657E-002, 5.7431354E-004, 3.0174229E-008, 3.2091958E-003, 4.9953408E+002
 1.1400386E+002, 1.1595772E-001, 9.4322178E-002, 4.9322901E-002, 5.7694858E-004, 6.2603533E-008, 3.2237100E-003, 5.0939588E+002
 1.1500364E+002, 1.1624436E-001, 9.4088668E-002, 4.9214800E-002, 5.7548542E-004, 4.2751001E-008, 3.2156733E-003, 5.0478847E+002
 1.1600295E+002, 1.1646987E-001, 9.3904959E-002, 4.9129759E-002, 5.7433977E-004, 2.9108994E-008, 3.2093518E-003, 5.0542302E+002
 1.1700126E+002, 1.1510151E-001, 9.5019806E-002, 4.9645779E-002, 5.8123522E-004, 5.8951722E-008, 3.2477022E-003, 5.0955654E+002
 1.1800700E+002, 1.1623869E-001, 9.4093262E-002, 4.9216948E-002, 5.7553600E-004, 5.7134274E-008, 3.2158361E-003, 5.0752658E+002
 1.1900372E+002, 1.1601629E-001, 9.4274522E-002, 4.9300803E-002, 5.7661201E-004, 2.8272726E-008, 3.2220617E-003, 5.0402393E+002
 1.2000525E+002, 1.1543705E-001, 9.4746417E-002, 4.9519248E-002, 5.7955433E-004, 5.2991111E-008, 3.2382998E-003, 5.0947131E+002
 1.2100190E+002, 1.1527856E-001, 9.4875573E-002, 4.9579005E-002, 5.8032742E-004, 4.3710024E-008, 3.2427372E-003, 5.1114602E+002
 1.2200277E+002, 1.1596159E-001, 9.4319033E-002, 4.9321442E-002, 5.7692556E-004, 5.7518600E-008, 3.2236011E-003, 5.0962271E+002
 1.2300350E+002, 1.1546531E-001, 9.4723424E-002, 4.9508583E-002, 5.7938890E-004, 3.5011313E-008, 3.2375039E-003, 5.0978518E+002
 1.2400755E+002, 1.1536215E-001, 9.4807400E-002, 4.9547499E-002, 5.7995716E-004, 6.5302762E-008, 3.2404031E-003, 5.0811505E+002
 1.2500258E+002, 1.1588959E-001, 9.4377730E-002, 4.9348588E-002, 5.7726523E-004, 3.6790354E-008, 3.2256152E-003, 5.0715906E+002
 1.2600280E+002, 1.1586976E-001, 9.4393893E-002, 4.9356062E-002, 5.7735727E-004, 3.4835367E-008, 3.2261695E-003, 5.0747661E+002
 1.2700019E+002, 1.1540323E-001, 9.4773991E-002, 4.9531994E-002, 5.7970794E-004, 4.5618285E-008, 3.2392447E-003, 5.0623309E+002
 1.2800215E+002, 1.1499069E-001, 9.5110021E-002, 4.9687583E-002, 5.8184189E-004, 8.5356319E-008, 3.2508160E-003, 5.1122919E+002
 1.2900093E+002, 1.1530052E-001, 9.4857686E-002, 4.9570723E-002, 5.8021469E-004, 3.4476211E-008, 3.2421215E-003, 5.0543702E+002
 1.3000086E+002, 1.1563494E-001, 9.4585243E-002, 4.9444609E-002, 5.7851829E-004, 2.4608716E-008, 3.2327471E-003, 5.0133348E+002
 1.3100677E+002, 1.1522369E-001, 9.4920272E-002, 4.9599700E-002, 5.8061017E-004, 4.5380457E-008, 3.2442762E-003, 5.0810481E+002
 1.3200734E+002, 1.1493679E-001, 9.5154034E-002, 4.9707892E-002, 5.8204851E-004, 4.3121742E-008, 3.2523159E-003, 5.1040386E+002
 1.3300651E+002, 1.1566458E-001, 9.4560940E-002, 4.9433464E-002, 5.7847637E-004, 8.7836299E-008, 3.2319343E-003, 5.1124312E+002
 1.3400412E+002, 1.1519177E-001, 9.4946313E-002, 4.9611733E-002, 5.8075002E-004, 3.1260660E-008, 3.2451675E-003, 5.0797732E+002
 1.3500276E+002, 1.1568644E-001, 9.4543215E-002, 4.9425202E-002, 5.7830653E-004, 4.5788068E-008, 3.2313117E-003, 5.0835257E+002
 1.3600287E+002, 1.1443448E-001, 9.5563277E-002, 4.9897315E-002, 5.8457986E-004, 5.3018561E-008, 3.2663938E-003, 5.0728753E+002
 1.3700401E+002, 1.1547581E-001, 9.4714860E-002, 4.9504624E-002, 5.7934138E-004, 4.6712005E-008, 3.2372105E-003, 5.0676422E+002
 1.3800663E+002, 1.1621222E-001, 9.4114862E-002, 4.9226921E-002, 5.7564329E-004, 4.2586660E-008, 3.2165735E-003, 5.0821814E+002
 1.3900555E+002, 1.1552963E-001, 9.4671029E-002, 4.9484325E-002, 5.7905791E-004, 3.2128934E-008, 3.2357000E-003, 5.0323624E+002
 1.4000326E+002, 1.1510007E-001, 9.5020964E-002, 4.9646323E-002, 5.8125062E-004, 6.2915249E-008, 3.2477438E-003, 5.1113383E+002
 1.4100235E+002, 1.1523975E-001, 9.4907164E-002, 4.9593647E-002, 5.8054468E-004, 6.2200318E-008, 3.2438286E-003, 5.0747527E+002
 1.4200290E+002, 1.1623258E-001, 9.4098298E-002, 4.9219236E-002, 5.7552203E-004, 2.9386838E-008, 3.2159997E-003, 5.0641163E+002
 1.4300073E+002, 1.1516171E-001, 9.4970743E-002, 4.9623079E-002, 5.8094127E-004, 5.6954714E-008, 3.2460165E-003, 5.0635223E+002
 1.4400699E+002, 1.1561627E-001, 9.4600413E-002, 4.9451657E-002, 5.7863964E-004, 4.1311315E-008, 3.2332748E-003, 5.0552033E+002
 1.4500146E+002, 1.1598795E-001, 9.4297591E-002, 4.9311494E-002, 5.7676882E-004, 4.0165388E-008, 3.2228583E-003, 5.0517061E+002
 1.4600142E+002, 1.1588823E-001, 9.4378853E-002, 4.9349094E-002, 5.7725717E-004, 3.3169366E-008, 3.2256507E-003, 5.0851176E+002
 1.4700044E+002, 1.1516018E-001, 9.4972001E-002, 4.9623656E-002, 5.8094355E-004, 5.0817240E-008, 3.2460586E-003, 5.0773357E+002
 1.4800144E+002, 1.1494728E-001, 9.5145438E-002, 4.9703947E-002, 5.8203014E-004, 6.6283806E-008, 3.2520277E-003, 5.0766565E+002
 1.4900346E+002, 1.1573903E-001, 9.4500359E-002, 4.9405370E-002, 5.7804642E-004, 5.3621472E-008, 3.2298385E-003, 5.0686982E+002
 1.5000532E+002, 1.1584805E-001, 9.4411568E-002, 4.9364252E-002, 5.7747589E-004, 4.2892193E-008, 3.2267796E-003, 5.1022984E+002
 1.5100585E+002, 1.1585893E-001, 9.4402756E-002, 4.9360141E-002, 5.7738771E-004, 2.0950458E-008, 3.2264692E-003, 5.0487701E+002
 1.5200047E+002, 1.1526660E-001, 9.4885295E-002, 4.9583524E-002, 5.8040803E-004, 4.9923161E-008, 3.2430761E-003, 5.0808197E+002
 1.5300339E+002, 1.1509971E-001, 9.5021281E-002, 4.9646458E-002, 5.8124027E-004, 4.5027182E-008, 3.2477520E-003, 5.1138166E+002
 1.5400678E+002, 1.1612941E-001, 9.4182324E-002, 4.9258149E-002, 5.7606407E-004, 4.6543401E-008, 3.2188949E-003, 5.0729942E+002
