s,,,,,,,
Time,"O2 EXHAUST","CO2 EXHAUST","H2O EXHAUST","CO EXHAUST","FUEL EXHAUST","SOOT EXHAUST","TEMP EXHAUST"
 0.0000000E+000, 2.3099739E-001, 5.9146498E-004, 5.9412091E-003, 0.0000000E+000, 0.0000000E+000, 0.0000000E+000, 2.0000000E+001
 1.0011298E+000, 2.3099739E-001, 5.9146498E-004, 5.9412091E-003, 1.9768678E-025, 6.9499835E-025, 1.0740350E-025, 2.4223369E+001
 2.0025610E+000, 2.1487102E-001, 1.3494160E-002, 1.2049368E-002, 2.7087865E-004, 1.1451612E-004, 4.8470040E-004, 1.6906322E+002
 3.0005951E+000, 2.0193502E-001, 2.3985238E-002, 1.6921000E-002, 3.9007136E-004, 1.3885516E-004, 8.5693840E-004, 2.7929154E+002
 4.0021016E+000, 1.8747490E-001, 3.5892082E-002, 2.2327731E-002, 3.9517949E-004, 1.0119891E-004, 1.2512422E-003, 3.7857539E+002
 5.0026114E+000, 1.7191507E-001, 4.8804737E-002, 2.8124820E-002, 3.3005883E-004, 1.8492408E-005, 1.6635639E-003, 4.6299597E+002
 6.0000617E+000, 1.5434930E-001, 6.3199388E-002, 3.4707457E-002, 3.8544342E-004, 2.4035967E-007, 2.1509017E-003, 5.2765453E+002
 7.0055505E+000, 1.4115616E-001, 7.3972563E-002, 3.9659500E-002, 4.5403755E-004, 2.0787330E-006, 2.5215064E-003, 5.7116002E+002
 8.0009765E+000, 1.2872254E-001, 8.4126110E-002, 4.4326473E-002, 5.1841453E-004, 2.6303775E-006, 2.8707366E-003, 5.8747816E+002
 9.0037709E+000, 1.1564925E-001, 9.4804534E-002, 4.9232845E-002, 5.8415341E-004, 3.4482625E-006, 3.2375944E-003, 6.0442724E+002
 1.0004458E+001, 1.0403251E-001, 1.0429501E-001, 5.3592266E-002, 6.4137289E-004, 2.9738704E-006, 3.5633793E-003, 6.1127320E+002
 1.1000107E+001, 9.9111446E-002, 1.0831874E-001, 5.5438363E-002, 6.6329658E-004, 8.7248234E-007, 3.7009987E-003, 6.1465297E+002
 1.2000791E+001, 9.5304954E-002, 1.1142570E-001, 5.6867426E-002, 6.8404391E-004, 1.8255349E-006, 3.8080888E-003, 6.1146469E+002
 1.3005373E+001, 8.4974290E-002, 1.1978757E-001, 6.0759188E-002, 7.8855958E-004, 4.2713295E-005, 4.1068388E-003, 6.2640976E+002
 1.4006740E+001, 8.0905413E-002, 1.2276432E-001, 6.2345996E-002, 1.0407159E-003, 2.7440861E-004, 4.2597063E-003, 6.2873975E+002
 1.5000894E+001, 7.7409863E-002, 1.2570192E-001, 6.3645205E-002, 1.0048093E-003, 2.0889582E-004, 4.3489437E-003, 6.3723099E+002
 1.6000802E+001, 7.8013837E-002, 1.2513488E-001, 6.3433566E-002, 1.0533952E-003, 2.4183676E-004, 4.3407319E-003, 6.1917795E+002
 1.7004506E+001, 7.4677888E-002, 1.2767867E-001, 6.4723549E-002, 1.1980752E-003, 3.1543360E-004, 4.4560429E-003, 6.2251560E+002
 1.8001519E+001, 7.1789666E-002, 1.2898458E-001, 6.5989112E-002, 1.9164265E-003, 1.0180364E-003, 4.6546190E-003, 6.1404669E+002
 1.9005326E+001, 7.0545241E-002, 1.3005311E-001, 6.6455976E-002, 1.8968705E-003, 9.2192574E-004, 4.6856715E-003, 6.1317775E+002
 2.0003041E+001, 6.8599983E-002, 1.3068574E-001, 6.7371689E-002, 2.5668433E-003, 1.4150080E-003, 4.8515420E-003, 6.0672521E+002
 2.1001947E+001, 6.8239659E-002, 1.3099940E-001, 6.7492251E-002, 2.5441870E-003, 1.4811786E-003, 4.8569986E-003, 6.0391192E+002
 2.2003422E+001, 6.4282544E-002, 1.3185304E-001, 6.9367225E-002, 4.1329156E-003, 3.2092626E-003, 5.2289927E-003, 5.9809162E+002
 2.3004272E+001, 6.5305705E-002, 1.3161479E-001, 6.8948096E-002, 3.7976785E-003, 2.3371963E-003, 5.1485689E-003, 5.9800106E+002
 2.4005590E+001, 6.4021945E-002, 1.3311894E-001, 6.9343998E-002, 3.4922294E-003, 2.0845775E-003, 5.1321423E-003, 5.9203451E+002
 2.5000059E+001, 6.2995072E-002, 1.3279742E-001, 6.9883579E-002, 4.2260108E-003, 3.1785092E-003, 5.2803222E-003, 5.9327633E+002
 2.6006206E+001, 6.3401940E-002, 1.3277544E-001, 6.9713840E-002, 4.0537355E-003, 2.7170895E-003, 5.2423102E-003, 5.9769951E+002
 2.7006777E+001, 6.1005233E-002, 1.3291695E-001, 7.0935617E-002, 5.2887309E-003, 3.8648700E-003, 5.5142353E-003, 5.8467752E+002
 2.8001351E+001, 6.0840838E-002, 1.3303634E-001, 7.0942560E-002, 5.2411043E-003, 4.2746376E-003, 5.5078801E-003, 5.8807919E+002
 2.9000955E+001, 6.0249754E-002, 1.3418223E-001, 7.1108591E-002, 4.8606150E-003, 3.4241124E-003, 5.4633737E-003, 5.8956554E+002
 3.0002688E+001, 6.0461576E-002, 1.3357028E-001, 7.1100784E-002, 5.1487932E-003, 3.7447428E-003, 5.5055277E-003, 5.8998051E+002
 3.1006091E+001, 5.9393151E-002, 1.3361433E-001, 7.1684900E-002, 5.7489236E-003, 4.0167558E-003, 5.6368446E-003, 5.8578885E+002
 3.2002498E+001, 5.9331694E-002, 1.3381776E-001, 7.1665176E-002, 5.6301592E-003, 4.0287130E-003, 5.6178643E-003, 5.8706761E+002
 3.3004511E+001, 5.8205190E-002, 1.3346288E-001, 7.2333260E-002, 6.5137916E-003, 4.7016805E-003, 5.7973594E-003, 5.8363326E+002
 3.4007442E+001, 5.8583006E-002, 1.3341345E-001, 7.2103805E-002, 6.2949130E-003, 4.8284992E-003, 5.7483685E-003, 5.8177129E+002
 3.5005019E+001, 5.7925614E-002, 1.3406623E-001, 7.2370741E-002, 6.2617772E-003, 4.4709860E-003, 5.7627482E-003, 5.8873216E+002
 3.6000182E+001, 5.7619485E-002, 1.3339569E-001, 7.2655906E-002, 6.8902541E-003, 5.0045763E-003, 5.8766057E-003, 5.8331425E+002
 3.7001342E+001, 5.7198272E-002, 1.3428296E-001, 7.2701279E-002, 6.5099699E-003, 4.7750712E-003, 5.8236152E-003, 5.8838697E+002
 3.8002719E+001, 5.8077050E-002, 1.3314725E-001, 7.2413095E-002, 6.7537993E-003, 5.2660920E-003, 5.8388805E-003, 5.7839818E+002
 3.9007595E+001, 5.6878919E-002, 1.3404773E-001, 7.2894206E-002, 6.8303767E-003, 5.1929151E-003, 5.8851854E-003, 5.8149668E+002
 4.0006992E+001, 5.6669115E-002, 1.3459069E-001, 7.2934365E-002, 6.6090944E-003, 4.7672636E-003, 5.8552260E-003, 5.8773268E+002
 4.1005696E+001, 5.6969280E-002, 1.3364374E-001, 7.2916105E-002, 7.0494236E-003, 5.4209887E-003, 5.9192463E-003, 5.7864789E+002
 4.2007916E+001, 5.8749809E-002, 1.3321467E-001, 7.2040873E-002, 6.3245412E-003, 4.9477329E-003, 5.7482172E-003, 5.8627214E+002
 4.3000687E+001, 5.7311041E-002, 1.3243916E-001, 7.2866368E-002, 7.5835359E-003, 6.6035202E-003, 5.9950623E-003, 5.8002804E+002
 4.4003593E+001, 5.7155234E-002, 1.3426037E-001, 7.2689583E-002, 6.5102491E-003, 5.0772599E-003, 5.8229358E-003, 5.8564005E+002
 4.5007047E+001, 5.5461240E-002, 1.3391674E-001, 7.3592161E-002, 7.6414331E-003, 6.4458263E-003, 6.0563812E-003, 5.7917127E+002
 4.6003790E+001, 5.7138116E-002, 1.3409335E-001, 7.2738538E-002, 6.6428243E-003, 5.1190370E-003, 5.8461078E-003, 5.9224136E+002
 4.7002032E+001, 5.6339577E-002, 1.3347331E-001, 7.3236703E-002, 7.4757464E-003, 6.1135586E-003, 6.0058798E-003, 5.8079054E+002
 4.8004477E+001, 5.7004760E-002, 1.3341313E-001, 7.2903803E-002, 7.1495917E-003, 5.7908991E-003, 5.9333125E-003, 5.7689881E+002
 4.9005444E+001, 5.6047918E-002, 1.3346688E-001, 7.3370976E-002, 7.6230014E-003, 6.3979279E-003, 6.0375364E-003, 5.8645357E+002
 5.0000262E+001, 5.5665191E-002, 1.3340973E-001, 7.3601302E-002, 7.8953874E-003, 6.4846611E-003, 6.0945898E-003, 5.8045456E+002
 5.1004973E+001, 5.5505923E-002, 1.3349274E-001, 7.3618729E-002, 7.8762326E-003, 6.8680620E-003, 6.0931937E-003, 5.8109425E+002
 5.2005558E+001, 5.6154644E-002, 1.3355853E-001, 7.3300651E-002, 7.5035441E-003, 6.2747291E-003, 6.0147120E-003, 5.8263318E+002
 5.3002601E+001, 5.6647249E-002, 1.3367769E-001, 7.3045077E-002, 7.1721473E-003, 5.7927186E-003, 5.9469299E-003, 5.8678343E+002
 5.4006406E+001, 5.6182671E-002, 1.3347445E-001, 7.3323089E-002, 7.5671196E-003, 6.1592525E-003, 6.0256899E-003, 5.8869738E+002
 5.5004934E+001, 5.5301505E-002, 1.3355355E-001, 7.3735749E-002, 7.9706139E-003, 6.7854544E-003, 6.1156226E-003, 5.8358158E+002
 5.6005060E+001, 5.5599983E-002, 1.3305347E-001, 7.3646079E-002, 8.1181161E-003, 7.1087226E-003, 6.1310314E-003, 5.7771954E+002
 5.7007335E+001, 5.5538086E-002, 1.3352676E-001, 7.3642207E-002, 7.8825931E-003, 6.5073782E-003, 6.0956866E-003, 5.8663136E+002
 5.8007265E+001, 5.5527490E-002, 1.3331690E-001, 7.3637064E-002, 7.9809833E-003, 6.9795381E-003, 6.1100554E-003, 5.7778378E+002
 5.9006921E+001, 5.6336300E-002, 1.3318064E-001, 7.3296835E-002, 7.6812541E-003, 6.2549300E-003, 6.0406857E-003, 5.8305753E+002
 6.0001220E+001, 5.5739736E-002, 1.3256619E-001, 7.3652518E-002, 8.3612022E-003, 7.3956180E-003, 6.1675447E-003, 5.8300394E+002
 6.1002525E+001, 5.5521373E-002, 1.3294525E-001, 7.3703470E-002, 8.2318598E-003, 7.2366020E-003, 6.1520720E-003, 5.8063688E+002
 6.2006749E+001, 5.5907378E-002, 1.3319778E-001, 7.3510682E-002, 7.9014077E-003, 6.5091741E-003, 6.0888936E-003, 5.7954865E+002
 6.3000269E+001, 5.6090260E-002, 1.3251047E-001, 7.3516431E-002, 8.2412365E-003, 6.9960958E-003, 6.1397387E-003, 5.8580772E+002
 6.4005937E+001, 5.5672661E-002, 1.3324021E-001, 7.3578367E-002, 7.9553281E-003, 6.9306107E-003, 6.1019706E-003, 5.8353806E+002
 6.5006621E+001, 5.6512185E-002, 1.3333901E-001, 7.3168303E-002, 7.4678920E-003, 6.1262849E-003, 5.9997458E-003, 5.8673922E+002
 6.6006459E+001, 5.5564397E-002, 1.3348048E-001, 7.3631436E-002, 7.8937565E-003, 6.5599732E-003, 6.0965749E-003, 5.8587250E+002
 6.7002614E+001, 5.5618341E-002, 1.3361890E-001, 7.3563758E-002, 7.7552718E-003, 6.5496216E-003, 6.0711803E-003, 5.8636985E+002
 6.8005069E+001, 5.5545396E-002, 1.3344368E-001, 7.3616243E-002, 7.8968799E-003, 6.8135165E-003, 6.0960402E-003, 5.8215662E+002
 6.9003795E+001, 5.5755583E-002, 1.3301727E-001, 7.3525924E-002, 8.0096347E-003, 7.3695309E-003, 6.1063677E-003, 5.7969666E+002
 7.0004822E+001, 5.5891962E-002, 1.3369061E-001, 7.3375815E-002, 7.5216264E-003, 6.5923046E-003, 6.0229927E-003, 5.8329387E+002
 7.1001893E+001, 5.6318885E-002, 1.3279859E-001, 7.3348185E-002, 7.9221895E-003, 6.6832786E-003, 6.0802114E-003, 5.8664286E+002
 7.2001738E+001, 5.5324342E-002, 1.3424593E-001, 7.3611965E-002, 7.5028852E-003, 6.2596359E-003, 6.0372693E-003, 5.9206328E+002
 7.3006037E+001, 5.4595935E-002, 1.3369107E-001, 7.4069866E-002, 8.2609237E-003, 7.1224238E-003, 6.1829880E-003, 5.8542559E+002
 7.4000687E+001, 5.5646746E-002, 1.3294955E-001, 7.3644525E-002, 8.1665517E-003, 7.1200361E-003, 6.1380804E-003, 5.7871999E+002
 7.5005597E+001, 5.5186734E-002, 1.3312612E-001, 7.3840857E-002, 8.2911063E-003, 7.3272143E-003, 6.1708666E-003, 5.7712597E+002
 7.6000306E+001, 5.5641340E-002, 1.3320029E-001, 7.3600212E-002, 7.9980318E-003, 6.9827156E-003, 6.1098935E-003, 5.8284311E+002
 7.7002025E+001, 5.6201757E-002, 1.3309021E-001, 7.3368573E-002, 7.8022466E-003, 6.4813028E-003, 6.0638844E-003, 5.9133252E+002
 7.8004218E+001, 5.5025649E-002, 1.3322976E-001, 7.3825660E-002, 8.2285940E-003, 7.9071197E-003, 6.1607739E-003, 5.8142904E+002
 7.9000562E+001, 5.5512373E-002, 1.3317673E-001, 7.3717668E-002, 8.1325355E-003, 6.7420866E-003, 6.1382147E-003, 5.8359362E+002
 8.0002688E+001, 5.5903242E-002, 1.3260281E-001, 7.3609680E-002, 8.2954354E-003, 6.9482276E-003, 6.1545146E-003, 5.8096296E+002
 8.1000695E+001, 5.4871826E-002, 1.3357296E-001, 7.4008341E-002, 8.2495252E-003, 6.6288429E-003, 6.1766117E-003, 5.8108935E+002
 8.2001980E+001, 5.4950560E-002, 1.3413381E-001, 7.3886370E-002, 7.8470338E-003, 6.1046137E-003, 6.1080310E-003, 5.9317884E+002
 8.3005574E+001, 5.5253672E-002, 1.3344035E-001, 7.3841547E-002, 8.1353668E-003, 6.4574477E-003, 6.1475273E-003, 5.8789573E+002
 8.4005336E+001, 5.5093416E-002, 1.3353089E-001, 7.3813505E-002, 8.0661932E-003, 7.1479844E-003, 6.1355630E-003, 5.8436469E+002
 8.5006352E+001, 5.5380299E-002, 1.3297953E-001, 7.3760109E-002, 8.2762061E-003, 7.3621978E-003, 6.1628022E-003, 5.8618166E+002
 8.6006749E+001, 5.5093119E-002, 1.3334270E-001, 7.3901182E-002, 8.2482305E-003, 6.8895389E-003, 6.1687328E-003, 5.8403225E+002
 8.7000667E+001, 5.5122592E-002, 1.3343163E-001, 7.3829452E-002, 8.1306048E-003, 7.1014078E-003, 6.1462217E-003, 5.8402361E+002
 8.8001862E+001, 5.6213699E-002, 1.3305441E-001, 7.3319976E-002, 7.7700639E-003, 6.8377037E-003, 6.0557454E-003, 5.8377147E+002
 8.9000986E+001, 5.5889865E-002, 1.3359176E-001, 7.3465782E-002, 7.6620387E-003, 6.1583077E-003, 6.0501024E-003, 5.8703776E+002
 9.0001904E+001, 5.4828643E-002, 1.3371787E-001, 7.3959731E-002, 8.1296970E-003, 6.8759421E-003, 6.1554733E-003, 5.8253041E+002
 9.1007298E+001, 5.4933878E-002, 1.3329726E-001, 7.3943767E-002, 8.3179761E-003, 7.3375109E-003, 6.1823326E-003, 5.8222355E+002
 9.2006001E+001, 5.5138932E-002, 1.3322335E-001, 7.3868076E-002, 8.2721429E-003, 7.1537048E-003, 6.1699707E-003, 5.8192762E+002
 9.3001389E+001, 5.5644986E-002, 1.3288470E-001, 7.3585668E-002, 8.1385672E-003, 7.6590974E-003, 6.1298940E-003, 5.8543212E+002
 9.4003021E+001, 5.4287895E-002, 1.3264802E-001, 7.4315556E-002, 9.0327044E-003, 8.6357401E-003, 6.3155715E-003, 5.8313387E+002
 9.5007487E+001, 5.5142593E-002, 1.3387239E-001, 7.3800980E-002, 7.8839984E-003, 6.3930120E-003, 6.1074022E-003, 5.8953894E+002
 9.6003412E+001, 5.4704213E-002, 1.3288401E-001, 7.4135690E-002, 8.7228098E-003, 7.7234584E-003, 6.2562916E-003, 5.8081627E+002
 9.7001192E+001, 5.5478684E-002, 1.3267619E-001, 7.3793931E-002, 8.4576224E-003, 7.2856409E-003, 6.1920387E-003, 5.8790410E+002
 9.8001991E+001, 5.4638937E-002, 1.3342529E-001, 7.4140211E-002, 8.4624384E-003, 6.9504734E-003, 6.2178117E-003, 5.7866037E+002
 9.9007091E+001, 5.5157747E-002, 1.3355964E-001, 7.3848639E-002, 8.0862282E-003, 6.5825339E-003, 6.1408365E-003, 5.8590504E+002
 1.0000631E+002, 5.4840872E-002, 1.3305923E-001, 7.4103025E-002, 8.5998152E-003, 7.0572681E-003, 6.2354510E-003, 5.8084964E+002
 1.0100772E+002, 5.5261021E-002, 1.3357284E-001, 7.3807662E-002, 8.0353999E-003, 6.4156121E-003, 6.1302708E-003, 5.8191075E+002
 1.0200284E+002, 5.4896018E-002, 1.3210662E-001, 7.4159551E-002, 9.1252399E-003, 8.2154948E-003, 6.3177077E-003, 5.7897629E+002
 1.0300491E+002, 5.5513318E-002, 1.3302713E-001, 7.3730885E-002, 8.2196644E-003, 6.9256811E-003, 6.1521311E-003, 5.8576436E+002
 1.0400572E+002, 5.4692373E-002, 1.3341959E-001, 7.4047326E-002, 8.3692669E-003, 7.3874896E-003, 6.1974716E-003, 5.8693641E+002
 1.0500577E+002, 5.5051476E-002, 1.3375324E-001, 7.3870955E-002, 8.0162583E-003, 6.5053877E-003, 6.1320882E-003, 5.8960660E+002
 1.0600023E+002, 5.4801177E-002, 1.3319109E-001, 7.4106692E-002, 8.5395931E-003, 6.9496817E-003, 6.2267724E-003, 5.8930044E+002
 1.0700772E+002, 5.5280041E-002, 1.3311671E-001, 7.3814174E-002, 8.2662275E-003, 7.1441753E-003, 6.1651689E-003, 5.8111580E+002
 1.0800701E+002, 5.4241221E-002, 1.3406695E-001, 7.4240292E-002, 8.2582868E-003, 6.7012060E-003, 6.1948218E-003, 5.8756985E+002
 1.0900188E+002, 5.5146603E-002, 1.3271122E-001, 7.3926632E-002, 8.5838656E-003, 7.6710206E-003, 6.2205196E-003, 5.8690123E+002
 1.1000436E+002, 5.5982338E-002, 1.3312013E-001, 7.3455584E-002, 7.8816403E-003, 6.7279455E-003, 6.0820566E-003, 5.8321563E+002
 1.1100348E+002, 5.5110107E-002, 1.3381745E-001, 7.3838928E-002, 7.9505351E-003, 6.3656992E-003, 6.1199847E-003, 5.8441390E+002
 1.1200468E+002, 5.4782569E-002, 1.3396224E-001, 7.3990522E-002, 8.0418585E-003, 6.3952681E-003, 6.1445270E-003, 5.8409038E+002
 1.1300442E+002, 5.4781259E-002, 1.3306363E-001, 7.4041211E-002, 8.5361472E-003, 7.7272571E-003, 6.2218331E-003, 5.8377162E+002
 1.1400455E+002, 5.4949202E-002, 1.3306602E-001, 7.3982720E-002, 8.4711859E-003, 7.4346558E-003, 6.2078497E-003, 5.8271544E+002
 1.1500682E+002, 5.5140346E-002, 1.3361077E-001, 7.3812788E-002, 8.0249488E-003, 6.8091268E-003, 6.1292697E-003, 5.8127849E+002
 1.1600353E+002, 5.4683898E-002, 1.3388641E-001, 7.4059893E-002, 8.1523549E-003, 6.4621714E-003, 6.1659335E-003, 5.8632870E+002
 1.1700128E+002, 5.5292658E-002, 1.3284549E-001, 7.3870053E-002, 8.4564353E-003, 7.2092133E-003, 6.1973713E-003, 5.8199510E+002
 1.1800484E+002, 5.5364589E-002, 1.3319886E-001, 7.3816912E-002, 8.2264408E-003, 6.6210348E-003, 6.1592627E-003, 5.8385543E+002
 1.1900704E+002, 5.5807027E-002, 1.3332540E-001, 7.3581430E-002, 7.9131351E-003, 6.1930384E-003, 6.0956397E-003, 5.8621844E+002
 1.2000530E+002, 5.6112550E-002, 1.3356160E-001, 7.3354180E-002, 7.5576213E-003, 6.0700904E-003, 6.0265109E-003, 5.9087030E+002
 1.2100733E+002, 5.5559384E-002, 1.3346684E-001, 7.3662817E-002, 7.9325761E-003, 6.3873795E-003, 6.1045209E-003, 5.9448372E+002
 1.2200178E+002, 5.5415921E-002, 1.3350245E-001, 7.3712445E-002, 7.9691850E-003, 6.5693017E-003, 6.1136217E-003, 5.8555307E+002
 1.2300007E+002, 5.5138430E-002, 1.3298550E-001, 7.3956571E-002, 8.4794781E-003, 6.9832522E-003, 6.2069764E-003, 5.8446321E+002
 1.2400420E+002, 5.5126487E-002, 1.3323717E-001, 7.3925031E-002, 8.3236772E-003, 6.7821955E-003, 6.1815710E-003, 5.8341011E+002
 1.2500456E+002, 5.5574830E-002, 1.3300928E-001, 7.3701001E-002, 8.1964691E-003, 6.9125263E-003, 6.1465225E-003, 5.8212435E+002
 1.2600043E+002, 5.5028591E-002, 1.3422456E-001, 7.3856616E-002, 7.7700713E-003, 5.8190414E-003, 6.0943690E-003, 5.9115389E+002
 1.2700376E+002, 5.5641589E-002, 1.3312427E-001, 7.3693365E-002, 8.1303886E-003, 6.4740931E-003, 6.1360125E-003, 5.8391425E+002
 1.2800510E+002, 5.4833887E-002, 1.3356752E-001, 7.3996714E-002, 8.2413061E-003, 6.8773685E-003, 6.1746583E-003, 5.8503868E+002
 1.2900417E+002, 5.5584554E-002, 1.3309743E-001, 7.3730557E-002, 8.1829255E-003, 6.5012657E-003, 6.1464948E-003, 5.8996302E+002
 1.3000216E+002, 5.6445116E-002, 1.3373178E-001, 7.3161813E-002, 7.2694961E-003, 5.7152036E-003, 5.9697789E-003, 5.8332133E+002
 1.3100423E+002, 5.5584615E-002, 1.3390523E-001, 7.3555604E-002, 7.6067753E-003, 6.2109449E-003, 6.0484972E-003, 5.8567278E+002
 1.3200391E+002, 5.4979124E-002, 1.3294903E-001, 7.4077289E-002, 8.6244217E-003, 6.8697741E-003, 6.2371326E-003, 5.8624830E+002
 1.3300469E+002, 5.5719585E-002, 1.3326964E-001, 7.3573594E-002, 7.9348000E-003, 6.7143900E-003, 6.0984962E-003, 5.8518814E+002
 1.3400088E+002, 5.5652702E-002, 1.3284967E-001, 7.3750492E-002, 8.3235700E-003, 6.5429794E-003, 6.1687468E-003, 5.8947341E+002
 1.3500629E+002, 5.5297281E-002, 1.3417832E-001, 7.3680013E-002, 7.6061968E-003, 6.0235790E-003, 6.0573867E-003, 5.9174628E+002
 1.3600071E+002, 5.4927781E-002, 1.3339585E-001, 7.3949320E-002, 8.2752269E-003, 7.1397231E-003, 6.1763343E-003, 5.8229653E+002
 1.3700083E+002, 5.5471686E-002, 1.3265079E-001, 7.3803834E-002, 8.4803983E-003, 7.2930704E-003, 6.1961283E-003, 5.7994269E+002
 1.3800231E+002, 5.6698253E-002, 1.3298031E-001, 7.3194022E-002, 7.6661338E-003, 5.8463253E-003, 6.0307907E-003, 5.8395563E+002
 1.3900192E+002, 5.5018932E-002, 1.3376913E-001, 7.3887304E-002, 8.0259023E-003, 6.4965376E-003, 6.1346996E-003, 5.9186266E+002
 1.4000261E+002, 5.5710438E-002, 1.3243979E-001, 7.3723464E-002, 8.4964791E-003, 7.2585487E-003, 6.1926393E-003, 5.8039556E+002
 1.4100084E+002, 5.6732071E-002, 1.3289441E-001, 7.3119445E-002, 7.6316148E-003, 6.3869303E-003, 6.0204951E-003, 5.8831895E+002
 1.4200781E+002, 5.6243851E-002, 1.3232337E-001, 7.3436307E-002, 8.2479179E-003, 7.2681405E-003, 6.1350113E-003, 5.8492841E+002
 1.4300385E+002, 5.5696697E-002, 1.3312570E-001, 7.3604666E-002, 8.0379303E-003, 6.8616666E-003, 6.1160611E-003, 5.8113361E+002
 1.4400710E+002, 5.5223670E-002, 1.3407926E-001, 7.3736854E-002, 7.7147432E-003, 6.1174470E-003, 6.0776046E-003, 5.8763910E+002
 1.4500735E+002, 5.6257006E-002, 1.3316696E-001, 7.3336794E-002, 7.7306819E-003, 6.3304587E-003, 6.0509308E-003, 5.8431572E+002
 1.4600596E+002, 5.5044141E-002, 1.3326343E-001, 7.3949257E-002, 8.3374834E-003, 6.9054429E-003, 6.1854279E-003, 5.8058389E+002
 1.4700421E+002, 5.4662013E-002, 1.3405221E-001, 7.4034585E-002, 8.0454465E-003, 6.4193981E-003, 6.1482751E-003, 5.9144905E+002
 1.4800576E+002, 5.5199617E-002, 1.3369739E-001, 7.3769729E-002, 7.9369286E-003, 6.7018163E-003, 6.1130823E-003, 5.8655346E+002
 1.4900519E+002, 5.4920741E-002, 1.3279427E-001, 7.3968503E-002, 8.5912582E-003, 8.1598716E-003, 6.2248713E-003, 5.8070293E+002
 1.5000654E+002, 5.5382451E-002, 1.3223448E-001, 7.3850366E-002, 8.7350926E-003, 8.1167536E-003, 6.2375075E-003, 5.8029104E+002
 1.5100310E+002, 5.4702865E-002, 1.3297842E-001, 7.4193240E-002, 8.7349824E-003, 7.1511357E-003, 6.2620320E-003, 5.8027794E+002
 1.5200670E+002, 5.4833396E-002, 1.3439992E-001, 7.3868190E-002, 7.7003621E-003, 6.2195207E-003, 6.0850838E-003, 5.9105496E+002
 1.5300633E+002, 5.5734852E-002, 1.3409950E-001, 7.3456726E-002, 7.4065892E-003, 5.9146655E-003, 6.0115904E-003, 5.9238341E+002
 1.5400345E+002, 5.5874616E-002, 1.3291155E-001, 7.3565007E-002, 8.0985602E-003, 6.8012138E-003, 6.1221073E-003, 5.8419914E+002
