s,,,,,,,
Time,"O2 EXHAUST","CO2 EXHAUST","H2O EXHAUST","CO EXHAUST","FUEL EXHAUST","SOOT EXHAUST","TEMP EXHAUST"
 0.0000000E+000, 2.3099739E-001, 5.9146498E-004, 5.9412092E-003, 0.0000000E+000, 0.0000000E+000, 0.0000000E+000, 2.0000000E+001
 1.0018927E+000, 2.3099739E-001, 5.9146498E-004, 5.9412092E-003, 9.8476270E-024, 1.1452196E-023, 2.3962136E-023, 2.2443611E+001
 2.0006492E+000, 2.2087916E-001, 8.6838941E-003, 9.7817015E-003, 1.4944177E-004, 1.1412292E-004, 2.9968974E-004, 1.1828965E+002
 3.0012756E+000, 2.1249496E-001, 1.5314504E-002, 1.2987160E-002, 3.3291435E-004, 1.9018192E-004, 5.5832791E-004, 1.9291313E+002
 4.0054749E+000, 2.0568859E-001, 2.0844270E-002, 1.5558862E-002, 3.7977447E-004, 1.8547137E-004, 7.5126408E-004, 2.5043367E+002
 5.0046277E+000, 1.9744281E-001, 2.7595845E-002, 1.8662163E-002, 3.9877682E-004, 1.6574003E-004, 9.7863640E-004, 3.1067409E+002
 6.0029903E+000, 1.8904037E-001, 3.4527735E-002, 2.1813005E-002, 3.8138186E-004, 1.2630893E-004, 1.2041678E-003, 3.6473776E+002
 7.0039996E+000, 1.8142534E-001, 4.0816676E-002, 2.4668154E-002, 3.6195732E-004, 8.0938552E-005, 1.4079995E-003, 4.0586636E+002
 8.0059235E+000, 1.6906359E-001, 5.1006332E-002, 2.9306067E-002, 3.4292032E-004, 2.2802010E-005, 1.7409243E-003, 4.5588017E+002
 9.0068074E+000, 1.5839863E-001, 5.9737588E-002, 3.3319389E-002, 3.6760656E-004, 2.4183970E-006, 2.0349903E-003, 4.8279914E+002
 1.0006512E+001, 1.5084551E-001, 6.5896112E-002, 3.6166794E-002, 4.0241502E-004, 1.5051118E-007, 2.2461377E-003, 4.9950322E+002
 1.1006910E+001, 1.3990741E-001, 7.4807875E-002, 4.0291642E-002, 4.5746606E-004, 1.6415371E-007, 2.5526847E-003, 5.1615328E+002
 1.2005797E+001, 1.3362659E-001, 7.9925707E-002, 4.2660049E-002, 4.8865910E-004, 9.5791857E-008, 2.7286376E-003, 5.2009419E+002
 1.3000783E+001, 1.2520980E-001, 8.6782589E-002, 4.5834260E-002, 5.3150937E-004, 1.7021442E-007, 2.9646065E-003, 5.3219626E+002
 1.4005318E+001, 1.2030574E-001, 9.0777779E-002, 4.7683717E-002, 5.5646603E-004, 1.8724421E-007, 3.1020926E-003, 5.3490602E+002
 1.5002058E+001, 1.1517610E-001, 9.4957950E-002, 4.9617933E-002, 5.8166988E-004, 1.2641049E-007, 3.2457496E-003, 5.3357281E+002
 1.6002079E+001, 1.1045730E-001, 9.8802813E-002, 5.1397362E-002, 6.0523087E-004, 1.5621766E-007, 3.3779645E-003, 5.4010627E+002
 1.7004723E+001, 1.0495426E-001, 1.0328399E-001, 5.3473229E-002, 6.3471904E-004, 3.8537301E-007, 3.5324956E-003, 5.3692687E+002
 1.8004169E+001, 9.9236147E-002, 1.0793510E-001, 5.5631580E-002, 6.6925062E-004, 1.0728257E-006, 3.6937279E-003, 5.4405672E+002
 1.9006782E+001, 9.7444478E-002, 1.0940214E-001, 5.6305284E-002, 6.7277008E-004, 7.9560395E-007, 3.7430028E-003, 5.3717605E+002
 2.0005970E+001, 9.1422828E-002, 1.1427305E-001, 5.8585209E-002, 7.2932657E-004, 4.2443780E-006, 3.9162276E-003, 5.4231857E+002
 2.1005451E+001, 9.2129942E-002, 1.1371822E-001, 5.8313035E-002, 7.0988586E-004, 2.1948215E-006, 3.8937090E-003, 5.3914421E+002
 2.2007371E+001, 8.3570772E-002, 1.2065469E-001, 6.1550216E-002, 7.8046342E-004, 6.8770485E-006, 4.1382553E-003, 5.4392945E+002
 2.3001863E+001, 8.1589031E-002, 1.2223185E-001, 6.2306951E-002, 8.1807914E-004, 1.2554672E-005, 4.1984830E-003, 5.4291451E+002
 2.4000679E+001, 7.5884007E-002, 1.2687688E-001, 6.4459465E-002, 8.4940876E-004, 1.0812310E-005, 4.3588279E-003, 5.5007114E+002
 2.5005214E+001, 7.3716608E-002, 1.2863841E-001, 6.5277820E-002, 8.6344201E-004, 1.2020880E-005, 4.4200971E-003, 5.4602977E+002
 2.6005893E+001, 7.4020635E-002, 1.2842141E-001, 6.5155029E-002, 8.3882229E-004, 1.0343493E-005, 4.4076412E-003, 5.4714107E+002
 2.7003593E+001, 6.6780025E-002, 1.3430252E-001, 6.7890343E-002, 8.8892005E-004, 1.1287888E-005, 4.6128917E-003, 5.4646827E+002
 2.8007364E+001, 6.5692768E-002, 1.3517971E-001, 6.8302574E-002, 9.0081808E-004, 1.2275715E-005, 4.6444547E-003, 5.4319488E+002
 2.9004222E+001, 5.9191239E-002, 1.4043694E-001, 7.0765005E-002, 9.6360010E-004, 1.3889173E-005, 4.8317911E-003, 5.4999506E+002
 3.0002387E+001, 5.9634941E-002, 1.4009398E-001, 7.0592681E-002, 9.4733819E-004, 1.3458707E-005, 4.8169613E-003, 5.4205601E+002
 3.1002252E+001, 5.6138555E-002, 1.4293759E-001, 7.1912602E-002, 9.6880017E-004, 1.3292975E-005, 4.9156113E-003, 5.4474111E+002
 3.2002194E+001, 5.2774721E-002, 1.4567211E-001, 7.3182727E-002, 9.9031668E-004, 1.3861038E-005, 5.0106651E-003, 5.4477721E+002
 3.3000504E+001, 5.3564467E-002, 1.4504740E-001, 7.2880139E-002, 9.7245590E-004, 1.1474169E-005, 4.9861739E-003, 5.4566032E+002
 3.4008834E+001, 4.7823299E-002, 1.4968262E-001, 7.5056399E-002, 1.0331949E-003, 1.3884003E-005, 5.1525005E-003, 5.4854838E+002
 3.5004281E+001, 4.4270589E-002, 1.5253991E-001, 7.6405980E-002, 1.0790488E-003, 1.6314974E-005, 5.2568326E-003, 5.5191601E+002
 3.6006873E+001, 4.2541965E-002, 1.5397702E-001, 7.7050491E-002, 1.0663931E-003, 1.3023042E-005, 5.3016495E-003, 5.5265845E+002
 3.7000534E+001, 4.1499239E-002, 1.5481869E-001, 7.7445493E-002, 1.0772650E-003, 1.5616927E-005, 5.3318174E-003, 5.4700656E+002
 3.8005435E+001, 3.8569561E-002, 1.5719428E-001, 7.8553557E-002, 1.1007950E-003, 1.4515703E-005, 5.4154317E-003, 5.5102083E+002
 3.9001894E+001, 3.5147137E-002, 1.5992437E-001, 7.9859481E-002, 1.1617142E-003, 1.8810419E-005, 5.5187874E-003, 5.5380409E+002
 4.0004519E+001, 3.2528080E-002, 1.6210005E-001, 8.0836205E-002, 1.1435885E-003, 1.5545036E-005, 5.5868584E-003, 5.5255870E+002
 4.1003125E+001, 3.2243865E-002, 1.6236505E-001, 8.0934253E-002, 1.1196075E-003, 1.5570508E-005, 5.5904809E-003, 5.5534676E+002
 4.2005786E+001, 2.7907769E-002, 1.6585385E-001, 8.2581274E-002, 1.1747019E-003, 1.6761849E-005, 5.7176810E-003, 5.5931176E+002
 4.3001995E+001, 2.5469061E-002, 1.6779950E-001, 8.3512095E-002, 1.2182422E-003, 1.7502001E-005, 5.7913659E-003, 5.5821656E+002
 4.4007115E+001, 2.2165589E-002, 1.7047687E-001, 8.4761675E-002, 1.2455560E-003, 1.7788250E-005, 5.8857724E-003, 5.6284213E+002
 4.5002756E+001, 2.2443793E-002, 1.7024930E-001, 8.4656944E-002, 1.2447785E-003, 1.8231577E-005, 5.8780792E-003, 5.5825492E+002
 4.6002110E+001, 1.7397808E-002, 1.7430709E-001, 8.6574369E-002, 1.3107191E-003, 1.8488640E-005, 6.0264233E-003, 5.6441666E+002
 4.7004629E+001, 1.8400099E-002, 1.7350051E-001, 8.6193593E-002, 1.2979841E-003, 1.8938110E-005, 5.9970164E-003, 5.6227698E+002
 4.8004180E+001, 1.6930328E-002, 1.7458890E-001, 8.6777721E-002, 1.3883707E-003, 1.8377783E-005, 6.0523935E-003, 5.6309942E+002
 4.9006644E+001, 1.5383075E-002, 1.7586870E-001, 8.7355137E-002, 1.3807532E-003, 2.4121449E-005, 6.0930876E-003, 5.5594463E+002
 5.0007390E+001, 1.2115853E-002, 1.7801270E-001, 8.8727829E-002, 1.7900026E-003, 2.9709836E-005, 6.2517464E-003, 5.6549209E+002
 5.1002271E+001, 1.3656812E-002, 1.7728394E-001, 8.8004741E-002, 1.3837840E-003, 1.7127382E-005, 6.1405443E-003, 5.6204003E+002
 5.2005868E+001, 9.4522358E-003, 1.8049497E-001, 8.9648230E-002, 1.5673652E-003, 2.1883624E-005, 6.2861068E-003, 5.6637716E+002
 5.3000034E+001, 9.1230914E-003, 1.8037177E-001, 8.9877856E-002, 1.8650968E-003, 3.1160796E-005, 6.3458703E-003, 5.6285295E+002
 5.4006667E+001, 8.7766844E-003, 1.8074622E-001, 8.9983686E-002, 1.7971324E-003, 2.8583941E-005, 6.3436822E-003, 5.6222580E+002
 5.5004921E+001, 1.0201204E-002, 1.7975413E-001, 8.9400253E-002, 1.6616656E-003, 3.0140232E-005, 6.2818242E-003, 5.5354930E+002
 5.6000412E+001, 9.0177944E-003, 1.8085374E-001, 8.9811072E-002, 1.5662197E-003, 1.9641916E-005, 6.2977269E-003, 5.6062380E+002
 5.7003736E+001, 7.4522526E-003, 1.8185516E-001, 9.0475838E-002, 1.7819534E-003, 2.2695065E-005, 6.3771040E-003, 5.5992103E+002
 5.8010039E+001, 5.0877946E-003, 1.8028747E-001, 9.2267390E-002, 4.3951670E-003, 3.9632253E-004, 6.8855721E-003, 5.5345907E+002
 5.9006800E+001, 4.1119453E-003, 1.8207183E-001, 9.2403367E-002, 3.6863379E-003, 1.3310713E-004, 6.7925991E-003, 5.5778933E+002
 6.0002374E+001, 5.3871065E-003, 1.8186882E-001, 9.1700583E-002, 3.0509656E-003, 8.9513180E-005, 6.6496513E-003, 5.5317923E+002
 6.1005346E+001, 4.9999825E-003, 1.8169926E-001, 9.1978598E-002, 3.4210936E-003, 9.2095220E-005, 6.7234039E-003, 5.5503230E+002
 6.2004456E+001, 4.2160257E-003, 1.8105177E-001, 9.2599047E-002, 4.3761547E-003, 2.7420538E-004, 6.9067714E-003, 5.4789825E+002
 6.3000324E+001, 5.0352671E-003, 1.8104994E-001, 9.2125987E-002, 3.8837909E-003, 1.5243269E-004, 6.8011387E-003, 5.4798939E+002
 6.4002479E+001, 3.6786891E-003, 1.8043854E-001, 9.3081117E-002, 5.1700823E-003, 3.2608338E-004, 7.0567199E-003, 5.4552078E+002
 6.5002727E+001, 3.7821916E-003, 1.7981094E-001, 9.3170858E-002, 5.5628668E-003, 4.6123636E-004, 7.1201843E-003, 5.4612144E+002
 6.6002036E+001, 2.7656503E-003, 1.8185542E-001, 9.3259664E-002, 4.6812062E-003, 2.0184533E-004, 6.9987570E-003, 5.5097245E+002
 6.7001435E+001, 3.0793133E-003, 1.8016657E-001, 9.3485986E-002, 5.7221536E-003, 5.2476945E-004, 7.1661008E-003, 5.4536379E+002
 6.8000722E+001, 5.0511626E-003, 1.8035617E-001, 9.2298616E-002, 4.3938516E-003, 2.0254269E-004, 6.8875584E-003, 5.4746340E+002
 6.9007232E+001, 2.5888665E-003, 1.8023357E-001, 9.3797016E-002, 6.0126637E-003, 2.8079219E-004, 7.2306013E-003, 5.4693406E+002
 7.0000851E+001, 1.9632738E-003, 1.7888782E-001, 9.4467747E-002, 7.3540971E-003, 7.7688308E-004, 7.4737249E-003, 5.3913356E+002
 7.1002530E+001, 2.7539723E-003, 1.7899838E-001, 9.3980606E-002, 6.7936282E-003, 6.5864200E-004, 7.3572067E-003, 5.4179617E+002
 7.2005127E+001, 1.8334194E-003, 1.7756533E-001, 9.4885135E-002, 8.4186568E-003, 9.2566234E-004, 7.6582450E-003, 5.3782726E+002
 7.3000377E+001, 2.2206396E-003, 1.7953725E-001, 9.4173692E-002, 6.7374751E-003, 5.1723694E-004, 7.3629861E-003, 5.4210360E+002
 7.4002999E+001, 1.9297705E-003, 1.7863948E-001, 9.4579166E-002, 7.5872791E-003, 6.1413259E-004, 7.5155056E-003, 5.3695602E+002
 7.5006718E+001, 1.2350449E-003, 1.7712717E-001, 9.5384135E-002, 9.1457783E-003, 7.8299422E-004, 7.7996557E-003, 5.3998696E+002
 7.6001176E+001, 1.7082432E-003, 1.7658802E-001, 9.5244043E-002, 9.2565509E-003, 8.0777150E-004, 7.8055759E-003, 5.3908967E+002
 7.7000898E+001, 1.0715124E-003, 1.7577026E-001, 9.5796582E-002, 1.0222974E-002, 1.1705686E-003, 7.9857517E-003, 5.3224953E+002
 7.8000591E+001, 1.1699798E-003, 1.7703078E-001, 9.5396463E-002, 9.2066294E-003, 1.1495094E-003, 7.8095223E-003, 5.3570992E+002
 7.9006637E+001, 1.5943196E-003, 1.7771761E-001, 9.5010765E-002, 8.4760416E-003, 7.6071413E-004, 7.6755821E-003, 5.3923497E+002
 8.0008608E+001, 9.6443105E-004, 1.7487142E-001, 9.6076023E-002, 1.0942729E-002, 1.3790674E-003, 8.1103537E-003, 5.3151963E+002
 8.1009857E+001, 1.0092459E-003, 1.7707021E-001, 9.5487470E-002, 9.2824032E-003, 1.1121309E-003, 7.8270726E-003, 5.3738702E+002
 8.2005537E+001, 1.1109716E-003, 1.7793677E-001, 9.5226892E-002, 8.5973607E-003, 8.5632203E-004, 7.7088451E-003, 5.3879382E+002
 8.3007957E+001, 8.3310380E-004, 1.7462851E-001, 9.6228122E-002, 1.1216353E-002, 1.3303303E-003, 8.1609875E-003, 5.3409591E+002
 8.4007330E+001, 7.2781987E-004, 1.7515842E-001, 9.6184461E-002, 1.0917264E-002, 1.0683211E-003, 8.1143794E-003, 5.3667761E+002
 8.5006209E+001, 7.8403591E-004, 1.7540777E-001, 9.6065960E-002, 1.0675952E-002, 1.1839735E-003, 8.0708880E-003, 5.3375295E+002
 8.6002329E+001, 6.2228811E-004, 1.7458101E-001, 9.6399446E-002, 1.1416017E-002, 1.1092791E-003, 8.2022228E-003, 5.3930172E+002
 8.7007997E+001, 6.5765602E-004, 1.7445185E-001, 9.6382397E-002, 1.1460978E-002, 1.3244007E-003, 8.2075957E-003, 5.3417732E+002
 8.8006047E+001, 5.6159634E-004, 1.7317263E-001, 9.6763525E-002, 1.2467371E-002, 1.5021246E-003, 8.3810758E-003, 5.3379859E+002
 8.9004797E+001, 5.2131127E-004, 1.7315404E-001, 9.6791847E-002, 1.2505740E-002, 1.5083985E-003, 8.3886879E-003, 5.3427737E+002
 9.0001102E+001, 5.0337152E-004, 1.7205496E-001, 9.7100181E-002, 1.3349705E-002, 1.5255355E-003, 8.5332958E-003, 5.3557352E+002
 9.1009585E+001, 5.0244904E-004, 1.7236465E-001, 9.7023226E-002, 1.3121971E-002, 1.4768381E-003, 8.4947081E-003, 5.3189657E+002
 9.2000245E+001, 4.4923884E-004, 1.7211900E-001, 9.7107505E-002, 1.3327178E-002, 1.5784256E-003, 8.5305846E-003, 5.3410598E+002
 9.3008415E+001, 4.4584722E-004, 1.7140080E-001, 9.7277496E-002, 1.3846963E-002, 1.7728539E-003, 8.6182845E-003, 5.3062916E+002
 9.4010411E+001, 4.1285428E-004, 1.7239897E-001, 9.7088967E-002, 1.3173215E-002, 1.3288724E-003, 8.5068278E-003, 5.3558166E+002
 9.5000858E+001, 5.0893886E-004, 1.7192501E-001, 9.7100094E-002, 1.3412748E-002, 1.7484019E-003, 8.5425195E-003, 5.3376638E+002
 9.6006306E+001, 4.9147771E-004, 1.7228753E-001, 9.7009190E-002, 1.3145750E-002, 1.7650217E-003, 8.4972614E-003, 5.3615841E+002
 9.7008633E+001, 4.8734570E-004, 1.7345725E-001, 9.6789516E-002, 1.2356618E-002, 1.0928646E-003, 8.3667342E-003, 5.3978726E+002
 9.8003425E+001, 4.1426098E-004, 1.7175985E-001, 9.7238006E-002, 1.3633429E-002, 1.4990222E-003, 8.5843694E-003, 5.3313677E+002
 9.9005146E+001, 4.0093871E-004, 1.7202774E-001, 9.7183238E-002, 1.3448547E-002, 1.4272342E-003, 8.5535866E-003, 5.3516176E+002
 1.0000117E+002, 4.5353174E-004, 1.7292234E-001, 9.6928906E-002, 1.2757307E-002, 1.2790288E-003, 8.4349596E-003, 5.3784377E+002
 1.0100073E+002, 3.4476824E-004, 1.7076265E-001, 9.7462496E-002, 1.4345184E-002, 2.1174071E-003, 8.7040109E-003, 5.3353815E+002
 1.0200676E+002, 3.7506696E-004, 1.7042826E-001, 9.7572262E-002, 1.4617040E-002, 1.8640028E-003, 8.7512364E-003, 5.3325640E+002
 1.0300819E+002, 3.6039956E-004, 1.7188485E-001, 9.7227992E-002, 1.3563871E-002, 1.5555928E-003, 8.5735905E-003, 5.3467873E+002
 1.0400494E+002, 4.0569128E-004, 1.7093928E-001, 9.7378000E-002, 1.4173176E-002, 2.1156734E-003, 8.6729717E-003, 5.3395730E+002
 1.0500501E+002, 3.9062358E-004, 1.7196582E-001, 9.7198341E-002, 1.3494052E-002, 1.4824598E-003, 8.5612968E-003, 5.3611658E+002
 1.0600963E+002, 3.9023617E-004, 1.7043878E-001, 9.7522109E-002, 1.4561380E-002, 2.1280988E-003, 8.7396552E-003, 5.3333751E+002
 1.0700305E+002, 4.4984547E-004, 1.7100849E-001, 9.7350878E-002, 1.4111272E-002, 1.9895002E-003, 8.6619851E-003, 5.3580668E+002
 1.0800528E+002, 4.1372564E-004, 1.7065339E-001, 9.7485110E-002, 1.4419312E-002, 1.8813925E-003, 8.7162867E-003, 5.3344813E+002
 1.0900475E+002, 3.8691578E-004, 1.7046836E-001, 9.7514909E-002, 1.4539856E-002, 2.1358053E-003, 8.7360187E-003, 5.3316244E+002
 1.1000654E+002, 3.8957766E-004, 1.6905724E-001, 9.7872814E-002, 1.5584823E-002, 2.3138544E-003, 8.9134071E-003, 5.3148303E+002
 1.1100024E+002, 3.5246335E-004, 1.7059130E-001, 9.7566485E-002, 1.4532440E-002, 1.6898581E-003, 8.7384857E-003, 5.4148784E+002
 1.1200802E+002, 4.3612769E-004, 1.6955094E-001, 9.7699390E-002, 1.5169845E-002, 2.3880747E-003, 8.8407597E-003, 5.3117788E+002
 1.1300838E+002, 4.3436040E-004, 1.7054587E-001, 9.7517031E-002, 1.4503086E-002, 1.7780785E-003, 8.7306908E-003, 5.3676318E+002
 1.1400825E+002, 4.5320462E-004, 1.7106940E-001, 9.7360377E-002, 1.4091036E-002, 1.7948712E-003, 8.6596569E-003, 5.3891653E+002
 1.1500566E+002, 4.3924356E-004, 1.7015451E-001, 9.7610087E-002, 1.4786583E-002, 1.8531703E-003, 8.7785348E-003, 5.3932827E+002
 1.1600710E+002, 3.9951202E-004, 1.6950417E-001, 9.7744302E-002, 1.5238438E-002, 2.3175965E-003, 8.8539187E-003, 5.3447488E+002
 1.1700984E+002, 3.8171288E-004, 1.6941156E-001, 9.7774155E-002, 1.5313825E-002, 2.3598057E-003, 8.8670206E-003, 5.3776421E+002
 1.1800249E+002, 4.3368371E-004, 1.6957092E-001, 9.7709744E-002, 1.5170533E-002, 2.2888706E-003, 8.8415662E-003, 5.3369553E+002
 1.1900152E+002, 4.1702776E-004, 1.6829426E-001, 9.8057013E-002, 1.6139872E-002, 2.3667189E-003, 9.0071838E-003, 5.3671971E+002
 1.2000339E+002, 3.9244684E-004, 1.6924647E-001, 9.7887165E-002, 1.5506982E-002, 1.8454384E-003, 8.9029659E-003, 5.3857939E+002
 1.2100875E+002, 4.0147872E-004, 1.6910873E-001, 9.7891969E-002, 1.5578623E-002, 2.0348144E-003, 8.9137753E-003, 5.3599281E+002
 1.2200677E+002, 3.7374149E-004, 1.6890504E-001, 9.7933486E-002, 1.5720001E-002, 2.2472811E-003, 8.9373559E-003, 5.3668227E+002
 1.2300798E+002, 3.4705180E-004, 1.6831965E-001, 9.8106133E-002, 1.6178358E-002, 2.2692101E-003, 9.0162736E-003, 5.3793895E+002
 1.2400459E+002, 3.5083257E-004, 1.6764528E-001, 9.8239937E-002, 1.6640432E-002, 2.6014191E-003, 9.0930517E-003, 5.3201523E+002
 1.2500264E+002, 3.6757505E-004, 1.6759857E-001, 9.8263068E-002, 1.6685899E-002, 2.4602202E-003, 9.1012529E-003, 5.3141510E+002
 1.2600956E+002, 3.5433659E-004, 1.6855761E-001, 9.8088690E-002, 1.6044876E-002, 1.9103423E-003, 8.9955165E-003, 5.3336526E+002
 1.2700562E+002, 3.5705613E-004, 1.6843681E-001, 9.8060230E-002, 1.6075154E-002, 2.3239779E-003, 8.9980213E-003, 5.3502531E+002
 1.2800766E+002, 3.5109291E-004, 1.6835514E-001, 9.8068782E-002, 1.6123617E-002, 2.4437538E-003, 9.0057136E-003, 5.3563466E+002
 1.2900894E+002, 3.5319894E-004, 1.6764765E-001, 9.8284504E-002, 1.6683801E-002, 2.2789158E-003, 9.1024225E-003, 5.3694899E+002
 1.3000366E+002, 3.9340421E-004, 1.6952824E-001, 9.7804636E-002, 1.5287220E-002, 1.8802158E-003, 8.8651658E-003, 5.3618516E+002
 1.3100215E+002, 3.9609761E-004, 1.6837026E-001, 9.8047056E-002, 1.6093424E-002, 2.3788649E-003, 8.9997384E-003, 5.3596868E+002
 1.3200192E+002, 3.9071803E-004, 1.6935234E-001, 9.7782681E-002, 1.5350964E-002, 2.3753075E-003, 8.8730255E-003, 5.3758761E+002
 1.3300620E+002, 6.4042548E-004, 1.7168999E-001, 9.7091337E-002, 1.3515192E-002, 1.7075147E-003, 8.5567112E-003, 5.4398505E+002
 1.3400991E+002, 4.2725251E-004, 1.7124614E-001, 9.7339279E-002, 1.3984517E-002, 1.7146866E-003, 8.6426617E-003, 5.4512396E+002
 1.3500860E+002, 3.8327997E-004, 1.6836225E-001, 9.8086192E-002, 1.6136781E-002, 2.1764614E-003, 9.0087663E-003, 5.3628277E+002
 1.3600782E+002, 3.8294045E-004, 1.6907209E-001, 9.7931139E-002, 1.5636097E-002, 1.9099650E-003, 8.9248843E-003, 5.3786493E+002
 1.3700336E+002, 4.2394388E-004, 1.7090987E-001, 9.7434729E-002, 1.4243793E-002, 1.7031901E-003, 8.6871323E-003, 5.3812939E+002
 1.3800578E+002, 3.9457942E-004, 1.6891447E-001, 9.7901822E-002, 1.5683228E-002, 2.3620616E-003, 8.9297854E-003, 5.3632378E+002
 1.3900400E+002, 3.5851929E-004, 1.7026869E-001, 9.7612706E-002, 1.4735590E-002, 1.9541932E-003, 8.7713794E-003, 5.4485800E+002
 1.4000157E+002, 3.7539191E-004, 1.6872038E-001, 9.7964217E-002, 1.5840604E-002, 2.3765580E-003, 8.9571101E-003, 5.4066705E+002
 1.4100909E+002, 3.5580005E-004, 1.6848820E-001, 9.8065127E-002, 1.6055063E-002, 2.1982892E-003, 8.9954108E-003, 5.3738153E+002
 1.4200896E+002, 3.3407893E-004, 1.6858766E-001, 9.8069303E-002, 1.6011349E-002, 2.0716842E-003, 8.9893249E-003, 5.4219122E+002
 1.4300214E+002, 3.5946907E-004, 1.6812391E-001, 9.8126054E-002, 1.6293279E-002, 2.4495248E-003, 9.0344440E-003, 5.3571918E+002
 1.4400818E+002, 4.0332442E-004, 1.7009007E-001, 9.7654391E-002, 1.4863153E-002, 1.8173777E-003, 8.7928205E-003, 5.4180240E+002
 1.4500398E+002, 3.6338179E-004, 1.6830998E-001, 9.8058389E-002, 1.6134909E-002, 2.5499493E-003, 9.0066431E-003, 5.3824338E+002
 1.4600436E+002, 3.9204110E-004, 1.6881047E-001, 9.7960056E-002, 1.5792175E-002, 2.1662098E-003, 8.9497017E-003, 5.3909897E+002
 1.4700923E+002, 3.9564698E-004, 1.6938531E-001, 9.7814844E-002, 1.5366963E-002, 2.0701825E-003, 8.8775403E-003, 5.3930763E+002
 1.4800554E+002, 3.9925842E-004, 1.6802891E-001, 9.8115844E-002, 1.6328342E-002, 2.5345230E-003, 9.0388218E-003, 5.3609794E+002
 1.4900995E+002, 3.8111451E-004, 1.6784489E-001, 9.8160873E-002, 1.6463420E-002, 2.6457758E-003, 9.0617004E-003, 5.3595457E+002
 1.5000174E+002, 3.9861511E-004, 1.6760009E-001, 9.8244967E-002, 1.6666296E-002, 2.4538344E-003, 9.0970997E-003, 5.3376205E+002
 1.5100299E+002, 3.8503136E-004, 1.6792393E-001, 9.8162110E-002, 1.6426083E-002, 2.4717597E-003, 9.0563054E-003, 5.3531682E+002
 1.5200482E+002, 3.8017987E-004, 1.6766029E-001, 9.8259721E-002, 1.6652194E-002, 2.3145745E-003, 9.0960645E-003, 5.3364400E+002
 1.5300087E+002, 4.1876548E-004, 1.6978553E-001, 9.7718743E-002, 1.5075418E-002, 1.8833059E-003, 8.8282620E-003, 5.4323281E+002
 1.5400703E+002, 3.9881160E-004, 1.6783074E-001, 9.8211779E-002, 1.6520796E-002, 2.2470555E-003, 9.0735270E-003, 5.3570897E+002
