s,,,,,,,
Time,"O2 EXHAUST","CO2 EXHAUST","H2O EXHAUST","CO EXHAUST","FUEL EXHAUST","SOOT EXHAUST","TEMP EXHAUST"
 0.0000000E+000, 2.3099739E-001, 5.9146498E-004, 5.9412092E-003, 0.0000000E+000, 0.0000000E+000, 0.0000000E+000, 2.0000000E+001
 1.0018932E+000, 2.3099739E-001, 5.9146498E-004, 5.9412092E-003, 9.8436825E-024, 1.1447887E-023, 2.3952886E-023, 2.2443745E+001
 2.0007803E+000, 2.2087946E-001, 8.6836319E-003, 9.7815940E-003, 1.4945457E-004, 1.1412603E-004, 2.9968381E-004, 1.1828801E+002
 3.0001404E+000, 2.1247305E-001, 1.5331322E-002, 1.2995639E-002, 3.3374401E-004, 1.9062995E-004, 5.5906205E-004, 1.9307736E+002
 4.0057941E+000, 2.0536838E-001, 2.1113124E-002, 1.5677562E-002, 3.7545406E-004, 1.8466392E-004, 7.5922966E-004, 2.5255333E+002
 5.0031484E+000, 2.0091547E-001, 2.4728266E-002, 1.7359236E-002, 4.0656379E-004, 1.9198518E-004, 8.8546562E-004, 2.8947202E+002
 6.0012504E+000, 1.9073269E-001, 3.3116196E-002, 2.1181627E-002, 3.9561132E-004, 1.4098206E-004, 1.1605346E-003, 3.5080658E+002
 7.0066410E+000, 1.7664625E-001, 4.4737418E-002, 2.6465032E-002, 3.6750563E-004, 6.6983243E-005, 1.5388615E-003, 4.2261318E+002
 8.0029330E+000, 1.6709993E-001, 5.2610206E-002, 3.0045820E-002, 3.5010049E-004, 2.0544592E-005, 1.7955095E-003, 4.5624460E+002
 9.0011760E+000, 1.5660454E-001, 6.1202505E-002, 3.3995304E-002, 3.7443217E-004, 9.1169228E-007, 2.0849037E-003, 4.9179090E+002
 1.0002323E+001, 1.4863819E-001, 6.7694801E-002, 3.6999120E-002, 4.1331301E-004, 1.1455765E-007, 2.3079633E-003, 5.0029948E+002
 1.1006717E+001, 1.3686632E-001, 7.7285306E-002, 4.1438535E-002, 4.7298103E-004, 1.9787659E-007, 2.6379487E-003, 5.2186918E+002
 1.2005285E+001, 1.3082765E-001, 8.2206002E-002, 4.3715578E-002, 5.0283365E-004, 1.5170020E-007, 2.8070942E-003, 5.3320497E+002
 1.3007825E+001, 1.2505824E-001, 8.6906662E-002, 4.5891259E-002, 5.3182945E-004, 1.2926633E-007, 2.9687787E-003, 5.3107761E+002
 1.4007170E+001, 1.2010805E-001, 9.0940133E-002, 4.7757929E-002, 5.5649685E-004, 1.0843276E-007, 3.1074688E-003, 5.3352750E+002
 1.5000480E+001, 1.1411895E-001, 9.5817336E-002, 5.0017084E-002, 5.8841678E-004, 3.7344371E-007, 3.2756191E-003, 5.3918113E+002
 1.6006971E+001, 1.0982745E-001, 9.9314882E-002, 5.1635162E-002, 6.0921431E-004, 3.0299543E-007, 3.3957545E-003, 5.3699809E+002
 1.7002076E+001, 1.0614221E-001, 1.0231890E-001, 5.3024519E-002, 6.2666094E-004, 1.1626271E-007, 3.4988487E-003, 5.3910291E+002
 1.8001119E+001, 1.0069089E-001, 1.0675981E-001, 5.5080398E-002, 6.5449477E-004, 1.7247621E-007, 3.6516932E-003, 5.4006502E+002
 1.9007642E+001, 9.6732721E-002, 1.0998168E-001, 5.6573826E-002, 6.7665673E-004, 5.4371374E-007, 3.7630038E-003, 5.3805796E+002
 2.0002465E+001, 9.3298593E-002, 1.1276933E-001, 5.7871425E-002, 7.0151180E-004, 2.2610974E-006, 3.8605305E-003, 5.3909441E+002
 2.1007262E+001, 8.7484614E-002, 1.1748294E-001, 6.0069945E-002, 7.4814257E-004, 4.6419303E-006, 4.0264243E-003, 5.4602991E+002
 2.2000076E+001, 8.4882695E-002, 1.1959297E-001, 6.1053653E-002, 7.6854622E-004, 5.9707332E-006, 4.1005853E-003, 5.4554172E+002
 2.3000577E+001, 8.0230487E-002, 1.2334701E-001, 6.2817337E-002, 8.1894649E-004, 1.0256527E-005, 4.2355512E-003, 5.4794236E+002
 2.4000619E+001, 7.7012602E-002, 1.2595532E-001, 6.4034421E-002, 8.4528065E-004, 1.0803320E-005, 4.3274636E-003, 5.4300633E+002
 2.5008453E+001, 7.6514039E-002, 1.2637020E-001, 6.4220081E-002, 8.4121138E-004, 1.0680415E-005, 4.3403127E-003, 5.4056322E+002
 2.6000460E+001, 7.1515686E-002, 1.3042095E-001, 6.6110583E-002, 8.8248391E-004, 1.2937215E-005, 4.4831347E-003, 5.4458565E+002
 2.7001761E+001, 6.8763464E-002, 1.3267446E-001, 6.7145633E-002, 8.8806821E-004, 1.1491421E-005, 4.5588636E-003, 5.4359540E+002
 2.8004331E+001, 6.4270295E-002, 1.3633468E-001, 6.8840155E-002, 9.1107139E-004, 1.1807643E-005, 4.6848521E-003, 5.4936948E+002
 2.9002773E+001, 6.0117815E-002, 1.3966407E-001, 7.0420255E-002, 9.7234283E-004, 1.5460261E-005, 4.8081044E-003, 5.4508514E+002
 3.0008719E+001, 5.8987011E-002, 1.4063737E-001, 7.0832991E-002, 9.3902297E-004, 1.2072126E-005, 4.8331504E-003, 5.4714488E+002
 3.1007454E+001, 5.3082005E-002, 1.4539601E-001, 7.3073807E-002, 1.0082662E-003, 1.4332877E-005, 5.0053820E-003, 5.5049083E+002
 3.2006971E+001, 5.2489500E-002, 1.4590711E-001, 7.3289679E-002, 9.8986939E-004, 1.3108233E-005, 5.0183415E-003, 5.4664608E+002
 3.3001174E+001, 5.0617085E-002, 1.4739939E-001, 7.4004570E-002, 1.0242781E-003, 1.5141227E-005, 5.0750741E-003, 5.4701197E+002
 3.4002141E+001, 4.7125270E-002, 1.5025847E-001, 7.5317773E-002, 1.0313796E-003, 1.3286264E-005, 5.1711564E-003, 5.4577570E+002
 3.5000184E+001, 4.6702431E-002, 1.5059899E-001, 7.5478225E-002, 1.0364450E-003, 1.3922836E-005, 5.1835047E-003, 5.4905159E+002
 3.6000470E+001, 3.9849501E-002, 1.5616364E-001, 7.8067269E-002, 1.0848056E-003, 1.6476415E-005, 5.3779166E-003, 5.5600617E+002
 3.7003023E+001, 3.8467022E-002, 1.5727021E-001, 7.8593787E-002, 1.1065803E-003, 1.8090354E-005, 5.4191834E-003, 5.5745803E+002
 3.8002281E+001, 3.6300513E-002, 1.5904361E-001, 7.9408932E-002, 1.1116028E-003, 1.5399325E-005, 5.4789130E-003, 5.5862047E+002
 3.9000947E+001, 3.4727366E-002, 1.6030476E-001, 8.0007723E-002, 1.1350750E-003, 1.5876931E-005, 5.5256566E-003, 5.5260817E+002
 4.0010085E+001, 3.0905115E-002, 1.6340247E-001, 8.1453550E-002, 1.1667500E-003, 1.6351499E-005, 5.6349002E-003, 5.5860091E+002
 4.1003441E+001, 3.0857802E-002, 1.6343272E-001, 8.1473635E-002, 1.1732722E-003, 1.6508964E-005, 5.6372991E-003, 5.5602423E+002
 4.2004877E+001, 2.7120543E-002, 1.6644108E-001, 8.2892093E-002, 1.2189886E-003, 2.2550885E-005, 5.7465984E-003, 5.5699016E+002
 4.3008552E+001, 2.2454248E-002, 1.7024535E-001, 8.4651623E-002, 1.2411201E-003, 1.9130409E-005, 5.8771644E-003, 5.6657305E+002
 4.4008337E+001, 2.1441286E-002, 1.7104351E-001, 8.5040856E-002, 1.2666736E-003, 2.0338338E-005, 5.9090414E-003, 5.6590498E+002
 4.5005686E+001, 2.0424415E-002, 1.7190560E-001, 8.5415034E-002, 1.2461385E-003, 2.1174826E-005, 5.9331506E-003, 5.6218901E+002
 4.6002049E+001, 1.7433356E-002, 1.7428223E-001, 8.6559578E-002, 1.3071548E-003, 2.0327559E-005, 6.0248370E-003, 5.6488502E+002
 4.7005128E+001, 1.8972142E-002, 1.7304746E-001, 8.5974270E-002, 1.2851637E-003, 1.9246470E-005, 5.9792837E-003, 5.6104525E+002
 4.8007305E+001, 1.6103558E-002, 1.7533159E-001, 8.7070297E-002, 1.3396894E-003, 2.0780182E-005, 6.0665187E-003, 5.6321525E+002
 4.9003029E+001, 1.3825342E-002, 1.7714345E-001, 8.7941508E-002, 1.3848050E-003, 2.0902525E-005, 6.1361169E-003, 5.6491879E+002
 5.0003973E+001, 1.3098318E-002, 1.7764258E-001, 8.8240964E-002, 1.4591421E-003, 2.2001637E-005, 6.1685637E-003, 5.6106717E+002
 5.1002148E+001, 1.1845125E-002, 1.7868234E-001, 8.8708569E-002, 1.4513464E-003, 2.1114551E-005, 6.2012806E-003, 5.6361590E+002
 5.2000178E+001, 1.0691542E-002, 1.7936079E-001, 8.9214855E-002, 1.6557101E-003, 2.1879643E-005, 6.2675379E-003, 5.6349546E+002
 5.3006395E+001, 9.0846481E-003, 1.8064685E-001, 8.9826991E-002, 1.6812301E-003, 2.2960430E-005, 6.3155445E-003, 5.6757007E+002
 5.4001857E+001, 7.4643998E-003, 1.8162870E-001, 9.0529180E-002, 1.9452692E-003, 3.1002495E-005, 6.4046315E-003, 5.6327628E+002
 5.5002441E+001, 7.9249675E-003, 1.8169828E-001, 9.0234452E-002, 1.6053014E-003, 2.8260251E-005, 6.3340389E-003, 5.6432800E+002
 5.6002120E+001, 6.0140447E-003, 1.8193534E-001, 9.1313469E-002, 2.6160025E-003, 4.1652876E-005, 6.5585882E-003, 5.6459061E+002
 5.7007302E+001, 6.5419672E-003, 1.8204927E-001, 9.0965570E-002, 2.1996114E-003, 4.3630145E-005, 6.4730760E-003, 5.5926073E+002
 5.8001023E+001, 5.7184832E-003, 1.8272923E-001, 9.1273983E-002, 2.1972302E-003, 4.1317413E-005, 6.4950540E-003, 5.5854126E+002
 5.9003366E+001, 4.4587165E-003, 1.8221866E-001, 9.2166107E-002, 3.3690344E-003, 5.8911989E-005, 6.7294194E-003, 5.5745055E+002
 6.0006433E+001, 4.8784408E-003, 1.8288810E-001, 9.1733015E-002, 2.5996155E-003, 4.9852152E-005, 6.5865856E-003, 5.5468226E+002
 6.1004301E+001, 4.9042467E-003, 1.8110991E-001, 9.2184556E-002, 3.9163884E-003, 1.7740436E-004, 6.8101119E-003, 5.5061059E+002
 6.2004922E+001, 3.0335929E-003, 1.8255912E-001, 9.2917778E-002, 3.9900598E-003, 1.2668252E-004, 6.8738375E-003, 5.5351830E+002
 6.3005228E+001, 5.9064992E-003, 1.8118745E-001, 9.1574713E-002, 3.2440745E-003, 9.2917153E-005, 6.6685214E-003, 5.5030188E+002
 6.4008448E+001, 2.6551422E-003, 1.8114624E-001, 9.3515064E-002, 5.2846598E-003, 2.3272836E-004, 7.1046914E-003, 5.4899865E+002
 6.5001475E+001, 3.0452932E-003, 1.8217809E-001, 9.3017112E-002, 4.2746411E-003, 1.1058677E-004, 6.9222537E-003, 5.5179555E+002
 6.6008768E+001, 2.0602104E-003, 1.8197235E-001, 9.3646938E-002, 5.0289390E-003, 2.2773720E-004, 7.0771834E-003, 5.4409923E+002
 6.7004545E+001, 3.1839359E-003, 1.8100873E-001, 9.3242419E-002, 5.0659385E-003, 1.8538136E-004, 7.0532455E-003, 5.4818599E+002
 6.8000607E+001, 1.9672946E-003, 1.8116655E-001, 9.3896219E-002, 5.6728793E-003, 4.1041106E-004, 7.1886063E-003, 5.4564441E+002
 6.9001365E+001, 1.9799483E-003, 1.8022010E-001, 9.4159795E-002, 6.3970139E-003, 3.2206217E-004, 7.3125668E-003, 5.4522626E+002
 7.0008273E+001, 1.5082050E-003, 1.8159025E-001, 9.4078071E-002, 5.6597410E-003, 2.5630832E-004, 7.1997995E-003, 5.4584817E+002
 7.1008615E+001, 1.3261840E-003, 1.7945713E-001, 9.4712746E-002, 7.3375933E-003, 6.4920358E-004, 7.4890126E-003, 5.3963318E+002
 7.2004854E+001, 1.4029431E-003, 1.7972470E-001, 9.4589269E-002, 7.0819290E-003, 6.7968073E-004, 7.4430448E-003, 5.4209816E+002
 7.3003979E+001, 1.4682836E-003, 1.8031094E-001, 9.4434248E-002, 6.6398465E-003, 3.7400123E-004, 7.3676390E-003, 5.4356073E+002
 7.4001689E+001, 1.3084299E-003, 1.7959915E-001, 9.4703789E-002, 7.2599231E-003, 5.1660898E-004, 7.4770536E-003, 5.4040438E+002
 7.5002380E+001, 1.0133968E-003, 1.7944147E-001, 9.4937196E-002, 7.5773911E-003, 4.2342415E-004, 7.5399063E-003, 5.4118623E+002
 7.6002718E+001, 1.2107283E-003, 1.7801570E-001, 9.5158493E-002, 8.4880725E-003, 7.6670768E-004, 7.6880209E-003, 5.3759182E+002
 7.7004897E+001, 9.5962646E-004, 1.7770317E-001, 9.5420964E-002, 8.9089295E-003, 5.8274166E-004, 7.7679183E-003, 5.3826255E+002
 7.8003827E+001, 1.1826461E-003, 1.7663054E-001, 9.5514663E-002, 9.5194151E-003, 1.0352087E-003, 7.8633485E-003, 5.3566148E+002
 7.9000831E+001, 1.6878574E-003, 1.7761615E-001, 9.4990548E-002, 8.5029223E-003, 7.0424047E-004, 7.6779892E-003, 5.3628115E+002
 8.0004163E+001, 1.4602446E-003, 1.7755969E-001, 9.5129921E-002, 8.6753977E-003, 7.9072108E-004, 7.7131046E-003, 5.4014446E+002
 8.1006824E+001, 1.1131243E-003, 1.7651280E-001, 9.5598566E-002, 9.6623715E-003, 9.6552274E-004, 7.8901047E-003, 5.3568107E+002
 8.2009402E+001, 9.2625352E-004, 1.7639385E-001, 9.5762128E-002, 9.8884690E-003, 8.3376619E-004, 7.9346465E-003, 5.3470927E+002
 8.3002686E+001, 8.0965019E-004, 1.7587185E-001, 9.5957281E-002, 1.0340675E-002, 9.5316710E-004, 8.0143439E-003, 5.3853976E+002
 8.4002827E+001, 9.2395343E-004, 1.7801924E-001, 9.5347010E-002, 8.6819412E-003, 6.4533449E-004, 7.7297038E-003, 5.4391761E+002
 8.5002217E+001, 6.9419481E-004, 1.7443401E-001, 9.6324300E-002, 1.1410653E-002, 1.6083676E-003, 8.1962210E-003, 5.3256716E+002
 8.6000800E+001, 6.0490344E-004, 1.7350037E-001, 9.6639475E-002, 1.2182664E-002, 1.5616901E-003, 8.3308710E-003, 5.3193260E+002
 8.7004659E+001, 5.7711328E-004, 1.7316114E-001, 9.6772544E-002, 1.2481609E-002, 1.3971193E-003, 8.3837465E-003, 5.3139703E+002
 8.8004878E+001, 5.9719691E-004, 1.7453911E-001, 9.6383392E-002, 1.1420968E-002, 1.4034471E-003, 8.2019047E-003, 5.3191625E+002
 8.9003673E+001, 6.1332098E-004, 1.7551211E-001, 9.6186721E-002, 1.0750130E-002, 8.5964446E-004, 8.0902373E-003, 5.3999754E+002
 9.0003892E+001, 4.9121090E-004, 1.7396283E-001, 9.6653230E-002, 1.1974051E-002, 1.0647972E-003, 8.3014271E-003, 5.3935188E+002
 9.1006093E+001, 5.4957342E-004, 1.7350856E-001, 9.6683955E-002, 1.2224522E-002, 1.4680113E-003, 8.3401152E-003, 5.3212236E+002
 9.2000942E+001, 4.6322638E-004, 1.7386247E-001, 9.6657614E-002, 1.2027981E-002, 1.3399949E-003, 8.3096766E-003, 5.3509380E+002
 9.3003724E+001, 4.6687296E-004, 1.7464415E-001, 9.6493153E-002, 1.1482812E-002, 9.8639899E-004, 8.2186308E-003, 5.3659091E+002
 9.4003694E+001, 5.3986779E-004, 1.7568697E-001, 9.6150579E-002, 1.0630642E-002, 1.0840044E-003, 8.0704050E-003, 5.4170493E+002
 9.5006012E+001, 4.4988401E-004, 1.7261474E-001, 9.6959783E-002, 1.2938041E-002, 1.6613776E-003, 8.4635456E-003, 5.3304827E+002
 9.6002674E+001, 4.7675620E-004, 1.7415802E-001, 9.6548471E-002, 1.1774583E-002, 1.4806942E-003, 8.2651221E-003, 5.3791886E+002
 9.7002130E+001, 4.9761598E-004, 1.7142237E-001, 9.7201196E-002, 1.3758871E-002, 2.0451637E-003, 8.6001150E-003, 5.3089340E+002
 9.8007912E+001, 5.0031533E-004, 1.7315066E-001, 9.6819549E-002, 1.2535610E-002, 1.4102459E-003, 8.3949787E-003, 5.3175449E+002
 9.9008691E+001, 4.8129885E-004, 1.7214422E-001, 9.7037102E-002, 1.3243691E-002, 1.8847746E-003, 8.5135239E-003, 5.3378358E+002
 1.0000286E+002, 4.9911853E-004, 1.7193496E-001, 9.7096001E-002, 1.3404049E-002, 1.7986447E-003, 8.5409845E-003, 5.3499033E+002
 1.0100674E+002, 4.5064820E-004, 1.7255352E-001, 9.6975748E-002, 1.2983798E-002, 1.6633870E-003, 8.4713318E-003, 5.3313890E+002
 1.0200048E+002, 4.0705949E-004, 1.7136858E-001, 9.7283002E-002, 1.3869108E-002, 1.9564411E-003, 8.6219706E-003, 5.3008129E+002
 1.0300345E+002, 5.0430143E-004, 1.7150877E-001, 9.7197374E-002, 1.3712822E-002, 1.8807495E-003, 8.5930957E-003, 5.3708260E+002
 1.0400711E+002, 4.8283307E-004, 1.7071419E-001, 9.7422900E-002, 1.4325791E-002, 1.9102966E-003, 8.6982459E-003, 5.3473592E+002
 1.0500171E+002, 4.6767782E-004, 1.7049791E-001, 9.7456213E-002, 1.4464781E-002, 2.1510887E-003, 8.7208991E-003, 5.3291970E+002
 1.0600887E+002, 4.8195534E-004, 1.7092119E-001, 9.7400602E-002, 1.4202724E-002, 1.6772961E-003, 8.6787004E-003, 5.3614827E+002
 1.0700166E+002, 4.6194778E-004, 1.7066035E-001, 9.7434683E-002, 1.4364301E-002, 2.0170515E-003, 8.7047244E-003, 5.3490260E+002
 1.0800139E+002, 4.5073399E-004, 1.7064820E-001, 9.7484680E-002, 1.4420499E-002, 1.7407048E-003, 8.7163671E-003, 5.3628896E+002
 1.0900373E+002, 4.8877873E-004, 1.7120536E-001, 9.7324524E-002, 1.3988105E-002, 1.6386160E-003, 8.6420809E-003, 5.3785834E+002
 1.1000260E+002, 5.1706907E-004, 1.7102352E-001, 9.7335115E-002, 1.4086539E-002, 1.7913961E-003, 8.6571754E-003, 5.3692714E+002
 1.1100045E+002, 4.9803651E-004, 1.6951322E-001, 9.7680961E-002, 1.5168261E-002, 2.3300529E-003, 8.8391713E-003, 5.3274429E+002
 1.1200313E+002, 4.3245414E-004, 1.6947095E-001, 9.7752400E-002, 1.5261904E-002, 2.1877173E-003, 8.8578490E-003, 5.3223648E+002
 1.1301073E+002, 4.4508100E-004, 1.7039586E-001, 9.7586717E-002, 1.4645564E-002, 1.5349182E-003, 8.7562740E-003, 5.3783309E+002
 1.1400463E+002, 3.7687637E-004, 1.6841118E-001, 9.8102139E-002, 1.6129068E-002, 2.0003489E-003, 9.0087272E-003, 5.3410275E+002
 1.1500777E+002, 3.7118777E-004, 1.6801427E-001, 9.8194972E-002, 1.6415309E-002, 2.1313197E-003, 9.0569767E-003, 5.3402871E+002
 1.1600487E+002, 3.7868164E-004, 1.6938786E-001, 9.7883896E-002, 1.5435211E-002, 1.6581604E-003, 8.8922498E-003, 5.3316336E+002
 1.1700774E+002, 3.6071967E-004, 1.6907271E-001, 9.7925660E-002, 1.5630858E-002, 2.0388222E-003, 8.9237839E-003, 5.3358788E+002
 1.1800727E+002, 3.5414641E-004, 1.6817137E-001, 9.8130918E-002, 1.6275168E-002, 2.3483455E-003, 9.0321285E-003, 5.3111253E+002
 1.1900986E+002, 3.7029058E-004, 1.7097887E-001, 9.7445230E-002, 1.4222017E-002, 1.7227514E-003, 8.6847458E-003, 5.4251754E+002
 1.2000981E+002, 3.4612778E-004, 1.6790914E-001, 9.8217424E-002, 1.6489564E-002, 2.2784393E-003, 9.0694238E-003, 5.3162279E+002
 1.2100109E+002, 3.4722115E-004, 1.6897387E-001, 9.7957169E-002, 1.5710828E-002, 2.0634892E-003, 8.9376621E-003, 5.3601643E+002
 1.2200873E+002, 3.6833456E-004, 1.6957476E-001, 9.7744188E-002, 1.5204721E-002, 2.3143838E-003, 8.8490239E-003, 5.3475067E+002
 1.2300251E+002, 3.6761303E-004, 1.6962768E-001, 9.7797643E-002, 1.5232444E-002, 1.8477659E-003, 8.8567092E-003, 5.4122989E+002
 1.2400552E+002, 3.4972798E-004, 1.6984255E-001, 9.7764914E-002, 1.5095528E-002, 1.7425776E-003, 8.8344572E-003, 5.3855163E+002
 1.2500493E+002, 3.2833369E-004, 1.6822555E-001, 9.8143192E-002, 1.6261697E-002, 2.2681832E-003, 9.0310306E-003, 5.3571987E+002
 1.2600237E+002, 3.5979229E-004, 1.6883146E-001, 9.7961304E-002, 1.5783994E-002, 2.2516671E-003, 8.9486433E-003, 5.3878881E+002
 1.2700060E+002, 3.4846121E-004, 1.7043705E-001, 9.7630747E-002, 1.4671918E-002, 1.5532567E-003, 8.7632874E-003, 5.3989069E+002
 1.2800371E+002, 3.4913473E-004, 1.6871490E-001, 9.7981690E-002, 1.5861395E-002, 2.3749429E-003, 8.9613867E-003, 5.3467430E+002
 1.2900688E+002, 4.0362440E-004, 1.6868274E-001, 9.7939793E-002, 1.5833807E-002, 2.4994710E-003, 8.9544103E-003, 5.3472712E+002
 1.3000766E+002, 4.0548667E-004, 1.6925828E-001, 9.7792794E-002, 1.5406513E-002, 2.4217245E-003, 8.8818260E-003, 5.3717430E+002
 1.3100117E+002, 5.1511210E-004, 1.7111026E-001, 9.7313944E-002, 1.4023178E-002, 1.7821532E-003, 8.6464586E-003, 5.3979952E+002
 1.3200208E+002, 5.4846679E-004, 1.6977949E-001, 9.7575745E-002, 1.4932140E-002, 2.3458698E-003, 8.7973507E-003, 5.3898775E+002
 1.3300785E+002, 5.5251337E-004, 1.6927775E-001, 9.7706007E-002, 1.5306619E-002, 2.3755405E-003, 8.8610505E-003, 5.3805351E+002
 1.3400866E+002, 4.9096292E-004, 1.7005158E-001, 9.7582587E-002, 1.4807922E-002, 2.0232492E-003, 8.7797092E-003, 5.3828930E+002
 1.3500633E+002, 5.5237419E-004, 1.6984238E-001, 9.7579354E-002, 1.4905036E-002, 2.1859639E-003, 8.7936160E-003, 5.3786660E+002
 1.3600622E+002, 4.2123785E-004, 1.6974072E-001, 9.7701295E-002, 1.5079721E-002, 2.0783337E-003, 8.8277063E-003, 5.3876037E+002
 1.3700636E+002, 4.2102925E-004, 1.6956450E-001, 9.7692952E-002, 1.5157174E-002, 2.4696065E-003, 8.8384928E-003, 5.3955552E+002
 1.3800482E+002, 4.5940099E-004, 1.6981845E-001, 9.7644579E-002, 1.4984207E-002, 2.1655614E-003, 8.8097995E-003, 5.4249572E+002
 1.3900580E+002, 5.3074271E-004, 1.6981055E-001, 9.7563219E-002, 1.4904925E-002, 2.4473518E-003, 8.7925444E-003, 5.3664409E+002
 1.4000307E+002, 5.2804431E-004, 1.6959834E-001, 9.7648558E-002, 1.5093671E-002, 2.2690179E-003, 8.8259923E-003, 5.3719483E+002
 1.4100788E+002, 5.7328856E-004, 1.7060403E-001, 9.7451035E-002, 1.4405352E-002, 1.5486454E-003, 8.7116544E-003, 5.4195430E+002
 1.4200056E+002, 6.6129322E-004, 1.6939454E-001, 9.7602005E-002, 1.5143064E-002, 2.4232600E-003, 8.8298456E-003, 5.3722558E+002
 1.4300745E+002, 5.9122573E-004, 1.6834763E-001, 9.7947668E-002, 1.6000245E-002, 2.2998745E-003, 8.9790098E-003, 5.3451740E+002
 1.4400768E+002, 5.7394540E-004, 1.7010022E-001, 9.7558445E-002, 1.4758060E-002, 1.7543029E-003, 8.7706215E-003, 5.3991821E+002
 1.4500141E+002, 4.9083428E-004, 1.6762740E-001, 9.8150217E-002, 1.6555965E-002, 2.6751855E-003, 9.0743506E-003, 5.3310689E+002
 1.4600866E+002, 4.6957106E-004, 1.6806971E-001, 9.8113876E-002, 1.6304786E-002, 2.1795468E-003, 9.0351137E-003, 5.3617917E+002
 1.4700504E+002, 4.0889272E-004, 1.6925447E-001, 9.7873964E-002, 1.5489478E-002, 1.8534371E-003, 8.8994777E-003, 5.3956764E+002
 1.4800277E+002, 4.1023775E-004, 1.6811614E-001, 9.8136944E-002, 1.6306710E-002, 2.1783696E-003, 9.0370617E-003, 5.3656600E+002
 1.4900265E+002, 4.9810537E-004, 1.6902884E-001, 9.7861550E-002, 1.5584725E-002, 1.9953825E-003, 8.9124405E-003, 5.3878637E+002
 1.5000485E+002, 4.7501144E-004, 1.6922734E-001, 9.7850380E-002, 1.5477477E-002, 1.7936115E-003, 8.8960061E-003, 5.3850581E+002
 1.5100435E+002, 3.7776619E-004, 1.6768387E-001, 9.8259418E-002, 1.6640474E-002, 2.2821623E-003, 9.0943305E-003, 5.3670151E+002
 1.5200216E+002, 3.4409376E-004, 1.6766645E-001, 9.8304168E-002, 1.6694539E-002, 2.1451759E-003, 9.1053442E-003, 5.3881899E+002
 1.5300341E+002, 3.5408717E-004, 1.6778015E-001, 9.8240479E-002, 1.6575232E-002, 2.3295404E-003, 9.0835271E-003, 5.3813594E+002
 1.5400191E+002, 3.1636085E-004, 1.6755990E-001, 9.8295589E-002, 1.6738515E-002, 2.5206809E-003, 9.1112564E-003, 5.3372581E+002
