s,,,,,,,
Time,"O2 EXHAUST","CO2 EXHAUST","H2O EXHAUST","CO EXHAUST","FUEL EXHAUST","SOOT EXHAUST","TEMP EXHAUST"
 0.0000000E+000, 2.3099739E-001, 5.9146498E-004, 5.9412091E-003, 0.0000000E+000, 0.0000000E+000, 0.0000000E+000, 2.0000000E+001
 1.0007851E+000, 2.3099739E-001, 5.9146498E-004, 5.9412091E-003, 3.6853316E-029, 4.0587765E-028, 1.1415290E-029, 2.0389990E+001
 2.0027410E+000, 2.2332452E-001, 6.8444535E-003, 9.4636278E-003, 3.7793671E-005, 2.6981904E-004, 5.0165426E-005, 9.4276927E+001
 3.0018137E+000, 2.1771982E-001, 1.1430114E-002, 1.2057628E-002, 7.3399957E-005, 3.1515795E-004, 8.8661071E-005, 1.4261974E+002
 4.0020062E+000, 2.1149207E-001, 1.6538440E-002, 1.4929190E-002, 9.8878578E-005, 3.9928039E-004, 1.2847509E-004, 1.9720584E+002
 5.0016697E+000, 2.0723205E-001, 2.0033252E-002, 1.6891612E-002, 1.1466276E-004, 4.6593992E-004, 1.5535719E-004, 2.3246012E+002
 6.0019064E+000, 2.0103372E-001, 2.5154872E-002, 1.9750812E-002, 1.2413182E-004, 4.6859780E-004, 1.9179615E-004, 2.7658215E+002
 7.0069200E+000, 1.9645484E-001, 2.8940061E-002, 2.1861630E-002, 1.2932251E-004, 4.7458806E-004, 2.1833568E-004, 3.0974726E+002
 8.0070189E+000, 1.8844540E-001, 3.5613007E-002, 2.5558898E-002, 1.1894861E-004, 3.5452261E-004, 2.6089741E-004, 3.5597310E+002
 9.0043126E+000, 1.8116489E-001, 4.1678818E-002, 2.8919475E-002, 1.0928805E-004, 2.4613557E-004, 2.9953680E-004, 3.8791416E+002
 1.0005469E+001, 1.7392549E-001, 4.7714325E-002, 3.2259295E-002, 9.6541016E-005, 1.4033799E-004, 3.3730490E-004, 4.1938404E+002
 1.1001086E+001, 1.6613597E-001, 5.4195574E-002, 3.5852001E-002, 8.7921756E-005, 5.7139462E-005, 3.7895924E-004, 4.4516432E+002
 1.2002882E+001, 1.5846351E-001, 6.0562218E-002, 3.9390311E-002, 8.6850378E-005, 1.1641776E-005, 4.2147733E-004, 4.6396038E+002
 1.3002942E+001, 1.5091801E-001, 6.6805957E-002, 4.2869941E-002, 9.3582551E-005, 2.5631719E-006, 4.6485875E-004, 4.7371536E+002
 1.4006432E+001, 1.4632301E-001, 7.0606307E-002, 4.4988928E-002, 9.8533599E-005, 8.8948140E-007, 4.9144821E-004, 4.7974770E+002
 1.5001761E+001, 1.4019545E-001, 7.5673443E-002, 4.7814652E-002, 1.0546343E-004, 1.3252688E-007, 5.2697190E-004, 4.8524908E+002
 1.6003605E+001, 1.3439694E-001, 8.0468141E-002, 5.0488632E-002, 1.1216816E-004, 1.0070612E-007, 5.6061754E-004, 4.8837021E+002
 1.7001648E+001, 1.2969324E-001, 8.4357439E-002, 5.2657770E-002, 1.1768317E-004, 1.7197350E-007, 5.8792629E-004, 4.9485885E+002
 1.8009800E+001, 1.2641574E-001, 8.7067593E-002, 5.4169186E-002, 1.2145397E-004, 1.0310027E-007, 6.0694004E-004, 4.9155691E+002
 1.9002422E+001, 1.2173720E-001, 9.0936137E-002, 5.6326707E-002, 1.2690583E-004, 1.4321392E-007, 6.3409576E-004, 5.0017159E+002
 2.0003310E+001, 1.2023438E-001, 9.2178887E-002, 5.7019712E-002, 1.2858681E-004, 4.1791316E-008, 6.4280416E-004, 4.9152596E+002
 2.1008463E+001, 1.1633656E-001, 9.5401854E-002, 5.8817205E-002, 1.3314216E-004, 9.8174892E-008, 6.6543105E-004, 4.9556233E+002
 2.2003337E+001, 1.1302716E-001, 9.8138336E-002, 6.0343339E-002, 1.3697783E-004, 9.2153913E-008, 6.8463563E-004, 4.9393305E+002
 2.3002237E+001, 1.1019056E-001, 1.0048379E-001, 6.1651454E-002, 1.4030984E-004, 1.3246374E-007, 7.0110560E-004, 4.9573629E+002
 2.4006543E+001, 1.0719629E-001, 1.0295968E-001, 6.3032266E-002, 1.4379048E-004, 1.6754120E-007, 7.1848353E-004, 4.9344044E+002
 2.5003921E+001, 1.0530775E-001, 1.0452094E-001, 6.3903218E-002, 1.4616802E-004, 5.0862877E-007, 7.2948136E-004, 4.9378457E+002
 2.6001148E+001, 1.0416112E-001, 1.0546905E-001, 6.4431999E-002, 1.4751416E-004, 4.8881377E-007, 7.3613889E-004, 4.9364983E+002
 2.7004222E+001, 1.0146478E-001, 1.0769639E-001, 6.5675667E-002, 1.5182293E-004, 3.5064794E-006, 7.5202711E-004, 4.9603838E+002
 2.8007678E+001, 9.9491203E-002, 1.0932835E-001, 6.6585841E-002, 1.5413269E-004, 3.0944474E-006, 7.6348500E-004, 4.9205011E+002
 2.9003251E+001, 9.7439082E-002, 1.1102626E-001, 6.7532038E-002, 1.5592981E-004, 1.7636351E-006, 7.7527481E-004, 4.9256628E+002
 3.0009987E+001, 9.5221046E-002, 1.1285432E-001, 6.8555867E-002, 1.6194450E-004, 8.2851366E-006, 7.8885111E-004, 4.9383143E+002
 3.1002709E+001, 9.2227122E-002, 1.1521729E-001, 6.9951737E-002, 2.2770625E-004, 1.4868720E-004, 8.1894713E-004, 4.9139713E+002
 3.2006558E+001, 9.0513047E-002, 1.1662835E-001, 7.0744558E-002, 2.3433115E-004, 1.4808538E-004, 8.2985546E-004, 4.9291414E+002
 3.3000458E+001, 8.9264552E-002, 1.1764242E-001, 7.1324305E-002, 2.4706881E-004, 1.6246229E-004, 8.3942069E-004, 4.9154691E+002
 3.4001104E+001, 8.6964413E-002, 1.1937786E-001, 7.2400899E-002, 3.3672252E-004, 4.0634720E-004, 8.7047304E-004, 4.9102112E+002
 3.5003177E+001, 8.5762501E-002, 1.2037516E-001, 7.2959010E-002, 3.3951347E-004, 3.7827436E-004, 8.7777340E-004, 4.8809298E+002
 3.6005843E+001, 8.4482403E-002, 1.2134265E-001, 7.3561530E-002, 3.9124595E-004, 4.9220507E-004, 8.9546358E-004, 4.8338806E+002
 3.7003045E+001, 8.3343160E-002, 1.2222800E-001, 7.4093686E-002, 4.2323516E-004, 5.6756602E-004, 9.0833030E-004, 4.8370625E+002
 3.8002315E+001, 8.1181709E-002, 1.2382211E-001, 7.5118174E-002, 5.3380152E-004, 7.9929623E-004, 9.4295844E-004, 4.8636336E+002
 3.9005433E+001, 8.0406720E-002, 1.2425203E-001, 7.5502093E-002, 6.4980907E-004, 1.0729409E-003, 9.7094694E-004, 4.8079837E+002
 4.0001636E+001, 7.9719507E-002, 1.2478990E-001, 7.5811013E-002, 6.5811779E-004, 1.1773356E-003, 9.7635673E-004, 4.8042486E+002
 4.1004278E+001, 7.8374160E-002, 1.2581726E-001, 7.6431627E-002, 6.9805704E-004, 1.3454860E-003, 9.9189747E-004, 4.7938115E+002
 4.2006991E+001, 7.7883051E-002, 1.2598254E-001, 7.6685053E-002, 8.2749118E-004, 1.6763303E-003, 1.0210143E-003, 4.7501069E+002
 4.3004721E+001, 7.7444140E-002, 1.2643676E-001, 7.6891023E-002, 7.8972402E-004, 1.4750608E-003, 1.0158918E-003, 4.7261727E+002
 4.4004159E+001, 7.6647194E-002, 1.2696540E-001, 7.7269447E-002, 8.5757736E-004, 1.6743564E-003, 1.0341237E-003, 4.7041962E+002
 4.5003493E+001, 7.5625850E-002, 1.2755060E-001, 7.7774426E-002, 1.0013488E-003, 2.0033647E-003, 1.0691623E-003, 4.7109135E+002
 4.6005291E+001, 7.4925497E-002, 1.2803660E-001, 7.8098075E-002, 1.0445106E-003, 2.1848741E-003, 1.0817653E-003, 4.6783420E+002
 4.7002242E+001, 7.4037982E-002, 1.2841094E-001, 7.8544124E-002, 1.2352758E-003, 2.6979203E-003, 1.1255569E-003, 4.7212695E+002
 4.8007267E+001, 7.4152435E-002, 1.2834626E-001, 7.8473644E-002, 1.2080969E-003, 2.7356938E-003, 1.1192420E-003, 4.6993961E+002
 4.9004078E+001, 7.3675859E-002, 1.2863211E-001, 7.8703286E-002, 1.2648402E-003, 2.8967141E-003, 1.1334396E-003, 4.6628002E+002
 5.0008339E+001, 7.3363351E-002, 1.2888240E-001, 7.8858785E-002, 1.2775915E-003, 2.8502337E-003, 1.1378790E-003, 4.6308981E+002
 5.1000843E+001, 7.3011746E-002, 1.2878505E-001, 7.9038659E-002, 1.4659460E-003, 3.5248404E-003, 1.1779824E-003, 4.6002228E+002
 5.2006762E+001, 7.3433301E-002, 1.2843690E-001, 7.8837178E-002, 1.4598301E-003, 3.5629554E-003, 1.1743215E-003, 4.5382208E+002
 5.3004439E+001, 7.2221070E-002, 1.2918887E-001, 7.9385723E-002, 1.5656805E-003, 4.1188129E-003, 1.2022759E-003, 4.6059735E+002
 5.4007141E+001, 7.1766472E-002, 1.2937246E-001, 7.9642875E-002, 1.6890686E-003, 4.2400148E-003, 1.2302067E-003, 4.5883454E+002
 5.5008451E+001, 7.1807993E-002, 1.2958953E-001, 7.9585078E-002, 1.5464135E-003, 3.9524478E-003, 1.2007968E-003, 4.5899989E+002
 5.6001860E+001, 7.1683793E-002, 1.2933592E-001, 7.9670056E-002, 1.7278897E-003, 4.5089849E-003, 1.2383621E-003, 4.4999231E+002
 5.7001158E+001, 7.0879276E-002, 1.2983306E-001, 8.0028633E-002, 1.7947976E-003, 4.9118233E-003, 1.2561787E-003, 4.5161589E+002
 5.8001370E+001, 7.0965726E-002, 1.2974747E-001, 8.0004905E-002, 1.8134216E-003, 4.8510926E-003, 1.2596335E-003, 4.5424849E+002
 5.9008331E+001, 7.0754548E-002, 1.2973855E-001, 8.0107298E-002, 1.8999615E-003, 5.1887286E-003, 1.2782996E-003, 4.4704443E+002
 6.0000944E+001, 7.0527635E-002, 1.2982396E-001, 8.0210298E-002, 1.9448857E-003, 5.4011475E-003, 1.2885942E-003, 4.4621166E+002
 6.1006152E+001, 6.9998973E-002, 1.3011673E-001, 8.0484725E-002, 2.0338665E-003, 5.5198373E-003, 1.3098134E-003, 4.4812905E+002
 6.2008077E+001, 7.0130158E-002, 1.2998920E-001, 8.0409567E-002, 2.0310193E-003, 5.6384228E-003, 1.3083415E-003, 4.4436511E+002
 6.3001751E+001, 6.9603345E-002, 1.3022653E-001, 8.0651615E-002, 2.1200208E-003, 6.0378563E-003, 1.3291939E-003, 4.4862894E+002
 6.4005169E+001, 6.9081903E-002, 1.3046485E-001, 8.0882415E-002, 2.1998395E-003, 6.4747416E-003, 1.3480663E-003, 4.4510621E+002
 6.5007134E+001, 6.9612994E-002, 1.3000388E-001, 8.0644251E-002, 2.2142057E-003, 6.4810198E-003, 1.3480795E-003, 4.3837806E+002
 6.6000354E+001, 6.9166427E-002, 1.3011295E-001, 8.0850309E-002, 2.3317010E-003, 6.9980320E-003, 1.3742364E-003, 4.4454681E+002
 6.7009599E+001, 6.9276491E-002, 1.2994872E-001, 8.0808043E-002, 2.3709833E-003, 7.0970123E-003, 1.3816336E-003, 4.4363991E+002
 6.8005140E+001, 6.8945898E-002, 1.3009275E-001, 8.0985447E-002, 2.4486215E-003, 7.2170681E-003, 1.3993998E-003, 4.3837507E+002
 6.9009523E+001, 6.8938660E-002, 1.3014482E-001, 8.0968914E-002, 2.4126687E-003, 7.2346880E-003, 1.3919704E-003, 4.4406453E+002
 7.0007285E+001, 6.8643502E-002, 1.3023899E-001, 8.1113137E-002, 2.4865734E-003, 7.4883038E-003, 1.4085945E-003, 4.4152844E+002
 7.1005212E+001, 6.8365600E-002, 1.3017723E-001, 8.1233024E-002, 2.6115225E-003, 8.1138983E-003, 1.4352175E-003, 4.4356863E+002
 7.2007051E+001, 6.8806161E-002, 1.2985133E-001, 8.1028981E-002, 2.5930884E-003, 8.0423322E-003, 1.4290404E-003, 4.3609591E+002
 7.3002424E+001, 6.8197256E-002, 1.3017839E-001, 8.1308363E-002, 2.6719677E-003, 8.4011740E-003, 1.4483050E-003, 4.3998825E+002
 7.4004175E+001, 6.7970866E-002, 1.3038277E-001, 8.1402248E-002, 2.6564388E-003, 8.4248334E-003, 1.4463175E-003, 4.3768670E+002
 7.5004056E+001, 6.7840054E-002, 1.3043326E-001, 8.1459339E-002, 2.6800163E-003, 8.5573701E-003, 1.4517585E-003, 4.4310329E+002
 7.6000989E+001, 6.7949836E-002, 1.3015354E-001, 8.1410294E-002, 2.7659829E-003, 8.9246272E-003, 1.4684823E-003, 4.4137628E+002
 7.7006701E+001, 6.7642311E-002, 1.3048559E-001, 8.1527674E-002, 2.7126473E-003, 8.9043358E-003, 1.4591716E-003, 4.3443342E+002
 7.8004680E+001, 6.7549005E-002, 1.3040387E-001, 8.1555127E-002, 2.7721642E-003, 9.3061254E-003, 1.4715022E-003, 4.3459364E+002
 7.9005726E+001, 6.7559339E-002, 1.3042289E-001, 8.1585337E-002, 2.7866199E-003, 9.0588479E-003, 1.4747568E-003, 4.3541689E+002
 8.0005100E+001, 6.7227751E-002, 1.3046337E-001, 8.1732708E-002, 2.8877361E-003, 9.5543363E-003, 1.4969091E-003, 4.3790860E+002
 8.1009941E+001, 6.7409191E-002, 1.3023929E-001, 8.1625772E-002, 2.9029335E-003, 9.8296795E-003, 1.4986938E-003, 4.3548815E+002
 8.2008144E+001, 6.7273357E-002, 1.3028300E-001, 8.1687766E-002, 2.9334158E-003, 9.9697490E-003, 1.5055833E-003, 4.3451488E+002
 8.3000356E+001, 6.7472512E-002, 1.3013957E-001, 8.1582459E-002, 2.9133001E-003, 1.0001554E-002, 1.5002679E-003, 4.3130492E+002
 8.4009044E+001, 6.7399728E-002, 1.3004066E-001, 8.1622239E-002, 2.9896234E-003, 1.0283903E-002, 1.5161190E-003, 4.3323004E+002
 8.5002833E+001, 6.6943627E-002, 1.3014667E-001, 8.1832692E-002, 3.1120449E-003, 1.0822701E-002, 1.5433214E-003, 4.3211139E+002
 8.6002570E+001, 6.7112084E-002, 1.3025131E-001, 8.1759916E-002, 3.0060366E-003, 1.0310345E-002, 1.5210849E-003, 4.3097428E+002
 8.7009783E+001, 6.7096299E-002, 1.3011790E-001, 8.1740729E-002, 3.0515338E-003, 1.0747391E-002, 1.5300350E-003, 4.3153681E+002
 8.8004426E+001, 6.6749464E-002, 1.3030773E-001, 8.1890593E-002, 3.0877519E-003, 1.0995754E-002, 1.5391473E-003, 4.3055358E+002
 8.9000083E+001, 6.6602148E-002, 1.3034077E-001, 8.1945804E-002, 3.1180354E-003, 1.1242396E-002, 1.5459225E-003, 4.3544502E+002
 9.0005358E+001, 6.6351325E-002, 1.3043712E-001, 8.2085116E-002, 3.1863661E-003, 1.1333266E-002, 1.5613545E-003, 4.3180767E+002
 9.1005086E+001, 6.6248520E-002, 1.3048061E-001, 8.2122561E-002, 3.1974869E-003, 1.1470686E-002, 1.5640533E-003, 4.3458099E+002
 9.2000877E+001, 6.6396793E-002, 1.3027119E-001, 8.2054227E-002, 3.2363438E-003, 1.1643182E-002, 1.5710554E-003, 4.3049799E+002
 9.3007526E+001, 6.6597225E-002, 1.3006260E-001, 8.1932124E-002, 3.2325868E-003, 1.1891731E-002, 1.5688428E-003, 4.3095956E+002
 9.4000206E+001, 6.6574752E-002, 1.3013478E-001, 8.1919323E-002, 3.1907512E-003, 1.1912529E-002, 1.5602756E-003, 4.3089052E+002
 9.5010155E+001, 6.6222631E-002, 1.3028736E-001, 8.2110477E-002, 3.2755044E-003, 1.2029968E-002, 1.5796386E-003, 4.3064302E+002
 9.6003998E+001, 6.6314171E-002, 1.3024346E-001, 8.2044687E-002, 3.2430170E-003, 1.2096424E-002, 1.5723148E-003, 4.2901305E+002
 9.7003501E+001, 6.6347376E-002, 1.3022599E-001, 8.2002249E-002, 3.2176684E-003, 1.2225791E-002, 1.5667133E-003, 4.3165186E+002
 9.8004858E+001, 6.6524250E-002, 1.2997798E-001, 8.1908215E-002, 3.2536014E-003, 1.2496850E-002, 1.5728239E-003, 4.2815304E+002
 9.9002008E+001, 6.6323125E-002, 1.3009290E-001, 8.1993225E-002, 3.2709772E-003, 1.2641675E-002, 1.5773558E-003, 4.2984691E+002
 1.0000466E+002, 6.6325397E-002, 1.2991759E-001, 8.2009273E-002, 3.3620071E-003, 1.2892688E-002, 1.5958758E-003, 4.3089446E+002
 1.0100210E+002, 6.6334060E-002, 1.2989445E-001, 8.1983230E-002, 3.3522500E-003, 1.3045786E-002, 1.5936099E-003, 4.2538844E+002
 1.0200984E+002, 6.6255932E-002, 1.2990762E-001, 8.2019178E-002, 3.3753834E-003, 1.3148573E-002, 1.5987041E-003, 4.2856652E+002
 1.0300022E+002, 6.6291787E-002, 1.3000204E-001, 8.1982426E-002, 3.3040851E-003, 1.3012936E-002, 1.5839107E-003, 4.3124430E+002
 1.0400300E+002, 6.6259884E-002, 1.2987963E-001, 8.1960242E-002, 3.3426409E-003, 1.3511997E-002, 1.5914331E-003, 4.3041875E+002
 1.0500069E+002, 6.5922852E-002, 1.3008149E-001, 8.2129709E-002, 3.3883214E-003, 1.3587569E-002, 1.6026727E-003, 4.3008193E+002
 1.0600037E+002, 6.6137375E-002, 1.2984003E-001, 8.2017577E-002, 3.4067187E-003, 1.3787710E-002, 1.6050329E-003, 4.2826289E+002
 1.0700734E+002, 6.6252501E-002, 1.2966309E-001, 8.1987971E-002, 3.4613377E-003, 1.3821160E-002, 1.6156628E-003, 4.2895787E+002
 1.0800417E+002, 6.5838147E-002, 1.3008287E-001, 8.2143534E-002, 3.3998894E-003, 1.3863036E-002, 1.6051861E-003, 4.2983029E+002
 1.0900788E+002, 6.6064785E-002, 1.2990024E-001, 8.2041703E-002, 3.3995456E-003, 1.3838787E-002, 1.6038852E-003, 4.2744569E+002
 1.1000768E+002, 6.6160549E-002, 1.2970499E-001, 8.1982807E-002, 3.4402606E-003, 1.4150779E-002, 1.6113850E-003, 4.2541251E+002
 1.1100666E+002, 6.6244665E-002, 1.2963672E-001, 8.1947338E-002, 3.4421375E-003, 1.4129968E-002, 1.6113326E-003, 4.2942580E+002
 1.1200026E+002, 6.6280328E-002, 1.2949085E-001, 8.1868850E-002, 3.4467481E-003, 1.4702872E-002, 1.6113530E-003, 4.2631895E+002
 1.1300490E+002, 6.5919756E-002, 1.2981654E-001, 8.2069646E-002, 3.4612923E-003, 1.4458152E-002, 1.6166859E-003, 4.2548865E+002
 1.1400395E+002, 6.5978074E-002, 1.2980665E-001, 8.2054142E-002, 3.4527498E-003, 1.4319229E-002, 1.6147705E-003, 4.2962876E+002
 1.1500461E+002, 6.6236413E-002, 1.2947236E-001, 8.1902611E-002, 3.4817868E-003, 1.4737576E-002, 1.6188103E-003, 4.2827967E+002
 1.1600687E+002, 6.6289490E-002, 1.2942380E-001, 8.1857038E-002, 3.4676282E-003, 1.4862943E-002, 1.6154213E-003, 4.2797834E+002
 1.1700025E+002, 6.6313431E-002, 1.2930955E-001, 8.1826019E-002, 3.4946964E-003, 1.5160807E-002, 1.6205120E-003, 4.2347372E+002
 1.1800131E+002, 6.6235889E-002, 1.2942907E-001, 8.1879520E-002, 3.4835191E-003, 1.4952960E-002, 1.6188953E-003, 4.2286946E+002
 1.1900872E+002, 6.6369954E-002, 1.2942805E-001, 8.1796932E-002, 3.4180811E-003, 1.4848651E-002, 1.6047292E-003, 4.2758589E+002
 1.2000004E+002, 6.6256132E-002, 1.2937806E-001, 8.1833431E-002, 3.4706755E-003, 1.5223367E-002, 1.6157749E-003, 4.2720260E+002
 1.2100920E+002, 6.6583191E-002, 1.2900421E-001, 8.1672511E-002, 3.5089976E-003, 1.5484664E-002, 1.6215574E-003, 4.2669226E+002
 1.2200633E+002, 6.6624661E-002, 1.2895002E-001, 8.1649069E-002, 3.5145766E-003, 1.5548019E-002, 1.6224009E-003, 4.2508241E+002
 1.2300626E+002, 6.6631897E-002, 1.2905762E-001, 8.1640200E-002, 3.4592941E-003, 1.5352447E-002, 1.6111612E-003, 4.2528341E+002
 1.2401025E+002, 6.6744519E-002, 1.2880840E-001, 8.1572112E-002, 3.5168855E-003, 1.5751901E-002, 1.6219504E-003, 4.2454990E+002
 1.2500698E+002, 6.6613130E-002, 1.2887123E-001, 8.1649147E-002, 3.5502449E-003, 1.5752590E-002, 1.6295902E-003, 4.2285483E+002
 1.2600944E+002, 6.6450171E-002, 1.2890228E-001, 8.1682806E-002, 3.5651643E-003, 1.6187177E-002, 1.6330286E-003, 4.2585439E+002
 1.2700800E+002, 6.6660967E-002, 1.2878758E-001, 8.1596739E-002, 3.5466971E-003, 1.6007281E-002, 1.6282620E-003, 4.2433516E+002
 1.2800880E+002, 6.6691072E-002, 1.2873653E-001, 8.1574194E-002, 3.5517663E-003, 1.6106997E-002, 1.6290164E-003, 4.2406478E+002
 1.2900077E+002, 6.6483552E-002, 1.2884233E-001, 8.1677917E-002, 3.5877241E-003, 1.6193762E-002, 1.6375073E-003, 4.2179292E+002
 1.3000793E+002, 6.6680984E-002, 1.2872655E-001, 8.1583993E-002, 3.5639563E-003, 1.6115119E-002, 1.6315870E-003, 4.2709056E+002
 1.3100465E+002, 6.6610309E-002, 1.2871147E-001, 8.1583418E-002, 3.5716038E-003, 1.6443883E-002, 1.6331417E-003, 4.2424527E+002
 1.3200065E+002, 6.6607257E-002, 1.2872071E-001, 8.1592826E-002, 3.5747345E-003, 1.6386516E-002, 1.6338809E-003, 4.2347136E+002
 1.3300857E+002, 6.6740947E-002, 1.2852368E-001, 8.1502020E-002, 3.5910481E-003, 1.6718993E-002, 1.6360890E-003, 4.2392138E+002
 1.3400036E+002, 6.6953590E-002, 1.2839517E-001, 8.1413338E-002, 3.5767425E-003, 1.6573245E-002, 1.6321302E-003, 4.2513529E+002
 1.3500882E+002, 6.6963420E-002, 1.2826237E-001, 8.1374895E-002, 3.6067043E-003, 1.7007866E-002, 1.6377231E-003, 4.2081722E+002
 1.3601105E+002, 6.6944162E-002, 1.2839786E-001, 8.1398760E-002, 3.5645195E-003, 1.6687529E-002, 1.6295040E-003, 4.1922067E+002
 1.3700880E+002, 6.7103061E-002, 1.2827857E-001, 8.1306962E-002, 3.5446818E-003, 1.6765363E-002, 1.6244110E-003, 4.2432020E+002
 1.3800298E+002, 6.7081774E-002, 1.2813057E-001, 8.1313798E-002, 3.6168071E-003, 1.7111243E-002, 1.6390245E-003, 4.2472312E+002
 1.3900308E+002, 6.7184926E-002, 1.2807768E-001, 8.1249209E-002, 3.5890661E-003, 1.7140425E-002, 1.6326671E-003, 4.2258989E+002
 1.4001127E+002, 6.6960608E-002, 1.2821451E-001, 8.1350492E-002, 3.6095229E-003, 1.7249124E-002, 1.6380125E-003, 4.2325472E+002
 1.4100417E+002, 6.7141021E-002, 1.2812942E-001, 8.1251478E-002, 3.5683815E-003, 1.7208623E-002, 1.6285392E-003, 4.2275269E+002
 1.4200593E+002, 6.7026114E-002, 1.2819466E-001, 8.1276213E-002, 3.5601975E-003, 1.7423311E-002, 1.6272074E-003, 4.2309012E+002
 1.4300501E+002, 6.7047904E-002, 1.2826818E-001, 8.1247546E-002, 3.5047598E-003, 1.7343616E-002, 1.6157057E-003, 4.2018141E+002
 1.4400042E+002, 6.6908205E-002, 1.2828281E-001, 8.1329758E-002, 3.5638990E-003, 1.7446479E-002, 1.6286002E-003, 4.2100910E+002
 1.4500759E+002, 6.7014533E-002, 1.2830469E-001, 8.1258618E-002, 3.4974806E-003, 1.7349643E-002, 1.6143758E-003, 4.2447574E+002
 1.4600462E+002, 6.7310962E-002, 1.2786111E-001, 8.1097461E-002, 3.5675179E-003, 1.7879104E-002, 1.6265534E-003, 4.1741408E+002
 1.4700845E+002, 6.7145167E-002, 1.2807579E-001, 8.1194966E-002, 3.5490112E-003, 1.7608912E-002, 1.6239896E-003, 4.2278107E+002
 1.4801020E+002, 6.7271836E-002, 1.2793709E-001, 8.1130623E-002, 3.5595689E-003, 1.7709105E-002, 1.6253430E-003, 4.2194975E+002
 1.4901028E+002, 6.7215797E-002, 1.2795109E-001, 8.1118461E-002, 3.5449851E-003, 1.7982539E-002, 1.6222826E-003, 4.2138133E+002
 1.5000093E+002, 6.7526373E-002, 1.2763286E-001, 8.0981005E-002, 3.5766443E-003, 1.8073029E-002, 1.6269962E-003, 4.1784006E+002
 1.5100131E+002, 6.7406656E-002, 1.2779853E-001, 8.1041968E-002, 3.5512506E-003, 1.7908703E-002, 1.6226135E-003, 4.1844330E+002
 1.5200624E+002, 6.7435260E-002, 1.2770252E-001, 8.0985765E-002, 3.5506996E-003, 1.8289316E-002, 1.6218512E-003, 4.2067288E+002
 1.5300132E+002, 6.7192267E-002, 1.2798837E-001, 8.1121886E-002, 3.5313084E-003, 1.7987949E-002, 1.6195737E-003, 4.2236221E+002
 1.5400361E+002, 6.7641068E-002, 1.2758920E-001, 8.0888860E-002, 3.5233871E-003, 1.8187169E-002, 1.6151802E-003, 4.1608712E+002
