s,,,,,,,
Time,"O2 EXHAUST","CO2 EXHAUST","H2O EXHAUST","CO EXHAUST","FUEL EXHAUST","SOOT EXHAUST","TEMP EXHAUST"
 0.0000000E+000, 2.3099739E-001, 5.9146498E-004, 5.9412092E-003, 0.0000000E+000, 0.0000000E+000, 0.0000000E+000, 2.0000000E+001
 1.0013646E+000, 2.3099739E-001, 5.9146498E-004, 5.9412092E-003, 2.1403111E-035, 1.0483587E-033, 8.3555623E-036, 2.0297131E+001
 2.0028607E+000, 2.2498978E-001, 5.2795430E-003, 9.8503341E-003, 4.9049031E-006, 1.7974278E-004, 2.8249589E-005, 8.3318248E+001
 3.0009743E+000, 2.2136520E-001, 8.1192149E-003, 1.2228614E-002, 1.3020428E-005, 1.8609209E-004, 4.6463646E-005, 1.1767263E+002
 4.0046286E+000, 2.1659447E-001, 1.1847976E-002, 1.5346691E-002, 2.1350962E-005, 2.6157701E-004, 6.9881985E-005, 1.6428956E+002
 5.0048082E+000, 2.1313803E-001, 1.4553587E-002, 1.7609659E-002, 2.7573817E-005, 2.9236254E-004, 8.6912590E-005, 1.9523072E+002
 6.0007441E+000, 2.1032264E-001, 1.6769501E-002, 1.9454305E-002, 2.8033058E-005, 2.8743764E-004, 9.9866403E-005, 2.1958748E+002
 7.0015021E+000, 2.0550621E-001, 2.0556676E-002, 2.2612594E-002, 3.1747577E-005, 2.7619964E-004, 1.2263363E-004, 2.5954753E+002
 8.0030883E+000, 2.0133041E-001, 2.3852332E-002, 2.5354857E-002, 3.1672576E-005, 2.2544934E-004, 1.4173674E-004, 2.8972638E+002
 9.0027181E+000, 1.9676014E-001, 2.7459911E-002, 2.8356746E-002, 3.1622818E-005, 1.6639052E-004, 1.6265481E-004, 3.1845670E+002
 1.0000955E+001, 1.9025394E-001, 3.2600095E-002, 3.2629700E-002, 2.9331146E-005, 7.5352701E-005, 1.9198332E-004, 3.5764125E+002
 1.1004698E+001, 1.8688412E-001, 3.5259610E-002, 3.4841411E-002, 2.8645097E-005, 3.9526236E-005, 2.0726497E-004, 3.6977315E+002
 1.2003586E+001, 1.7967686E-001, 4.0935526E-002, 3.9567566E-002, 3.0391738E-005, 4.3507387E-006, 2.4056750E-004, 4.0279225E+002
 1.3006016E+001, 1.7662311E-001, 4.3337424E-002, 4.1568920E-002, 3.1873843E-005, 1.5612281E-007, 2.5481959E-004, 4.0930256E+002
 1.4005506E+001, 1.7134054E-001, 4.7490321E-002, 4.5030235E-002, 3.4958403E-005, 1.4812423E-008, 2.7957348E-004, 4.2527164E+002
 1.5008265E+001, 1.6756297E-001, 5.0460039E-002, 4.7505423E-002, 3.7173101E-005, 1.2237224E-008, 2.9727679E-004, 4.3217486E+002
 1.6000166E+001, 1.6199211E-001, 5.4839530E-002, 5.1155624E-002, 4.0439645E-005, 1.6606790E-008, 3.2338426E-004, 4.4641004E+002
 1.7004495E+001, 1.5805055E-001, 5.7938162E-002, 5.3738256E-002, 4.2749241E-005, 1.5669778E-008, 3.4185580E-004, 4.4823799E+002
 1.8006074E+001, 1.5345256E-001, 6.1552845E-002, 5.6751003E-002, 4.5443028E-005, 1.5153474E-008, 3.6340352E-004, 4.5686814E+002
 1.9001899E+001, 1.4964852E-001, 6.4543348E-002, 5.9243534E-002, 4.7683608E-005, 3.2847322E-008, 3.8123297E-004, 4.5869483E+002
 2.0005087E+001, 1.4618801E-001, 6.7263827E-002, 6.1510954E-002, 4.9694753E-005, 1.3094132E-008, 3.9744671E-004, 4.6087971E+002
 2.1006682E+001, 1.4318600E-001, 6.9623841E-002, 6.3477964E-002, 5.1452635E-005, 1.1555164E-008, 4.1151495E-004, 4.5700246E+002
 2.2008339E+001, 1.3917783E-001, 7.2774836E-002, 6.6104243E-002, 5.3803180E-005, 1.4944895E-008, 4.3029905E-004, 4.6219136E+002
 2.3000087E+001, 1.3650485E-001, 7.4876171E-002, 6.7855667E-002, 5.5376998E-005, 2.1102547E-008, 4.4282713E-004, 4.6265912E+002
 2.4007497E+001, 1.3361971E-001, 7.7144324E-002, 6.9746099E-002, 5.7058414E-005, 1.5043594E-008, 4.5634606E-004, 4.6328226E+002
 2.5002194E+001, 1.3057259E-001, 7.9539756E-002, 7.1742679E-002, 5.8868687E-005, 3.0038251E-008, 4.7063101E-004, 4.6294420E+002
 2.6001798E+001, 1.2754207E-001, 8.1922201E-002, 7.3728361E-002, 6.0630728E-005, 2.2362360E-008, 4.8483028E-004, 4.6201767E+002
 2.7001917E+001, 1.2408638E-001, 8.4638852E-002, 7.5992644E-002, 6.2667544E-005, 3.7715517E-008, 5.0102731E-004, 4.6515398E+002
 2.8002982E+001, 1.2211882E-001, 8.6185667E-002, 7.7281843E-002, 6.3803722E-005, 1.7632412E-008, 5.1024458E-004, 4.6195190E+002
 2.9001520E+001, 1.1950238E-001, 8.8242575E-002, 7.8996210E-002, 6.5328721E-005, 1.2549513E-008, 5.2250446E-004, 4.6240142E+002
 3.0005437E+001, 1.1622163E-001, 9.0821700E-002, 8.1145872E-002, 6.7264876E-005, 2.5103963E-008, 5.3788207E-004, 4.6202894E+002
 3.1003519E+001, 1.1314754E-001, 9.3238372E-002, 8.3160106E-002, 6.9065340E-005, 2.8496705E-008, 5.5228814E-004, 4.6374812E+002
 3.2001439E+001, 1.1103822E-001, 9.4896610E-002, 8.4542198E-002, 7.0297114E-005, 2.2332968E-008, 5.6217231E-004, 4.6270676E+002
 3.3000147E+001, 1.0768241E-001, 9.7534741E-002, 8.6741040E-002, 7.2276836E-005, 3.1673967E-008, 5.7790158E-004, 4.6462887E+002
 3.4001340E+001, 1.0560490E-001, 9.9167973E-002, 8.8102285E-002, 7.3487801E-005, 2.1758889E-008, 5.8763622E-004, 4.6357723E+002
 3.5007213E+001, 1.0351694E-001, 1.0080943E-001, 8.9470373E-002, 7.4699288E-005, 1.8428024E-008, 5.9741868E-004, 4.6282603E+002
 3.6005722E+001, 1.0071221E-001, 1.0301430E-001, 9.1308134E-002, 7.6369163E-005, 4.0225248E-008, 6.1056805E-004, 4.6397272E+002
 3.7001743E+001, 9.8645595E-002, 1.0463896E-001, 9.2662244E-002, 7.7581383E-005, 4.1763486E-008, 6.2025319E-004, 4.6153652E+002
 3.8005097E+001, 9.5916699E-002, 1.0678426E-001, 9.4450301E-002, 7.9178900E-005, 3.7893736E-008, 6.3304145E-004, 4.6563986E+002
 3.9001951E+001, 9.4195972E-002, 1.0813703E-001, 9.5577765E-002, 8.0170116E-005, 2.5757448E-008, 6.4110189E-004, 4.5829832E+002
 4.0006127E+001, 9.1177287E-002, 1.1051014E-001, 9.7555706E-002, 8.1946425E-005, 3.1562862E-008, 6.5525005E-004, 4.6447691E+002
 4.1006591E+001, 8.9343293E-002, 1.1195192E-001, 9.8757394E-002, 8.3021099E-005, 3.8381553E-008, 6.6384479E-004, 4.6034023E+002
 4.2002259E+001, 8.7713418E-002, 1.1323326E-001, 9.9825332E-002, 8.3963072E-005, 2.6504807E-008, 6.7148028E-004, 4.5787249E+002
 4.3000795E+001, 8.4462951E-002, 1.1578859E-001, 1.0195514E-001, 8.5870361E-005, 2.3036975E-008, 6.8671367E-004, 4.6178836E+002
 4.4008077E+001, 8.2976437E-002, 1.1695718E-001, 1.0292916E-001, 8.6754166E-005, 3.5143386E-008, 6.9368261E-004, 4.5918450E+002
 4.5002138E+001, 8.0667137E-002, 1.1877242E-001, 1.0444236E-001, 8.8232884E-005, 1.4017765E-007, 7.0453057E-004, 4.6088359E+002
 4.6002215E+001, 7.8473269E-002, 1.2049261E-001, 1.0588158E-001, 9.2377007E-005, 2.3259381E-006, 7.1539858E-004, 4.5779934E+002
 4.7002814E+001, 7.6022379E-002, 1.2240461E-001, 1.0749341E-001, 1.0331623E-004, 8.3710641E-006, 7.2883625E-004, 4.6422829E+002
 4.8004438E+001, 7.4553750E-002, 1.2355774E-001, 1.0845609E-001, 1.0499471E-004, 9.7126446E-006, 7.3588590E-004, 4.6235544E+002
 4.9005370E+001, 7.1755043E-002, 1.2573915E-001, 1.1029710E-001, 1.1855295E-004, 1.8773107E-005, 7.5144809E-004, 4.6190152E+002
 5.0006883E+001, 7.0396504E-002, 1.2679584E-001, 1.1119137E-001, 1.2641242E-004, 2.5198831E-005, 7.5926346E-004, 4.5928503E+002
 5.1007982E+001, 6.7910433E-002, 1.2871550E-001, 1.1283459E-001, 1.5039486E-004, 3.8279697E-005, 7.7554215E-004, 4.6390064E+002
 5.2004075E+001, 6.6982088E-002, 1.2943952E-001, 1.1344395E-001, 1.5403360E-004, 4.5673724E-005, 7.8052264E-004, 4.6069736E+002
 5.3007318E+001, 6.4635198E-002, 1.3125901E-001, 1.1499168E-001, 1.7168616E-004, 5.7244273E-005, 7.9486307E-004, 4.6044713E+002
 5.4004289E+001, 6.2865590E-002, 1.3261659E-001, 1.1616339E-001, 1.9368678E-004, 7.6236520E-005, 8.0745605E-004, 4.6119886E+002
 5.5005014E+001, 6.1177104E-002, 1.3393279E-001, 1.1727354E-001, 2.0152998E-004, 8.3624014E-005, 8.1677347E-004, 4.5727362E+002
 5.6004829E+001, 5.8858543E-002, 1.3571162E-001, 1.1880905E-001, 2.3047060E-004, 1.0699658E-004, 8.3329824E-004, 4.5991421E+002
 5.7000258E+001, 5.7102000E-002, 1.3704915E-001, 1.1997748E-001, 2.5944725E-004, 1.2461533E-004, 8.4727056E-004, 4.6212600E+002
 5.8004156E+001, 5.5235799E-002, 1.3852566E-001, 1.2119605E-001, 2.5425876E-004, 1.2250651E-004, 8.5472393E-004, 4.6443064E+002
 5.9002454E+001, 5.3733648E-002, 1.3967070E-001, 1.2219326E-001, 2.7748687E-004, 1.4312609E-004, 8.6634704E-004, 4.6646044E+002
 6.0008028E+001, 5.3269697E-002, 1.4002436E-001, 1.2250232E-001, 2.8519904E-004, 1.4520533E-004, 8.7005230E-004, 4.5787439E+002
 6.1006579E+001, 5.0888237E-002, 1.4187406E-001, 1.2406967E-001, 3.0000137E-004, 1.6282961E-004, 8.8395684E-004, 4.6069490E+002
 6.2005191E+001, 4.9321449E-002, 1.4307672E-001, 1.2510845E-001, 3.1987597E-004, 1.7281496E-004, 8.9519520E-004, 4.5938979E+002
 6.3007784E+001, 4.7595034E-002, 1.4443475E-001, 1.2623909E-001, 3.2024232E-004, 1.7338285E-004, 9.0315223E-004, 4.6226031E+002
 6.4010328E+001, 4.5871913E-002, 1.4575869E-001, 1.2737832E-001, 3.3991197E-004, 1.9464001E-004, 9.1505022E-004, 4.6350375E+002
 6.5000377E+001, 4.4588388E-002, 1.4678256E-001, 1.2821279E-001, 3.3082286E-004, 1.9084246E-004, 9.1904130E-004, 4.5971834E+002
 6.6002325E+001, 4.3468421E-002, 1.4764867E-001, 1.2895266E-001, 3.4085237E-004, 1.9564818E-004, 9.2621635E-004, 4.6008931E+002
 6.7004709E+001, 4.2033492E-002, 1.4877350E-001, 1.2989209E-001, 3.4271352E-004, 2.0529708E-004, 9.3314102E-004, 4.5931241E+002
 6.8005786E+001, 4.0306625E-002, 1.5009299E-001, 1.3104218E-001, 3.6991412E-004, 2.0775553E-004, 9.4662785E-004, 4.6054250E+002
 6.9000079E+001, 3.8441501E-002, 1.5152743E-001, 1.3227648E-001, 3.9119648E-004, 2.2316161E-004, 9.5951267E-004, 4.6053856E+002
 7.0002243E+001, 3.7121139E-002, 1.5256575E-001, 1.3313957E-001, 3.9078080E-004, 2.3074787E-004, 9.6544726E-004, 4.6431148E+002
 7.1008565E+001, 3.5889798E-002, 1.5349621E-001, 1.3396268E-001, 4.1629097E-004, 2.4135086E-004, 9.7631479E-004, 4.6063160E+002
 7.2002245E+001, 3.3946614E-002, 1.5494822E-001, 1.3526974E-001, 4.6785876E-004, 2.5867869E-004, 9.9579490E-004, 4.6289555E+002
 7.3000888E+001, 3.3642899E-002, 1.5522934E-001, 1.3544483E-001, 4.3726161E-004, 2.6888209E-004, 9.9086562E-004, 4.6117292E+002
 7.4003706E+001, 3.1503424E-002, 1.5684601E-001, 1.3687882E-001, 4.8353714E-004, 2.7201053E-004, 1.0101663E-003, 4.6189452E+002
 7.5003973E+001, 3.1070801E-002, 1.5716018E-001, 1.3717025E-001, 4.9923560E-004, 2.9258069E-004, 1.0153548E-003, 4.6521304E+002
 7.6002866E+001, 2.9902240E-002, 1.5807620E-001, 1.3793809E-001, 5.0218005E-004, 2.8921207E-004, 1.0213003E-003, 4.6419912E+002
 7.7004987E+001, 2.8050218E-002, 1.5950253E-001, 1.3916714E-001, 5.2419248E-004, 2.8677371E-004, 1.0342946E-003, 4.6048819E+002
 7.8005480E+001, 2.6876486E-002, 1.6039010E-001, 1.3995122E-001, 5.4796111E-004, 2.9770085E-004, 1.0445399E-003, 4.6259040E+002
 7.9009319E+001, 2.5383822E-002, 1.6156529E-001, 1.4092848E-001, 5.4767784E-004, 2.9728633E-004, 1.0512968E-003, 4.6568844E+002
 8.0004150E+001, 2.4270739E-002, 1.6242752E-001, 1.4166415E-001, 5.5718278E-004, 2.9779527E-004, 1.0583369E-003, 4.6799942E+002
 8.1004514E+001, 2.3508754E-002, 1.6298297E-001, 1.4218120E-001, 5.8581736E-004, 3.1468857E-004, 1.0676987E-003, 4.6261530E+002
 8.2005489E+001, 2.2019292E-002, 1.6406255E-001, 1.4320069E-001, 6.4898400E-004, 3.2481159E-004, 1.0875051E-003, 4.6298779E+002
 8.3000842E+001, 2.1608197E-002, 1.6437542E-001, 1.4347432E-001, 6.5592642E-004, 3.2853953E-004, 1.0908087E-003, 4.6072084E+002
 8.4003999E+001, 2.0324291E-002, 1.6534813E-001, 1.4433295E-001, 6.8160880E-004, 3.3299512E-004, 1.1019582E-003, 4.6116740E+002
 8.5006039E+001, 1.8557578E-002, 1.6665131E-001, 1.4553126E-001, 7.4101545E-004, 3.4309992E-004, 1.1222555E-003, 4.6457714E+002
 8.6000695E+001, 1.8123203E-002, 1.6694239E-001, 1.4583799E-001, 7.7466196E-004, 3.5637397E-004, 1.1311583E-003, 4.6476088E+002
 8.7004316E+001, 1.6803672E-002, 1.6784304E-001, 1.4676273E-001, 8.6608457E-004, 3.9174037E-004, 1.1559849E-003, 4.6170809E+002
 8.8005873E+001, 1.5976891E-002, 1.6852786E-001, 1.4729340E-001, 8.4563436E-004, 3.6557411E-004, 1.1555731E-003, 4.5836643E+002
 8.9009281E+001, 1.5085357E-002, 1.6916078E-001, 1.4791200E-001, 8.9353417E-004, 3.6491687E-004, 1.1695149E-003, 4.6127968E+002
 9.0009763E+001, 1.3854650E-002, 1.6991372E-001, 1.4881713E-001, 1.0387614E-003, 4.0305656E-004, 1.2050206E-003, 4.6199423E+002
 9.1000121E+001, 1.3455392E-002, 1.7012377E-001, 1.4912362E-001, 1.1074457E-003, 4.3308890E-004, 1.2209655E-003, 4.5952524E+002
 9.2000182E+001, 1.2345187E-002, 1.7078982E-001, 1.4995099E-001, 1.2497691E-003, 4.5052298E-004, 1.2553445E-003, 4.6583434E+002
 9.3004025E+001, 1.1265585E-002, 1.7146073E-001, 1.5074120E-001, 1.3706599E-003, 4.7805407E-004, 1.2851565E-003, 4.6368977E+002
 9.4009407E+001, 1.0973416E-002, 1.7183372E-001, 1.5086369E-001, 1.2727876E-003, 4.6469892E-004, 1.2663359E-003, 4.6591426E+002
 9.5005046E+001, 9.6091774E-003, 1.7186041E-001, 1.5226443E-001, 1.9909504E-003, 5.4755004E-004, 1.4204690E-003, 4.5795851E+002
 9.6004330E+001, 9.1662905E-003, 1.7218627E-001, 1.5255397E-001, 2.0006735E-003, 5.9536093E-004, 1.4244442E-003, 4.5725261E+002
 9.7002780E+001, 8.6987629E-003, 1.7267791E-001, 1.5280927E-001, 1.9204616E-003, 5.4897569E-004, 1.4100984E-003, 4.5928789E+002
 9.8004179E+001, 8.3461715E-003, 1.7272568E-001, 1.5314571E-001, 2.0750961E-003, 5.9035396E-004, 1.4435301E-003, 4.6295806E+002
 9.9002675E+001, 7.9106753E-003, 1.7287171E-001, 1.5352687E-001, 2.2103578E-003, 6.0325392E-004, 1.4733782E-003, 4.5359081E+002
 1.0000464E+002, 7.6057359E-003, 1.7229934E-001, 1.5411561E-001, 2.7652198E-003, 6.8628305E-004, 1.5890233E-003, 4.5138196E+002
 1.0100348E+002, 7.1483506E-003, 1.7258901E-001, 1.5444381E-001, 2.8107036E-003, 7.1338468E-004, 1.6004559E-003, 4.5453909E+002
 1.0200759E+002, 6.8456289E-003, 1.7227906E-001, 1.5488554E-001, 3.1754338E-003, 8.4577985E-004, 1.6768583E-003, 4.4630261E+002
 1.0300534E+002, 7.1412902E-003, 1.7253629E-001, 1.5444700E-001, 2.8355578E-003, 8.3709705E-004, 1.6054793E-003, 4.4491551E+002
 1.0400939E+002, 6.3299163E-003, 1.7265460E-001, 1.5523506E-001, 3.1947697E-003, 8.5972205E-004, 1.6831827E-003, 4.5336584E+002
 1.0500275E+002, 6.4414813E-003, 1.7237142E-001, 1.5525855E-001, 3.3297333E-003, 8.6775847E-004, 1.7104768E-003, 4.5147926E+002
 1.0600874E+002, 6.5420270E-003, 1.7128734E-001, 1.5565361E-001, 4.0057573E-003, 1.0523333E-003, 1.8491314E-003, 4.4431866E+002
 1.0700572E+002, 6.3641249E-003, 1.7137457E-001, 1.5576048E-001, 4.0240254E-003, 1.1977621E-003, 1.8535548E-003, 4.4125860E+002
 1.0800113E+002, 5.9996420E-003, 1.7167096E-001, 1.5603344E-001, 4.0373028E-003, 1.0408262E-003, 1.8581205E-003, 4.4245603E+002
 1.0900072E+002, 5.7503355E-003, 1.7108050E-001, 1.5655939E-001, 4.5674591E-003, 1.1776029E-003, 1.9683638E-003, 4.3632213E+002
 1.1000506E+002, 5.3670237E-003, 1.7025613E-001, 1.5731732E-001, 5.3200872E-003, 1.4225609E-003, 2.1249496E-003, 4.3786373E+002
 1.1100250E+002, 5.5841793E-003, 1.7058470E-001, 1.5695816E-001, 4.9902725E-003, 1.2822340E-003, 2.0561412E-003, 4.4233001E+002
 1.1200884E+002, 5.1899884E-003, 1.6995549E-001, 1.5765948E-001, 5.6285104E-003, 1.4052141E-003, 2.1893330E-003, 4.4166264E+002
 1.1300882E+002, 5.7281731E-003, 1.6919405E-001, 1.5740761E-001, 5.8280802E-003, 1.6857171E-003, 2.2277054E-003, 4.4019206E+002
 1.1400533E+002, 5.4221092E-003, 1.6890421E-001, 1.5788552E-001, 6.2024506E-003, 1.6463893E-003, 2.3062908E-003, 4.3512903E+002
 1.1500802E+002, 5.2844937E-003, 1.6805334E-001, 1.5836561E-001, 6.8222432E-003, 2.0228859E-003, 2.4342427E-003, 4.3152853E+002
 1.1600876E+002, 5.5346792E-003, 1.6888332E-001, 1.5776024E-001, 6.1464595E-003, 1.7162727E-003, 2.2941650E-003, 4.3346093E+002
 1.1700459E+002, 5.3266029E-003, 1.6817235E-001, 1.5829098E-001, 6.7314697E-003, 1.9037372E-003, 2.4154704E-003, 4.3031985E+002
 1.1801003E+002, 5.1921039E-003, 1.6779464E-001, 1.5858672E-001, 7.0495735E-003, 2.0491640E-003, 2.4814828E-003, 4.3096759E+002
 1.1900305E+002, 5.0002243E-003, 1.6838948E-001, 1.5854161E-001, 6.7677159E-003, 1.8360215E-003, 2.4245012E-003, 4.3407779E+002
 1.2000212E+002, 4.8482746E-003, 1.6722128E-001, 1.5921981E-001, 7.6279257E-003, 2.1203473E-003, 2.6021586E-003, 4.2614798E+002
 1.2100620E+002, 4.8176717E-003, 1.6732083E-001, 1.5919373E-001, 7.5712978E-003, 2.1526649E-003, 2.5905949E-003, 4.3065370E+002
 1.2200476E+002, 4.8936608E-003, 1.6637299E-001, 1.5944240E-001, 8.1132207E-003, 2.7526114E-003, 2.7012893E-003, 4.2745386E+002
 1.2300989E+002, 5.1408064E-003, 1.6615728E-001, 1.5932095E-001, 8.1431050E-003, 2.6334778E-003, 2.7064449E-003, 4.2632887E+002
 1.2400292E+002, 4.8786991E-003, 1.6591160E-001, 1.5971562E-001, 8.4551615E-003, 2.6532168E-003, 2.7719263E-003, 4.2693544E+002
 1.2500137E+002, 4.8132219E-003, 1.6550865E-001, 1.5997873E-001, 8.7668927E-003, 2.6893817E-003, 2.8364255E-003, 4.2503101E+002
 1.2600409E+002, 5.4152458E-003, 1.6465362E-001, 1.5965795E-001, 8.9716919E-003, 3.1664146E-003, 2.8753768E-003, 4.2302639E+002
 1.2700444E+002, 4.8209391E-003, 1.6448125E-001, 1.6033182E-001, 9.3977576E-003, 3.3194840E-003, 2.9657281E-003, 4.2432994E+002
 1.2800941E+002, 4.7819634E-003, 1.6441968E-001, 1.6045744E-001, 9.4892506E-003, 3.1044767E-003, 2.9849868E-003, 4.2299837E+002
 1.2900881E+002, 5.0600674E-003, 1.6373440E-001, 1.6045792E-001, 9.7870466E-003, 3.3158468E-003, 3.0448610E-003, 4.1962223E+002
 1.3000725E+002, 4.5816998E-003, 1.6373064E-001, 1.6094558E-001, 1.0042840E-002, 3.3855522E-003, 3.0996830E-003, 4.2648363E+002
 1.3100138E+002, 4.7905496E-003, 1.6332224E-001, 1.6094871E-001, 1.0221250E-002, 3.3181659E-003, 3.1355653E-003, 4.2382988E+002
 1.3201012E+002, 4.6912298E-003, 1.6291667E-001, 1.6121091E-001, 1.0534071E-002, 3.5061115E-003, 3.2002838E-003, 4.2097631E+002
 1.3300142E+002, 4.7937106E-003, 1.6233297E-001, 1.6128974E-001, 1.0829287E-002, 3.9386999E-003, 3.2601949E-003, 4.1708195E+002
 1.3400316E+002, 4.7945918E-003, 1.6226129E-001, 1.6137677E-001, 1.0905075E-002, 3.7308343E-003, 3.2760276E-003, 4.2038449E+002
 1.3500873E+002, 4.8996908E-003, 1.6192473E-001, 1.6141961E-001, 1.1073415E-002, 3.7965674E-003, 3.3101683E-003, 4.2379229E+002
 1.3600403E+002, 4.7063786E-003, 1.6109393E-001, 1.6190435E-001, 1.1687433E-002, 4.3488664E-003, 3.4369992E-003, 4.2096453E+002
 1.3700025E+002, 4.6938126E-003, 1.6127137E-001, 1.6177558E-001, 1.1544078E-002, 4.5594833E-003, 3.4072932E-003, 4.1629858E+002
 1.3800700E+002, 4.5898641E-003, 1.6150611E-001, 1.6191628E-001, 1.1513928E-002, 3.9584571E-003, 3.4021887E-003, 4.2078420E+002
 1.3900128E+002, 4.9177130E-003, 1.6015450E-001, 1.6206462E-001, 1.2179011E-002, 4.7152551E-003, 3.5369475E-003, 4.1305007E+002
 1.4000841E+002, 4.8562902E-003, 1.5992394E-001, 1.6228934E-001, 1.2395448E-002, 4.5394264E-003, 3.5820144E-003, 4.1562987E+002
 1.4100042E+002, 4.8151972E-003, 1.6030076E-001, 1.6219092E-001, 1.2180356E-002, 4.3450942E-003, 3.5380829E-003, 4.1467271E+002
 1.4200702E+002, 4.7298905E-003, 1.5919180E-001, 1.6262264E-001, 1.2888203E-002, 5.2173585E-003, 3.6834186E-003, 4.1634217E+002
 1.4300868E+002, 4.5215686E-003, 1.5941955E-001, 1.6289225E-001, 1.2928040E-002, 4.5536759E-003, 3.6932790E-003, 4.1693830E+002
 1.4400685E+002, 4.3576019E-003, 1.5911168E-001, 1.6312810E-001, 1.3185323E-002, 4.9224398E-003, 3.7466570E-003, 4.1501530E+002
 1.4500604E+002, 4.8663304E-003, 1.5841178E-001, 1.6289853E-001, 1.3369586E-002, 5.1132024E-003, 3.7821041E-003, 4.1464555E+002
 1.4600758E+002, 4.6676371E-003, 1.5817982E-001, 1.6320019E-001, 1.3627475E-002, 5.2108087E-003, 3.8360515E-003, 4.1459140E+002
 1.4700874E+002, 4.7038680E-003, 1.5756806E-001, 1.6342326E-001, 1.4009278E-002, 5.4009740E-003, 3.9143639E-003, 4.1647344E+002
 1.4800995E+002, 4.4941591E-003, 1.5783079E-001, 1.6349402E-001, 1.3932481E-002, 5.4703388E-003, 3.8994225E-003, 4.1451333E+002
 1.4900504E+002, 4.5051186E-003, 1.5790373E-001, 1.6350948E-001, 1.3908195E-002, 5.2144266E-003, 3.8946378E-003, 4.1283033E+002
 1.5000578E+002, 4.7364214E-003, 1.5670838E-001, 1.6373390E-001, 1.4544580E-002, 5.7571172E-003, 4.0241493E-003, 4.1398380E+002
 1.5100309E+002, 4.5241058E-003, 1.5719142E-001, 1.6378050E-001, 1.4358774E-002, 5.4884982E-003, 3.9871129E-003, 4.1185757E+002
 1.5200429E+002, 4.6964837E-003, 1.5679663E-001, 1.6379413E-001, 1.4536995E-002, 5.5053241E-003, 4.0230340E-003, 4.1476075E+002
 1.5300311E+002, 4.5623239E-003, 1.5604795E-001, 1.6417628E-001, 1.5061985E-002, 6.0534444E-003, 4.1312532E-003, 4.1144757E+002
 1.5400300E+002, 4.5567707E-003, 1.5619468E-001, 1.6414811E-001, 1.4983281E-002, 5.8929360E-003, 4.1152293E-003, 4.1298853E+002
