s,,,,,,,
Time,"O2 EXHAUST","CO2 EXHAUST","H2O EXHAUST","CO EXHAUST","FUEL EXHAUST","SOOT EXHAUST","TEMP EXHAUST"
 0.0000000E+000, 2.3099739E-001, 5.9146498E-004, 5.9412091E-003, 0.0000000E+000, 0.0000000E+000, 0.0000000E+000, 2.0000000E+001
 1.0017241E+000, 2.3099739E-001, 5.9146498E-004, 5.9412091E-003, 5.3337748E-032, 6.8506219E-031, 1.6527002E-032, 2.0459236E+001
 2.0013302E+000, 2.2300058E-001, 7.1099296E-003, 9.6110006E-003, 3.7694975E-005, 2.8562431E-004, 5.1926726E-005, 9.7747576E+001
 3.0009990E+000, 2.1834746E-001, 1.0914548E-002, 1.1763739E-002, 6.7719857E-005, 3.3285439E-004, 8.3970270E-005, 1.4029923E+002
 4.0009111E+000, 2.1218345E-001, 1.5980305E-002, 1.4604960E-002, 8.7843208E-005, 4.0204832E-004, 1.2233967E-004, 1.9581138E+002
 5.0057814E+000, 2.0742429E-001, 1.9873696E-002, 1.6801611E-002, 1.1367181E-004, 4.7452494E-004, 1.5407144E-004, 2.3381436E+002
 6.0039819E+000, 2.0106528E-001, 2.5123960E-002, 1.9736946E-002, 1.2678682E-004, 4.7440019E-004, 1.9216307E-004, 2.8235456E+002
 7.0016920E+000, 1.9476792E-001, 3.0353997E-002, 2.2642341E-002, 1.2485714E-004, 4.2134874E-004, 2.2686345E-004, 3.2648033E+002
 8.0020301E+000, 1.8700045E-001, 3.6830516E-002, 2.6227303E-002, 1.1200864E-004, 2.9795502E-004, 2.6757078E-004, 3.6804767E+002
 9.0021933E+000, 1.8106636E-001, 4.1775012E-002, 2.8965408E-002, 1.0316902E-004, 2.1413936E-004, 2.9885861E-004, 3.9736564E+002
 1.0005635E+001, 1.7189239E-001, 4.9415628E-002, 3.3197222E-002, 9.0113086E-005, 9.8199037E-005, 3.4733765E-004, 4.3472046E+002
 1.1001223E+001, 1.6466646E-001, 5.5422753E-002, 3.6529686E-002, 8.4218337E-005, 3.3012766E-005, 3.8639796E-004, 4.5888929E+002
 1.2000369E+001, 1.5885212E-001, 6.0242829E-002, 3.9211092E-002, 8.5517798E-005, 7.8422949E-006, 4.1904438E-004, 4.6828503E+002
 1.3000292E+001, 1.5129428E-001, 6.6495920E-002, 4.2696419E-002, 9.2652046E-005, 4.2708479E-007, 4.6257560E-004, 4.8628384E+002
 1.4006468E+001, 1.4153169E-001, 7.4568463E-002, 4.7198455E-002, 1.0395429E-004, 2.2298716E-007, 5.1922575E-004, 5.0823899E+002
 1.5001164E+001, 1.3741480E-001, 7.7972635E-002, 4.9096973E-002, 1.0873608E-004, 1.5303116E-007, 5.4311838E-004, 5.0524624E+002
 1.6001977E+001, 1.3212280E-001, 8.2348569E-002, 5.1537357E-002, 1.1481313E-004, 1.0676170E-007, 5.7381634E-004, 5.0952466E+002
 1.7003249E+001, 1.2493406E-001, 8.8292696E-002, 5.4852467E-002, 1.2320511E-004, 2.0767430E-007, 6.1554512E-004, 5.1510309E+002
 1.8004755E+001, 1.2069396E-001, 9.1798472E-002, 5.6807821E-002, 1.2826723E-004, 5.7969086E-007, 6.4018065E-004, 5.1363866E+002
 1.9003692E+001, 1.1599793E-001, 9.5681842E-002, 5.8973368E-002, 1.3354578E-004, 1.2342587E-007, 6.6739842E-004, 5.1529429E+002
 2.0001039E+001, 1.1009462E-001, 1.0056304E-001, 6.1695699E-002, 1.4045988E-004, 2.7807096E-007, 7.0167019E-004, 5.2014345E+002
 2.1003397E+001, 1.0507005E-001, 1.0471760E-001, 6.4012809E-002, 1.4637504E-004, 4.5865872E-007, 7.3084667E-004, 5.2011138E+002
 2.2005050E+001, 1.0077151E-001, 1.0825427E-001, 6.5996796E-002, 1.6062843E-004, 2.6264188E-005, 7.5767843E-004, 5.1843949E+002
 2.3006402E+001, 9.8670625E-002, 1.1000911E-001, 6.6963916E-002, 1.5382025E-004, 4.7625524E-007, 7.6798849E-004, 5.1504215E+002
 2.4004476E+001, 9.4850846E-002, 1.1310922E-001, 6.8729721E-002, 1.8779069E-004, 9.2937647E-005, 7.9615531E-004, 5.1329259E+002
 2.5007055E+001, 9.1818779E-002, 1.1551665E-001, 7.0137118E-002, 2.4313230E-004, 2.4096710E-004, 8.2429538E-004, 5.0934814E+002
 2.6008268E+001, 8.8720227E-002, 1.1792447E-001, 7.1582672E-002, 3.2882946E-004, 4.5635418E-004, 8.5900635E-004, 5.0849359E+002
 2.7008354E+001, 8.6841218E-002, 1.1940163E-001, 7.2450283E-002, 3.6624826E-004, 6.0261414E-004, 8.7702189E-004, 5.0165866E+002
 2.8004915E+001, 8.3495116E-002, 1.2159097E-001, 7.4019846E-002, 6.4989220E-004, 1.6057778E-003, 9.5309884E-004, 5.0507940E+002
 2.9006927E+001, 8.3002916E-002, 1.2215147E-001, 7.4240900E-002, 5.7695488E-004, 1.3329336E-003, 9.4107986E-004, 4.9548775E+002
 3.0007934E+001, 8.1592994E-002, 1.2299503E-001, 7.4925422E-002, 7.4972297E-004, 1.7852548E-003, 9.8412780E-004, 4.8448595E+002
 3.1001341E+001, 7.9853693E-002, 1.2421649E-001, 7.5737115E-002, 8.5648172E-004, 2.1636036E-003, 1.0154305E-003, 4.8653870E+002
 3.2008697E+001, 7.8732265E-002, 1.2461724E-001, 7.6304712E-002, 1.1330424E-003, 2.9336702E-003, 1.0779640E-003, 4.7511801E+002
 3.3007312E+001, 7.7607635E-002, 1.2563360E-001, 7.6820623E-002, 1.0934402E-003, 2.7766364E-003, 1.0762192E-003, 4.7510409E+002
 3.4008008E+001, 7.7071176E-002, 1.2556138E-001, 7.7094293E-002, 1.3459507E-003, 3.6583415E-003, 1.1303735E-003, 4.6560504E+002
 3.5000294E+001, 7.6125801E-002, 1.2611401E-001, 7.7525219E-002, 1.4460902E-003, 4.1418425E-003, 1.1557534E-003, 4.6054141E+002
 3.6007070E+001, 7.5125493E-002, 1.2675516E-001, 7.7990509E-002, 1.5338659E-003, 4.4898913E-003, 1.1790520E-003, 4.5904458E+002
 3.7005297E+001, 7.4537312E-002, 1.2695655E-001, 7.8267921E-002, 1.6672990E-003, 5.0229306E-003, 1.2092774E-003, 4.5264978E+002
 3.8003699E+001, 7.4219710E-002, 1.2688718E-001, 7.8423093E-002, 1.8234886E-003, 5.6355627E-003, 1.2426088E-003, 4.4622796E+002
 3.9005476E+001, 7.3525949E-002, 1.2716116E-001, 7.8736478E-002, 1.9538961E-003, 6.2678423E-003, 1.2726673E-003, 4.4314951E+002
 4.0009065E+001, 7.2473547E-002, 1.2768400E-001, 7.9202351E-002, 2.0962353E-003, 7.0659739E-003, 1.3069792E-003, 4.4230098E+002
 4.1008170E+001, 7.2064124E-002, 1.2789319E-001, 7.9410688E-002, 2.1698125E-003, 7.2158815E-003, 1.3243044E-003, 4.3853781E+002
 4.2005893E+001, 7.1573437E-002, 1.2799637E-001, 7.9608986E-002, 2.2848162E-003, 7.9718442E-003, 1.3498836E-003, 4.3677453E+002
 4.3003571E+001, 7.0922129E-002, 1.2830087E-001, 7.9900036E-002, 2.3835722E-003, 8.4887119E-003, 1.3732982E-003, 4.3473627E+002
 4.4001155E+001, 7.0946578E-002, 1.2782810E-001, 7.9884668E-002, 2.5837007E-003, 9.4116828E-003, 1.4134292E-003, 4.2969014E+002
 4.5004158E+001, 7.0892793E-002, 1.2792149E-001, 7.9922214E-002, 2.5715679E-003, 9.2442309E-003, 1.4114305E-003, 4.2745150E+002
 4.6004622E+001, 7.0320501E-002, 1.2792538E-001, 8.0100851E-002, 2.7176022E-003, 1.0647238E-002, 1.4430596E-003, 4.2225804E+002
 4.7002483E+001, 6.9796859E-002, 1.2811506E-001, 8.0349128E-002, 2.8327271E-003, 1.1093936E-002, 1.4692447E-003, 4.2209935E+002
 4.8010385E+001, 6.9891920E-002, 1.2802440E-001, 8.0266386E-002, 2.8081657E-003, 1.1331964E-002, 1.4633225E-003, 4.1799567E+002
 4.9007612E+001, 6.9567102E-002, 1.2817713E-001, 8.0378690E-002, 2.8318092E-003, 1.1768723E-002, 1.4694656E-003, 4.1622086E+002
 5.0008332E+001, 6.9356526E-002, 1.2790865E-001, 8.0429483E-002, 2.9953264E-003, 1.2904192E-002, 1.5030476E-003, 4.1285121E+002
 5.1007116E+001, 6.9287298E-002, 1.2778701E-001, 8.0454770E-002, 3.0706689E-003, 1.3296631E-002, 1.5185343E-003, 4.0767905E+002
 5.2006443E+001, 6.9099850E-002, 1.2791141E-001, 8.0485671E-002, 3.0419972E-003, 1.3663105E-002, 1.5131672E-003, 4.0792293E+002
 5.3001923E+001, 6.9203714E-002, 1.2767815E-001, 8.0392660E-002, 3.0734438E-003, 1.4204536E-002, 1.5184073E-003, 4.0256230E+002
 5.4001671E+001, 6.9213601E-002, 1.2731452E-001, 8.0299388E-002, 3.1650102E-003, 1.5399882E-002, 1.5357826E-003, 4.0357846E+002
 5.5005084E+001, 6.8957346E-002, 1.2746448E-001, 8.0398305E-002, 3.1783485E-003, 1.5629056E-002, 1.5396764E-003, 4.0130405E+002
 5.6008095E+001, 6.9173081E-002, 1.2718296E-001, 8.0212367E-002, 3.1580576E-003, 1.6309895E-002, 1.5333985E-003, 3.9612658E+002
 5.7006198E+001, 6.9449676E-002, 1.2672825E-001, 7.9992803E-002, 3.1886259E-003, 1.7265821E-002, 1.5369631E-003, 3.9886690E+002
 5.8010810E+001, 6.9593909E-002, 1.2662203E-001, 7.9870136E-002, 3.1394918E-003, 1.7548824E-002, 1.5256198E-003, 3.9248259E+002
 5.9002361E+001, 6.9700071E-002, 1.2634547E-001, 7.9733539E-002, 3.1568886E-003, 1.8406614E-002, 1.5275304E-003, 3.9606081E+002
 6.0011228E+001, 7.0083061E-002, 1.2599382E-001, 7.9529356E-002, 3.1509894E-003, 1.8627851E-002, 1.5238937E-003, 3.8515544E+002
 6.1005803E+001, 7.0444450E-002, 1.2552380E-001, 7.9219752E-002, 3.1177350E-003, 1.9754967E-002, 1.5135468E-003, 3.8643073E+002
 6.2008083E+001, 7.0871418E-002, 1.2485767E-001, 7.8894512E-002, 3.1593535E-003, 2.1084026E-002, 1.5180843E-003, 3.8714464E+002
 6.3008878E+001, 7.0869211E-002, 1.2489669E-001, 7.8862919E-002, 3.1176146E-003, 2.1189455E-002, 1.5093156E-003, 3.8274581E+002
 6.4010054E+001, 7.1408980E-002, 1.2435805E-001, 7.8541875E-002, 3.1030845E-003, 2.1769972E-002, 1.5025573E-003, 3.7510235E+002
 6.5001748E+001, 7.1683164E-002, 1.2413528E-001, 7.8346446E-002, 3.0480339E-003, 2.2141704E-002, 1.4891515E-003, 3.7844015E+002
 6.6010473E+001, 7.2389063E-002, 1.2338314E-001, 7.7894685E-002, 3.0259761E-003, 2.3171394E-002, 1.4793326E-003, 3.7094735E+002
 6.7005288E+001, 7.2582011E-002, 1.2317639E-001, 7.7754607E-002, 3.0077299E-003, 2.3546471E-002, 1.4739979E-003, 3.7032899E+002
 6.8000646E+001, 7.2825251E-002, 1.2288673E-001, 7.7610335E-002, 3.0225739E-003, 2.3899237E-002, 1.4752661E-003, 3.6917176E+002
 6.9006788E+001, 7.3916004E-002, 1.2188122E-001, 7.6958560E-002, 2.9536337E-003, 2.4923892E-002, 1.4536018E-003, 3.6444733E+002
 7.0004503E+001, 7.4179510E-002, 1.2151054E-001, 7.6795454E-002, 2.9900374E-003, 2.5456724E-002, 1.4589916E-003, 3.6123407E+002
 7.1008182E+001, 7.4818085E-002, 1.2073505E-001, 7.6372721E-002, 3.0020053E-003, 2.6654748E-002, 1.4563787E-003, 3.6344524E+002
 7.2001325E+001, 7.5017383E-002, 1.2048588E-001, 7.6166772E-002, 2.9521275E-003, 2.7450076E-002, 1.4439167E-003, 3.6152854E+002
 7.3010031E+001, 7.5913331E-002, 1.1980040E-001, 7.5684305E-002, 2.8730204E-003, 2.7721217E-002, 1.4221985E-003, 3.5391507E+002
 7.4011170E+001, 7.5872304E-002, 1.1983622E-001, 7.5685947E-002, 2.8589527E-003, 2.7812505E-002, 1.4193956E-003, 3.5571017E+002
 7.5008943E+001, 7.6522810E-002, 1.1901458E-001, 7.5203431E-002, 2.8455356E-003, 2.9381362E-002, 1.4109817E-003, 3.5855733E+002
 7.6000666E+001, 7.7666474E-002, 1.1792612E-001, 7.4547444E-002, 2.8096407E-003, 3.0372945E-002, 1.3959104E-003, 3.5505974E+002
 7.7011061E+001, 7.6907951E-002, 1.1861573E-001, 7.4992994E-002, 2.8559979E-003, 2.9721932E-002, 1.4105686E-003, 3.4906620E+002
 7.8012309E+001, 7.7285631E-002, 1.1837102E-001, 7.4794222E-002, 2.8063091E-003, 2.9722827E-002, 1.3981743E-003, 3.4254029E+002
 7.9012201E+001, 7.8053674E-002, 1.1761979E-001, 7.4360130E-002, 2.7962511E-003, 3.0393576E-002, 1.3909564E-003, 3.4063786E+002
 8.0000431E+001, 7.9096387E-002, 1.1657604E-001, 7.3643941E-002, 2.6959318E-003, 3.2049635E-002, 1.3622484E-003, 3.4644782E+002
 8.1008873E+001, 7.9175202E-002, 1.1649895E-001, 7.3566149E-002, 2.6693768E-003, 3.2301394E-002, 1.3559861E-003, 3.4276826E+002
 8.2002852E+001, 7.9561748E-002, 1.1609521E-001, 7.3289568E-002, 2.6312318E-003, 3.3009720E-002, 1.3450245E-003, 3.3896131E+002
 8.3007262E+001, 7.9939911E-002, 1.1565389E-001, 7.3003430E-002, 2.6027859E-003, 3.3880471E-002, 1.3359097E-003, 3.4196610E+002
 8.4000381E+001, 7.9808584E-002, 1.1586777E-001, 7.3157024E-002, 2.6270615E-003, 3.3159128E-002, 1.3425955E-003, 3.3815799E+002
 8.5003918E+001, 8.0793036E-002, 1.1479404E-001, 7.2456709E-002, 2.5534770E-003, 3.5031170E-002, 1.3194717E-003, 3.3571632E+002
 8.6001742E+001, 8.0699887E-002, 1.1488783E-001, 7.2531128E-002, 2.5702108E-003, 3.4824719E-002, 1.3237213E-003, 3.3678925E+002
 8.7005218E+001, 8.1304831E-002, 1.1427661E-001, 7.2101951E-002, 2.5040610E-003, 3.5871996E-002, 1.3053085E-003, 3.3816729E+002
 8.8011600E+001, 8.1476460E-002, 1.1409486E-001, 7.1947650E-002, 2.4640637E-003, 3.6364751E-002, 1.2954358E-003, 3.3512455E+002
 8.9001392E+001, 8.1460705E-002, 1.1411114E-001, 7.1949044E-002, 2.4581114E-003, 3.6390576E-002, 1.2942573E-003, 3.3410518E+002
 9.0010857E+001, 8.1860566E-002, 1.1358539E-001, 7.1599801E-002, 2.4187456E-003, 3.7685760E-002, 1.2822146E-003, 3.3155582E+002
 9.1010301E+001, 8.1901106E-002, 1.1369833E-001, 7.1685226E-002, 2.4328377E-003, 3.6821496E-002, 1.2860186E-003, 3.2795026E+002
 9.2001382E+001, 8.2793301E-002, 1.1277372E-001, 7.1020529E-002, 2.3213263E-003, 3.8586736E-002, 1.2556894E-003, 3.3061576E+002
 9.3000388E+001, 8.2801691E-002, 1.1275561E-001, 7.1003555E-002, 2.3162730E-003, 3.8681057E-002, 1.2544748E-003, 3.2840022E+002
 9.4002305E+001, 8.3205341E-002, 1.1241350E-001, 7.0739863E-002, 2.2600203E-003, 3.9124324E-002, 1.2400080E-003, 3.2831311E+002
 9.5009080E+001, 8.3362138E-002, 1.1219077E-001, 7.0607302E-002, 2.2553941E-003, 3.9641028E-002, 1.2375135E-003, 3.2629475E+002
 9.6008087E+001, 8.3585815E-002, 1.1182732E-001, 7.0362186E-002, 2.2263359E-003, 4.0777282E-002, 1.2287902E-003, 3.3156390E+002
 9.7011678E+001, 8.3621761E-002, 1.1177848E-001, 7.0324902E-002, 2.2189824E-003, 4.0929242E-002, 1.2268718E-003, 3.2508158E+002
 9.8010054E+001, 8.4207475E-002, 1.1124008E-001, 6.9982615E-002, 2.1871874E-003, 4.1434023E-002, 1.2163791E-003, 3.2686269E+002
 9.9013129E+001, 8.4054371E-002, 1.1131849E-001, 6.9995309E-002, 2.1645564E-003, 4.1848518E-002, 1.2120105E-003, 3.2951686E+002
 1.0000829E+002, 8.4782725E-002, 1.1069062E-001, 6.9546519E-002, 2.0885365E-003, 4.2520682E-002, 1.1913488E-003, 3.2154072E+002
 1.0100235E+002, 8.4636864E-002, 1.1070013E-001, 6.9552122E-002, 2.0912750E-003, 4.3080978E-002, 1.1920075E-003, 3.2317619E+002
 1.0200448E+002, 8.4468736E-002, 1.1097007E-001, 6.9712029E-002, 2.0958995E-003, 4.2367288E-002, 1.1948177E-003, 3.2234220E+002
 1.0300306E+002, 8.5019904E-002, 1.1028153E-001, 6.9265270E-002, 2.0519868E-003, 4.3890061E-002, 1.1806991E-003, 3.2609551E+002
 1.0400852E+002, 8.5010187E-002, 1.1022791E-001, 6.9202753E-002, 2.0282599E-003, 4.4381345E-002, 1.1752072E-003, 3.2110563E+002
 1.0500975E+002, 8.5040695E-002, 1.1006874E-001, 6.9070189E-002, 1.9974316E-003, 4.5299823E-002, 1.1674717E-003, 3.2649134E+002
 1.0600058E+002, 8.4821374E-002, 1.1035521E-001, 6.9250479E-002, 2.0112274E-003, 4.4655190E-002, 1.1723777E-003, 3.2548751E+002
 1.0700608E+002, 8.5408711E-002, 1.0982505E-001, 6.8891968E-002, 1.9632403E-003, 4.5226033E-002, 1.1584371E-003, 3.2161540E+002
 1.0800264E+002, 8.5413891E-002, 1.0957347E-001, 6.8711434E-002, 1.9375670E-003, 4.6698218E-002, 1.1511987E-003, 3.2458123E+002
 1.0901163E+002, 8.4966573E-002, 1.0999820E-001, 6.8993737E-002, 1.9718073E-003, 4.6170819E-002, 1.1614572E-003, 3.2731200E+002
 1.1001439E+002, 8.5637936E-002, 1.0927790E-001, 6.8549498E-002, 1.9418604E-003, 4.7240210E-002, 1.1501452E-003, 3.2091736E+002
 1.1100924E+002, 8.5869960E-002, 1.0901392E-001, 6.8382504E-002, 1.9279354E-003, 4.7713814E-002, 1.1453616E-003, 3.1849977E+002
 1.1200088E+002, 8.5326409E-002, 1.0950901E-001, 6.8660870E-002, 1.9293309E-003, 4.7470547E-002, 1.1489870E-003, 3.2232112E+002
 1.1300199E+002, 8.5546530E-002, 1.0912451E-001, 6.8439584E-002, 1.9280871E-003, 4.8532441E-002, 1.1461403E-003, 3.2441260E+002
 1.1400870E+002, 8.5702078E-002, 1.0905500E-001, 6.8346416E-002, 1.8848954E-003, 4.8532778E-002, 1.1363281E-003, 3.1962691E+002
 1.1501358E+002, 8.5465098E-002, 1.0921404E-001, 6.8467727E-002, 1.9109884E-003, 4.8540057E-002, 1.1430418E-003, 3.2000176E+002
 1.1601072E+002, 8.5851153E-002, 1.0883221E-001, 6.8181938E-002, 1.8559397E-003, 4.9257508E-002, 1.1285699E-003, 3.2222298E+002
 1.1700864E+002, 8.6046640E-002, 1.0846493E-001, 6.8041603E-002, 1.9095645E-003, 4.9942788E-002, 1.1377092E-003, 3.2215771E+002
 1.1800646E+002, 8.5762493E-002, 1.0860744E-001, 6.8140960E-002, 1.9271033E-003, 5.0301015E-002, 1.1424624E-003, 3.2359853E+002
 1.1901758E+002, 8.5907271E-002, 1.0849381E-001, 6.8059296E-002, 1.9127637E-003, 5.0370884E-002, 1.1385971E-003, 3.2302339E+002
 1.2001109E+002, 8.6092305E-002, 1.0819474E-001, 6.7945128E-002, 1.9560284E-003, 5.0820194E-002, 1.1459519E-003, 3.1695585E+002
 1.2100942E+002, 8.5797613E-002, 1.0834782E-001, 6.7994593E-002, 1.9307130E-003, 5.1475982E-002, 1.1415049E-003, 3.2201242E+002
 1.2200537E+002, 8.5343734E-002, 1.0874852E-001, 6.8296093E-002, 1.9906066E-003, 5.0918217E-002, 1.1571524E-003, 3.2504384E+002
 1.2300896E+002, 8.6086182E-002, 1.0807472E-001, 6.7891295E-002, 1.9687300E-003, 5.1380789E-002, 1.1478965E-003, 3.2158619E+002
 1.2400377E+002, 8.6085275E-002, 1.0769041E-001, 6.7653228E-002, 1.9586265E-003, 5.3459061E-002, 1.1431381E-003, 3.1959922E+002
 1.2501281E+002, 8.5984317E-002, 1.0765229E-001, 6.7746925E-002, 2.0495576E-003, 5.3441646E-002, 1.1625569E-003, 3.2900172E+002
 1.2601271E+002, 8.6110272E-002, 1.0776352E-001, 6.7730156E-002, 1.9843744E-003, 5.2785786E-002, 1.1491974E-003, 3.1692568E+002
 1.2700977E+002, 8.5467215E-002, 1.0823215E-001, 6.8080146E-002, 2.0544976E-003, 5.2617305E-002, 1.1675160E-003, 3.2127678E+002
 1.2801624E+002, 8.5503646E-002, 1.0810740E-001, 6.7986331E-002, 2.0378409E-003, 5.3229317E-002, 1.1630768E-003, 3.2495922E+002
 1.2900265E+002, 8.6091541E-002, 1.0741416E-001, 6.7617934E-002, 2.0555137E-003, 5.4176692E-002, 1.1622495E-003, 3.2384480E+002
 1.3000599E+002, 8.6198105E-002, 1.0718656E-001, 6.7462097E-002, 2.0361445E-003, 5.5041259E-002, 1.1565337E-003, 3.1861537E+002
 1.3101395E+002, 8.5865101E-002, 1.0729605E-001, 6.7609895E-002, 2.1066102E-003, 5.5402996E-002, 1.1725171E-003, 3.2116213E+002
 1.3200393E+002, 8.6154151E-002, 1.0730193E-001, 6.7572695E-002, 2.0700383E-003, 5.4387041E-002, 1.1646395E-003, 3.1689633E+002
 1.3300965E+002, 8.5955595E-002, 1.0704920E-001, 6.7530506E-002, 2.1548725E-003, 5.5952456E-002, 1.1813043E-003, 3.1554396E+002
 1.3401217E+002, 8.5638282E-002, 1.0746303E-001, 6.7742929E-002, 2.1379439E-003, 5.5287473E-002, 1.1804176E-003, 3.2244666E+002
 1.3500106E+002, 8.5787559E-002, 1.0719568E-001, 6.7653139E-002, 2.1863368E-003, 5.5689092E-002, 1.1890948E-003, 3.2428582E+002
 1.3601728E+002, 8.6068302E-002, 1.0691540E-001, 6.7480953E-002, 2.1748443E-003, 5.6019931E-002, 1.1847274E-003, 3.1977332E+002
 1.3700025E+002, 8.5914245E-002, 1.0685921E-001, 6.7460384E-002, 2.1871581E-003, 5.6889231E-002, 1.1870179E-003, 3.2003826E+002
 1.3800439E+002, 8.5911071E-002, 1.0686106E-001, 6.7471818E-002, 2.1951651E-003, 5.6835924E-002, 1.1887626E-003, 3.2060886E+002
 1.3901210E+002, 8.6244252E-002, 1.0647443E-001, 6.7260381E-002, 2.2003332E-003, 5.7374981E-002, 1.1872869E-003, 3.1746015E+002
 1.4000383E+002, 8.5763994E-002, 1.0677428E-001, 6.7559850E-002, 2.3044644E-003, 5.7139393E-002, 1.2118302E-003, 3.2067481E+002
 1.4101073E+002, 8.5863609E-002, 1.0650292E-001, 6.7447481E-002, 2.3382477E-003, 5.7880912E-002, 1.2173208E-003, 3.1885518E+002
 1.4201064E+002, 8.5926752E-002, 1.0650765E-001, 6.7437846E-002, 2.3275535E-003, 5.7660433E-002, 1.2150378E-003, 3.2142070E+002
 1.4301545E+002, 8.5850877E-002, 1.0642581E-001, 6.7477096E-002, 2.3958592E-003, 5.7924652E-002, 1.2292686E-003, 3.2479901E+002
 1.4401173E+002, 8.5998911E-002, 1.0634125E-001, 6.7374269E-002, 2.3521565E-003, 5.8039511E-002, 1.2192453E-003, 3.2024765E+002
 1.4500569E+002, 8.6080831E-002, 1.0606472E-001, 6.7250699E-002, 2.3799918E-003, 5.8926960E-002, 1.2234148E-003, 3.1547479E+002
 1.4600144E+002, 8.5692440E-002, 1.0626629E-001, 6.7471548E-002, 2.4662078E-003, 5.8935232E-002, 1.2434229E-003, 3.2333637E+002
 1.4700762E+002, 8.6453345E-002, 1.0571136E-001, 6.7050960E-002, 2.3784653E-003, 5.9170963E-002, 1.2207128E-003, 3.2012418E+002
 1.4800683E+002, 8.6063307E-002, 1.0590802E-001, 6.7214593E-002, 2.4229944E-003, 5.9510694E-002, 1.2316694E-003, 3.2356849E+002
 1.4900749E+002, 8.5792581E-002, 1.0617958E-001, 6.7416460E-002, 2.4610056E-003, 5.8992009E-002, 1.2417153E-003, 3.2031640E+002
 1.5000779E+002, 8.5684887E-002, 1.0606481E-001, 6.7416825E-002, 2.5148450E-003, 5.9668777E-002, 1.2525966E-003, 3.2164525E+002
 1.5100067E+002, 8.6152875E-002, 1.0570671E-001, 6.7113586E-002, 2.4342202E-003, 6.0092363E-002, 1.2327489E-003, 3.1838743E+002
 1.5200409E+002, 8.5768535E-002, 1.0606936E-001, 6.7373556E-002, 2.4780299E-003, 5.9547936E-002, 1.2446609E-003, 3.2135879E+002
 1.5300548E+002, 8.6053001E-002, 1.0555246E-001, 6.7206495E-002, 2.5766949E-003, 6.0305811E-002, 1.2625413E-003, 3.2561005E+002
 1.5400241E+002, 8.5917971E-002, 1.0572524E-001, 6.7234420E-002, 2.5230255E-003, 6.0373144E-002, 1.2520893E-003, 3.2661143E+002
