s,,,,,,,
Time,"O2 EXHAUST","CO2 EXHAUST","H2O EXHAUST","CO EXHAUST","FUEL EXHAUST","SOOT EXHAUST","TEMP EXHAUST"
 0.0000000E+000, 2.3099745E-001, 5.9146511E-004, 5.9409840E-003, 0.0000000E+000, 0.0000000E+000, 0.0000000E+000, 2.0000000E+001
 1.0006323E+000, 2.3099745E-001, 5.9146511E-004, 5.9409840E-003, 6.6675461E-027, 1.9471951E-026, 1.7373341E-027, 2.1573950E+001
 2.0004170E+000, 2.1870293E-001, 9.7940936E-003, 1.1263620E-002, 1.4233921E-004, 8.4347195E-005, 1.0356093E-004, 1.4321505E+002
 3.0011230E+000, 2.0987233E-001, 1.6405548E-002, 1.5087412E-002, 2.4444169E-004, 1.3690835E-004, 1.7792801E-004, 2.1641168E+002
 4.0014159E+000, 2.0076904E-001, 2.3321628E-002, 1.9003606E-002, 2.8478974E-004, 1.5203269E-004, 2.4134170E-004, 2.8646178E+002
 5.0038948E+000, 1.8935020E-001, 3.2186273E-002, 2.3867627E-002, 2.1312176E-004, 9.6925916E-005, 2.9592495E-004, 3.6547509E+002
 6.0035719E+000, 1.8025059E-001, 3.9259841E-002, 2.7741206E-002, 1.4984579E-004, 5.0140892E-005, 3.3816246E-004, 4.1408181E+002
 7.0029369E+000, 1.6983851E-001, 4.7337353E-002, 3.2177452E-002, 8.7823477E-005, 4.2516798E-006, 3.8860913E-004, 4.6642604E+002
 8.0022379E+000, 1.5932546E-001, 5.5385695E-002, 3.6684135E-002, 9.4609780E-005, 3.4869467E-008, 4.5371346E-004, 5.0600159E+002
 9.0023977E+000, 1.5319868E-001, 6.0069752E-002, 3.9312154E-002, 1.0266317E-004, 1.4676372E-008, 4.9249151E-004, 5.1205179E+002
 1.0002256E+001, 1.3775829E-001, 7.1870198E-002, 4.5936369E-002, 1.2572422E-004, 5.0311239E-007, 5.9078408E-004, 5.5259649E+002
 1.1006807E+001, 1.3036067E-001, 7.7529063E-002, 4.9108538E-002, 1.3325834E-004, 1.5008076E-007, 6.3715730E-004, 5.6298020E+002
 1.2000091E+001, 1.2461739E-001, 8.1917339E-002, 5.1572827E-002, 1.4256069E-004, 5.1422989E-007, 6.7386694E-004, 5.7343800E+002
 1.3001848E+001, 1.1909607E-001, 8.6141362E-002, 5.3940294E-002, 1.4788539E-004, 1.1552978E-007, 7.0841722E-004, 5.7155818E+002
 1.4004835E+001, 1.1375360E-001, 9.0225408E-002, 5.6232013E-002, 1.5517581E-004, 1.5360991E-007, 7.4228606E-004, 5.6777584E+002
 1.5005585E+001, 1.1121429E-001, 9.2167113E-002, 5.7321123E-002, 1.5827989E-004, 7.8657027E-008, 7.5831021E-004, 5.7337590E+002
 1.6004308E+001, 1.0799209E-001, 9.4628918E-002, 5.8703726E-002, 1.6361538E-004, 3.6657905E-007, 7.7892946E-004, 5.6979708E+002
 1.7002441E+001, 1.0499814E-001, 9.6918947E-002, 5.9987644E-002, 1.6682571E-004, 1.4439850E-007, 7.9773070E-004, 5.6343343E+002
 1.8004149E+001, 1.0067673E-001, 1.0022298E-001, 6.1841209E-002, 1.7236220E-004, 9.0213627E-008, 8.2505268E-004, 5.6885101E+002
 1.9004994E+001, 9.9048061E-002, 1.0146612E-001, 6.2540407E-002, 1.7586617E-004, 3.4243120E-007, 8.3564002E-004, 5.7330944E+002
 2.0003599E+001, 9.8692819E-002, 1.0174017E-001, 6.2692051E-002, 1.7466430E-004, 4.2529892E-008, 8.3754679E-004, 5.7203208E+002
 2.1005755E+001, 9.8274462E-002, 1.0206000E-001, 6.2871504E-002, 1.7522097E-004, 4.3611995E-008, 8.4019607E-004, 5.5905481E+002
 2.2005397E+001, 9.3565524E-002, 1.0565953E-001, 6.4891523E-002, 1.8179074E-004, 1.0382312E-007, 8.7007804E-004, 5.6468003E+002
 2.3000205E+001, 9.0072292E-002, 1.0832025E-001, 6.6392951E-002, 1.9318245E-004, 8.3964176E-007, 8.9358047E-004, 5.6341147E+002
 2.4004761E+001, 8.4496058E-002, 1.1259075E-001, 6.8782575E-002, 1.9548730E-004, 2.6925222E-007, 9.2784479E-004, 5.8271670E+002
 2.5007093E+001, 8.6032314E-002, 1.1141570E-001, 6.8123747E-002, 1.9381559E-004, 5.2137234E-007, 9.1819232E-004, 5.7413428E+002
 2.6006415E+001, 8.5649147E-002, 1.1170736E-001, 6.8288498E-002, 1.9520025E-004, 6.0099954E-007, 9.2079796E-004, 5.6367830E+002
 2.7003262E+001, 7.9727952E-002, 1.1622407E-001, 7.0831368E-002, 2.0988538E-004, 1.8670146E-006, 9.5968778E-004, 5.7609120E+002
 2.8006958E+001, 8.6114672E-002, 1.1134989E-001, 6.8089267E-002, 1.9563824E-004, 8.9439259E-007, 9.1806632E-004, 5.6812147E+002
 2.9001636E+001, 7.7873561E-002, 1.1764261E-001, 7.1626578E-002, 2.1179200E-004, 1.5667158E-006, 9.7131633E-004, 5.7606291E+002
 3.0002369E+001, 7.6963498E-002, 1.1834272E-001, 7.2015589E-002, 2.0999758E-004, 1.3683709E-006, 9.7646362E-004, 5.8323015E+002
 3.1002409E+001, 7.6754894E-002, 1.1849821E-001, 7.2106334E-002, 2.1303884E-004, 1.3985461E-006, 9.7835108E-004, 5.8081328E+002
 3.2000239E+001, 7.7012598E-002, 1.1830232E-001, 7.1995398E-002, 2.1188603E-004, 1.6131639E-006, 9.7655283E-004, 5.7405871E+002
 3.3002161E+001, 7.6512473E-002, 1.1868158E-001, 7.2210826E-002, 2.1463001E-004, 2.1209171E-006, 9.8014525E-004, 5.6533771E+002
 3.4003961E+001, 7.3926177E-002, 1.2064828E-001, 7.3323466E-002, 2.2530061E-004, 2.6969951E-006, 9.9800421E-004, 5.6911207E+002
 3.5002675E+001, 7.3133100E-002, 1.2126541E-001, 7.3660365E-002, 2.1896535E-004, 1.7288162E-006, 1.0015129E-003, 5.7403285E+002
 3.6001993E+001, 6.7220213E-002, 1.2576597E-001, 7.6202802E-002, 2.4045315E-004, 2.9420742E-006, 1.0417468E-003, 5.8139435E+002
 3.7006400E+001, 6.6773570E-002, 1.2611771E-001, 7.6391235E-002, 2.3400301E-004, 2.2028259E-006, 1.0431323E-003, 5.8504277E+002
 3.8003502E+001, 6.7735826E-002, 1.2538227E-001, 7.5978403E-002, 2.3257413E-004, 2.2645332E-006, 1.0370082E-003, 5.6690799E+002
 3.9002498E+001, 6.6687880E-002, 1.2619540E-001, 7.6424209E-002, 2.2573278E-004, 1.5976200E-006, 1.0419572E-003, 5.7490677E+002
 4.0002781E+001, 6.8191684E-002, 1.2503903E-001, 7.5781263E-002, 2.2836807E-004, 1.7860874E-006, 1.0333843E-003, 5.7236365E+002
 4.1000467E+001, 6.5747629E-002, 1.2689838E-001, 7.6832352E-002, 2.3781468E-004, 2.9536130E-006, 1.0501296E-003, 5.6525158E+002
 4.2000849E+001, 6.5799514E-002, 1.2687238E-001, 7.6805925E-002, 2.2839912E-004, 1.8500339E-006, 1.0478868E-003, 5.6751463E+002
 4.3007373E+001, 6.1305627E-002, 1.3030203E-001, 7.8735413E-002, 2.3845701E-004, 2.0759459E-006, 1.0771803E-003, 5.8406910E+002
 4.4003013E+001, 6.4971378E-002, 1.2749610E-001, 7.7164077E-002, 2.3596424E-004, 2.2260994E-006, 1.0544553E-003, 5.7700619E+002
 4.5001930E+001, 6.2310074E-002, 1.2953000E-001, 7.8305791E-002, 2.3992385E-004, 2.5848673E-006, 1.0713935E-003, 5.6464438E+002
 4.6004421E+001, 6.5804803E-002, 1.2686340E-001, 7.6805158E-002, 2.3176051E-004, 2.2705153E-006, 1.0485431E-003, 5.5851095E+002
 4.7003350E+001, 6.4617158E-002, 1.2777752E-001, 7.7312731E-002, 2.2913621E-004, 1.6574909E-006, 1.0552030E-003, 5.7143443E+002
 4.8002215E+001, 6.1583557E-002, 1.3009340E-001, 7.8615017E-002, 2.3545285E-004, 1.7867105E-006, 1.0748807E-003, 5.6707934E+002
 4.9004631E+001, 6.0040155E-002, 1.3126872E-001, 7.9278446E-002, 2.4064545E-004, 2.2526652E-006, 1.0852972E-003, 5.7375065E+002
 5.0002021E+001, 6.0224451E-002, 1.3113315E-001, 7.9197749E-002, 2.3674532E-004, 1.9464225E-006, 1.0833814E-003, 5.6380674E+002
 5.1003119E+001, 5.5361564E-002, 1.3483032E-001, 8.1289998E-002, 2.5729348E-004, 3.1845530E-006, 1.1170599E-003, 5.8690523E+002
 5.2004291E+001, 5.8024908E-002, 1.3281364E-001, 8.0141540E-002, 2.4037956E-004, 2.1527231E-006, 1.0974549E-003, 5.7959336E+002
 5.3002835E+001, 5.6472396E-002, 1.3399327E-001, 8.0809720E-002, 2.4742634E-004, 2.6272595E-006, 1.1083067E-003, 5.7222954E+002
 5.4001874E+001, 5.6789347E-002, 1.3375210E-001, 8.0673484E-002, 2.4628000E-004, 2.1385798E-006, 1.1061517E-003, 5.9111796E+002
 5.5006574E+001, 5.4456299E-002, 1.3549535E-001, 8.1686499E-002, 2.7694313E-004, 5.7626706E-006, 1.1265698E-003, 5.8013769E+002
 5.6003267E+001, 5.7977003E-002, 1.3284104E-001, 8.0164992E-002, 2.4682217E-004, 2.3697991E-006, 1.0990655E-003, 5.7190838E+002
 5.7005212E+001, 5.8713515E-002, 1.3228239E-001, 7.9847620E-002, 2.4274630E-004, 2.6193195E-006, 1.0937666E-003, 5.7077332E+002
 5.8007249E+001, 6.0161241E-002, 1.3118779E-001, 7.9222946E-002, 2.3251909E-004, 1.3702994E-006, 1.0828990E-003, 5.8202810E+002
 5.9001926E+001, 5.5491075E-002, 1.3473444E-001, 8.1233470E-002, 2.5496322E-004, 3.0368485E-006, 1.1157976E-003, 5.7875388E+002
 6.0003038E+001, 5.5865951E-002, 1.3445787E-001, 8.1069574E-002, 2.4758321E-004, 2.4483707E-006, 1.1120140E-003, 5.6317866E+002
 6.1002453E+001, 5.2088724E-002, 1.3735714E-001, 8.2686312E-002, 2.4471552E-004, 1.2304456E-006, 1.1343173E-003, 5.8735694E+002
 6.2006621E+001, 5.6231530E-002, 1.3418293E-001, 8.0911350E-002, 2.4397212E-004, 2.2241783E-006, 1.1090588E-003, 5.6755303E+002
 6.3004077E+001, 5.6973780E-002, 1.3361845E-001, 8.0592081E-002, 2.4096834E-004, 1.8271826E-006, 1.1039457E-003, 5.8029876E+002
 6.4005052E+001, 5.1813723E-002, 1.3755824E-001, 8.2807056E-002, 2.5132862E-004, 2.0208290E-006, 1.1373382E-003, 5.7041647E+002
 6.5006007E+001, 5.6003789E-002, 1.3434928E-001, 8.1011442E-002, 2.4960476E-004, 2.6199413E-006, 1.1115929E-003, 5.7173662E+002
 6.6006923E+001, 5.0666866E-002, 1.3842921E-001, 8.3300738E-002, 2.5680111E-004, 2.6715348E-006, 1.1454088E-003, 5.8171619E+002
 6.7000321E+001, 5.5585045E-002, 1.3467747E-001, 8.1188552E-002, 2.4461157E-004, 2.2702536E-006, 1.1131074E-003, 5.7216282E+002
 6.8006019E+001, 5.2307184E-002, 1.3715510E-001, 8.2603430E-002, 2.6848992E-004, 3.2500408E-006, 1.1378639E-003, 5.6922069E+002
 6.9002884E+001, 5.5908123E-002, 1.3443306E-001, 8.1049211E-002, 2.4244025E-004, 1.8734963E-006, 1.1107051E-003, 5.7563191E+002
 7.0002599E+001, 5.4048064E-002, 1.3585390E-001, 8.1847438E-002, 2.4572033E-004, 1.9689808E-006, 1.1226490E-003, 5.7003781E+002
 7.1006847E+001, 5.3350981E-002, 1.3638105E-001, 8.2148246E-002, 2.5061733E-004, 2.2006532E-006, 1.1278766E-003, 5.7026695E+002
 7.2005125E+001, 5.3976862E-002, 1.3590617E-001, 8.1878670E-002, 2.4731757E-004, 1.9561334E-006, 1.1234078E-003, 5.7292150E+002
 7.3007318E+001, 5.4629018E-002, 1.3540507E-001, 8.1599619E-002, 2.4811401E-004, 2.6629672E-006, 1.1196181E-003, 5.7237660E+002
 7.4007461E+001, 5.3761762E-002, 1.3606075E-001, 8.1973954E-002, 2.5435257E-004, 2.6996416E-006, 1.1261523E-003, 5.7117800E+002
 7.5002725E+001, 5.4144863E-002, 1.3574863E-001, 8.1815626E-002, 2.6710520E-004, 3.4784030E-006, 1.1264437E-003, 5.7713481E+002
 7.6005044E+001, 5.3579554E-002, 1.3620320E-001, 8.2051121E-002, 2.5241905E-004, 2.6339879E-006, 1.1268602E-003, 5.6914757E+002
 7.7006888E+001, 5.3661620E-002, 1.3615169E-001, 8.2012498E-002, 2.4463149E-004, 1.6685898E-006, 1.1247680E-003, 5.7478318E+002
 7.8004900E+001, 5.1397437E-002, 1.3786186E-001, 8.2990137E-002, 2.6192981E-004, 2.8967120E-006, 1.1420326E-003, 5.7959874E+002
 7.9006206E+001, 5.4021885E-002, 1.3587803E-001, 8.1857440E-002, 2.4295870E-004, 1.4392924E-006, 1.1222423E-003, 5.7728928E+002
 8.0002363E+001, 5.6969338E-002, 1.3362318E-001, 8.0593552E-002, 2.4004373E-004, 1.8985521E-006, 1.1037830E-003, 5.7065930E+002
 8.1007691E+001, 5.0295475E-002, 1.3871871E-001, 8.3458342E-002, 2.5348028E-004, 2.2284615E-006, 1.1469793E-003, 5.7465225E+002
 8.2001568E+001, 5.6272214E-002, 1.3416018E-001, 8.0891380E-002, 2.3822422E-004, 1.3445908E-006, 1.1076353E-003, 5.7879514E+002
 8.3007831E+001, 5.5358574E-002, 1.3484972E-001, 8.1285948E-002, 2.4550454E-004, 2.4552241E-006, 1.1146626E-003, 5.6392152E+002
 8.4004927E+001, 5.3090276E-002, 1.3657944E-001, 8.2260337E-002, 2.5158229E-004, 2.4029591E-006, 1.1296540E-003, 5.6820880E+002
 8.5000846E+001, 4.8999549E-002, 1.3969956E-001, 8.4017336E-002, 2.6203572E-004, 2.4546753E-006, 1.1565857E-003, 5.7856270E+002
 8.6003265E+001, 5.0472359E-002, 1.3857397E-001, 8.3385455E-002, 2.5981391E-004, 2.4836740E-006, 1.1472053E-003, 5.7011625E+002
 8.7003004E+001, 5.3589267E-002, 1.3620552E-001, 8.2043995E-002, 2.4575090E-004, 1.7409009E-006, 1.1254358E-003, 5.6908312E+002
 8.8005949E+001, 5.0109703E-002, 1.3886739E-001, 8.3536065E-002, 2.4922574E-004, 1.2643395E-006, 1.1472343E-003, 5.8473523E+002
 8.9006302E+001, 4.7864216E-002, 1.4055481E-001, 8.4508133E-002, 2.7217941E-004, 3.9855781E-006, 1.1655428E-003, 5.7589339E+002
 9.0002736E+001, 5.0880800E-002, 1.3827015E-001, 8.3207617E-002, 2.5345517E-004, 2.2082725E-006, 1.1434272E-003, 5.7848167E+002
 9.1003192E+001, 5.2066750E-002, 1.3736789E-001, 8.2697522E-002, 2.4883571E-004, 2.1086718E-006, 1.1352938E-003, 5.7004014E+002
 9.2006454E+001, 5.4151312E-002, 1.3577098E-001, 8.1804301E-002, 2.4825936E-004, 2.6930249E-006, 1.1225427E-003, 5.6769124E+002
 9.3007513E+001, 5.2744428E-002, 1.3684954E-001, 8.2406917E-002, 2.4812037E-004, 2.1348554E-006, 1.1310405E-003, 5.8106391E+002
 9.4005532E+001, 4.8542563E-002, 1.4005685E-001, 8.4210873E-002, 2.5717233E-004, 2.2287695E-006, 1.1583584E-003, 5.8148285E+002
 9.5005859E+001, 4.9128274E-002, 1.3961009E-001, 8.3959334E-002, 2.5570641E-004, 2.0824184E-006, 1.1545088E-003, 5.8354425E+002
 9.6002547E+001, 5.4497408E-002, 1.3550417E-001, 8.1656619E-002, 2.4938827E-004, 2.2638718E-006, 1.1206774E-003, 5.7155961E+002
 9.7007763E+001, 5.2695494E-002, 1.3688357E-001, 8.2429004E-002, 2.5054717E-004, 2.0010453E-006, 1.1318347E-003, 5.7222697E+002
 9.8000023E+001, 4.9545740E-002, 1.3928236E-001, 8.3782856E-002, 2.6099996E-004, 2.9437992E-006, 1.1530629E-003, 5.7233713E+002
 9.9000087E+001, 5.2632090E-002, 1.3692628E-001, 8.2457985E-002, 2.5458810E-004, 2.2955084E-006, 1.1330468E-003, 5.8053413E+002
 1.0000290E+002, 5.0919860E-002, 1.3823433E-001, 8.3192748E-002, 2.5753034E-004, 2.2721703E-006, 1.1440257E-003, 5.8226894E+002
 1.0100557E+002, 4.7683405E-002, 1.4071757E-001, 8.4578275E-002, 2.5569575E-004, 1.5528888E-006, 1.1632631E-003, 5.8376075E+002
 1.0200370E+002, 5.0806070E-002, 1.3833372E-001, 8.3237704E-002, 2.4914902E-004, 1.7000842E-006, 1.1429981E-003, 5.7152461E+002
 1.0300275E+002, 4.8092283E-002, 1.4040440E-001, 8.4402978E-002, 2.5548251E-004, 2.1450332E-006, 1.1607408E-003, 5.8194515E+002
 1.0400709E+002, 5.0186253E-002, 1.3880478E-001, 8.3504434E-002, 2.5189024E-004, 1.8731522E-006, 1.1473157E-003, 5.8230500E+002
 1.0500637E+002, 4.8616277E-002, 1.3998327E-001, 8.4184657E-002, 2.6896690E-004, 2.7172615E-006, 1.1603287E-003, 5.7110962E+002
 1.0600099E+002, 5.1295234E-002, 1.3795846E-001, 8.3028268E-002, 2.4937919E-004, 1.8395664E-006, 1.1400808E-003, 5.6457253E+002
 1.0700372E+002, 4.7272971E-002, 1.4101314E-001, 8.4759838E-002, 2.6865743E-004, 3.3369661E-006, 1.1684046E-003, 5.8614806E+002
 1.0800110E+002, 4.8536895E-002, 1.4005418E-001, 8.4215516E-002, 2.6202761E-004, 2.3359206E-006, 1.1593879E-003, 5.6896138E+002
 1.0900292E+002, 4.6588824E-002, 1.4153190E-001, 8.5054679E-002, 2.7254543E-004, 3.2112846E-006, 1.1733475E-003, 5.8964633E+002
 1.1000443E+002, 5.1888036E-002, 1.3750558E-001, 8.2773860E-002, 2.4835023E-004, 2.0059408E-006, 1.1362774E-003, 5.7271319E+002
 1.1100146E+002, 5.1383464E-002, 1.3789251E-001, 8.2989893E-002, 2.4817952E-004, 2.1509676E-006, 1.1392998E-003, 5.6972399E+002
 1.1200075E+002, 4.4407415E-002, 1.4321054E-001, 8.5986997E-002, 2.6791753E-004, 2.6218179E-006, 1.1856187E-003, 5.9153772E+002
 1.1300537E+002, 5.0161078E-002, 1.3881674E-001, 8.3517423E-002, 2.5687801E-004, 2.6542348E-006, 1.1484896E-003, 5.6334286E+002
 1.1400303E+002, 4.9574397E-002, 1.3926397E-001, 8.3769543E-002, 2.5859359E-004, 2.3143202E-006, 1.1523969E-003, 5.7836435E+002
 1.1500356E+002, 4.9841274E-002, 1.3906426E-001, 8.3653760E-002, 2.5529638E-004, 1.9063517E-006, 1.1501044E-003, 5.7623070E+002
 1.1600541E+002, 4.6654560E-002, 1.4149481E-001, 8.5022397E-002, 2.6340353E-004, 2.5609052E-006, 1.1710762E-003, 5.8457941E+002
 1.1700438E+002, 5.3523516E-002, 1.3625178E-001, 8.2073427E-002, 2.4858128E-004, 2.0338211E-006, 1.1264140E-003, 5.6360734E+002
 1.1800457E+002, 4.9999903E-002, 1.3894461E-001, 8.3585173E-002, 2.5393930E-004, 2.0797137E-006, 1.1488647E-003, 5.7831819E+002
 1.1900411E+002, 5.1076297E-002, 1.3811322E-001, 8.3126083E-002, 2.5833953E-004, 2.5442131E-006, 1.1432432E-003, 5.7679400E+002
 1.2000005E+002, 5.3236398E-002, 1.3647991E-001, 8.2193932E-002, 2.4304838E-004, 1.4576585E-006, 1.1270205E-003, 5.7124896E+002
 1.2100404E+002, 4.7229814E-002, 1.4105265E-001, 8.4776419E-002, 2.6430174E-004, 2.4436136E-006, 1.1677745E-003, 5.8806530E+002
 1.2200413E+002, 5.3621784E-002, 1.3618331E-001, 8.2029201E-002, 2.4386818E-004, 1.7677102E-006, 1.1248528E-003, 5.7301525E+002
 1.2300745E+002, 5.3914192E-002, 1.3595938E-001, 8.1903891E-002, 2.4374109E-004, 1.7897643E-006, 1.1230548E-003, 5.6622850E+002
 1.2400637E+002, 5.3665337E-002, 1.3615206E-001, 8.2009858E-002, 2.4238404E-004, 1.8281659E-006, 1.1242846E-003, 5.6793564E+002
 1.2500700E+002, 5.3395342E-002, 1.3634389E-001, 8.2130205E-002, 2.5277592E-004, 2.4871917E-006, 1.1280499E-003, 5.6447930E+002
 1.2600473E+002, 5.1993145E-002, 1.3741895E-001, 8.2730600E-002, 2.5243393E-004, 3.0658874E-006, 1.1364760E-003, 5.7033925E+002
 1.2700690E+002, 5.3977227E-002, 1.3590742E-001, 8.1877959E-002, 2.4620435E-004, 2.3758961E-006, 1.1231769E-003, 5.6538919E+002
 1.2800038E+002, 4.8708963E-002, 1.3993000E-001, 8.4139383E-002, 2.5670367E-004, 2.2197130E-006, 1.1572540E-003, 5.7813225E+002
 1.2900115E+002, 5.2299740E-002, 1.3718604E-001, 8.2598726E-002, 2.5108361E-004, 2.3826834E-006, 1.1343423E-003, 5.7646918E+002
 1.3000187E+002, 5.1921203E-002, 1.3748474E-001, 8.2758259E-002, 2.4522031E-004, 1.6125862E-006, 1.1354354E-003, 5.7456368E+002
 1.3100040E+002, 5.0878666E-002, 1.3827329E-001, 8.3208061E-002, 2.5241948E-004, 2.1537340E-006, 1.1432279E-003, 5.6531664E+002
 1.3200596E+002, 4.9387560E-002, 1.3940521E-001, 8.3850089E-002, 2.5987228E-004, 2.9728271E-006, 1.1537903E-003, 5.7872202E+002
 1.3300342E+002, 5.4381992E-002, 1.3560005E-001, 8.1703706E-002, 2.4424968E-004, 2.1933579E-006, 1.1203236E-003, 5.7615265E+002
 1.3400412E+002, 4.7719094E-002, 1.4067575E-001, 8.4567383E-002, 2.6557741E-004, 2.8643250E-006, 1.1650705E-003, 5.7898336E+002
 1.3500117E+002, 4.7921833E-002, 1.4053504E-001, 8.4476043E-002, 2.5552331E-004, 1.8003386E-006, 1.1617825E-003, 5.8602370E+002
 1.3600177E+002, 4.6159559E-002, 1.4177211E-001, 8.5265690E-002, 3.3330533E-004, 1.0162904E-005, 1.1883934E-003, 5.9201325E+002
 1.3700471E+002, 4.9380401E-002, 1.3940965E-001, 8.3853521E-002, 2.6062310E-004, 2.7803471E-006, 1.1539878E-003, 5.6936102E+002
 1.3800693E+002, 4.9581105E-002, 1.3926650E-001, 8.3764257E-002, 2.5329327E-004, 2.1377509E-006, 1.1512700E-003, 5.7579282E+002
 1.3900280E+002, 4.8979931E-002, 1.3972110E-001, 8.4023710E-002, 2.5755632E-004, 2.2087788E-006, 1.1557868E-003, 5.7605938E+002
 1.4000462E+002, 5.2843595E-002, 1.3676748E-001, 8.2366318E-002, 2.5228543E-004, 2.4430887E-006, 1.1312929E-003, 5.6859883E+002
 1.4100547E+002, 4.8493328E-002, 1.4009421E-001, 8.4232091E-002, 2.5744230E-004, 2.1714900E-006, 1.1587122E-003, 5.6637336E+002
 1.4200318E+002, 5.3637827E-002, 1.3616487E-001, 8.2024227E-002, 2.4808828E-004, 2.1293110E-006, 1.1256201E-003, 5.6504426E+002
 1.4300307E+002, 4.8995233E-002, 1.3970796E-001, 8.4017572E-002, 2.5851077E-004, 2.4091025E-006, 1.1558894E-003, 5.7386922E+002
 1.4400595E+002, 4.9389036E-002, 1.3940464E-001, 8.3849293E-002, 2.5949465E-004, 2.8854188E-006, 1.1537040E-003, 5.7356330E+002
 1.4500649E+002, 5.0196384E-002, 1.3877420E-001, 8.3507172E-002, 2.6758047E-004, 3.0088187E-006, 1.1504689E-003, 5.7172172E+002
 1.4600257E+002, 5.0687316E-002, 1.3842522E-001, 8.3288414E-002, 2.4880892E-004, 1.7043910E-006, 1.1436480E-003, 5.7991422E+002
 1.4700258E+002, 5.2443232E-002, 1.3707152E-001, 8.2538739E-002, 2.5426052E-004, 2.2041648E-006, 1.1341242E-003, 5.8007006E+002
 1.4800455E+002, 5.4230522E-002, 1.3571092E-001, 8.1770208E-002, 2.4784060E-004, 2.4304591E-006, 1.1219773E-003, 5.6690754E+002
 1.4900645E+002, 5.3995777E-002, 1.3589474E-001, 8.1869576E-002, 2.4517646E-004, 2.0486326E-006, 1.1228542E-003, 5.7279490E+002
 1.5000104E+002, 4.9321649E-002, 1.3946098E-001, 8.3876746E-002, 2.5630141E-004, 2.3784227E-006, 1.1534586E-003, 5.6880046E+002
 1.5100445E+002, 5.1937146E-002, 1.3746019E-001, 8.2755238E-002, 2.5368965E-004, 2.3415384E-006, 1.1370738E-003, 5.7242179E+002
 1.5200178E+002, 5.1268292E-002, 1.3797043E-001, 8.3042465E-002, 2.5532146E-004, 2.5012067E-006, 1.1414612E-003, 5.6914529E+002
 1.5300079E+002, 5.0823219E-002, 1.3830824E-001, 8.3234039E-002, 2.5752265E-004, 3.2292311E-006, 1.1446084E-003, 5.7268146E+002
 1.5400714E+002, 5.0466471E-002, 1.3858405E-001, 8.3386222E-002, 2.5596399E-004, 2.3749841E-006, 1.1464520E-003, 5.7026061E+002
