s,,,,,,,
Time,"O2 EXHAUST","CO2 EXHAUST","H2O EXHAUST","CO EXHAUST","FUEL EXHAUST","SOOT EXHAUST","TEMP EXHAUST"
 0.0000000E+000, 2.3099739E-001, 5.9146498E-004, 5.9412092E-003, 0.0000000E+000, 0.0000000E+000, 0.0000000E+000, 2.0000000E+001
 1.0051240E+000, 2.3099739E-001, 5.9146498E-004, 5.9412092E-003, 1.3507541E-033, 2.5906965E-032, 4.2668868E-034, 2.0413049E+001
 2.0002895E+000, 2.2370778E-001, 6.2793393E-003, 1.0694692E-002, 1.1402858E-005, 1.7855522E-004, 3.5442982E-005, 9.3985255E+001
 3.0011766E+000, 2.2007159E-001, 9.1238629E-003, 1.3080748E-002, 2.1488609E-005, 1.9289535E-004, 5.4107640E-005, 1.2851550E+002
 4.0008666E+000, 2.1422121E-001, 1.3699485E-002, 1.6910819E-002, 3.3615181E-005, 2.5387248E-004, 8.3252787E-005, 1.8343976E+002
 5.0037559E+000, 2.1077007E-001, 1.6398441E-002, 1.9172200E-002, 4.1888405E-005, 2.8212634E-004, 1.0068438E-004, 2.1352168E+002
 6.0034583E+000, 2.0668136E-001, 1.9616265E-002, 2.1852069E-002, 4.3159866E-005, 2.7173802E-004, 1.1962479E-004, 2.4708838E+002
 7.0018246E+000, 2.0206588E-001, 2.3256372E-002, 2.4879637E-002, 4.2450953E-005, 2.3462169E-004, 1.4059031E-004, 2.8293256E+002
 8.0045613E+000, 1.9580455E-001, 2.8206340E-002, 2.8989573E-002, 3.7701184E-005, 1.4923431E-004, 1.6828831E-004, 3.2601076E+002
 9.0070798E+000, 1.9065940E-001, 3.2274893E-002, 3.2366089E-002, 3.2975639E-005, 8.0136245E-005, 1.9087812E-004, 3.5562114E+002
 1.0000158E+001, 1.8475989E-001, 3.6932243E-002, 3.6235734E-002, 2.9965947E-005, 2.4247240E-005, 2.1725171E-004, 3.8220652E+002
 1.1006219E+001, 1.7904661E-001, 4.1431867E-002, 3.9980902E-002, 3.0569056E-005, 1.0810241E-006, 2.4348498E-004, 4.0534016E+002
 1.2004749E+001, 1.7403873E-001, 4.5369143E-002, 4.3262304E-002, 3.3386859E-005, 3.0246562E-008, 2.6693077E-004, 4.2035165E+002
 1.3006849E+001, 1.6774811E-001, 5.0314463E-002, 4.7384118E-002, 3.7079992E-005, 2.5148074E-008, 2.9641229E-004, 4.3984081E+002
 1.4006543E+001, 1.6386346E-001, 5.3368367E-002, 4.9929458E-002, 3.9349273E-005, 1.9339806E-008, 3.1461570E-004, 4.4729952E+002
 1.5004665E+001, 1.5844426E-001, 5.7628630E-002, 5.3480289E-002, 4.2529269E-005, 2.6366335E-008, 3.4001292E-004, 4.5935853E+002
 1.6002752E+001, 1.5429226E-001, 6.0892680E-002, 5.6200816E-002, 4.4974481E-005, 3.0905643E-008, 3.5947319E-004, 4.6271636E+002
 1.7004627E+001, 1.4943337E-001, 6.4712491E-002, 5.9384504E-002, 4.7806323E-005, 2.4480304E-008, 3.8224054E-004, 4.6569025E+002
 1.8001904E+001, 1.4420910E-001, 6.8819493E-002, 6.2807616E-002, 5.0882281E-005, 3.4926688E-008, 4.0672633E-004, 4.7297699E+002
 1.9007302E+001, 1.4077654E-001, 7.1517985E-002, 6.5056734E-002, 5.2889564E-005, 2.9519066E-008, 4.2281169E-004, 4.7722534E+002
 2.0002477E+001, 1.3782344E-001, 7.3839504E-002, 6.6991719E-002, 5.4649745E-005, 4.7517416E-008, 4.3665710E-004, 4.7614996E+002
 2.1001391E+001, 1.3403946E-001, 7.6814308E-002, 6.9471078E-002, 5.6833220E-005, 3.3018304E-008, 4.5438323E-004, 4.7710615E+002
 2.2002781E+001, 1.2880260E-001, 8.0931216E-002, 7.2902433E-002, 5.9909620E-005, 4.4009732E-008, 4.7892658E-004, 4.8208500E+002
 2.3002168E+001, 1.2695551E-001, 8.2383284E-002, 7.4112716E-002, 6.1002391E-005, 4.3368398E-008, 4.8758488E-004, 4.7746723E+002
 2.4007693E+001, 1.2361825E-001, 8.5006881E-002, 7.6299373E-002, 6.2934704E-005, 2.5262101E-008, 5.0321967E-004, 4.8046530E+002
 2.5007074E+001, 1.2072679E-001, 8.7279961E-002, 7.8193958E-002, 6.4644352E-005, 3.9051456E-008, 5.1677324E-004, 4.8030818E+002
 2.6007645E+001, 1.1845304E-001, 8.9067438E-002, 7.9683798E-002, 6.5988709E-005, 4.9032199E-008, 5.2743131E-004, 4.7769065E+002
 2.7001604E+001, 1.1468212E-001, 9.2031936E-002, 8.2154620E-002, 6.8191310E-005, 4.6583976E-008, 5.4510175E-004, 4.8018358E+002
 2.8007483E+001, 1.1243161E-001, 9.3801151E-002, 8.3629228E-002, 6.9516101E-005, 4.6294344E-008, 5.5564968E-004, 4.7896965E+002
 2.9002861E+001, 1.0897746E-001, 9.6516612E-002, 8.5892491E-002, 7.1537150E-005, 4.5941119E-008, 5.7183643E-004, 4.7967879E+002
 3.0004273E+001, 1.0731878E-001, 9.7820569E-002, 8.6979311E-002, 7.2511145E-005, 4.1663587E-008, 5.7961002E-004, 4.7564266E+002
 3.1007494E+001, 1.0437661E-001, 1.0013359E-001, 8.8907094E-002, 7.4203832E-005, 2.6482273E-008, 5.9339165E-004, 4.7732016E+002
 3.2003316E+001, 1.0176662E-001, 1.0218532E-001, 9.0617273E-002, 7.5791730E-005, 6.4905994E-008, 6.0563498E-004, 4.7973107E+002
 3.3006052E+001, 9.9646785E-002, 1.0385183E-001, 9.2006253E-002, 7.7025927E-005, 6.1604880E-008, 6.1556767E-004, 4.7640392E+002
 3.4003783E+001, 9.7237103E-002, 1.0574622E-001, 9.3585137E-002, 7.8415660E-005, 5.5077103E-008, 6.2685571E-004, 4.7448935E+002
 3.5000391E+001, 9.4274170E-002, 1.0807536E-001, 9.5526612E-002, 8.0253673E-005, 8.0389895E-008, 6.4076202E-004, 4.7375584E+002
 3.6003605E+001, 9.1767397E-002, 1.1004622E-001, 9.7169048E-002, 8.1603232E-005, 3.4583103E-008, 6.5248511E-004, 4.7614910E+002
 3.7001555E+001, 8.9066365E-002, 1.1216957E-001, 9.8938867E-002, 8.3217138E-005, 6.6085803E-008, 6.6514950E-004, 4.7930808E+002
 3.8000581E+001, 8.7495012E-002, 1.1340494E-001, 9.9968449E-002, 8.4105284E-005, 2.7062579E-008, 6.7250674E-004, 4.7410883E+002
 3.9005035E+001, 8.5172303E-002, 1.1523088E-001, 1.0149038E-001, 8.5493526E-005, 5.2493965E-008, 6.8339736E-004, 4.7569045E+002
 4.0008712E+001, 8.3164368E-002, 1.1680939E-001, 1.0280604E-001, 8.6677392E-005, 5.2047313E-008, 6.9280876E-004, 4.7437285E+002
 4.1001096E+001, 8.0404341E-002, 1.1897891E-001, 1.0461461E-001, 8.8464704E-005, 1.5118650E-007, 7.0577816E-004, 4.7807799E+002
 4.2003935E+001, 7.9125854E-002, 1.1998358E-001, 1.0545246E-001, 8.9464926E-005, 3.6400751E-007, 7.1182111E-004, 4.7296306E+002
 4.3000279E+001, 7.5922236E-002, 1.2248922E-001, 1.0755642E-001, 9.9464873E-005, 6.9368047E-006, 7.2850133E-004, 4.7555119E+002
 4.4000733E+001, 7.3541956E-002, 1.2434561E-001, 1.0912206E-001, 1.1043786E-004, 1.2909987E-005, 7.4162365E-004, 4.7472330E+002
 4.5005611E+001, 7.1873470E-002, 1.2564608E-001, 1.1021992E-001, 1.1868426E-004, 1.7065254E-005, 7.5093625E-004, 4.7806342E+002
 4.6002002E+001, 6.9948984E-002, 1.2714984E-001, 1.1148450E-001, 1.2566793E-004, 2.1136978E-005, 7.6115753E-004, 4.7419989E+002
 4.7001714E+001, 6.8129296E-002, 1.2855756E-001, 1.1268591E-001, 1.4138282E-004, 3.0825597E-005, 7.7269365E-004, 4.7591877E+002
 4.8002952E+001, 6.6485816E-002, 1.2983531E-001, 1.1376849E-001, 1.5151932E-004, 3.6766082E-005, 7.8227970E-004, 4.7245143E+002
 4.9008716E+001, 6.3548739E-002, 1.3212527E-001, 1.1570008E-001, 1.6521905E-004, 4.6612706E-005, 7.9850195E-004, 4.7770414E+002
 5.0001479E+001, 6.3093837E-002, 1.3247399E-001, 1.1600066E-001, 1.7067375E-004, 5.4546874E-005, 8.0169454E-004, 4.7362854E+002
 5.1005602E+001, 6.0029490E-002, 1.3484496E-001, 1.1802365E-001, 1.9688406E-004, 7.0840663E-005, 8.2106911E-004, 4.7522039E+002
 5.2006510E+001, 5.9275195E-002, 1.3543652E-001, 1.1851858E-001, 1.9830225E-004, 7.0927393E-005, 8.2480508E-004, 4.7612241E+002
 5.3002241E+001, 5.7122426E-002, 1.3709817E-001, 1.1994108E-001, 2.1913989E-004, 8.5234749E-005, 8.3891270E-004, 4.7499580E+002
 5.4001737E+001, 5.5897432E-002, 1.3804575E-001, 1.2075001E-001, 2.2983539E-004, 9.1292542E-005, 8.4670317E-004, 4.7644221E+002
 5.5005792E+001, 5.5375634E-002, 1.3845636E-001, 1.2109152E-001, 2.2976267E-004, 9.2073585E-005, 8.4906969E-004, 4.7298315E+002
 5.6004389E+001, 5.3378978E-002, 1.3999753E-001, 1.2241190E-001, 2.4961168E-004, 1.0115527E-004, 8.6226634E-004, 4.7160915E+002
 5.7006351E+001, 5.0832893E-002, 1.4197730E-001, 1.2408932E-001, 2.6534225E-004, 1.0859924E-004, 8.7712450E-004, 4.7336936E+002
 5.8007478E+001, 4.9651968E-002, 1.4289857E-001, 1.2486441E-001, 2.6982013E-004, 1.1771412E-004, 8.8342928E-004, 4.7443742E+002
 5.9000640E+001, 4.7805100E-002, 1.4433459E-001, 1.2607985E-001, 2.8058602E-004, 1.2853136E-004, 8.9406847E-004, 4.7882817E+002
 6.0001991E+001, 4.5819234E-002, 1.4587371E-001, 1.2739020E-001, 2.9609300E-004, 1.3647996E-004, 9.0632230E-004, 4.7875488E+002
 6.1006086E+001, 4.4875794E-002, 1.4662952E-001, 1.2800285E-001, 2.8763185E-004, 1.3000421E-004, 9.0889291E-004, 4.7816981E+002
 6.2006238E+001, 4.3559857E-002, 1.4762848E-001, 1.2887907E-001, 3.1113325E-004, 1.4588851E-004, 9.1972714E-004, 4.7255541E+002
 6.3008958E+001, 4.1024069E-002, 1.4960576E-001, 1.3054805E-001, 3.2353609E-004, 1.4882819E-004, 9.3385730E-004, 4.7954924E+002
 6.4002003E+001, 4.0691167E-002, 1.4987147E-001, 1.3076377E-001, 3.2074789E-004, 1.5036425E-004, 9.3480102E-004, 4.7593454E+002
 6.5000938E+001, 3.9374411E-002, 1.5089196E-001, 1.3163264E-001, 3.3106173E-004, 1.5561521E-004, 9.4293264E-004, 4.7720642E+002
 6.6007816E+001, 3.8814604E-002, 1.5133271E-001, 1.3199797E-001, 3.3035182E-004, 1.6019720E-004, 9.4533738E-004, 4.7457564E+002
 6.7005321E+001, 3.6646435E-002, 1.5300797E-001, 1.3343315E-001, 3.5185167E-004, 1.6108136E-004, 9.5966592E-004, 4.7951853E+002
 6.8000385E+001, 3.5914164E-002, 1.5356962E-001, 1.3391708E-001, 3.6054129E-004, 1.7288501E-004, 9.6478740E-004, 4.7968903E+002
 6.9008882E+001, 3.4515369E-002, 1.5466319E-001, 1.3483813E-001, 3.6632909E-004, 1.6710005E-004, 9.7237254E-004, 4.7445446E+002
 7.0008490E+001, 3.3900626E-002, 1.5516111E-001, 1.3523381E-001, 3.5663388E-004, 1.6604600E-004, 9.7318243E-004, 4.7697597E+002
 7.1002437E+001, 3.1945068E-002, 1.5663990E-001, 1.3654151E-001, 3.9692264E-004, 1.7877362E-004, 9.9039963E-004, 4.7879061E+002
 7.2008630E+001, 3.1577197E-002, 1.5692268E-001, 1.3678315E-001, 4.0025643E-004, 1.8938076E-004, 9.9275499E-004, 4.7684625E+002
 7.3004899E+001, 2.8727071E-002, 1.5908045E-001, 1.3868932E-001, 4.5800345E-004, 2.0183938E-004, 1.0176543E-003, 4.8179193E+002
 7.4000783E+001, 2.8053572E-002, 1.5957076E-001, 1.3914867E-001, 4.8478703E-004, 2.0864650E-004, 1.0262414E-003, 4.7771200E+002
 7.5002106E+001, 2.7024091E-002, 1.6037350E-001, 1.3982700E-001, 4.9020833E-004, 2.0678260E-004, 1.0320607E-003, 4.7688430E+002
 7.6003537E+001, 2.5423040E-002, 1.6158857E-001, 1.4089684E-001, 5.2086701E-004, 2.1161330E-004, 1.0456832E-003, 4.8255725E+002
 7.7005533E+001, 2.5133228E-002, 1.6186605E-001, 1.4106331E-001, 4.8730621E-004, 2.0515160E-004, 1.0400973E-003, 4.7999577E+002
 7.8004290E+001, 2.4553791E-002, 1.6231831E-001, 1.4144542E-001, 4.9032138E-004, 2.0191719E-004, 1.0433676E-003, 4.8488293E+002
 7.9009625E+001, 2.3799094E-002, 1.6284920E-001, 1.4196536E-001, 5.3112931E-004, 2.2614899E-004, 1.0551969E-003, 4.7439730E+002
 8.0002878E+001, 2.2337902E-002, 1.6397958E-001, 1.4293387E-001, 5.4568275E-004, 2.1874209E-004, 1.0648750E-003, 4.7691737E+002
 8.1007848E+001, 2.0971733E-002, 1.6499463E-001, 1.4385731E-001, 5.8677407E-004, 2.2458192E-004, 1.0795739E-003, 4.7970258E+002
 8.2000890E+001, 1.9916136E-002, 1.6578398E-001, 1.4456545E-001, 6.1356701E-004, 2.4043049E-004, 1.0898979E-003, 4.8217884E+002
 8.3003781E+001, 1.9975652E-002, 1.6576820E-001, 1.4451061E-001, 5.9184628E-004, 2.4124319E-004, 1.0851493E-003, 4.7972410E+002
 8.4002466E+001, 1.8747425E-002, 1.6670118E-001, 1.4533110E-001, 6.1488146E-004, 2.4413715E-004, 1.0955007E-003, 4.7877326E+002
 8.5008632E+001, 1.7971906E-002, 1.6726481E-001, 1.4586030E-001, 6.4627428E-004, 2.5283426E-004, 1.1055014E-003, 4.7999688E+002
 8.6000415E+001, 1.7258816E-002, 1.6783498E-001, 1.4632405E-001, 6.4071104E-004, 2.4741377E-004, 1.1076164E-003, 4.7528228E+002
 8.7000031E+001, 1.7219154E-002, 1.6782808E-001, 1.4636888E-001, 6.6705170E-004, 2.4888478E-004, 1.1132239E-003, 4.7290090E+002
 8.8004790E+001, 1.5626279E-002, 1.6895186E-001, 1.4747308E-001, 7.5520220E-004, 2.6609838E-004, 1.1386434E-003, 4.7769674E+002
 8.9008382E+001, 1.4742909E-002, 1.6961820E-001, 1.4806594E-001, 7.7521649E-004, 2.6666878E-004, 1.1468002E-003, 4.7661242E+002
 9.0004405E+001, 1.3190884E-002, 1.7053986E-001, 1.4922702E-001, 9.8059565E-004, 2.9232274E-004, 1.1961816E-003, 4.8110200E+002
 9.1005285E+001, 1.2638462E-002, 1.7120215E-001, 1.4947670E-001, 8.2360852E-004, 2.8138579E-004, 1.1663649E-003, 4.8434584E+002
 9.2002723E+001, 1.3040286E-002, 1.7088538E-001, 1.4921334E-001, 8.2372770E-004, 2.8345140E-004, 1.1645527E-003, 4.7661396E+002
 9.3000787E+001, 1.2276739E-002, 1.7110188E-001, 1.4989798E-001, 1.0865703E-003, 3.2045731E-004, 1.2221638E-003, 4.7432079E+002
 9.4008328E+001, 1.1134370E-002, 1.7194394E-001, 1.5067218E-001, 1.1249140E-003, 3.3078523E-004, 1.2352700E-003, 4.8159247E+002
 9.5005712E+001, 1.0054302E-002, 1.7275292E-001, 1.5139721E-001, 1.1519892E-003, 3.4238176E-004, 1.2457683E-003, 4.7786078E+002
 9.6005935E+001, 9.4874166E-003, 1.7310804E-001, 1.5181547E-001, 1.2159186E-003, 3.3775891E-004, 1.2615353E-003, 4.8016979E+002
 9.7003218E+001, 9.4019558E-003, 1.7290578E-001, 1.5199623E-001, 1.3978236E-003, 3.8248559E-004, 1.2993635E-003, 4.7548020E+002
 9.8010722E+001, 8.8477103E-003, 1.7330030E-001, 1.5237979E-001, 1.4266302E-003, 3.8401632E-004, 1.3078285E-003, 4.7721952E+002
 9.9004187E+001, 9.3618655E-003, 1.7301736E-001, 1.5198655E-001, 1.3443836E-003, 3.6468899E-004, 1.2885529E-003, 4.7459540E+002
 1.0000607E+002, 7.6613628E-003, 1.7427985E-001, 1.5314223E-001, 1.3991461E-003, 3.4879205E-004, 1.3076184E-003, 4.7937756E+002
 1.0100532E+002, 7.9556144E-003, 1.7376726E-001, 1.5308438E-001, 1.5912140E-003, 3.7656925E-004, 1.3458251E-003, 4.7423657E+002
 1.0200467E+002, 7.4386779E-003, 1.7381791E-001, 1.5359646E-001, 1.8360169E-003, 4.0090661E-004, 1.3986061E-003, 4.7295957E+002
 1.0300535E+002, 6.5822553E-003, 1.7409005E-001, 1.5435221E-001, 2.1117694E-003, 4.3197700E-004, 1.4593078E-003, 4.7331062E+002
 1.0400496E+002, 6.9049875E-003, 1.7398470E-001, 1.5407348E-001, 2.0121757E-003, 4.0158662E-004, 1.4373431E-003, 4.7405981E+002
 1.0500171E+002, 6.3054935E-003, 1.7444901E-001, 1.5446705E-001, 2.0159766E-003, 4.1264249E-004, 1.4408517E-003, 4.7453036E+002
 1.0600722E+002, 5.7043006E-003, 1.7435957E-001, 1.5513787E-001, 2.4041624E-003, 4.3916908E-004, 1.5235620E-003, 4.7134970E+002
 1.0701052E+002, 5.7151552E-003, 1.7412534E-001, 1.5523223E-001, 2.5549446E-003, 4.8879018E-004, 1.5545318E-003, 4.6935148E+002
 1.0800404E+002, 5.2951515E-003, 1.7450456E-001, 1.5548644E-001, 2.5229699E-003, 4.7374344E-004, 1.5498763E-003, 4.6930435E+002
 1.0900202E+002, 5.2039830E-003, 1.7413698E-001, 1.5575176E-001, 2.8206055E-003, 5.3783979E-004, 1.6115587E-003, 4.7423913E+002
 1.1000351E+002, 5.0974610E-003, 1.7362400E-001, 1.5610326E-001, 3.2261673E-003, 6.1523271E-004, 1.6955376E-003, 4.6429205E+002
 1.1100984E+002, 4.9267489E-003, 1.7397059E-001, 1.5611358E-001, 3.0812887E-003, 5.9281760E-004, 1.6664855E-003, 4.7039900E+002
 1.1200744E+002, 4.9009753E-003, 1.7324201E-001, 1.5647988E-001, 3.5880863E-003, 7.0638172E-004, 1.7709192E-003, 4.6660447E+002
 1.1300758E+002, 4.8241695E-003, 1.7279539E-001, 1.5677297E-001, 3.9344065E-003, 7.5842105E-004, 1.8425812E-003, 4.6352059E+002
 1.1400385E+002, 4.9212610E-003, 1.7276045E-001, 1.5668968E-001, 3.9061535E-003, 7.5357373E-004, 1.8363209E-003, 4.6332877E+002
 1.1500626E+002, 4.7459626E-003, 1.7277493E-001, 1.5685308E-001, 3.9851319E-003, 8.0842283E-004, 1.8533385E-003, 4.6661422E+002
 1.1600277E+002, 4.5611309E-003, 1.7291618E-001, 1.5698278E-001, 3.9913962E-003, 7.8219199E-004, 1.8555009E-003, 4.6548297E+002
 1.1701059E+002, 4.3277799E-003, 1.7205862E-001, 1.5762342E-001, 4.6970541E-003, 9.3202413E-004, 2.0018233E-003, 4.6294529E+002
 1.1800164E+002, 4.0865917E-003, 1.7261841E-001, 1.5761071E-001, 4.4476899E-003, 8.6791218E-004, 1.9516056E-003, 4.6375802E+002
 1.1900098E+002, 4.0947880E-003, 1.7139612E-001, 1.5814937E-001, 5.2586470E-003, 1.1458038E-003, 2.1183891E-003, 4.5886243E+002
 1.2000694E+002, 4.4142779E-003, 1.7205400E-001, 1.5751918E-001, 4.6449521E-003, 9.9458689E-004, 1.9906257E-003, 4.6034664E+002
 1.2100728E+002, 4.2264626E-003, 1.7173961E-001, 1.5787671E-001, 4.9673653E-003, 9.8892135E-004, 2.0579289E-003, 4.5868813E+002
 1.2200135E+002, 4.1043126E-003, 1.7123268E-001, 1.5822894E-001, 5.3708291E-003, 1.1170791E-003, 2.1414932E-003, 4.6001178E+002
 1.2300674E+002, 4.0761072E-003, 1.7119883E-001, 1.5828444E-001, 5.4143020E-003, 1.0819164E-003, 2.1506176E-003, 4.5983326E+002
 1.2400458E+002, 4.2405449E-003, 1.7126808E-001, 1.5808773E-001, 5.2817239E-003, 1.0371065E-003, 2.1225937E-003, 4.5669722E+002
 1.2500446E+002, 3.9004220E-003, 1.7054314E-001, 1.5876740E-001, 5.9503140E-003, 1.2125486E-003, 2.2617379E-003, 4.5402669E+002
 1.2600456E+002, 3.8868452E-003, 1.6998089E-001, 1.5901353E-001, 6.3227184E-003, 1.4202044E-003, 2.3383223E-003, 4.5580966E+002
 1.2700248E+002, 3.9912814E-003, 1.7064617E-001, 1.5858869E-001, 5.8129539E-003, 1.3376819E-003, 2.2328853E-003, 4.5470668E+002
 1.2800259E+002, 3.8237655E-003, 1.7013307E-001, 1.5904084E-001, 6.2705701E-003, 1.2688312E-003, 2.3280238E-003, 4.5043172E+002
 1.2900320E+002, 4.0386854E-003, 1.7004907E-001, 1.5885961E-001, 6.2125605E-003, 1.2590046E-003, 2.3150989E-003, 4.5748560E+002
 1.3000720E+002, 3.8726594E-003, 1.6954775E-001, 1.5922561E-001, 6.6210960E-003, 1.5057617E-003, 2.3997836E-003, 4.5834925E+002
 1.3100741E+002, 3.7790882E-003, 1.6914938E-001, 1.5949552E-001, 6.9346219E-003, 1.6238839E-003, 2.4646945E-003, 4.5137694E+002
 1.3200962E+002, 3.7731955E-003, 1.6816757E-001, 1.5997118E-001, 7.6080723E-003, 1.7272654E-003, 2.6033904E-003, 4.5197866E+002
 1.3300837E+002, 3.6362543E-003, 1.6928848E-001, 1.5961327E-001, 6.9352384E-003, 1.4726801E-003, 2.4656331E-003, 4.5798398E+002
 1.3400130E+002, 3.7002485E-003, 1.6866514E-001, 1.5977432E-001, 7.2901988E-003, 1.8180318E-003, 2.5381235E-003, 4.5828292E+002
 1.3500176E+002, 3.8124299E-003, 1.6819436E-001, 1.5985701E-001, 7.5376803E-003, 1.9656120E-003, 2.5884542E-003, 4.5274356E+002
 1.3600611E+002, 3.5696233E-003, 1.6839880E-001, 1.6004730E-001, 7.5477641E-003, 1.8129830E-003, 2.5918017E-003, 4.5345467E+002
 1.3700519E+002, 3.5092479E-003, 1.6797050E-001, 1.6034184E-001, 7.8865697E-003, 1.7527808E-003, 2.6619585E-003, 4.5435680E+002
 1.3800624E+002, 3.4041486E-003, 1.6711192E-001, 1.6078156E-001, 8.4887932E-003, 2.1696714E-003, 2.7860989E-003, 4.5225903E+002
 1.3901069E+002, 3.4877283E-003, 1.6816330E-001, 1.6025784E-001, 7.7593923E-003, 1.7904355E-003, 2.6358096E-003, 4.5108210E+002
 1.4000454E+002, 3.7018387E-003, 1.6683739E-001, 1.6057722E-001, 8.5016788E-003, 2.2888933E-003, 2.7872694E-003, 4.4729273E+002
 1.4100653E+002, 3.7300659E-003, 1.6770636E-001, 1.6018313E-001, 7.9190555E-003, 1.9923287E-003, 2.6673921E-003, 4.5727227E+002
 1.4200574E+002, 3.6740721E-003, 1.6614122E-001, 1.6089239E-001, 8.9682160E-003, 2.5504807E-003, 2.8832596E-003, 4.4390381E+002
 1.4300555E+002, 3.3301357E-003, 1.6708720E-001, 1.6090575E-001, 8.5637962E-003, 2.0337216E-003, 2.8020361E-003, 4.5277971E+002
 1.4400622E+002, 3.4125731E-003, 1.6592301E-001, 1.6116324E-001, 9.2051356E-003, 3.0089422E-003, 2.9327921E-003, 4.4983830E+002
 1.4500338E+002, 3.4323434E-003, 1.6722152E-001, 1.6071600E-001, 8.4069414E-003, 2.0919247E-003, 2.7691850E-003, 4.5183948E+002
 1.4600749E+002, 3.2880783E-003, 1.6615639E-001, 1.6128970E-001, 9.1685745E-003, 2.5545318E-003, 2.9263055E-003, 4.5048114E+002
 1.4700256E+002, 3.2599128E-003, 1.6557530E-001, 1.6157194E-001, 9.5678156E-003, 2.7170151E-003, 3.0085344E-003, 4.4952966E+002
 1.4800508E+002, 3.3178519E-003, 1.6583371E-001, 1.6142607E-001, 9.3793584E-003, 2.5347681E-003, 2.9696267E-003, 4.5109433E+002
 1.4900831E+002, 3.5163723E-003, 1.6554379E-001, 1.6128247E-001, 9.4311295E-003, 2.8599646E-003, 2.9790459E-003, 4.4957883E+002
 1.5000423E+002, 3.2638418E-003, 1.6526445E-001, 1.6168276E-001, 9.7607074E-003, 2.8849161E-003, 3.0480886E-003, 4.4699827E+002
 1.5100193E+002, 3.1583931E-003, 1.6549709E-001, 1.6175499E-001, 9.6966186E-003, 2.5692042E-003, 3.0356963E-003, 4.5356425E+002
 1.5200608E+002, 3.2918325E-003, 1.6434076E-001, 1.6203569E-001, 1.0345711E-002, 3.2201480E-003, 3.1681590E-003, 4.4443253E+002
 1.5300368E+002, 3.3784526E-003, 1.6449226E-001, 1.6199011E-001, 1.0254939E-002, 2.7307825E-003, 3.1495744E-003, 4.4847688E+002
 1.5400594E+002, 3.0756215E-003, 1.6517618E-001, 1.6202319E-001, 9.9751285E-003, 2.4918675E-003, 3.0935483E-003, 4.5380184E+002
