s,,,,,,,
Time,"O2 EXHAUST","CO2 EXHAUST","H2O EXHAUST","CO EXHAUST","FUEL EXHAUST","SOOT EXHAUST","TEMP EXHAUST"
 0.0000000E+000, 2.3099739E-001, 5.9146498E-004, 5.9412092E-003, 0.0000000E+000, 0.0000000E+000, 0.0000000E+000, 2.0000000E+001
 1.0048225E+000, 2.3099739E-001, 5.9146498E-004, 5.9412092E-003, 4.5321157E-026, 1.5682368E-025, 2.0202923E-026, 2.4166023E+001
 2.0026643E+000, 2.1482501E-001, 1.2699235E-002, 1.2948593E-002, 1.8044800E-004, 1.0076458E-004, 1.3448979E-004, 1.6727433E+002
 3.0033813E+000, 2.0328033E-001, 2.1479280E-002, 1.7915316E-002, 2.2155873E-004, 1.1908920E-004, 2.1277478E-004, 2.6913827E+002
 4.0015155E+000, 1.9068480E-001, 3.1159088E-002, 2.3309572E-002, 2.0313252E-004, 9.0294077E-005, 2.8541387E-004, 3.6506348E+002
 5.0013803E+000, 1.7462333E-001, 4.3623804E-002, 3.0155141E-002, 1.0074191E-004, 1.5724941E-005, 3.6208563E-004, 4.5507198E+002
 6.0013747E+000, 1.5686629E-001, 5.7230137E-002, 3.7768754E-002, 9.9310996E-005, 4.7754262E-007, 4.6943660E-004, 5.3538292E+002
 7.0061056E+000, 1.4299664E-001, 6.7827283E-002, 4.3723517E-002, 1.1773560E-004, 3.6430692E-007, 5.5723504E-004, 5.7707125E+002
 8.0045510E+000, 1.2942650E-001, 7.8191355E-002, 4.9550980E-002, 1.3861972E-004, 7.1222081E-007, 6.4371664E-004, 6.1121673E+002
 9.0052437E+000, 1.2186354E-001, 8.3967210E-002, 5.2798869E-002, 1.5046687E-004, 8.0544868E-007, 6.9195719E-004, 6.1114327E+002
 1.0007426E+001, 1.1084637E-001, 9.2392175E-002, 5.7526681E-002, 1.6015527E-004, 2.9803803E-007, 7.6069554E-004, 6.2840828E+002
 1.1000070E+001, 1.0167505E-001, 9.9395167E-002, 6.1465582E-002, 1.7527398E-004, 8.4106943E-007, 8.1934705E-004, 6.3448019E+002
 1.2006402E+001, 9.7731937E-002, 1.0241386E-001, 6.3156693E-002, 1.7649754E-004, 1.7697145E-007, 8.4349428E-004, 6.2519151E+002
 1.3003372E+001, 8.9294542E-002, 1.0885744E-001, 6.6780112E-002, 1.8975751E-004, 4.3665634E-007, 8.9732099E-004, 6.3272877E+002
 1.4003047E+001, 8.1761798E-002, 1.1460919E-001, 7.0015346E-002, 2.0225540E-004, 6.0242563E-007, 9.4551037E-004, 6.4501516E+002
 1.5005146E+001, 7.5753960E-002, 1.1918806E-001, 7.2598253E-002, 2.1797641E-004, 1.6435439E-006, 9.8511056E-004, 6.4531752E+002
 1.6005410E+001, 7.7598836E-002, 1.1778909E-001, 7.1802895E-002, 2.0832605E-004, 7.6553452E-007, 9.7197239E-004, 6.2899292E+002
 1.7002175E+001, 7.5387853E-002, 1.1948609E-001, 7.2749764E-002, 2.0603883E-004, 1.6354258E-007, 9.8490922E-004, 6.3231575E+002
 1.8000736E+001, 6.5496733E-002, 1.2703391E-001, 7.6999333E-002, 2.2563062E-004, 9.1709509E-007, 1.0488306E-003, 6.4198729E+002
 1.9002537E+001, 6.1840835E-002, 1.2982728E-001, 7.8568885E-002, 2.3040985E-004, 1.1319328E-006, 1.0719574E-003, 6.4805677E+002
 2.0002959E+001, 5.9947956E-002, 1.3127573E-001, 7.9380921E-002, 2.3146113E-004, 7.4803267E-007, 1.0836434E-003, 6.3822416E+002
 2.1002890E+001, 5.8109567E-002, 1.3268178E-001, 8.0169786E-002, 2.3294830E-004, 5.1700230E-007, 1.0950874E-003, 6.3697269E+002
 2.2001138E+001, 5.5614507E-002, 1.3459206E-001, 8.1239776E-002, 2.3359102E-004, 2.9600848E-007, 1.1103399E-003, 6.3898368E+002
 2.3004169E+001, 5.2563025E-002, 1.3691722E-001, 8.2551904E-002, 2.4197947E-004, 4.7276463E-007, 1.1305359E-003, 6.3850890E+002
 2.4002455E+001, 5.1582704E-002, 1.3767127E-001, 8.2971172E-002, 2.3982011E-004, 4.3879825E-007, 1.1360392E-003, 6.3915829E+002
 2.5001017E+001, 4.7394026E-002, 1.4087196E-001, 8.4769420E-002, 2.4516048E-004, 4.4069535E-007, 1.1625091E-003, 6.3741158E+002
 2.6004821E+001, 4.4480232E-002, 1.4309851E-001, 8.6020355E-002, 2.4886411E-004, 3.0000915E-007, 1.1809204E-003, 6.4512524E+002
 2.7001682E+001, 4.1267077E-002, 1.4554830E-001, 8.7401552E-002, 2.5671887E-004, 4.0320167E-007, 1.2019880E-003, 6.3361644E+002
 2.8001146E+001, 3.8947549E-002, 1.4728056E-001, 8.8409941E-002, 2.8704026E-004, 2.7545885E-006, 1.2221953E-003, 6.4355171E+002
 2.9005996E+001, 3.9965144E-002, 1.4652786E-001, 8.7965215E-002, 2.6874553E-004, 1.6911355E-006, 1.2123172E-003, 6.3911131E+002
 3.0006101E+001, 3.8414189E-002, 1.4771468E-001, 8.8630560E-002, 2.6959523E-004, 1.3932850E-006, 1.2218899E-003, 6.3903598E+002
 3.1003082E+001, 3.9215638E-002, 1.4711891E-001, 8.8281263E-002, 2.5722896E-004, 4.8285127E-007, 1.2145246E-003, 6.4747438E+002
 3.2005672E+001, 4.1592417E-002, 1.4529394E-001, 8.7263631E-002, 2.6018839E-004, 1.0722110E-006, 1.2007193E-003, 6.3748999E+002
 3.3002055E+001, 3.6229801E-002, 1.4939834E-001, 8.9563776E-002, 2.6248033E-004, 6.6565187E-007, 1.2336861E-003, 6.3358665E+002
 3.4003053E+001, 3.8227827E-002, 1.4787337E-001, 8.8705462E-002, 2.5873721E-004, 4.4766084E-007, 1.2208175E-003, 6.3857187E+002
 3.5000281E+001, 3.1903191E-002, 1.5270309E-001, 9.1421638E-002, 2.6889265E-004, 8.7858808E-007, 1.2612092E-003, 6.4254231E+002
 3.6001470E+001, 3.7209765E-002, 1.4865398E-001, 8.9141680E-002, 2.5820220E-004, 3.3528692E-007, 1.2268792E-003, 6.3803716E+002
 3.7000722E+001, 3.2072080E-002, 1.5257633E-001, 9.1348464E-002, 2.6715227E-004, 4.2394323E-007, 1.2598331E-003, 6.3883375E+002
 3.8001404E+001, 3.0209969E-002, 1.5397764E-001, 9.2154719E-002, 2.8428239E-004, 1.3053653E-006, 1.2745935E-003, 6.2762959E+002
 3.9001055E+001, 3.0065661E-002, 1.5410351E-001, 9.2211674E-002, 2.7375421E-004, 1.0468573E-006, 1.2733321E-003, 6.4975072E+002
 4.0002709E+001, 3.1858215E-002, 1.5270584E-001, 9.1451089E-002, 2.9066979E-004, 1.3113869E-006, 1.2659000E-003, 6.3901689E+002
 4.1004543E+001, 2.8385287E-002, 1.5538747E-001, 9.2933154E-002, 2.7598517E-004, 7.1951535E-007, 1.2839695E-003, 6.4260749E+002
 4.2005256E+001, 3.1529845E-002, 1.5299324E-001, 9.1580429E-002, 2.6607994E-004, 3.7570258E-007, 1.2629019E-003, 6.2300869E+002
 4.3005328E+001, 2.4118789E-002, 1.5857125E-001, 9.4789114E-002, 3.3373729E-004, 2.9661582E-006, 1.3215429E-003, 6.5261282E+002
 4.4006048E+001, 3.1607448E-002, 1.5293520E-001, 9.1546723E-002, 2.6512593E-004, 2.7287058E-007, 1.2622382E-003, 6.4537459E+002
 4.5006498E+001, 2.5142417E-002, 1.5778737E-001, 9.4350326E-002, 3.3368929E-004, 2.2233666E-006, 1.3153303E-003, 6.4503314E+002
 4.6001212E+001, 2.4367439E-002, 1.5844059E-001, 9.4663448E-002, 2.9274621E-004, 1.4269972E-006, 1.3117205E-003, 6.3574891E+002
 4.7004902E+001, 2.1359581E-002, 1.6065664E-001, 9.5981148E-002, 3.5312366E-004, 2.6741447E-006, 1.3421997E-003, 6.5271666E+002
 4.8005735E+001, 2.5880074E-002, 1.5730680E-001, 9.4007105E-002, 2.7576175E-004, 3.6908853E-007, 1.2991080E-003, 6.2796791E+002
 4.9003297E+001, 2.5653601E-002, 1.5747543E-001, 9.4105727E-002, 2.7907143E-004, 5.8469567E-007, 1.3011519E-003, 6.3342811E+002
 5.0003144E+001, 2.2391887E-002, 1.5988478E-001, 9.5532457E-002, 3.4010774E-004, 2.8880619E-006, 1.3333019E-003, 6.2691363E+002
 5.1007629E+001, 2.1066596E-002, 1.6095484E-001, 9.6083090E-002, 3.0244758E-004, 1.6718007E-006, 1.3336941E-003, 6.3712966E+002
 5.2005349E+001, 2.7059713E-002, 1.5641046E-001, 9.3499059E-002, 2.7079138E-004, 2.5212168E-007, 1.2909502E-003, 6.2475562E+002
 5.3000427E+001, 2.9175836E-002, 1.5478725E-001, 9.2592552E-002, 2.7234571E-004, 4.9678707E-007, 1.2784401E-003, 6.3616414E+002
 5.4000231E+001, 2.5182971E-002, 1.5780221E-001, 9.4318214E-002, 3.0215737E-004, 1.6096581E-006, 1.3086872E-003, 6.4252546E+002
 5.5004551E+001, 2.0784854E-002, 1.6118482E-001, 9.6199389E-002, 2.9275659E-004, 1.1126530E-006, 1.3334360E-003, 6.3832836E+002
 5.6005203E+001, 2.3789464E-002, 1.5890382E-001, 9.4904658E-002, 2.7866057E-004, 1.1259129E-006, 1.3123657E-003, 6.3190928E+002
 5.7004415E+001, 2.0313587E-002, 1.6154247E-001, 9.6402460E-002, 2.9501712E-004, 1.3797905E-006, 1.3367505E-003, 6.4687465E+002
 5.8001139E+001, 2.3713022E-002, 1.5896421E-001, 9.4936953E-002, 2.7748329E-004, 4.0786499E-007, 1.3125911E-003, 6.4287311E+002
 5.9002627E+001, 1.7747642E-002, 1.6350365E-001, 9.7503948E-002, 2.9800735E-004, 1.0955699E-006, 1.3529091E-003, 6.4063252E+002
 6.0005646E+001, 2.3713517E-002, 1.5896431E-001, 9.4936609E-002, 2.7716854E-004, 2.5790519E-007, 1.3125245E-003, 6.3647878E+002
 6.1002311E+001, 2.2480815E-002, 1.5989399E-001, 9.5469620E-002, 2.8706034E-004, 1.2635807E-006, 1.3220012E-003, 6.4227482E+002
 6.2004378E+001, 1.9769265E-002, 1.6195641E-001, 9.6636877E-002, 2.9715331E-004, 8.4192227E-007, 1.3404837E-003, 6.3689487E+002
 6.3006652E+001, 1.7035725E-002, 1.6391521E-001, 9.7852322E-002, 3.9007770E-004, 1.3030359E-006, 1.3759056E-003, 6.4085033E+002
 6.4002054E+001, 2.3779609E-002, 1.5890377E-001, 9.4911442E-002, 2.8397140E-004, 4.8192823E-007, 1.3135040E-003, 6.3840705E+002
 6.5005273E+001, 2.3450558E-002, 1.5913967E-001, 9.5057427E-002, 2.9486321E-004, 2.3238530E-006, 1.3177057E-003, 6.3299342E+002
 6.6006442E+001, 1.9674352E-002, 1.6201270E-001, 9.6682776E-002, 3.0838367E-004, 1.4085524E-006, 1.3433369E-003, 6.4543680E+002
 6.7000158E+001, 1.9219558E-002, 1.6239323E-001, 9.6867470E-002, 2.8631571E-004, 7.4571724E-007, 1.3416163E-003, 6.5073313E+002
 6.8005463E+001, 1.9444664E-002, 1.6212170E-001, 9.6802695E-002, 3.5434313E-004, 2.4417324E-006, 1.3540532E-003, 6.5189846E+002
 6.9004467E+001, 1.6649849E-002, 1.6407101E-001, 9.8062429E-002, 4.8596502E-004, 4.1727233E-006, 1.3976970E-003, 6.4983347E+002
 7.0002218E+001, 2.1388655E-002, 1.6072389E-001, 9.5940031E-002, 2.9168013E-004, 1.0632960E-006, 1.3295582E-003, 6.3642782E+002
 7.1002234E+001, 2.3427317E-002, 1.5915989E-001, 9.5066858E-002, 2.9338568E-004, 7.9011160E-007, 1.3175489E-003, 6.3376412E+002
 7.2004405E+001, 1.9067567E-002, 1.6249700E-001, 9.6936732E-002, 2.9503912E-004, 6.5825895E-007, 1.3443077E-003, 6.4301202E+002
 7.3000279E+001, 2.0347135E-002, 1.6150422E-001, 9.6391970E-002, 3.0354266E-004, 2.3905296E-006, 1.3382757E-003, 6.4464173E+002
 7.4005592E+001, 1.6836614E-002, 1.6420325E-001, 9.7894003E-002, 2.9682832E-004, 7.3119724E-007, 1.3581918E-003, 6.4537885E+002
 7.5006050E+001, 1.8527462E-002, 1.6288133E-001, 9.7177672E-002, 3.1519344E-004, 1.2646046E-006, 1.3516698E-003, 6.4459185E+002
 7.6005411E+001, 2.0993881E-002, 1.6103076E-001, 9.6107832E-002, 2.8859953E-004, 1.0637171E-006, 1.3313257E-003, 6.4628758E+002
 7.7001973E+001, 1.6798451E-002, 1.6422211E-001, 9.7913670E-002, 3.0393947E-004, 1.0119667E-006, 1.3598656E-003, 6.4901295E+002
 7.8001348E+001, 2.0691760E-002, 1.6123427E-001, 9.6246393E-002, 3.0783143E-004, 8.9921823E-007, 1.3370594E-003, 6.3375537E+002
 7.9005470E+001, 1.6083677E-002, 1.6475933E-001, 9.8223411E-002, 3.1100995E-004, 1.0995477E-006, 1.3656322E-003, 6.4765484E+002
 8.0002973E+001, 2.4769660E-002, 1.5815648E-001, 9.4483443E-002, 2.7636584E-004, 3.2125584E-007, 1.3059605E-003, 6.4192941E+002
 8.1001808E+001, 1.8695315E-002, 1.6279083E-001, 9.7093521E-002, 2.8905955E-004, 6.1112045E-007, 1.3453506E-003, 6.4978717E+002
 8.2002588E+001, 1.7198526E-002, 1.6388216E-001, 9.7752766E-002, 3.2684940E-004, 2.2857637E-006, 1.3620878E-003, 6.4715991E+002
 8.3003283E+001, 1.9067611E-002, 1.6251025E-001, 9.6932467E-002, 2.8592402E-004, 3.7525489E-007, 1.3424583E-003, 6.4174161E+002
 8.4005814E+001, 1.7965873E-002, 1.6331593E-001, 9.7416852E-002, 3.1202924E-004, 2.1824396E-006, 1.3544301E-003, 6.4917117E+002
 8.5005376E+001, 2.1923768E-002, 1.6032490E-001, 9.5707179E-002, 2.8423779E-004, 5.9661270E-007, 1.3248055E-003, 6.4489691E+002
 8.6002615E+001, 1.7491299E-002, 1.6367597E-001, 9.7621462E-002, 3.1444297E-004, 1.9843048E-006, 1.3577964E-003, 6.4411559E+002
 8.7000184E+001, 1.8090605E-002, 1.6310226E-001, 9.7401099E-002, 3.9303838E-004, 4.8331638E-006, 1.3701082E-003, 6.4106982E+002
 8.8005934E+001, 2.2693267E-002, 1.5973317E-001, 9.5378010E-002, 2.8581351E-004, 7.2568725E-007, 1.3204614E-003, 6.4118516E+002
 8.9003753E+001, 1.5621665E-002, 1.6477811E-001, 9.8528862E-002, 5.4110604E-004, 6.3518218E-006, 1.4151142E-003, 6.5601759E+002
 9.0005106E+001, 1.7724441E-002, 1.6326414E-001, 9.7596244E-002, 4.7459609E-004, 5.6905151E-006, 1.3888752E-003, 6.5158946E+002
 9.1005412E+001, 1.6625276E-002, 1.6436351E-001, 9.7984986E-002, 2.9783707E-004, 1.6222137E-006, 1.3596761E-003, 6.3886652E+002
 9.2004099E+001, 1.7690065E-002, 1.6347526E-001, 9.7551595E-002, 3.4757926E-004, 3.8582548E-006, 1.3633129E-003, 6.5458952E+002
 9.3002593E+001, 1.4246594E-002, 1.6609889E-001, 9.9032607E-002, 3.5739465E-004, 2.4751615E-006, 1.3861763E-003, 6.5395032E+002
 9.4003958E+001, 1.8962505E-002, 1.6258400E-001, 9.6979661E-002, 2.9054043E-004, 6.7216609E-007, 1.3440316E-003, 6.3733939E+002
 9.5002637E+001, 1.6603877E-002, 1.6407989E-001, 9.8090370E-002, 5.0389270E-004, 5.8544649E-006, 1.4016110E-003, 6.5844062E+002
 9.6002138E+001, 2.2122246E-002, 1.6011606E-001, 9.5640144E-002, 3.2313449E-004, 2.4095742E-006, 1.3314927E-003, 6.2900331E+002
 9.7000681E+001, 1.9107193E-002, 1.6219005E-001, 9.7005697E-002, 4.8294466E-004, 2.1489222E-005, 1.3821667E-003, 6.4021911E+002
 9.8004085E+001, 2.1603130E-002, 1.6053312E-001, 9.5856307E-002, 3.0967000E-004, 3.1096798E-006, 1.3319058E-003, 6.3593780E+002
 9.9001285E+001, 1.8250377E-002, 1.6310817E-001, 9.7291867E-002, 3.0523276E-004, 5.3603009E-007, 1.3513290E-003, 6.2720511E+002
 1.0000026E+002, 1.9678322E-002, 1.6201031E-001, 9.6680957E-002, 3.0800514E-004, 8.2224642E-007, 1.3432369E-003, 6.4473828E+002
 1.0100039E+002, 1.7980561E-002, 1.6331411E-001, 9.7407682E-002, 3.0566642E-004, 1.1224164E-006, 1.3530515E-003, 6.4107804E+002
 1.0200534E+002, 1.5096223E-002, 1.6546524E-001, 9.8662515E-002, 3.4535621E-004, 4.3554262E-006, 1.3785816E-003, 6.4981107E+002
 1.0300066E+002, 1.7000680E-002, 1.6407707E-001, 9.7823707E-002, 2.9708652E-004, 1.4933270E-006, 1.3572488E-003, 6.4406571E+002
 1.0400247E+002, 1.1794838E-002, 1.6793358E-001, 1.0009751E-001, 3.8707017E-004, 3.6208637E-006, 1.4070556E-003, 6.5856610E+002
 1.0500030E+002, 2.1333955E-002, 1.6078212E-001, 9.5958320E-002, 2.8052357E-004, 3.8662942E-007, 1.3276269E-003, 6.4197009E+002
 1.0600398E+002, 1.8107792E-002, 1.6321856E-001, 9.7352434E-002, 3.0428728E-004, 1.6556901E-006, 1.3519998E-003, 6.4928923E+002
 1.0700356E+002, 1.9005120E-002, 1.6255798E-001, 9.6959302E-002, 2.8601927E-004, 3.7627252E-007, 1.3428564E-003, 6.3849884E+002
 1.0800073E+002, 1.6650150E-002, 1.6434292E-001, 9.7975004E-002, 2.9903505E-004, 4.8353620E-007, 1.3597700E-003, 6.3503912E+002
 1.0900632E+002, 2.0258574E-002, 1.6160099E-001, 9.6420926E-002, 2.8386712E-004, 3.2329927E-007, 1.3348229E-003, 6.3971861E+002
 1.1000619E+002, 1.7888700E-002, 1.6335981E-001, 9.7455080E-002, 3.2268237E-004, 8.0183884E-007, 1.3570614E-003, 6.4013410E+002
 1.1100536E+002, 2.2095561E-002, 1.6019437E-001, 9.5633184E-002, 2.8350750E-004, 6.2538874E-007, 1.3236161E-003, 6.3523470E+002
 1.1200461E+002, 1.6124083E-002, 1.6474100E-001, 9.8201937E-002, 3.0226268E-004, 1.5582194E-006, 1.3636118E-003, 6.3803343E+002
 1.1300731E+002, 1.6472156E-002, 1.6447964E-001, 9.8051153E-002, 2.9874672E-004, 7.1422566E-007, 1.3607900E-003, 6.4708727E+002
 1.1400588E+002, 2.0497915E-002, 1.6140233E-001, 9.6323194E-002, 2.9437028E-004, 7.9201603E-007, 1.3355029E-003, 6.3527970E+002
 1.1500037E+002, 1.9236443E-002, 1.6234124E-001, 9.6872828E-002, 3.1319222E-004, 8.4078049E-007, 1.3469674E-003, 6.5551431E+002
 1.1600438E+002, 1.6011297E-002, 1.6431393E-001, 9.8415095E-002, 6.5502970E-004, 7.9112280E-006, 1.4358670E-003, 6.4413748E+002
 1.1700065E+002, 1.6793708E-002, 1.6420897E-001, 9.7921161E-002, 3.1551841E-004, 7.6308666E-007, 1.3622442E-003, 6.3652707E+002
 1.1800234E+002, 1.9728806E-002, 1.6195863E-001, 9.6663383E-002, 3.1686137E-004, 1.6410247E-006, 1.3447268E-003, 6.5260790E+002
 1.1900075E+002, 1.6774255E-002, 1.6425442E-001, 9.7919638E-002, 2.9448443E-004, 7.2763362E-007, 1.3580941E-003, 6.3120335E+002
 1.2000188E+002, 1.6536754E-002, 1.6442860E-001, 9.8023979E-002, 2.9982903E-004, 5.9675004E-007, 1.3606182E-003, 6.3651592E+002
 1.2100169E+002, 1.8209357E-002, 1.6310084E-001, 9.7321794E-002, 3.3178123E-004, 1.5976189E-006, 1.3569632E-003, 6.5078789E+002
 1.2200180E+002, 1.9478434E-002, 1.6218250E-001, 9.6760333E-002, 2.9475180E-004, 1.7955173E-006, 1.3417577E-003, 6.3140123E+002
 1.2300695E+002, 1.5955921E-002, 1.6452779E-001, 9.8384282E-002, 5.3760025E-004, 2.8740508E-006, 1.4123819E-003, 6.3760797E+002
 1.2400344E+002, 1.7773643E-002, 1.6348791E-001, 9.7491545E-002, 2.9519800E-004, 5.0696631E-007, 1.3521823E-003, 6.4171906E+002
 1.2500515E+002, 1.8321813E-002, 1.6282760E-001, 9.7331835E-002, 4.5897101E-004, 1.5016442E-005, 1.3820711E-003, 6.4238090E+002
 1.2600431E+002, 1.8342150E-002, 1.6306584E-001, 9.7243466E-002, 2.8595578E-004, 6.6717000E-007, 1.3468611E-003, 6.4081526E+002
 1.2700152E+002, 1.9412592E-002, 1.6213115E-001, 9.6820638E-002, 3.6423535E-004, 6.6996530E-006, 1.3562489E-003, 6.3841884E+002
 1.2800448E+002, 1.5674194E-002, 1.6501617E-001, 9.8417198E-002, 3.5004408E-004, 1.7987515E-006, 1.3760335E-003, 6.4030371E+002
 1.2900273E+002, 1.8039021E-002, 1.6322333E-001, 9.7397308E-002, 3.3721268E-004, 2.1628857E-006, 1.3590968E-003, 6.3726438E+002
 1.3000414E+002, 2.0360572E-002, 1.6152278E-001, 9.6377140E-002, 2.8386199E-004, 8.4894737E-007, 1.3342030E-003, 6.4095775E+002
 1.3100491E+002, 2.1801325E-002, 1.6041395E-001, 9.5761175E-002, 2.8747876E-004, 7.6610137E-007, 1.3262050E-003, 6.3566625E+002
 1.3200500E+002, 1.8530146E-002, 1.6290583E-001, 9.7167970E-002, 2.9692875E-004, 1.1140827E-006, 1.3479477E-003, 6.3695710E+002
 1.3300135E+002, 1.5901535E-002, 1.6455430E-001, 9.8411802E-002, 5.4751152E-004, 7.1160715E-006, 1.4147167E-003, 6.5288674E+002
 1.3400605E+002, 1.8021704E-002, 1.6328130E-001, 9.7390430E-002, 3.0653068E-004, 1.3006899E-006, 1.3529773E-003, 6.3778984E+002
 1.3500337E+002, 1.8143230E-002, 1.6316330E-001, 9.7346268E-002, 3.2360489E-004, 1.9792611E-006, 1.3557043E-003, 6.5361763E+002
 1.3600116E+002, 1.9383158E-002, 1.6227006E-001, 9.6796666E-002, 2.8485943E-004, 5.8927215E-007, 1.3403295E-003, 6.4003360E+002
 1.3700017E+002, 1.7317568E-002, 1.6381473E-001, 9.7694153E-002, 3.1056526E-004, 1.7104207E-006, 1.3580629E-003, 6.2884013E+002
 1.3800668E+002, 2.4973446E-002, 1.5800483E-001, 9.4394664E-002, 2.7332513E-004, 2.0005418E-007, 1.3041086E-003, 6.3545203E+002
 1.3900532E+002, 1.5583889E-002, 1.6508693E-001, 9.8455370E-002, 3.4892562E-004, 1.9754848E-006, 1.3763536E-003, 6.5031402E+002
 1.4000032E+002, 1.7152415E-002, 1.6395952E-001, 9.7759227E-002, 2.9810445E-004, 6.0099031E-007, 1.3565369E-003, 6.3708711E+002
 1.4100347E+002, 1.6048043E-002, 1.6476969E-001, 9.8244012E-002, 3.2256141E-004, 1.9956961E-006, 1.3681909E-003, 6.3992390E+002
 1.4200438E+002, 1.7828683E-002, 1.6345860E-001, 9.7463821E-002, 2.8636670E-004, 3.6704716E-007, 1.3500569E-003, 6.3700911E+002
 1.4300452E+002, 1.8542980E-002, 1.6291611E-001, 9.7156111E-002, 2.8318247E-004, 2.4742720E-007, 1.3450818E-003, 6.3082811E+002
 1.4400267E+002, 1.9975682E-002, 1.6179951E-001, 9.6547820E-002, 2.9618827E-004, 1.8944167E-006, 1.3390354E-003, 6.4079957E+002
 1.4500535E+002, 1.9924159E-002, 1.6185467E-001, 9.6565089E-002, 2.8556943E-004, 3.5352493E-007, 1.3371951E-003, 6.3324040E+002
 1.4600414E+002, 1.9050418E-002, 1.6251363E-001, 9.6942831E-002, 2.9253763E-004, 1.4108651E-006, 1.3439030E-003, 6.4427197E+002
 1.4700315E+002, 1.5533844E-002, 1.6518303E-001, 9.8458271E-002, 3.0923143E-004, 1.3515456E-006, 1.3686034E-003, 6.5366346E+002
 1.4800410E+002, 1.6689135E-002, 1.6402536E-001, 9.8050774E-002, 4.9679941E-004, 3.1625742E-006, 1.3996587E-003, 6.3854095E+002
 1.4900094E+002, 2.1779446E-002, 1.6041786E-001, 9.5774556E-002, 2.9621587E-004, 1.6910678E-006, 1.3281092E-003, 6.3265453E+002
 1.5000269E+002, 1.8020355E-002, 1.6330670E-001, 9.7383228E-002, 2.8982285E-004, 7.6265937E-007, 1.3495960E-003, 6.4227658E+002
 1.5100397E+002, 1.6578867E-002, 1.6437005E-001, 9.8014357E-002, 3.1789078E-004, 9.7341311E-007, 1.3640274E-003, 6.4483509E+002
 1.5200174E+002, 2.0958373E-002, 1.6101946E-001, 9.6135276E-002, 3.1494605E-004, 2.3708498E-006, 1.3368851E-003, 6.5214491E+002
 1.5300714E+002, 1.9748067E-002, 1.6189732E-001, 9.6669829E-002, 3.4866748E-004, 3.6911232E-006, 1.3510610E-003, 6.4944589E+002
 1.5400393E+002, 1.6597599E-002, 1.6437634E-001, 9.7999627E-002, 3.0365621E-004, 1.1882040E-006, 1.3610252E-003, 6.4373581E+002
