s,,,,,,,
Time,"O2 EXHAUST","CO2 EXHAUST","H2O EXHAUST","CO EXHAUST","FUEL EXHAUST","SOOT EXHAUST","TEMP EXHAUST"
 0.0000000E+000, 2.3099739E-001, 5.9146498E-004, 5.9412092E-003, 0.0000000E+000, 0.0000000E+000, 0.0000000E+000, 2.0000000E+001
 1.0025797E+000, 2.3099739E-001, 5.9146498E-004, 5.9412092E-003, 5.1127435E-031, 5.2805528E-030, 1.6614632E-031, 2.0509514E+001
 2.0053591E+000, 2.2336254E-001, 6.8150111E-003, 9.4493616E-003, 3.5511476E-005, 2.5675027E-004, 4.9431154E-005, 9.5462311E+001
 3.0000630E+000, 2.1789049E-001, 1.1273729E-002, 1.1986474E-002, 7.8993285E-005, 3.1974375E-004, 8.8712434E-005, 1.4354680E+002
 4.0005874E+000, 2.1395422E-001, 1.4492678E-002, 1.3797804E-002, 9.4736941E-005, 4.1701872E-004, 1.1371661E-004, 1.8189871E+002
 5.0035240E+000, 2.0839012E-001, 1.9049982E-002, 1.6372845E-002, 1.2489438E-004, 4.5987269E-004, 1.5080342E-004, 2.2847622E+002
 6.0042247E+000, 2.0097700E-001, 2.5174221E-002, 1.9793012E-002, 1.3377683E-004, 4.6994378E-004, 1.9385698E-004, 2.8538016E+002
 7.0057024E+000, 1.9499235E-001, 3.0135684E-002, 2.2558745E-002, 1.3675317E-004, 4.1805498E-004, 2.2783124E-004, 3.2452017E+002
 8.0005319E+000, 1.8665010E-001, 3.7094807E-002, 2.6408450E-002, 1.1755829E-004, 2.8982295E-004, 2.7047401E-004, 3.7472669E+002
 9.0065329E+000, 1.8100864E-001, 4.1795070E-002, 2.9012594E-002, 1.0776059E-004, 2.1057675E-004, 2.9995435E-004, 3.9777359E+002
 1.0005068E+001, 1.7281704E-001, 4.8620771E-002, 3.2792601E-002, 9.2215460E-005, 1.0116023E-004, 3.4248323E-004, 4.3227285E+002
 1.1003337E+001, 1.6557837E-001, 5.4637732E-002, 3.6132656E-002, 8.4831497E-005, 3.5158525E-005, 3.8132810E-004, 4.5760789E+002
 1.2006211E+001, 1.5935133E-001, 5.9796908E-002, 3.9006020E-002, 8.6042672E-005, 1.1691160E-005, 4.1625248E-004, 4.7024067E+002
 1.3001816E+001, 1.5413143E-001, 6.4116458E-002, 4.1414898E-002, 8.9546893E-005, 1.1058726E-006, 4.4602704E-004, 4.7747845E+002
 1.4006361E+001, 1.4719516E-001, 6.9849385E-002, 4.4615986E-002, 9.7390423E-005, 1.5886391E-007, 4.8622856E-004, 4.9170281E+002
 1.5003872E+001, 1.4064872E-001, 7.5259552E-002, 4.7637217E-002, 1.0507879E-004, 1.1921306E-007, 5.2422818E-004, 4.9793618E+002
 1.6003403E+001, 1.3632614E-001, 7.8832171E-002, 4.9632018E-002, 1.0993877E-004, 4.9587226E-008, 5.4927480E-004, 4.9848357E+002
 1.7004263E+001, 1.3105356E-001, 8.3189559E-002, 5.2065350E-002, 1.1613955E-004, 9.6053218E-008, 5.7988179E-004, 5.0466821E+002
 1.8005839E+001, 1.2709457E-001, 8.6461424E-002, 5.3892433E-002, 1.2075518E-004, 1.0329211E-007, 6.0285524E-004, 5.0450530E+002
 1.9007676E+001, 1.2505388E-001, 8.8148033E-002, 5.4834182E-002, 1.2306339E-004, 7.0829103E-008, 6.1468254E-004, 4.9677409E+002
 2.0005954E+001, 1.2035518E-001, 9.2031200E-002, 5.7002650E-002, 1.2855759E-004, 9.5262601E-008, 6.4195173E-004, 5.0355343E+002
 2.1005827E+001, 1.1719266E-001, 9.4644770E-002, 5.8462185E-002, 1.3229036E-004, 1.0534314E-007, 6.6031276E-004, 5.0381037E+002
 2.2001078E+001, 1.1343365E-001, 9.7751527E-002, 6.0196925E-002, 1.3656155E-004, 6.5703027E-008, 6.8210299E-004, 5.0389919E+002
 2.3002306E+001, 1.1073590E-001, 9.9981090E-002, 6.1441933E-002, 1.3968284E-004, 6.5013238E-008, 6.9775277E-004, 5.0429469E+002
 2.4005152E+001, 1.0826958E-001, 1.0201936E-001, 6.2580142E-002, 1.4255403E-004, 7.1432762E-008, 7.1206359E-004, 5.0216591E+002
 2.5005657E+001, 1.0645837E-001, 1.0351626E-001, 6.3416006E-002, 1.4463271E-004, 6.9310687E-008, 7.2256706E-004, 4.9729198E+002
 2.6009405E+001, 1.0356367E-001, 1.0590859E-001, 6.4751908E-002, 1.4798631E-004, 4.7269425E-008, 7.3936027E-004, 4.9845294E+002
 2.7001855E+001, 1.0087114E-001, 1.0813385E-001, 6.5994500E-002, 1.5109182E-004, 4.8673433E-008, 7.5497774E-004, 5.0360489E+002
 2.8002843E+001, 9.9318405E-002, 1.0941713E-001, 6.6711080E-002, 1.5287925E-004, 5.2321462E-008, 7.6398336E-004, 5.0082970E+002
 2.9003579E+001, 9.8495405E-002, 1.1009729E-001, 6.7090896E-002, 1.5383588E-004, 4.6654688E-008, 7.6875854E-004, 4.9360886E+002
 3.0002867E+001, 9.4195818E-002, 1.1364731E-001, 6.9076227E-002, 1.6113019E-004, 9.2175497E-007, 7.9417521E-004, 4.9914584E+002
 3.1006077E+001, 9.3226238E-002, 1.1444261E-001, 6.9525623E-002, 1.6638246E-004, 2.3457999E-006, 8.0064501E-004, 4.9500271E+002
 3.2003004E+001, 8.9845793E-002, 1.1722209E-001, 7.1090108E-002, 1.7997757E-004, 6.7852180E-006, 8.2223535E-004, 4.9996911E+002
 3.3008110E+001, 8.8738180E-002, 1.1813436E-001, 7.1602200E-002, 1.8334870E-004, 7.9394922E-006, 8.2908771E-004, 4.9546678E+002
 3.4006799E+001, 8.6768386E-002, 1.1975811E-001, 7.2512373E-002, 1.8833218E-004, 1.0217153E-005, 8.4106625E-004, 5.0038751E+002
 3.5003359E+001, 8.5189052E-002, 1.2105034E-001, 7.3245372E-002, 1.9906239E-004, 1.3598516E-005, 8.5204947E-004, 4.9358611E+002
 3.6007544E+001, 8.2578817E-002, 1.2318221E-001, 7.4458150E-002, 2.1950934E-004, 1.9701868E-005, 8.7075754E-004, 4.9260908E+002
 3.7007635E+001, 8.0878317E-002, 1.2458638E-001, 7.5243223E-002, 2.2224145E-004, 2.0524906E-005, 8.8077796E-004, 4.9720126E+002
 3.8007026E+001, 7.9129209E-002, 1.2601925E-001, 7.6054169E-002, 2.3272016E-004, 2.5460759E-005, 8.9265218E-004, 4.9797292E+002
 3.9006024E+001, 7.7093769E-002, 1.2769262E-001, 7.6996541E-002, 2.4127410E-004, 2.6583431E-005, 9.0572966E-004, 4.9352838E+002
 4.0006713E+001, 7.5051140E-002, 1.2936873E-001, 7.7943138E-002, 2.5194416E-004, 2.9160122E-005, 9.1927924E-004, 4.9693364E+002
 4.1007147E+001, 7.4017355E-002, 1.3022454E-001, 7.8419568E-002, 2.5200230E-004, 2.9893128E-005, 9.2504196E-004, 4.9314087E+002
 4.2008637E+001, 7.3014342E-002, 1.3105665E-001, 7.8881309E-002, 2.5088992E-004, 2.9839313E-005, 9.3039444E-004, 4.9587873E+002
 4.3002037E+001, 6.9696666E-002, 1.3378695E-001, 8.0416052E-002, 2.6262861E-004, 3.3116098E-005, 9.5125634E-004, 4.9790638E+002
 4.4003190E+001, 6.9331661E-002, 1.3407827E-001, 8.0587655E-002, 2.7002805E-004, 3.6554894E-005, 9.5480017E-004, 4.9514227E+002
 4.5000188E+001, 6.6734757E-002, 1.3621431E-001, 8.1789552E-002, 2.8014083E-004, 3.8136420E-005, 9.7132060E-004, 4.9553694E+002
 4.6000352E+001, 6.6400911E-002, 1.3649348E-001, 8.1942310E-002, 2.7808848E-004, 3.8788965E-005, 9.7275631E-004, 4.9225219E+002
 4.7001358E+001, 6.3900362E-002, 1.3854349E-001, 8.3101698E-002, 2.9241124E-004, 4.2460022E-005, 9.8960132E-004, 4.9394428E+002
 4.8006619E+001, 6.1678492E-002, 1.4035024E-001, 8.4136953E-002, 3.1554293E-004, 4.7528717E-005, 1.0067005E-003, 4.9627678E+002
 4.9003840E+001, 6.1502966E-002, 1.4049729E-001, 8.4217115E-002, 3.1423070E-004, 4.8185488E-005, 1.0074072E-003, 4.9348541E+002
 5.0003089E+001, 5.9339187E-002, 1.4228250E-001, 8.5216450E-002, 3.1865541E-004, 5.0142969E-005, 1.0203508E-003, 4.9406420E+002
 5.1003438E+001, 5.8297503E-002, 1.4314402E-001, 8.5697002E-002, 3.1945090E-004, 4.9930444E-005, 1.0263099E-003, 4.9987653E+002
 5.2008299E+001, 5.7413292E-002, 1.4389629E-001, 8.6098070E-002, 3.0563664E-004, 4.5145217E-005, 1.0284026E-003, 5.0067202E+002
 5.3004877E+001, 5.6569150E-002, 1.4458340E-001, 8.6490714E-002, 3.1361060E-004, 4.9393351E-005, 1.0347291E-003, 4.9819029E+002
 5.4007153E+001, 5.5360885E-002, 1.4557960E-001, 8.7049330E-002, 3.1682368E-004, 4.8659942E-005, 1.0421114E-003, 4.9632609E+002
 5.5001231E+001, 5.3952755E-002, 1.4672667E-001, 8.7704718E-002, 3.3004400E-004, 5.1720967E-005, 1.0526532E-003, 4.9887728E+002
 5.6004218E+001, 5.3072971E-002, 1.4745597E-001, 8.8110071E-002, 3.2958103E-004, 5.0956878E-005, 1.0574541E-003, 4.9713413E+002
 5.7000018E+001, 5.1484246E-002, 1.4875539E-001, 8.8847940E-002, 3.4098517E-004, 5.2566498E-005, 1.0686301E-003, 4.9661357E+002
 5.8008232E+001, 5.1819034E-002, 1.4850090E-001, 8.8685429E-002, 3.2469126E-004, 5.1972285E-005, 1.0634267E-003, 4.9547436E+002
 5.9004869E+001, 5.0133314E-002, 1.4989353E-001, 8.9463992E-002, 3.2734120E-004, 4.9727653E-005, 1.0733520E-003, 4.9542206E+002
 6.0002593E+001, 4.9081634E-002, 1.5074154E-001, 8.9956415E-002, 3.4329515E-004, 5.3338432E-005, 1.0824704E-003, 4.9556241E+002
 6.1007628E+001, 4.7376127E-002, 1.5213302E-001, 9.0749722E-002, 3.5797513E-004, 5.5398649E-005, 1.0949673E-003, 4.9696214E+002
 6.2009254E+001, 4.7877962E-002, 1.5171351E-001, 9.0519293E-002, 3.6039198E-004, 5.8547187E-005, 1.0926668E-003, 4.9226993E+002
 6.3007686E+001, 4.6392269E-002, 1.5295746E-001, 9.1199812E-002, 3.5109365E-004, 5.4404588E-005, 1.0990313E-003, 4.9682398E+002
 6.4004686E+001, 4.5369931E-002, 1.5379600E-001, 9.1673611E-002, 3.5661273E-004, 5.6262506E-005, 1.1058488E-003, 4.9408532E+002
 6.5006078E+001, 4.3872767E-002, 1.5502453E-001, 9.2368076E-002, 3.6491853E-004, 5.4564376E-005, 1.1158842E-003, 5.0050362E+002
 6.6008072E+001, 4.2604012E-002, 1.5606004E-001, 9.2958150E-002, 3.7561765E-004, 5.5812891E-005, 1.1251358E-003, 4.9880413E+002
 6.7006771E+001, 4.0397051E-002, 1.5785317E-001, 9.3987254E-002, 3.9985971E-004, 5.9483007E-005, 1.1423815E-003, 5.0182061E+002
 6.8001639E+001, 4.0927842E-002, 1.5744273E-001, 9.3732536E-002, 3.7933607E-004, 5.6404651E-005, 1.1352234E-003, 4.9781568E+002
 6.9010072E+001, 4.1581238E-002, 1.5691301E-001, 9.3427291E-002, 3.7121547E-004, 5.6093991E-005, 1.1299231E-003, 4.9596965E+002
 7.0003077E+001, 3.9779635E-002, 1.5838363E-001, 9.4265358E-002, 3.8644580E-004, 5.6473211E-005, 1.1430697E-003, 4.9759286E+002
 7.1005228E+001, 3.7956455E-002, 1.5988176E-001, 9.5109766E-002, 3.9466999E-004, 5.7272012E-005, 1.1548990E-003, 5.0086450E+002
 7.2005121E+001, 3.7763087E-002, 1.6004135E-001, 9.5199307E-002, 3.9522145E-004, 5.6056477E-005, 1.1560895E-003, 5.0177504E+002
 7.3008451E+001, 3.8631465E-002, 1.5933304E-001, 9.4794665E-002, 3.8712066E-004, 5.8597806E-005, 1.1495935E-003, 4.9332914E+002
 7.4002065E+001, 3.6913781E-002, 1.6074219E-001, 9.5591286E-002, 3.9669798E-004, 5.8065746E-005, 1.1611151E-003, 4.9948004E+002
 7.5007936E+001, 3.6308737E-002, 1.6124695E-001, 9.5868854E-002, 3.9404814E-004, 5.7692830E-005, 1.1639385E-003, 5.0231095E+002
 7.6000684E+001, 3.4673488E-002, 1.6254631E-001, 9.6641572E-002, 4.3271318E-004, 6.3128882E-005, 1.1809589E-003, 4.9893280E+002
 7.7005557E+001, 3.5703175E-002, 1.6175516E-001, 9.6145957E-002, 3.8952526E-004, 5.5124934E-005, 1.1663834E-003, 5.0532230E+002
 7.8003536E+001, 3.4795950E-002, 1.6248062E-001, 9.6572707E-002, 4.0746806E-004, 5.9636627E-005, 1.1751049E-003, 4.9524752E+002
 7.9002293E+001, 3.4236473E-002, 1.6293146E-001, 9.6834860E-002, 4.1622774E-004, 6.1079259E-005, 1.1800122E-003, 4.9688215E+002
 8.0007364E+001, 3.2284180E-002, 1.6450192E-001, 9.7750278E-002, 4.4849760E-004, 6.8146989E-005, 1.1974830E-003, 4.9661536E+002
 8.1001989E+001, 3.3378186E-002, 1.6362664E-001, 9.7235468E-002, 4.2691204E-004, 6.4714797E-005, 1.1869739E-003, 4.9700241E+002
 8.2004216E+001, 3.1457664E-002, 1.6519319E-001, 9.8129461E-002, 4.4411382E-004, 6.4071232E-005, 1.2011878E-003, 5.0037221E+002
 8.3009444E+001, 3.2086551E-002, 1.6467484E-001, 9.7838270E-002, 4.4204211E-004, 6.6547690E-005, 1.1972607E-003, 4.9545854E+002
 8.4002206E+001, 3.1843655E-002, 1.6487161E-001, 9.7951353E-002, 4.4483162E-004, 6.9104147E-005, 1.1991809E-003, 4.8909620E+002
 8.5001199E+001, 3.1173558E-002, 1.6543319E-001, 9.8258654E-002, 4.4068401E-004, 6.4194809E-005, 1.2020649E-003, 4.9890286E+002
 8.6000040E+001, 2.9281482E-002, 1.6696839E-001, 9.9142089E-002, 4.6327260E-004, 6.5168274E-005, 1.2172231E-003, 5.0041698E+002
 8.7009284E+001, 3.1059205E-002, 1.6550672E-001, 9.8317889E-002, 4.5500877E-004, 7.0799495E-005, 1.2056303E-003, 4.9593754E+002
 8.8001317E+001, 2.9265151E-002, 1.6696403E-001, 9.9154969E-002, 4.7525766E-004, 7.1661146E-005, 1.2197635E-003, 4.9608463E+002
 8.9006228E+001, 2.8431391E-002, 1.6764087E-001, 9.9544790E-002, 4.8546194E-004, 6.8519561E-005, 1.2264990E-003, 4.9905607E+002
 9.0007953E+001, 2.8661046E-002, 1.6743252E-001, 9.9444706E-002, 4.9789127E-004, 7.3349075E-005, 1.2277640E-003, 4.9724586E+002
 9.1000692E+001, 2.8038475E-002, 1.6796540E-001, 9.9725869E-002, 4.8581284E-004, 7.0292771E-005, 1.2287548E-003, 5.0086508E+002
 9.2000669E+001, 2.6609025E-002, 1.6911480E-001, 1.0039670E-001, 5.1008173E-004, 7.3264247E-005, 1.2416811E-003, 4.9934821E+002
 9.3001953E+001, 2.8352473E-002, 1.6771310E-001, 9.9577978E-002, 4.7999735E-004, 7.2188189E-005, 1.2258127E-003, 4.9575286E+002
 9.4002044E+001, 2.6925944E-002, 1.6887213E-001, 1.0024358E-001, 4.9598203E-004, 7.2301465E-005, 1.2370275E-003, 5.0075433E+002
 9.5002784E+001, 2.6642889E-002, 1.6911816E-001, 1.0037023E-001, 4.8792921E-004, 6.9920719E-005, 1.2369540E-003, 4.9849172E+002
 9.6005771E+001, 2.6016429E-002, 1.6964189E-001, 1.0065766E-001, 4.8472501E-004, 6.7123653E-005, 1.2397860E-003, 4.9515201E+002
 9.7008357E+001, 2.6155032E-002, 1.6949648E-001, 1.0060398E-001, 5.0603713E-004, 7.2571144E-005, 1.2433784E-003, 4.9530361E+002
 9.8002721E+001, 2.5258280E-002, 1.7023133E-001, 1.0102023E-001, 5.1167509E-004, 7.1965591E-005, 1.2495247E-003, 4.9905475E+002
 9.9004452E+001, 2.4634245E-002, 1.7074592E-001, 1.0130874E-001, 5.1329638E-004, 7.1444744E-005, 1.2533299E-003, 4.9810570E+002
 1.0000513E+002, 2.5387399E-002, 1.7013543E-001, 1.0095619E-001, 5.0336147E-004, 7.4734069E-005, 1.2470979E-003, 4.9426033E+002
 1.0100443E+002, 2.4067499E-002, 1.7119318E-001, 1.0157734E-001, 5.2866565E-004, 7.5128004E-005, 1.2596303E-003, 4.9821929E+002
 1.0200873E+002, 2.4580165E-002, 1.7081157E-001, 1.0132615E-001, 4.9835278E-004, 7.0828520E-005, 1.2505670E-003, 4.9472861E+002
 1.0300827E+002, 2.4189774E-002, 1.7111721E-001, 1.0151273E-001, 5.1120149E-004, 6.9692633E-005, 1.2553755E-003, 4.9693779E+002
 1.0400901E+002, 2.3707350E-002, 1.7149420E-001, 1.0174234E-001, 5.2667050E-004, 7.4973823E-005, 1.2612251E-003, 4.9576442E+002
 1.0500394E+002, 2.2872498E-002, 1.7216829E-001, 1.0213231E-001, 5.3822052E-004, 8.1114688E-005, 1.2682308E-003, 5.0034835E+002
 1.0600736E+002, 2.2331144E-002, 1.7262617E-001, 1.0237994E-001, 5.3253281E-004, 7.2206457E-005, 1.2700878E-003, 5.0189423E+002
 1.0700184E+002, 2.3621757E-002, 1.7157853E-001, 1.0177658E-001, 5.1675282E-004, 7.6603790E-005, 1.2596653E-003, 4.9580445E+002
 1.0800187E+002, 2.3168714E-002, 1.7190128E-001, 1.0200478E-001, 5.5467658E-004, 7.5316691E-005, 1.2699649E-003, 4.9745033E+002
 1.0900494E+002, 2.2495321E-002, 1.7245328E-001, 1.0231637E-001, 5.5808615E-004, 7.9880816E-005, 1.2744048E-003, 5.0013487E+002
 1.1000599E+002, 2.1426105E-002, 1.7334854E-001, 1.0280631E-001, 5.5152129E-004, 7.5810186E-005, 1.2790126E-003, 5.0079603E+002
 1.1100117E+002, 2.1776623E-002, 1.7307124E-001, 1.0263977E-001, 5.4200610E-004, 7.7202296E-005, 1.2751093E-003, 4.9620889E+002
 1.1200570E+002, 2.1493746E-002, 1.7328682E-001, 1.0277671E-001, 5.5524269E-004, 7.8659738E-005, 1.2793958E-003, 4.9881021E+002
 1.1300146E+002, 2.1578816E-002, 1.7325079E-001, 1.0272580E-001, 5.3112401E-004, 7.3802477E-005, 1.2739826E-003, 4.9509875E+002
 1.1400125E+002, 2.1869573E-002, 1.7300425E-001, 1.0259342E-001, 5.3492143E-004, 7.6460028E-005, 1.2731402E-003, 4.9802556E+002
 1.1500587E+002, 2.1128997E-002, 1.7361344E-001, 1.0293658E-001, 5.3809980E-004, 7.4570321E-005, 1.2779148E-003, 4.9701004E+002
 1.1600397E+002, 2.0430734E-002, 1.7413222E-001, 1.0327915E-001, 5.8015265E-004, 8.0004244E-005, 1.2904169E-003, 4.9260365E+002
 1.1700193E+002, 2.1487825E-002, 1.7328843E-001, 1.0278085E-001, 5.5777394E-004, 7.7500890E-005, 1.2799493E-003, 4.9190642E+002
 1.1800960E+002, 2.1115669E-002, 1.7356643E-001, 1.0296358E-001, 5.7963719E-004, 7.6556343E-005, 1.2865047E-003, 4.9439223E+002
 1.1900049E+002, 1.9680764E-002, 1.7475122E-001, 1.0362577E-001, 5.8176317E-004, 7.8844145E-005, 1.2949213E-003, 5.0172259E+002
 1.2000714E+002, 2.0745125E-002, 1.7392133E-001, 1.0311695E-001, 5.4512769E-004, 7.5729821E-005, 1.2814904E-003, 4.9826018E+002
 1.2100712E+002, 2.1241635E-002, 1.7352984E-001, 1.0288161E-001, 5.3149654E-004, 7.1935568E-005, 1.2759374E-003, 4.9629894E+002
 1.2200685E+002, 2.0035376E-002, 1.7450807E-001, 1.0344549E-001, 5.4662480E-004, 6.9969999E-005, 1.2857537E-003, 4.9891044E+002
 1.2300054E+002, 1.8409085E-002, 1.7583264E-001, 1.0420335E-001, 5.6269590E-004, 6.8849096E-005, 1.2980992E-003, 5.0932011E+002
 1.2400734E+002, 2.0189949E-002, 1.7437194E-001, 1.0337678E-001, 5.5215066E-004, 7.2346336E-005, 1.2860238E-003, 4.9950767E+002
 1.2500191E+002, 1.9757743E-002, 1.7472074E-001, 1.0357902E-001, 5.5848033E-004, 7.3949877E-005, 1.2897245E-003, 4.9832240E+002
 1.2600510E+002, 1.9062060E-002, 1.7525059E-001, 1.0391504E-001, 5.9061594E-004, 8.2295448E-005, 1.3001747E-003, 4.9445098E+002
 1.2700263E+002, 1.8201240E-002, 1.7593934E-001, 1.0431983E-001, 6.0736813E-004, 8.6502418E-005, 1.3083941E-003, 5.0221769E+002
 1.2800197E+002, 1.8858748E-002, 1.7545495E-001, 1.0399645E-001, 5.6533597E-004, 7.7574126E-005, 1.2961276E-003, 5.0229741E+002
 1.2900232E+002, 1.8405804E-002, 1.7580943E-001, 1.0421252E-001, 5.7999030E-004, 7.8800080E-005, 1.3016514E-003, 4.9917477E+002
 1.3000105E+002, 1.9284618E-002, 1.7512137E-001, 1.0379444E-001, 5.5254759E-004, 7.0749084E-005, 1.2911443E-003, 4.9910095E+002
 1.3100212E+002, 1.8447385E-002, 1.7574417E-001, 1.0420483E-001, 6.0235483E-004, 7.7645554E-005, 1.3060079E-003, 4.9217398E+002
 1.3200025E+002, 1.7838151E-002, 1.7618797E-001, 1.0450686E-001, 6.4533646E-004, 8.2917504E-005, 1.3182053E-003, 4.9824993E+002
 1.3300384E+002, 1.8348961E-002, 1.7577982E-001, 1.0426532E-001, 6.3414220E-004, 8.6661028E-005, 1.3130627E-003, 4.9366400E+002
 1.3400871E+002, 1.7917492E-002, 1.7611845E-001, 1.0447152E-001, 6.4795905E-004, 8.3858336E-005, 1.3183004E-003, 4.9208749E+002
 1.3500405E+002, 1.9081544E-002, 1.7522252E-001, 1.0391036E-001, 5.9916570E-004, 8.2637368E-005, 1.3018192E-003, 4.9519032E+002
 1.3601012E+002, 1.7365821E-002, 1.7661248E-001, 1.0471316E-001, 6.2189499E-004, 7.8507057E-005, 1.3160316E-003, 5.0114760E+002
 1.3700830E+002, 1.7562985E-002, 1.7647353E-001, 1.0461354E-001, 6.0448863E-004, 7.7714175E-005, 1.3113660E-003, 4.9695712E+002
 1.3800258E+002, 1.6107102E-002, 1.7758676E-001, 1.0531833E-001, 6.7099715E-004, 7.7705102E-005, 1.3331055E-003, 5.0154996E+002
 1.3900398E+002, 1.6968403E-002, 1.7688733E-001, 1.0491437E-001, 6.5960334E-004, 8.8312034E-005, 1.3259632E-003, 4.9794274E+002
 1.4000846E+002, 1.7491455E-002, 1.7650681E-001, 1.0465528E-001, 6.2264062E-004, 8.1644175E-005, 1.3154815E-003, 5.0059619E+002
 1.4100080E+002, 1.6986624E-002, 1.7695673E-001, 1.0487760E-001, 6.0065135E-004, 7.4542171E-005, 1.3137899E-003, 5.0134376E+002
 1.4200845E+002, 1.5937077E-002, 1.7776838E-001, 1.0538153E-001, 6.4140785E-004, 7.8972540E-005, 1.3279818E-003, 5.0418596E+002
 1.4300290E+002, 1.7001785E-002, 1.7681179E-001, 1.0491597E-001, 6.9370931E-004, 9.1185716E-005, 1.3327681E-003, 4.9449144E+002
 1.4400559E+002, 1.6754594E-002, 1.7706963E-001, 1.0501206E-001, 6.5662511E-004, 8.2514193E-005, 1.3265495E-003, 4.9511875E+002
 1.4500214E+002, 1.6924373E-002, 1.7694829E-001, 1.0492650E-001, 6.4255851E-004, 8.3956836E-005, 1.3227183E-003, 4.9999550E+002
 1.4600195E+002, 1.6448657E-002, 1.7731307E-001, 1.0515583E-001, 6.6309860E-004, 8.7199679E-005, 1.3295732E-003, 4.9750414E+002
 1.4700817E+002, 1.5926312E-002, 1.7783368E-001, 1.0536703E-001, 6.0166290E-004, 7.2707442E-005, 1.3198990E-003, 5.0326152E+002
 1.4800448E+002, 1.6535519E-002, 1.7730966E-001, 1.0509285E-001, 6.1534854E-004, 7.5642531E-005, 1.3193124E-003, 4.9757616E+002
 1.4900391E+002, 1.6733593E-002, 1.7712342E-001, 1.0500764E-001, 6.2980737E-004, 8.6845814E-005, 1.3211611E-003, 5.0527800E+002
 1.5000841E+002, 1.5958309E-002, 1.7770178E-001, 1.0538944E-001, 6.7654639E-004, 8.0248452E-005, 1.3350681E-003, 5.0016795E+002
 1.5100724E+002, 1.6687282E-002, 1.7716939E-001, 1.0502741E-001, 6.2523348E-004, 8.0183076E-005, 1.3204893E-003, 4.9580101E+002
 1.5200286E+002, 1.6024622E-002, 1.7770356E-001, 1.0533749E-001, 6.3520704E-004, 8.3879665E-005, 1.3262168E-003, 5.0121597E+002
 1.5300668E+002, 1.6328187E-002, 1.7744929E-001, 1.0519867E-001, 6.3732596E-004, 8.3686446E-005, 1.3249626E-003, 5.0364171E+002
 1.5400374E+002, 1.5867217E-002, 1.7782131E-001, 1.0541412E-001, 6.4388343E-004, 8.6718598E-005, 1.3288682E-003, 4.9797484E+002
