s,,,,,,,
Time,"O2 EXHAUST","CO2 EXHAUST","H2O EXHAUST","CO EXHAUST","FUEL EXHAUST","SOOT EXHAUST","TEMP EXHAUST"
 0.0000000E+000, 2.3099745E-001, 5.9146511E-004, 5.9409840E-003, 0.0000000E+000, 0.0000000E+000, 0.0000000E+000, 2.0000000E+001
 1.0034328E+000, 2.3099745E-001, 5.9146511E-004, 5.9409840E-003, 1.5491125E-032, 8.2840228E-032, 4.0771986E-033, 2.0336289E+001
 2.0052059E+000, 2.2489330E-001, 5.3405180E-003, 9.9472044E-003, 3.0630026E-005, 7.2368339E-005, 3.4166286E-005, 8.6912752E+001
 3.0015895E+000, 2.2064251E-001, 8.6388283E-003, 1.2748297E-002, 6.1652896E-005, 9.5430503E-005, 6.0004914E-005, 1.2030434E+002
 4.0052092E+000, 2.1624721E-001, 1.2056479E-002, 1.5638291E-002, 8.7284769E-005, 1.3004543E-004, 8.5369144E-005, 1.5981378E+002
 5.0035419E+000, 2.1420700E-001, 1.3628742E-002, 1.6983059E-002, 1.0713742E-004, 1.6153954E-004, 9.8781970E-005, 1.7875059E+002
 6.0030011E+000, 2.0940080E-001, 1.7386488E-002, 2.0138597E-002, 1.2366483E-004, 1.7636776E-004, 1.2414831E-004, 2.1574125E+002
 7.0064142E+000, 2.0499045E-001, 2.0864855E-002, 2.3025136E-002, 1.2081367E-004, 1.6564658E-004, 1.4370153E-004, 2.4908334E+002
 8.0041140E+000, 2.0204251E-001, 2.3199563E-002, 2.4951017E-002, 1.1279193E-004, 1.5292825E-004, 1.5550419E-004, 2.7225324E+002
 9.0010666E+000, 1.9822971E-001, 2.6223063E-002, 2.7442192E-002, 1.0086200E-004, 1.2762911E-004, 1.7045531E-004, 2.9621880E+002
 1.0005324E+001, 1.9314732E-001, 3.0266730E-002, 3.0758148E-002, 7.6591966E-005, 8.5764652E-005, 1.8865201E-004, 3.2571120E+002
 1.1002666E+001, 1.8642211E-001, 3.5606672E-002, 3.5149281E-002, 5.0970615E-005, 3.8846170E-005, 2.1407308E-004, 3.5531916E+002
 1.2003335E+001, 1.8213329E-001, 3.9008966E-002, 3.7950384E-002, 3.6408474E-005, 1.2088396E-005, 2.3065119E-004, 3.7557940E+002
 1.3004885E+001, 1.7680073E-001, 4.3214553E-002, 4.1439964E-002, 3.2732566E-005, 1.4895494E-006, 2.5424293E-004, 3.9306335E+002
 1.4005100E+001, 1.7170404E-001, 4.7224606E-002, 4.4777820E-002, 3.4783425E-005, 3.9038288E-008, 2.7793995E-004, 4.0635996E+002
 1.5007748E+001, 1.6711261E-001, 5.0835720E-002, 4.7785164E-002, 3.7450426E-005, 1.7066889E-008, 2.9945695E-004, 4.1573290E+002
 1.6006575E+001, 1.6316615E-001, 5.3939518E-002, 5.0370082E-002, 3.9778248E-005, 2.7633499E-008, 3.1795877E-004, 4.2731885E+002
 1.7002547E+001, 1.5774628E-001, 5.8202145E-002, 5.3920063E-002, 4.2956008E-005, 3.1269968E-008, 3.4336424E-004, 4.3323277E+002
 1.8004060E+001, 1.5559536E-001, 5.9893844E-002, 5.5328883E-002, 4.4189177E-005, 7.5719659E-009, 3.5344080E-004, 4.3326269E+002
 1.9006293E+001, 1.5102504E-001, 6.3488316E-002, 5.8322415E-002, 4.6868772E-005, 8.3419400E-009, 3.7486402E-004, 4.3947834E+002
 2.0002455E+001, 1.4565499E-001, 6.7711753E-002, 6.1839772E-002, 5.0024417E-005, 1.5843292E-008, 4.0003746E-004, 4.4400432E+002
 2.1005897E+001, 1.4126974E-001, 7.1160655E-002, 6.4712093E-002, 5.2607224E-005, 2.7897808E-008, 4.2059562E-004, 4.5329007E+002
 2.2005907E+001, 1.3958090E-001, 7.2488859E-002, 6.5818286E-002, 5.3620821E-005, 4.0161932E-008, 4.2851685E-004, 4.5328518E+002
 2.3002861E+001, 1.3738867E-001, 7.4213068E-002, 6.7254158E-002, 5.4865994E-005, 1.6914324E-008, 4.3878452E-004, 4.4323350E+002
 2.4008408E+001, 1.3372009E-001, 7.7098334E-002, 6.9657055E-002, 5.7018290E-005, 1.4297605E-008, 4.5598115E-004, 4.4840638E+002
 2.5008990E+001, 1.3030900E-001, 7.9781090E-002, 7.1891300E-002, 5.9020712E-005, 1.9662353E-008, 4.7197104E-004, 4.5615575E+002
 2.6005571E+001, 1.2608540E-001, 8.3102839E-002, 7.4657748E-002, 6.1520471E-005, 3.5852115E-008, 4.9177390E-004, 4.5966714E+002
 2.7000937E+001, 1.2510273E-001, 8.3875694E-002, 7.5301387E-002, 6.2093055E-005, 3.9151154E-008, 4.9637938E-004, 4.4829711E+002
 2.8001258E+001, 1.2151825E-001, 8.6694760E-002, 7.7649231E-002, 6.4237676E-005, 6.0649054E-008, 5.1319047E-004, 4.5544203E+002
 2.9007976E+001, 1.1980211E-001, 8.8044550E-002, 7.8773254E-002, 6.5189482E-005, 2.7175517E-008, 5.2122350E-004, 4.5398865E+002
 3.0001724E+001, 1.1569769E-001, 9.1272572E-002, 8.1461635E-002, 6.7614182E-005, 4.4940694E-008, 5.4046662E-004, 4.5749370E+002
 3.1004662E+001, 1.1303184E-001, 9.3369148E-002, 8.3207777E-002, 6.9220178E-005, 8.1384884E-008, 5.5297163E-004, 4.5853302E+002
 3.2008114E+001, 1.1069095E-001, 9.5210340E-002, 8.4741003E-002, 7.0515215E-005, 1.9519290E-008, 5.6392845E-004, 4.5018888E+002
 3.3004095E+001, 1.0943822E-001, 9.6195595E-002, 8.5561526E-002, 7.1243320E-005, 1.2733176E-008, 5.6979923E-004, 4.4594880E+002
 3.4006075E+001, 1.0562211E-001, 9.9196841E-002, 8.8061081E-002, 7.3517810E-005, 4.3595160E-008, 5.8769484E-004, 4.5698218E+002
 3.5004535E+001, 1.0295789E-001, 1.0129218E-001, 8.9806136E-002, 7.5092721E-005, 3.6274036E-008, 6.0018594E-004, 4.5740601E+002
 3.6004173E+001, 1.0136141E-001, 1.0254787E-001, 9.0851785E-002, 7.5972217E-005, 9.4970908E-009, 6.0765766E-004, 4.4640993E+002
 3.7007221E+001, 9.8367277E-002, 1.0490265E-001, 9.2812945E-002, 7.7759941E-005, 3.1220363E-008, 6.2169926E-004, 4.5789032E+002
 3.8006379E+001, 9.5700024E-002, 1.0700040E-001, 9.4559979E-002, 7.9322103E-005, 2.8886020E-008, 6.3420158E-004, 4.5615985E+002
 3.9007400E+001, 9.5232137E-002, 1.0736843E-001, 9.4866421E-002, 7.9562271E-005, 1.1462465E-008, 6.3638770E-004, 4.4842680E+002
 4.0000061E+001, 9.2836989E-002, 1.0925217E-001, 9.6435230E-002, 8.0969558E-005, 1.2323714E-008, 6.4761550E-004, 4.4901810E+002
 4.1005048E+001, 8.9405709E-002, 1.1195081E-001, 9.8682698E-002, 8.2980878E-005, 1.2717727E-008, 6.6369941E-004, 4.5009597E+002
 4.2002548E+001, 8.7724274E-002, 1.1327311E-001, 9.9784078E-002, 8.4043905E-005, 4.1301860E-008, 6.7159712E-004, 4.5261560E+002
 4.3005217E+001, 8.4590647E-002, 1.1573769E-001, 1.0183657E-001, 8.5856304E-005, 4.9484594E-008, 6.8628071E-004, 4.5896335E+002
 4.4005530E+001, 8.3297091E-002, 1.1675509E-001, 1.0268382E-001, 8.6582571E-005, 2.9482321E-008, 6.9233755E-004, 4.5197805E+002
 4.5001517E+001, 7.9883002E-002, 1.1943228E-001, 1.0492336E-001, 9.3813306E-005, 2.6736668E-006, 7.0942641E-004, 4.5783805E+002
 4.6006355E+001, 7.7572970E-002, 1.2123465E-001, 1.0644252E-001, 1.0469328E-004, 7.3786675E-006, 7.2223202E-004, 4.5929965E+002
 4.7007450E+001, 7.7245372E-002, 1.2149998E-001, 1.0665373E-001, 9.9751856E-005, 5.3309292E-006, 7.2270145E-004, 4.5296486E+002
 4.8000331E+001, 7.3695198E-002, 1.2427242E-001, 1.0898698E-001, 1.1462899E-004, 1.3407813E-005, 7.4199716E-004, 4.5784752E+002
 4.9006009E+001, 7.2424083E-002, 1.2525856E-001, 1.0982497E-001, 1.2416988E-004, 1.9126531E-005, 7.4977989E-004, 4.5439671E+002
 5.0007211E+001, 7.0411745E-002, 1.2681847E-001, 1.1115259E-001, 1.4034092E-004, 2.6785806E-005, 7.6232440E-004, 4.5582510E+002
 5.1001204E+001, 6.8110261E-002, 1.2859254E-001, 1.1267487E-001, 1.6525202E-004, 4.0086218E-005, 7.7800193E-004, 4.5086678E+002
 5.2000689E+001, 6.6770258E-002, 1.2964342E-001, 1.1355385E-001, 1.6803379E-004, 4.0986607E-005, 7.8469761E-004, 4.5334286E+002
 5.3010759E+001, 6.2672126E-002, 1.3275883E-001, 1.1628464E-001, 2.4205940E-004, 7.1941425E-005, 8.1878025E-004, 4.5937261E+002
 5.4000042E+001, 6.1603792E-002, 1.3361143E-001, 1.1697614E-001, 2.3296362E-004, 8.0022991E-005, 8.2175623E-004, 4.5611059E+002
 5.5005103E+001, 6.0676454E-002, 1.3430961E-001, 1.1759711E-001, 2.5428188E-004, 8.8559633E-005, 8.3041749E-004, 4.5242063E+002
 5.6003762E+001, 6.0213138E-002, 1.3466296E-001, 1.1790361E-001, 2.6099641E-004, 9.8732301E-005, 8.3391936E-004, 4.4798903E+002
 5.7008349E+001, 5.6881820E-002, 1.3723843E-001, 1.2010414E-001, 2.9221394E-004, 1.1438690E-004, 8.5560850E-004, 4.5688736E+002
 5.8005525E+001, 5.4131888E-002, 1.3935684E-001, 1.2192470E-001, 3.2343642E-004, 1.2630113E-004, 8.7464832E-004, 4.5927785E+002
 5.9000114E+001, 5.2510646E-002, 1.4062732E-001, 1.2298776E-001, 3.2701323E-004, 1.3097118E-004, 8.8278947E-004, 4.6318917E+002
 6.0006918E+001, 5.2348729E-002, 1.4075010E-001, 1.2309245E-001, 3.2842749E-004, 1.4566793E-004, 8.8380752E-004, 4.5466643E+002
 6.1006017E+001, 5.0928916E-002, 1.4182544E-001, 1.2404047E-001, 3.5683974E-004, 1.5673779E-004, 8.9619079E-004, 4.5171076E+002
 6.2000585E+001, 5.0224592E-002, 1.4237793E-001, 1.2450087E-001, 3.5741957E-004, 1.6338109E-004, 8.9952002E-004, 4.4956079E+002
 6.3007575E+001, 4.6861271E-002, 1.4498432E-001, 1.2672279E-001, 3.8632506E-004, 1.6569958E-004, 9.2088817E-004, 4.5533678E+002
 6.4007322E+001, 4.5810521E-002, 1.4579646E-001, 1.2741391E-001, 3.9474026E-004, 1.8294268E-004, 9.2741842E-004, 4.5552615E+002
 6.5006379E+001, 4.5095467E-002, 1.4633148E-001, 1.2789331E-001, 4.1295006E-004, 1.9391816E-004, 9.3446102E-004, 4.5398065E+002
 6.6003221E+001, 4.3263573E-002, 1.4773316E-001, 1.2910903E-001, 4.3947338E-004, 2.0936586E-004, 9.4832792E-004, 4.5059059E+002
 6.7008350E+001, 4.1302847E-002, 1.4928546E-001, 1.3038918E-001, 4.3397561E-004, 2.0519814E-004, 9.5613978E-004, 4.5111482E+002
 6.8001395E+001, 3.9694690E-002, 1.5047423E-001, 1.3147785E-001, 4.8675772E-004, 2.1702206E-004, 9.7445374E-004, 4.5473808E+002
 6.9008849E+001, 3.8164779E-002, 1.5165160E-001, 1.3249160E-001, 5.0510883E-004, 2.2251043E-004, 9.8525174E-004, 4.5364598E+002
 7.0005808E+001, 3.6068362E-002, 1.5328282E-001, 1.3387230E-001, 5.1801461E-004, 2.2768176E-004, 9.9750319E-004, 4.5394093E+002
 7.1009156E+001, 3.6745543E-002, 1.5276024E-001, 1.3341980E-001, 5.0857893E-004, 2.4335868E-004, 9.9243136E-004, 4.5129194E+002
 7.2002690E+001, 3.4536218E-002, 1.5448340E-001, 1.3487581E-001, 5.2085113E-004, 2.3675296E-004, 1.0050789E-003, 4.5241792E+002
 7.3004404E+001, 3.2574650E-002, 1.5599214E-001, 1.3617523E-001, 5.4456537E-004, 2.4690252E-004, 1.0189588E-003, 4.5835236E+002
 7.4003547E+001, 3.1392753E-002, 1.5687889E-001, 1.3696776E-001, 5.7366868E-004, 2.5953568E-004, 1.0303980E-003, 4.5152137E+002
 7.5009875E+001, 2.9104917E-002, 1.5863396E-001, 1.3848814E-001, 6.0585648E-004, 2.6128593E-004, 1.0475398E-003, 4.6254001E+002
 7.6004453E+001, 2.8037815E-002, 1.5945794E-001, 1.3919717E-001, 6.1843549E-004, 2.5169682E-004, 1.0550395E-003, 4.5836332E+002
 7.7004153E+001, 2.8722573E-002, 1.5890872E-001, 1.3874388E-001, 6.2029902E-004, 2.9247274E-004, 1.0522581E-003, 4.5422265E+002
 7.8005963E+001, 2.5967545E-002, 1.6107087E-001, 1.4055697E-001, 6.2837164E-004, 2.6743686E-004, 1.0665424E-003, 4.5815713E+002
 7.9003042E+001, 2.4735152E-002, 1.6199402E-001, 1.4138563E-001, 6.6053608E-004, 2.7455984E-004, 1.0788551E-003, 4.5807754E+002
 8.0007847E+001, 2.3681793E-002, 1.6283363E-001, 1.4206942E-001, 6.5304975E-004, 2.7665635E-004, 1.0821040E-003, 4.5779543E+002
 8.1006953E+001, 2.2279817E-002, 1.6384263E-001, 1.4303359E-001, 7.1892789E-004, 2.8179105E-004, 1.1022091E-003, 4.5837602E+002
 8.2000693E+001, 2.2476857E-002, 1.6360901E-001, 1.4292969E-001, 7.6658653E-004, 3.3980925E-004, 1.1111666E-003, 4.5581273E+002
 8.3009220E+001, 1.9597862E-002, 1.6563370E-001, 1.4494172E-001, 9.3932671E-004, 3.1715583E-004, 1.1602833E-003, 4.6337630E+002
 8.4001092E+001, 1.9407332E-002, 1.6582185E-001, 1.4504893E-001, 9.1343061E-004, 3.1033402E-004, 1.1557711E-003, 4.5228682E+002
 8.5012020E+001, 1.7880435E-002, 1.6704263E-001, 1.4603888E-001, 9.0028859E-004, 3.1086328E-004, 1.1600065E-003, 4.6021396E+002
 8.6006899E+001, 1.6362952E-002, 1.6774395E-001, 1.4727429E-001, 1.2432984E-003, 3.3655049E-004, 1.2382911E-003, 4.5948140E+002
 8.7006903E+001, 1.7500075E-002, 1.6711016E-001, 1.4638371E-001, 1.0522927E-003, 3.9499898E-004, 1.1932879E-003, 4.5417472E+002
 8.8003499E+001, 1.5247249E-002, 1.6889034E-001, 1.4786786E-001, 1.0543069E-003, 3.4370495E-004, 1.2040463E-003, 4.5781623E+002
 8.9003589E+001, 1.4695556E-002, 1.6920368E-001, 1.4828170E-001, 1.1350053E-003, 3.7675671E-004, 1.2233243E-003, 4.5286608E+002
 9.0002747E+001, 1.3243770E-002, 1.6994591E-001, 1.4942815E-001, 1.4133600E-003, 3.9963421E-004, 1.2878566E-003, 4.5760972E+002
 9.1007920E+001, 1.2316264E-002, 1.7019991E-001, 1.5026342E-001, 1.7415891E-003, 4.4660245E-004, 1.3603492E-003, 4.5828625E+002
 9.2009460E+001, 1.2100189E-002, 1.7012574E-001, 1.5052649E-001, 1.9123174E-003, 4.5223747E-004, 1.3968600E-003, 4.5519108E+002
 9.3008234E+001, 1.1246747E-002, 1.7076529E-001, 1.5110398E-001, 1.9363535E-003, 4.4201880E-004, 1.4057692E-003, 4.5228684E+002
 9.4010450E+001, 1.0681935E-002, 1.7012527E-001, 1.5198008E-001, 2.6771154E-003, 6.0226324E-004, 1.5623387E-003, 4.4706075E+002
 9.5007904E+001, 9.9048170E-003, 1.7148047E-001, 1.5214536E-001, 2.1713277E-003, 4.7785463E-004, 1.4607584E-003, 4.5655189E+002
 9.6006863E+001, 1.1090069E-002, 1.7082365E-001, 1.5122344E-001, 1.9738295E-003, 5.0559581E-004, 1.4142166E-003, 4.4145772E+002
 9.7006576E+001, 1.0358229E-002, 1.7132448E-001, 1.5172878E-001, 2.0207242E-003, 5.5242532E-004, 1.4272677E-003, 4.5012132E+002
 9.8001610E+001, 9.4247847E-003, 1.7143672E-001, 1.5265691E-001, 2.4595519E-003, 5.3826483E-004, 1.5228685E-003, 4.5076302E+002
 9.9005661E+001, 8.4360554E-003, 1.7092338E-001, 1.5391304E-001, 3.3447515E-003, 7.0552391E-004, 1.7114248E-003, 4.5009741E+002
 1.0000818E+002, 8.4556651E-003, 1.7156318E-001, 1.5358955E-001, 2.8948291E-003, 6.2783639E-004, 1.6177840E-003, 4.4621100E+002
 1.0100246E+002, 7.3654233E-003, 1.7076278E-001, 1.5510109E-001, 4.0397185E-003, 7.7850302E-004, 1.8608652E-003, 4.4412477E+002
 1.0200902E+002, 8.5778138E-003, 1.7121785E-001, 1.5360359E-001, 3.0535057E-003, 7.5427919E-004, 1.6501151E-003, 4.4536561E+002
 1.0300699E+002, 8.1768481E-003, 1.7125875E-001, 1.5398458E-001, 3.2361478E-003, 8.3405770E-004, 1.6898712E-003, 4.3883844E+002
 1.0400572E+002, 7.5219499E-003, 1.7193936E-001, 1.5435612E-001, 3.1336950E-003, 7.2980583E-004, 1.6716496E-003, 4.3508135E+002
 1.0500501E+002, 7.0846107E-003, 1.7229483E-001, 1.5462696E-001, 3.1208208E-003, 7.6925290E-004, 1.6709254E-003, 4.4998681E+002
 1.0600390E+002, 6.6822494E-003, 1.7249378E-001, 1.5495589E-001, 3.2067155E-003, 7.4431322E-004, 1.6906642E-003, 4.4674070E+002
 1.0700180E+002, 7.2894507E-003, 1.7129074E-001, 1.5491032E-001, 3.7087238E-003, 7.9747782E-004, 1.7923088E-003, 4.4472361E+002
 1.0800386E+002, 6.5937326E-003, 1.7085645E-001, 1.5582467E-001, 4.3796339E-003, 9.4057761E-004, 1.9349571E-003, 4.3389259E+002
 1.0900982E+002, 6.2134258E-003, 1.7186260E-001, 1.5574792E-001, 3.8991782E-003, 8.1913691E-004, 1.8368339E-003, 4.4793813E+002
 1.1000146E+002, 6.1164594E-003, 1.6855608E-001, 1.5738851E-001, 6.2082848E-003, 1.3275676E-003, 2.3172881E-003, 4.3724536E+002
 1.1100762E+002, 6.2997919E-003, 1.6903862E-001, 1.5692179E-001, 5.7523831E-003, 1.4520017E-003, 2.2214422E-003, 4.3106654E+002
 1.1200980E+002, 6.0657838E-003, 1.6986960E-001, 1.5684068E-001, 5.3454934E-003, 1.0848414E-003, 2.1382201E-003, 4.4111820E+002
 1.1300582E+002, 5.7208153E-003, 1.7029065E-001, 1.5696907E-001, 5.2292155E-003, 1.1737809E-003, 2.1155027E-003, 4.4484250E+002
 1.1400324E+002, 5.5395024E-003, 1.6956108E-001, 1.5751036E-001, 5.8328346E-003, 1.2409361E-003, 2.2418786E-003, 4.3619338E+002
 1.1500820E+002, 5.4903297E-003, 1.6952757E-001, 1.5758870E-001, 5.8885561E-003, 1.2016878E-003, 2.2537407E-003, 4.3358996E+002
 1.1600008E+002, 5.1340053E-003, 1.6902174E-001, 1.5818938E-001, 6.4257512E-003, 1.3165364E-003, 2.3670419E-003, 4.3673266E+002
 1.1700196E+002, 5.2165816E-003, 1.6926969E-001, 1.5795909E-001, 6.1965272E-003, 1.3912655E-003, 2.3188824E-003, 4.3983369E+002
 1.1800582E+002, 5.0323888E-003, 1.6847994E-001, 1.5852486E-001, 6.8394272E-003, 1.4939895E-003, 2.4534087E-003, 4.2747891E+002
 1.1900165E+002, 4.9797103E-003, 1.6808716E-001, 1.5877861E-001, 7.1444907E-003, 1.4917511E-003, 2.5171383E-003, 4.3594313E+002
 1.2000513E+002, 5.1434559E-003, 1.6830403E-001, 1.5852016E-001, 6.9135723E-003, 1.3998507E-003, 2.4684313E-003, 4.3005335E+002
 1.2100456E+002, 4.8706820E-003, 1.6758052E-001, 1.5913483E-001, 7.5533490E-003, 1.5461289E-003, 2.6026661E-003, 4.3744589E+002
 1.2200870E+002, 4.7253562E-003, 1.6800493E-001, 1.5909373E-001, 7.3460205E-003, 1.4662389E-003, 2.5602668E-003, 4.3281754E+002
 1.2300152E+002, 5.0941219E-003, 1.6658883E-001, 1.5931401E-001, 8.0819676E-003, 1.8891269E-003, 2.7112950E-003, 4.2623628E+002
 1.2400800E+002, 4.5745935E-003, 1.6814273E-001, 1.5915267E-001, 7.3171213E-003, 1.5871927E-003, 2.5548133E-003, 4.3992357E+002
 1.2500224E+002, 5.1117479E-003, 1.6681441E-001, 1.5917730E-001, 7.9115577E-003, 1.9074767E-003, 2.6757312E-003, 4.2267974E+002
 1.2600455E+002, 4.9589256E-003, 1.6636825E-001, 1.5952299E-001, 8.2887524E-003, 2.0666449E-003, 2.7547589E-003, 4.2850277E+002
 1.2700746E+002, 4.5573601E-003, 1.6611910E-001, 1.6011043E-001, 8.7060034E-003, 1.9065330E-003, 2.8435951E-003, 4.2942579E+002
 1.2800552E+002, 4.7264967E-003, 1.6645910E-001, 1.5979024E-001, 8.3887466E-003, 1.7908013E-003, 2.7769208E-003, 4.4753829E+002
 1.2900282E+002, 4.9524933E-003, 1.6458623E-001, 1.6039210E-001, 9.5249170E-003, 2.2077550E-003, 3.0118974E-003, 4.1641085E+002
 1.3001173E+002, 5.1842512E-003, 1.6565877E-001, 1.5961278E-001, 8.6463956E-003, 2.1898843E-003, 2.8280293E-003, 4.2653689E+002
 1.3101178E+002, 5.5274218E-003, 1.6631061E-001, 1.5889330E-001, 7.9836123E-003, 2.3123010E-003, 2.6884018E-003, 4.4722143E+002
 1.3200928E+002, 5.5770877E-003, 1.6378167E-001, 1.5993224E-001, 9.6372125E-003, 3.0452182E-003, 3.0315325E-003, 4.1235493E+002
 1.3300612E+002, 6.1202396E-003, 1.6413220E-001, 1.5916192E-001, 9.0793124E-003, 3.1370709E-003, 2.9128514E-003, 4.2824726E+002
 1.3400967E+002, 5.0403949E-003, 1.6601363E-001, 1.5949742E-001, 8.4316623E-003, 2.5426143E-003, 2.7836260E-003, 4.4810332E+002
 1.3500676E+002, 5.4698399E-003, 1.6258138E-001, 1.6054935E-001, 1.0487397E-002, 3.4472845E-003, 3.2085299E-003, 4.1502548E+002
 1.3600557E+002, 5.5935746E-003, 1.6307215E-001, 1.6020825E-001, 1.0093162E-002, 3.3021736E-003, 3.1260737E-003, 4.2432025E+002
 1.3700476E+002, 6.2442546E-003, 1.6401034E-001, 1.5902783E-001, 9.0628286E-003, 3.3985283E-003, 2.9085790E-003, 4.3982263E+002
 1.3800113E+002, 5.7913364E-003, 1.6259212E-001, 1.6016594E-001, 1.0281602E-002, 3.6081844E-003, 3.1640643E-003, 4.1524195E+002
 1.3900660E+002, 4.9822698E-003, 1.6440929E-001, 1.6030278E-001, 9.5569877E-003, 2.7985876E-003, 3.0178126E-003, 4.3636255E+002
 1.4000788E+002, 6.4890388E-003, 1.6181442E-001, 1.5965626E-001, 1.0355503E-002, 4.2828291E-003, 3.1755471E-003, 4.1758002E+002
 1.4100185E+002, 5.7419397E-003, 1.6147362E-001, 1.6073713E-001, 1.1071253E-002, 3.7850601E-003, 3.3284375E-003, 4.2244541E+002
 1.4200057E+002, 5.5877331E-003, 1.6188816E-001, 1.6075970E-001, 1.0901135E-002, 3.5069513E-003, 3.2940316E-003, 4.2772040E+002
 1.4300731E+002, 5.8974732E-003, 1.6218597E-001, 1.6034010E-001, 1.0549740E-002, 3.2822702E-003, 3.2197258E-003, 4.3414531E+002
 1.4400855E+002, 5.7538647E-003, 1.6020882E-001, 1.6134931E-001, 1.1946025E-002, 3.8343839E-003, 3.5103796E-003, 4.2141188E+002
 1.4500170E+002, 5.5924383E-003, 1.6176285E-001, 1.6080746E-001, 1.0981133E-002, 3.5487123E-003, 3.3106143E-003, 4.2949834E+002
 1.4600923E+002, 5.0287748E-003, 1.6197374E-001, 1.6140112E-001, 1.1199816E-002, 3.1174142E-003, 3.3591527E-003, 4.3252016E+002
 1.4700330E+002, 5.1385731E-003, 1.6048054E-001, 1.6202017E-001, 1.2178088E-002, 3.1879953E-003, 3.5621650E-003, 4.3395182E+002
 1.4800801E+002, 5.0081418E-003, 1.5986240E-001, 1.6245305E-001, 1.2676009E-002, 3.2503597E-003, 3.6663168E-003, 4.2600695E+002
 1.4900530E+002, 4.8242951E-003, 1.5960644E-001, 1.6276372E-001, 1.2951333E-002, 3.2964809E-003, 3.7244051E-003, 4.2691526E+002
 1.5000507E+002, 4.4354190E-003, 1.6075134E-001, 1.6270461E-001, 1.2418601E-002, 2.8597634E-003, 3.6157745E-003, 4.3034954E+002
 1.5100768E+002, 4.5828885E-003, 1.5837356E-001, 1.6361067E-001, 1.3935757E-002, 3.4077436E-003, 3.9302581E-003, 4.2180194E+002
 1.5200227E+002, 4.3892541E-003, 1.5899255E-001, 1.6360801E-001, 1.3662601E-002, 2.9838989E-003, 3.8747429E-003, 4.2343755E+002
 1.5300849E+002, 4.9542531E-003, 1.5796519E-001, 1.6339213E-001, 1.3999746E-002, 3.5437493E-003, 3.9417361E-003, 4.3068672E+002
 1.5400905E+002, 4.5852667E-003, 1.5872651E-001, 1.6352690E-001, 1.3736343E-002, 3.0202923E-003, 3.8891560E-003, 4.2722136E+002
