s,,,,,,,
Time,O2 EXHAUST,CO2 EXHAUST,H2O EXHAUST,CO EXHAUST,FUEL EXHAUST,SOOT EXHAUST,TEMP EXHAUST
 0.0000000E+000, 2.3099739E-001, 5.9146498E-004, 5.9412092E-003, 0.0000000E+000, 0.0000000E+000, 0.0000000E+000, 2.0000000E+001
 1.0057215E+000, 2.3099739E-001, 5.9146498E-004, 5.9412092E-003, 9.6176532E-026, 5.6870870E-023, 7.6536788E-025, 2.0321503E+001
 2.0042585E+000, 2.2372849E-001, 6.4476285E-003, 9.5864062E-003, 1.0283781E-005, 4.7916745E-004, 2.6469157E-005, 9.8862611E+001
 3.0024020E+000, 2.1830495E-001, 1.0851787E-002, 1.2331257E-002, 1.9654899E-005, 6.4154149E-004, 4.6725947E-005, 1.5358079E+002
 4.0057751E+000, 2.1142065E-001, 1.6460361E-002, 1.5826956E-002, 3.1363772E-005, 7.5312815E-004, 7.2473940E-005, 2.1715934E+002
 5.0067427E+000, 2.0601348E-001, 2.0872705E-002, 1.8575618E-002, 3.9451707E-005, 8.1125077E-004, 9.2489273E-005, 2.6236673E+002
 6.0052696E+000, 1.9665962E-001, 2.8581422E-002, 2.3354898E-002, 3.6648468E-005, 6.3716097E-004, 1.2382639E-004, 3.3707825E+002
 7.0026932E+000, 1.9042279E-001, 3.3734548E-002, 2.6549393E-002, 3.4271040E-005, 4.5525997E-004, 1.4466653E-004, 3.7462917E+002
 8.0012928E+000, 1.8092249E-001, 4.1592787E-002, 3.1416891E-002, 2.7818628E-005, 1.5332304E-004, 1.7584044E-004, 4.2917592E+002
 9.0075080E+000, 1.7195175E-001, 4.8977940E-002, 3.5997439E-002, 2.6551268E-005, 1.7047427E-005, 2.0616637E-004, 4.6159017E+002
 1.0007778E+001, 1.6321755E-001, 5.6140182E-002, 4.0445363E-002, 2.9680053E-005, 3.2432259E-007, 2.3651157E-004, 4.8383209E+002
 1.1002404E+001, 1.5535584E-001, 6.2583257E-002, 4.4447485E-002, 3.3121524E-005, 1.5988972E-007, 2.6394422E-004, 4.9828223E+002
 1.2006818E+001, 1.4740868E-001, 6.9096243E-002, 4.8493124E-002, 3.6663061E-005, 1.6257518E-007, 2.9168798E-004, 5.0923059E+002
 1.3000392E+001, 1.3969460E-001, 7.5418137E-002, 5.2420121E-002, 4.0141754E-005, 2.3381216E-007, 3.1862654E-004, 5.2135409E+002
 1.4003369E+001, 1.3304656E-001, 8.0866436E-002, 5.5804424E-002, 4.3111766E-005, 2.4863081E-007, 3.4183658E-004, 5.2621510E+002
 1.5009431E+001, 1.2670186E-001, 8.6066158E-002, 5.9034298E-002, 4.5932202E-005, 2.6481225E-007, 3.6398465E-004, 5.3040931E+002
 1.6008095E+001, 1.2163656E-001, 9.0217605E-002, 6.1612787E-002, 4.8019937E-005, 1.9060939E-007, 3.8163244E-004, 5.2898175E+002
 1.7010144E+001, 1.1601957E-001, 9.4820982E-002, 6.4472194E-002, 5.0489140E-005, 1.9262461E-007, 4.0123444E-004, 5.3046365E+002
 1.8007151E+001, 1.1051610E-001, 9.9331368E-002, 6.7273790E-002, 5.2874408E-005, 1.7773121E-007, 4.2043317E-004, 5.3366258E+002
 1.9001508E+001, 1.0591142E-001, 1.0310513E-001, 6.9617862E-002, 5.4888165E-005, 1.7529955E-007, 4.3650027E-004, 5.3298848E+002
 2.0008224E+001, 1.0176268E-001, 1.0650519E-001, 7.1729839E-002, 5.6723419E-005, 1.9029641E-007, 4.5098079E-004, 5.3224334E+002
 2.1005770E+001, 9.7166858E-002, 1.1027155E-001, 7.4069450E-002, 5.8826880E-005, 2.0892212E-007, 4.6703648E-004, 5.3427623E+002
 2.2003316E+001, 9.3225454E-002, 1.1350148E-001, 7.6075954E-002, 6.0709823E-005, 2.6826852E-007, 4.8082237E-004, 5.3189681E+002
 2.3004504E+001, 8.9516280E-002, 1.1653894E-001, 7.7964975E-002, 6.3929761E-005, 9.8011739E-007, 4.9409748E-004, 5.2877517E+002
 2.4000104E+001, 8.5972429E-002, 1.1942738E-001, 7.9774591E-002, 7.6226192E-005, 5.2909106E-006, 5.0870116E-004, 5.2914679E+002
 2.5007362E+001, 8.2194112E-002, 1.2250044E-001, 8.1706227E-002, 9.3721539E-005, 1.1491640E-005, 5.2518446E-004, 5.2739924E+002
 2.6002858E+001, 7.8156788E-002, 1.2578490E-001, 8.3770095E-002, 1.1197014E-004, 1.7542642E-005, 5.4270512E-004, 5.2892945E+002
 2.7003417E+001, 7.4432439E-002, 1.2883009E-001, 8.5668291E-002, 1.1824011E-004, 2.0519334E-005, 5.5666620E-004, 5.2858183E+002
 2.8000888E+001, 7.0523572E-002, 1.3202236E-001, 8.7662189E-002, 1.2760697E-004, 2.3033200E-005, 5.7190059E-004, 5.2958503E+002
 2.9002933E+001, 6.6831888E-002, 1.3502997E-001, 8.9548023E-002, 1.4148425E-004, 2.6531269E-005, 5.8733698E-004, 5.3155066E+002
 3.0005809E+001, 6.4788551E-002, 1.3670268E-001, 9.0588615E-002, 1.4348634E-004, 2.8345570E-005, 5.9469656E-004, 5.2202308E+002
 3.1009891E+001, 5.9754315E-002, 1.4080446E-001, 9.3160652E-002, 1.6249624E-004, 3.0409173E-005, 6.1576673E-004, 5.2973792E+002
 3.2006874E+001, 5.6907502E-002, 1.4312114E-001, 9.4615702E-002, 1.7488572E-004, 3.4367053E-005, 6.2802150E-004, 5.2747248E+002
 3.3003462E+001, 5.3500384E-002, 1.4590066E-001, 9.6355044E-002, 1.8528967E-004, 3.5652069E-005, 6.4176819E-004, 5.2790996E+002
 3.4008790E+001, 5.0332355E-002, 1.4848608E-001, 9.7971591E-002, 1.9405032E-004, 3.8630436E-005, 6.5435835E-004, 5.2778625E+002
 3.5005535E+001, 4.7820368E-002, 1.5054752E-001, 9.9249216E-002, 1.9318089E-004, 3.8750745E-005, 6.6271283E-004, 5.2566283E+002
 3.6007600E+001, 4.4178612E-002, 1.5351256E-001, 1.0111060E-001, 2.0841305E-004, 4.0759682E-005, 6.7826333E-004, 5.3065174E+002
 3.7000084E+001, 4.0815162E-002, 1.5625391E-001, 1.0282872E-001, 2.2052545E-004, 4.1828694E-005, 6.9221815E-004, 5.3294440E+002
 3.8006434E+001, 3.7834225E-002, 1.5868722E-001, 1.0434998E-001, 2.2863597E-004, 4.2583995E-005, 7.0403869E-004, 5.3151067E+002
 3.9003924E+001, 3.4935549E-002, 1.6103932E-001, 1.0583463E-001, 2.4631299E-004, 4.4858151E-005, 7.1757389E-004, 5.3360444E+002
 4.0003973E+001, 3.2289357E-002, 1.6319282E-001, 1.0718746E-001, 2.5801447E-004, 4.6758669E-005, 7.2900504E-004, 5.3230975E+002
 4.1010828E+001, 2.9395352E-002, 1.6554985E-001, 1.0866641E-001, 2.6960561E-004, 4.7959053E-005, 7.4125582E-004, 5.3238324E+002
 4.2005938E+001, 2.6857137E-002, 1.6760949E-001, 1.0996628E-001, 2.8496809E-004, 5.0692846E-005, 7.5308301E-004, 5.3190056E+002
 4.3010105E+001, 2.3828038E-002, 1.7004224E-001, 1.1152724E-001, 3.2090267E-004, 5.6456457E-005, 7.7086679E-004, 5.3137883E+002
 4.4006254E+001, 2.0793422E-002, 1.7247673E-001, 1.1309296E-001, 3.5938057E-004, 5.8020847E-005, 7.8920310E-004, 5.3314520E+002
 4.5011447E+001, 1.8422816E-002, 1.7441534E-001, 1.1430072E-001, 3.6291910E-004, 6.1714338E-005, 7.9799376E-004, 5.3059786E+002
 4.6007845E+001, 1.5069049E-002, 1.7709233E-001, 1.1603689E-001, 4.1528709E-004, 6.1895154E-005, 8.2031283E-004, 5.3421933E+002
 4.7001022E+001, 1.2175054E-002, 1.7937491E-001, 1.1754555E-001, 4.7958130E-004, 6.5008068E-005, 8.4355481E-004, 5.3646500E+002
 4.8005756E+001, 9.8468013E-003, 1.8102906E-001, 1.1883059E-001, 6.5935278E-004, 7.9266988E-005, 8.8895171E-004, 5.3590598E+002
 4.9007795E+001, 8.1788906E-003, 1.8220459E-001, 1.1975659E-001, 7.9594996E-004, 8.1463815E-005, 9.2310894E-004, 5.3044900E+002
 5.0008702E+001, 5.7709191E-003, 1.8403912E-001, 1.2103816E-001, 8.9556190E-004, 8.3472703E-005, 9.5206678E-004, 5.3964452E+002
 5.1008500E+001, 4.6671511E-003, 1.8342338E-001, 1.2220431E-001, 1.9706702E-003, 1.3510892E-004, 1.1800217E-003, 5.2631670E+002
 5.2003055E+001, 3.5465386E-003, 1.8338949E-001, 1.2315009E-001, 2.6421318E-003, 1.8328729E-004, 1.3238444E-003, 5.2509530E+002
 5.3003249E+001, 3.0129087E-003, 1.8292067E-001, 1.2377719E-001, 3.2796878E-003, 2.3756986E-004, 1.4585957E-003, 5.1861922E+002
 5.4011779E+001, 2.6989763E-003, 1.8083539E-001, 1.2483769E-001, 4.9151354E-003, 4.6876862E-004, 1.8006006E-003, 5.0897304E+002
 5.5000304E+001, 2.5064734E-003, 1.8133292E-001, 1.2481421E-001, 4.6842153E-003, 3.8952505E-004, 1.7531519E-003, 5.0558045E+002
 5.6001666E+001, 2.3098738E-003, 1.8082822E-001, 1.2518310E-001, 5.1577469E-003, 3.9125832E-004, 1.8525872E-003, 5.0015731E+002
 5.7007891E+001, 2.0457257E-003, 1.7929585E-001, 1.2594211E-001, 6.3463896E-003, 8.0289817E-004, 2.1010873E-003, 4.9911711E+002
 5.8012358E+001, 1.9423414E-003, 1.7897704E-001, 1.2616070E-001, 6.6354339E-003, 7.8877354E-004, 2.1617382E-003, 4.9442469E+002
 5.9004425E+001, 1.8600190E-003, 1.7685049E-001, 1.2698742E-001, 8.1274174E-003, 1.2986912E-003, 2.4728136E-003, 4.8912591E+002
 6.0008981E+001, 1.7558998E-003, 1.7640152E-001, 1.2726078E-001, 8.5105223E-003, 1.2769096E-003, 2.5530921E-003, 4.8752062E+002
 6.1007943E+001, 1.7255819E-003, 1.7653089E-001, 1.2724887E-001, 8.4462341E-003, 1.2024922E-003, 2.5398444E-003, 4.8140277E+002
 6.2008355E+001, 1.6577908E-003, 1.7527837E-001, 1.2776939E-001, 9.3479836E-003, 1.4161246E-003, 2.7279928E-003, 4.8170949E+002
 6.3003525E+001, 1.6208821E-003, 1.7482437E-001, 1.2797755E-001, 9.6881971E-003, 1.4479957E-003, 2.7990545E-003, 4.7883844E+002
 6.4003089E+001, 1.6247705E-003, 1.7354594E-001, 1.2843788E-001, 1.0559514E-002, 1.7137430E-003, 2.9805709E-003, 4.7336277E+002
 6.5000488E+001, 1.5552966E-003, 1.7269437E-001, 1.2877247E-001, 1.1159954E-002, 2.0534260E-003, 3.1057793E-003, 4.7054741E+002
 6.6000324E+001, 1.6225680E-003, 1.7131620E-001, 1.2915895E-001, 1.2024139E-002, 2.6231750E-003, 3.2853540E-003, 4.6731435E+002
 6.7003381E+001, 1.5964250E-003, 1.7111877E-001, 1.2928750E-001, 1.2197918E-002, 2.4895501E-003, 3.3217945E-003, 4.6187599E+002
 6.8004729E+001, 1.5310194E-003, 1.6978172E-001, 1.2981124E-001, 1.3138868E-002, 2.8477271E-003, 3.5179977E-003, 4.6237401E+002
 6.9011223E+001, 1.4852870E-003, 1.6911122E-001, 1.3009379E-001, 1.3624385E-002, 2.9821807E-003, 3.6193160E-003, 4.6334961E+002
 7.0005668E+001, 1.5644704E-003, 1.6821341E-001, 1.3032777E-001, 1.4174775E-002, 3.2938343E-003, 3.7336021E-003, 4.5762136E+002
 7.1005077E+001, 1.6797194E-003, 1.6773161E-001, 1.3040989E-001, 1.4439625E-002, 3.3727028E-003, 3.7883906E-003, 4.5451973E+002
 7.2003192E+001, 1.7363409E-003, 1.6679423E-001, 1.3071308E-001, 1.5054453E-002, 3.5133509E-003, 3.9163278E-003, 4.5322369E+002
 7.3009374E+001, 1.7812655E-003, 1.6536247E-001, 1.3112573E-001, 1.5960160E-002, 4.1543918E-003, 4.1045831E-003, 4.5162386E+002
 7.4005795E+001, 1.8286394E-003, 1.6474770E-001, 1.3130582E-001, 1.6350566E-002, 4.2972597E-003, 4.1857404E-003, 4.4799462E+002
 7.5001038E+001, 1.8617032E-003, 1.6390793E-001, 1.3152707E-001, 1.6867658E-002, 4.7488110E-003, 4.2931280E-003, 4.4635690E+002
 7.6007578E+001, 1.9837315E-003, 1.6317282E-001, 1.3168470E-001, 1.7294463E-002, 4.9335482E-003, 4.3815907E-003, 4.4594628E+002
 7.7004948E+001, 1.9816128E-003, 1.6257369E-001, 1.3193869E-001, 1.7728693E-002, 4.8835774E-003, 4.4722083E-003, 4.4837015E+002
 7.8009983E+001, 1.9366507E-003, 1.6178843E-001, 1.3220938E-001, 1.8256516E-002, 5.3056554E-003, 4.5821226E-003, 4.4385741E+002
 7.9004144E+001, 2.0231198E-003, 1.6048741E-001, 1.3259234E-001, 1.9084177E-002, 5.6567128E-003, 4.7541856E-003, 4.4140359E+002
 8.0009844E+001, 2.1012949E-003, 1.5994858E-001, 1.3272142E-001, 1.9406340E-002, 5.7718172E-003, 4.8210259E-003, 4.4184071E+002
 8.1011533E+001, 2.1230748E-003, 1.5916349E-001, 1.3294102E-001, 1.9898519E-002, 6.1686111E-003, 4.9232985E-003, 4.3786781E+002
 8.2001177E+001, 2.1918864E-003, 1.5803869E-001, 1.3332496E-001, 2.0649850E-002, 6.2332161E-003, 5.0797256E-003, 4.3914327E+002
 8.3002232E+001, 2.2223007E-003, 1.5742062E-001, 1.3352401E-001, 2.1054772E-002, 6.3592460E-003, 5.1639815E-003, 4.3903234E+002
 8.4003265E+001, 2.2497930E-003, 1.5665199E-001, 1.3366756E-001, 2.1488306E-002, 7.0785290E-003, 5.2537495E-003, 4.3585630E+002
 8.5006474E+001, 2.2476359E-003, 1.5603148E-001, 1.3388134E-001, 2.1904771E-002, 7.2726135E-003, 5.3404702E-003, 4.3588542E+002
 8.6011923E+001, 2.3480511E-003, 1.5536046E-001, 1.3403608E-001, 2.2301868E-002, 7.4330706E-003, 5.4228289E-003, 4.3353196E+002
 8.7007637E+001, 2.4484975E-003, 1.5467801E-001, 1.3420683E-001, 2.2714787E-002, 7.5365342E-003, 5.5085326E-003, 4.3356093E+002
 8.8009500E+001, 2.4002424E-003, 1.5384451E-001, 1.3449210E-001, 2.3273661E-002, 7.9969841E-003, 5.6249044E-003, 4.3386054E+002
 8.9009807E+001, 2.4444263E-003, 1.5293271E-001, 1.3478504E-001, 2.3870548E-002, 8.1893909E-003, 5.7491011E-003, 4.3220485E+002
 9.0002329E+001, 2.5240379E-003, 1.5238246E-001, 1.3492392E-001, 2.4204317E-002, 8.2725407E-003, 5.8183824E-003, 4.3227018E+002
 9.1010453E+001, 2.6249985E-003, 1.5119657E-001, 1.3526702E-001, 2.4954344E-002, 8.5294827E-003, 5.9742773E-003, 4.2874392E+002
 9.2012601E+001, 2.7100117E-003, 1.5013101E-001, 1.3554394E-001, 2.5607193E-002, 8.9408435E-003, 6.1098359E-003, 4.2762843E+002
 9.3002063E+001, 2.8205490E-003, 1.4951564E-001, 1.3574473E-001, 2.6010807E-002, 8.7165924E-003, 6.1938217E-003, 4.2759265E+002
 9.4011669E+001, 2.8127102E-003, 1.4815325E-001, 1.3624058E-001, 2.6943106E-002, 9.0236189E-003, 6.3880651E-003, 4.2757809E+002
 9.5012624E+001, 2.8795279E-003, 1.4740412E-001, 1.3644489E-001, 2.7408465E-002, 9.2352132E-003, 6.4847359E-003, 4.2776343E+002
 9.6007031E+001, 3.0492190E-003, 1.4663886E-001, 1.3655878E-001, 2.7818194E-002, 9.4991777E-003, 6.5694129E-003, 4.2596805E+002
 9.7000273E+001, 3.0609924E-003, 1.4575894E-001, 1.3689671E-001, 2.8432000E-002, 9.5385154E-003, 6.6973688E-003, 4.2437735E+002
 9.8002060E+001, 3.1220400E-003, 1.4438457E-001, 1.3742212E-001, 2.9388398E-002, 9.4331330E-003, 6.8967284E-003, 4.2114315E+002
 9.9003492E+001, 4.0587184E-003, 1.4318220E-001, 1.3727992E-001, 2.9804501E-002, 8.6399153E-003, 6.9809583E-003, 4.1097362E+002
 1.0000718E+002, 6.0415366E-003, 1.4311893E-001, 1.3542716E-001, 2.8549447E-002, 9.6984496E-003, 6.7116122E-003, 3.9492619E+002
 1.0100375E+002, 7.9539204E-003, 1.4066601E-001, 1.3470187E-001, 2.9104564E-002, 1.0246566E-002, 6.8204690E-003, 4.1811866E+002
 1.0200223E+002, 9.2060892E-003, 1.4015860E-001, 1.3362774E-001, 2.8581722E-002, 1.1379683E-002, 6.7062709E-003, 3.9566068E+002
 1.0300638E+002, 1.0235736E-002, 1.4032396E-001, 1.3269141E-001, 2.7860463E-002, 1.1400629E-002, 6.5523163E-003, 3.9664716E+002
 1.0401092E+002, 1.1157100E-002, 1.4065255E-001, 1.3184920E-001, 2.7132906E-002, 1.1076585E-002, 6.3976870E-003, 3.9459759E+002
 1.0501145E+002, 1.0993336E-002, 1.4103145E-001, 1.3200549E-001, 2.7074895E-002, 1.0218661E-002, 6.3868171E-003, 4.0072147E+002
 1.0600951E+002, 1.1909681E-002, 1.3942195E-001, 1.3189160E-001, 2.7688993E-002, 1.0191059E-002, 6.5118127E-003, 3.9399570E+002
 1.0700064E+002, 1.2649616E-002, 1.3762766E-001, 1.3195604E-001, 2.8507366E-002, 1.0386278E-002, 6.6798402E-003, 3.9087612E+002
 1.0800676E+002, 1.3210716E-002, 1.3628962E-001, 1.3201982E-001, 2.9128114E-002, 1.0414224E-002, 6.8073865E-003, 3.9013268E+002
 1.0901053E+002, 1.4650938E-002, 1.3310419E-001, 1.3197490E-001, 3.0471392E-002, 1.1024997E-002, 7.0821922E-003, 3.9258015E+002
 1.1001239E+002, 1.4580753E-002, 1.3250064E-001, 1.3233161E-001, 3.0977995E-002, 1.0756705E-002, 7.1883080E-003, 3.9113320E+002
 1.1101206E+002, 1.5880700E-002, 1.3067543E-001, 1.3182468E-001, 3.1415171E-002, 1.1517275E-002, 7.2744792E-003, 3.8333609E+002
 1.1200906E+002, 1.7298321E-002, 1.2808787E-001, 1.3146417E-001, 3.2283593E-002, 1.2591779E-002, 7.4499530E-003, 3.7949683E+002
 1.1300702E+002, 1.7663656E-002, 1.2633176E-001, 1.3186544E-001, 3.3318669E-002, 1.2599916E-002, 7.6646000E-003, 3.8277181E+002
 1.1400053E+002, 1.7687799E-002, 1.2587121E-001, 1.3204636E-001, 3.3642368E-002, 1.2524935E-002, 7.7320936E-003, 3.8815598E+002
 1.1500049E+002, 1.8471635E-002, 1.2395137E-001, 1.3208527E-001, 3.4497865E-002, 1.2916750E-002, 7.9075610E-003, 3.9003569E+002
 1.1600012E+002, 1.8559907E-002, 1.2364504E-001, 1.3219455E-001, 3.4704536E-002, 1.2619092E-002, 7.9506018E-003, 3.9385323E+002
 1.1700611E+002, 1.9771277E-002, 1.2193051E-001, 1.3173217E-001, 3.5124676E-002, 1.3305505E-002, 8.0335789E-003, 3.8894694E+002
 1.1800111E+002, 2.0567274E-002, 1.1937353E-001, 1.3197009E-001, 3.6393719E-002, 1.3938675E-002, 8.2950723E-003, 3.8530837E+002
 1.1900015E+002, 2.0817559E-002, 1.1787766E-001, 1.3232194E-001, 3.7283171E-002, 1.4151040E-002, 8.4795761E-003, 3.8327259E+002
 1.2000629E+002, 2.1805040E-002, 1.1652747E-001, 1.3190734E-001, 3.7579413E-002, 1.4802929E-002, 8.5374985E-003, 3.7854850E+002
 1.2100678E+002, 2.2522899E-002, 1.1566577E-001, 1.3155120E-001, 3.7705270E-002, 1.5308269E-002, 8.5609136E-003, 3.7874112E+002
 1.2201287E+002, 2.2500267E-002, 1.1526869E-001, 1.3177407E-001, 3.8030215E-002, 1.5091935E-002, 8.6289371E-003, 3.8669496E+002
 1.2300067E+002, 2.2155539E-002, 1.1476390E-001, 1.3234581E-001, 3.8643109E-002, 1.4702687E-002, 8.7582507E-003, 3.9399995E+002
 1.2401170E+002, 2.2405273E-002, 1.1370473E-001, 1.3254027E-001, 3.9234820E-002, 1.4821737E-002, 8.8807269E-003, 3.8917282E+002
 1.2501177E+002, 2.4263425E-002, 1.1145759E-001, 1.3159425E-001, 3.9551580E-002, 1.6284045E-002, 8.9393342E-003, 3.8267527E+002
 1.2600794E+002, 2.4460674E-002, 1.1043334E-001, 1.3180376E-001, 4.0138985E-002, 1.6477705E-002, 9.0610323E-003, 3.8391054E+002
 1.2700530E+002, 2.3864320E-002, 1.1035949E-001, 1.3241721E-001, 4.0595131E-002, 1.6066152E-002, 9.1585241E-003, 3.9110985E+002
 1.2800008E+002, 2.3443970E-002, 1.1044829E-001, 1.3283729E-001, 4.0846571E-002, 1.5553291E-002, 9.2128000E-003, 3.9543777E+002
 1.2901068E+002, 2.4129409E-002, 1.0893993E-001, 1.3277921E-001, 4.1457735E-002, 1.6011693E-002, 9.3375868E-003, 3.9002888E+002
 1.3000498E+002, 2.4994229E-002, 1.0730177E-001, 1.3257221E-001, 4.2022387E-002, 1.6722980E-002, 9.4518641E-003, 3.8538329E+002
 1.3100656E+002, 2.5859326E-002, 1.0623979E-001, 1.3215377E-001, 4.2191631E-002, 1.7325808E-002, 9.4837520E-003, 3.8102335E+002
 1.3200057E+002, 2.4919888E-002, 1.0493107E-001, 1.3357793E-001, 4.3742134E-002, 1.6798538E-002, 9.8107601E-003, 3.9184719E+002
 1.3300686E+002, 2.4196825E-002, 1.0553720E-001, 1.3405766E-001, 4.3811870E-002, 1.6213800E-002, 9.8282217E-003, 3.9832253E+002
 1.3400314E+002, 2.4064364E-002, 1.0450392E-001, 1.3459273E-001, 4.4628343E-002, 1.6183663E-002, 9.9989943E-003, 3.9716322E+002
 1.3500916E+002, 2.4438660E-002, 1.0365456E-001, 1.3458046E-001, 4.4986472E-002, 1.6388766E-002, 1.0072259E-002, 3.9468561E+002
 1.3600086E+002, 2.4043225E-002, 1.0341555E-001, 1.3503878E-001, 4.5407077E-002, 1.6242026E-002, 1.0161448E-002, 3.9727876E+002
 1.3700007E+002, 2.3752673E-002, 1.0281845E-001, 1.3554685E-001, 4.6016605E-002, 1.6129617E-002, 1.0289658E-002, 4.0073700E+002
 1.3800124E+002, 2.3899482E-002, 1.0178173E-001, 1.3583540E-001, 4.6663645E-002, 1.6165475E-002, 1.0424090E-002, 4.0084516E+002
 1.3901007E+002, 2.4636063E-002, 1.0030385E-001, 1.3568567E-001, 4.7198752E-002, 1.6805347E-002, 1.0532696E-002, 3.9095628E+002
 1.4000328E+002, 2.5859545E-002, 9.7915532E-002, 1.3538843E-001, 4.8025659E-002, 1.7976364E-002, 1.0700095E-002, 3.8859473E+002
 1.4100177E+002, 2.5653459E-002, 9.7184316E-002, 1.3589001E-001, 4.8688245E-002, 1.7812682E-002, 1.0839125E-002, 3.8935163E+002
 1.4200442E+002, 2.5584415E-002, 9.5925842E-002, 1.3646951E-001, 4.9632438E-002, 1.7749129E-002, 1.1036348E-002, 3.9622679E+002
 1.4300682E+002, 2.4520109E-002, 9.7085421E-002, 1.3710567E-001, 4.9570588E-002, 1.6698144E-002, 1.1027889E-002, 4.0320495E+002
 1.4401213E+002, 2.4988079E-002, 9.6535363E-002, 1.3687589E-001, 4.9649121E-002, 1.6992062E-002, 1.1042448E-002, 4.0559217E+002
 1.4500562E+002, 2.3815568E-002, 9.6002070E-002, 1.3825652E-001, 5.0833961E-002, 1.6094940E-002, 1.1294269E-002, 4.0941381E+002
 1.4600771E+002, 2.3595595E-002, 9.4534047E-002, 1.3904920E-001, 5.2016395E-002, 1.6023267E-002, 1.1541704E-002, 4.0720077E+002
 1.4701125E+002, 2.4420154E-002, 9.2839706E-002, 1.3890012E-001, 5.2645439E-002, 1.6727668E-002, 1.1669554E-002, 4.0093163E+002
 1.4800975E+002, 2.5510400E-002, 9.2031869E-002, 1.3814541E-001, 5.2472590E-002, 1.7551774E-002, 1.1629150E-002, 3.9637066E+002
 1.4900966E+002, 2.5374154E-002, 9.2097507E-002, 1.3823843E-001, 5.2508805E-002, 1.7526528E-002, 1.1637186E-002, 3.9861683E+002
 1.5000293E+002, 2.4636049E-002, 9.1793605E-002, 1.3909873E-001, 5.3234765E-002, 1.6941629E-002, 1.1791573E-002, 4.0176141E+002
 1.5100934E+002, 2.4427134E-002, 9.1641788E-002, 1.3939852E-001, 5.3507097E-002, 1.6627836E-002, 1.1849332E-002, 4.0607979E+002
 1.5201229E+002, 2.4161710E-002, 9.0793819E-002, 1.4002124E-001, 5.4303619E-002, 1.6343961E-002, 1.2016594E-002, 4.0907934E+002
 1.5300799E+002, 2.3375930E-002, 9.0194440E-002, 1.4103626E-001, 5.5264378E-002, 1.5782950E-002, 1.2220099E-002, 4.1085863E+002
 1.5400279E+002, 2.3713632E-002, 8.9382954E-002, 1.4100565E-001, 5.5594116E-002, 1.6156685E-002, 1.2287434E-002, 4.0776539E+002
