s,,,,,,,
Time,"O2 EXHAUST","CO2 EXHAUST","H2O EXHAUST","CO EXHAUST","FUEL EXHAUST","SOOT EXHAUST","TEMP EXHAUST"
 0.0000000E+000, 2.3099739E-001, 5.9146498E-004, 5.9412092E-003, 0.0000000E+000, 0.0000000E+000, 0.0000000E+000, 2.0000000E+001
 1.0040418E+000, 2.3099739E-001, 5.9146498E-004, 5.9412092E-003, 1.7353149E-033, 2.9797353E-032, 5.4894214E-034, 2.0480151E+001
 2.0003436E+000, 2.2379139E-001, 6.2148890E-003, 1.0640744E-002, 1.1218205E-005, 1.7261416E-004, 3.5029470E-005, 9.3679184E+001
 3.0022613E+000, 2.1939712E-001, 9.6474465E-003, 1.3523390E-002, 2.5162593E-005, 2.0348503E-004, 5.7932907E-005, 1.3582750E+002
 4.0046100E+000, 2.1536703E-001, 1.2799633E-002, 1.6157020E-002, 3.0997509E-005, 2.6408156E-004, 7.7471192E-005, 1.7548764E+002
 5.0024556E+000, 2.1100717E-001, 1.6213583E-002, 1.9015892E-002, 4.0589717E-005, 2.8281528E-004, 9.9333506E-005, 2.1245355E+002
 6.0046329E+000, 2.0500051E-001, 2.0942361E-002, 2.2954963E-002, 4.2867433E-005, 2.5599549E-004, 1.2725522E-004, 2.6156054E+002
 7.0049807E+000, 2.0159366E-001, 2.3632375E-002, 2.5190709E-002, 4.1477510E-005, 2.1830042E-004, 1.4256289E-004, 2.8642039E+002
 8.0011644E+000, 1.9548446E-001, 2.8459476E-002, 2.9199830E-002, 3.7497753E-005, 1.4412044E-004, 1.6971321E-004, 3.2674052E+002
 9.0031090E+000, 1.9013704E-001, 3.2686946E-002, 3.2708714E-002, 3.2848251E-005, 7.5853384E-005, 1.9324127E-004, 3.5769716E+002
 1.0000872E+001, 1.8326041E-001, 3.8114290E-002, 3.7218885E-002, 2.9750065E-005, 1.5076407E-005, 2.2406290E-004, 3.9196516E+002
 1.1004526E+001, 1.7905717E-001, 4.1423646E-002, 3.9974005E-002, 3.0538401E-005, 8.3158467E-007, 2.4343071E-004, 4.0680341E+002
 1.2002101E+001, 1.7168771E-001, 4.7217381E-002, 4.4802765E-002, 3.4764671E-005, 2.6782170E-008, 2.7794851E-004, 4.3215040E+002
 1.3000484E+001, 1.6750553E-001, 5.0505172E-002, 4.7543063E-002, 3.7218930E-005, 2.3348301E-008, 2.9754845E-004, 4.4308988E+002
 1.4002647E+001, 1.6157693E-001, 5.5165858E-002, 5.1427677E-002, 4.0718152E-005, 5.2412827E-008, 3.2533713E-004, 4.5604347E+002
 1.5007833E+001, 1.5665520E-001, 5.9035014E-002, 5.4652566E-002, 4.3625049E-005, 7.0684085E-008, 3.4840684E-004, 4.6406745E+002
 1.6004185E+001, 1.5253627E-001, 6.2273137E-002, 5.7351394E-002, 4.6004178E-005, 4.4246076E-008, 3.6770253E-004, 4.6908101E+002
 1.7000481E+001, 1.4762401E-001, 6.6134878E-002, 6.0570067E-002, 4.8887017E-005, 4.0819395E-008, 3.9072406E-004, 4.7434835E+002
 1.8005805E+001, 1.4287501E-001, 6.9868295E-002, 6.3681751E-002, 5.1655809E-005, 3.0718424E-008, 4.1297669E-004, 4.7847672E+002
 1.9003333E+001, 1.3902560E-001, 7.2894467E-002, 6.6204011E-002, 5.3923223E-005, 3.7280893E-008, 4.3101881E-004, 4.7941374E+002
 2.0006348E+001, 1.3478156E-001, 7.6230873E-002, 6.8984843E-002, 5.6421055E-005, 4.5391077E-008, 4.5091013E-004, 4.8440576E+002
 2.1004854E+001, 1.3211489E-001, 7.8327259E-002, 7.0732126E-002, 5.7981713E-005, 5.0272192E-008, 4.6340668E-004, 4.8080591E+002
 2.2002656E+001, 1.3003111E-001, 7.9965425E-002, 7.2097479E-002, 5.9194315E-005, 3.5298286E-008, 4.7317030E-004, 4.7885280E+002
 2.3006873E+001, 1.2519434E-001, 8.3767822E-002, 7.5266682E-002, 6.2028380E-005, 3.9140163E-008, 4.9583709E-004, 4.8178298E+002
 2.4000001E+001, 1.2248873E-001, 8.5894824E-002, 7.7039477E-002, 6.3609706E-005, 3.9861548E-008, 5.0851569E-004, 4.8043481E+002
 2.5006267E+001, 1.2013125E-001, 8.7748174E-002, 7.8584162E-002, 6.4972185E-005, 2.1012507E-008, 5.1955981E-004, 4.7824812E+002
 2.6003607E+001, 1.1721984E-001, 9.0036943E-002, 8.0491816E-002, 6.6690203E-005, 3.2386500E-008, 5.3320619E-004, 4.8218435E+002
 2.7000177E+001, 1.1458571E-001, 9.2107632E-002, 8.2217825E-002, 6.8307353E-005, 6.8606196E-008, 5.4556577E-004, 4.8096077E+002
 2.8002257E+001, 1.1293994E-001, 9.3401578E-002, 8.3296133E-002, 6.9186392E-005, 2.0616689E-008, 5.5326092E-004, 4.7358017E+002
 2.9007714E+001, 1.0949126E-001, 9.6112645E-002, 8.5555854E-002, 7.1266833E-005, 6.7418525E-008, 5.6943491E-004, 4.8232496E+002
 3.0006957E+001, 1.0526987E-001, 9.9431253E-002, 8.8321837E-002, 7.3743687E-005, 8.0795545E-008, 5.8921848E-004, 4.8443187E+002
 3.1008365E+001, 1.0358914E-001, 1.0075256E-001, 8.9423098E-002, 7.4718416E-005, 6.8258015E-008, 5.9709290E-004, 4.8388386E+002
 3.2007224E+001, 1.0165963E-001, 1.0226951E-001, 9.0687347E-002, 7.5803713E-005, 2.7609243E-008, 6.0612598E-004, 4.7745869E+002
 3.3007823E+001, 9.8477823E-002, 1.0477086E-001, 9.2772169E-002, 7.7672928E-005, 3.9445938E-008, 6.2103803E-004, 4.8074820E+002
 3.4004752E+001, 9.6489165E-002, 1.0633421E-001, 9.4075210E-002, 7.8851790E-005, 3.9994540E-008, 6.3036039E-004, 4.7865582E+002
 3.5003365E+001, 9.3714729E-002, 1.0851529E-001, 9.5893115E-002, 8.0492558E-005, 5.6643582E-008, 6.4336546E-004, 4.8375823E+002
 3.6004261E+001, 9.0571825E-002, 1.1098609E-001, 9.7952435E-002, 8.2320620E-005, 4.5857967E-008, 6.5809144E-004, 4.8057642E+002
 3.7000242E+001, 8.8895791E-002, 1.1230371E-001, 9.9050621E-002, 8.3295332E-005, 3.6499958E-008, 6.6594442E-004, 4.7752236E+002
 3.8000168E+001, 8.6864046E-002, 1.1390093E-001, 1.0038189E-001, 8.4494656E-005, 5.0203713E-008, 6.7546770E-004, 4.8029076E+002
 3.9005101E+001, 8.3734373E-002, 1.1636127E-001, 1.0243256E-001, 8.6349866E-005, 6.0434532E-008, 6.9013884E-004, 4.8167813E+002
 4.0002122E+001, 8.1592183E-002, 1.1804538E-001, 1.0383617E-001, 8.7580291E-005, 5.3263631E-008, 7.0017279E-004, 4.8276561E+002
 4.1005143E+001, 7.8619310E-002, 1.2038021E-001, 1.0578501E-001, 9.0790166E-005, 9.6562821E-007, 7.1440625E-004, 4.8476944E+002
 4.2002460E+001, 7.6969864E-002, 1.2167438E-001, 1.0686677E-001, 9.3372313E-005, 2.1411686E-006, 7.2246784E-004, 4.8176736E+002
 4.3006939E+001, 7.5278836E-002, 1.2299886E-001, 1.0797665E-001, 9.7467084E-005, 4.5685324E-006, 7.3102965E-004, 4.7823479E+002
 4.4008292E+001, 7.3696122E-002, 1.2423124E-001, 1.0901872E-001, 1.0616660E-004, 8.3987876E-006, 7.4004437E-004, 4.7777045E+002
 4.5007321E+001, 7.1889111E-002, 1.2564041E-001, 1.1020691E-001, 1.1436129E-004, 1.4709653E-005, 7.4997649E-004, 4.7782738E+002
 4.6009175E+001, 6.9646021E-002, 1.2738481E-001, 1.1168447E-001, 1.2799218E-004, 2.1778343E-005, 7.6301902E-004, 4.7897638E+002
 4.7000482E+001, 6.7979150E-002, 1.2867537E-001, 1.1278453E-001, 1.4169180E-004, 3.0343712E-005, 7.7344334E-004, 4.7374924E+002
 4.8004617E+001, 6.6077583E-002, 1.3016684E-001, 1.1403126E-001, 1.4470655E-004, 3.4239645E-005, 7.8274229E-004, 4.8080211E+002
 4.9004486E+001, 6.4524988E-002, 1.3136689E-001, 1.1505704E-001, 1.5893170E-004, 4.1767784E-005, 7.9275426E-004, 4.7672652E+002
 5.0007038E+001, 6.1989565E-002, 1.3334923E-001, 1.1672201E-001, 1.6706861E-004, 4.8969500E-005, 8.0599918E-004, 4.7945425E+002
 5.1002558E+001, 5.9986014E-002, 1.3489878E-001, 1.1804513E-001, 1.8471656E-004, 5.9195151E-005, 8.1877253E-004, 4.7986051E+002
 5.2005307E+001, 5.8042174E-002, 1.3639734E-001, 1.1933010E-001, 2.0459411E-004, 7.3703911E-005, 8.3172820E-004, 4.7964421E+002
 5.3007449E+001, 5.7714291E-002, 1.3666105E-001, 1.1954177E-001, 2.0056626E-004, 7.4375520E-005, 8.3239446E-004, 4.7224820E+002
 5.4007207E+001, 5.4881189E-002, 1.3888210E-001, 1.2140054E-001, 2.0617500E-004, 7.7124010E-005, 8.4648218E-004, 4.7754344E+002
 5.5000518E+001, 5.3658788E-002, 1.3983474E-001, 1.2220402E-001, 2.1184140E-004, 8.3880153E-005, 8.5322373E-004, 4.8431954E+002
 5.6004487E+001, 5.1379884E-002, 1.4161200E-001, 1.2370265E-001, 2.2220920E-004, 9.1020893E-005, 8.6575727E-004, 4.8098379E+002
 5.7004318E+001, 5.0328338E-002, 1.4242536E-001, 1.2439729E-001, 2.3153961E-004, 9.5362994E-005, 8.7247635E-004, 4.7952132E+002
 5.8007170E+001, 4.8559487E-002, 1.4380898E-001, 1.2555918E-001, 2.3710035E-004, 9.7840819E-005, 8.8169552E-004, 4.8150372E+002
 5.9000465E+001, 4.8156160E-002, 1.4410867E-001, 1.2583049E-001, 2.4855134E-004, 1.0478432E-004, 8.8588933E-004, 4.7744086E+002
 6.0005455E+001, 4.5796382E-002, 1.4594298E-001, 1.2738502E-001, 2.6331293E-004, 1.1350015E-004, 8.9969587E-004, 4.7869502E+002
 6.1008572E+001, 4.4677469E-002, 1.4681190E-001, 1.2812134E-001, 2.7028845E-004, 1.2245836E-004, 9.0623239E-004, 4.8010282E+002
 6.2003490E+001, 4.3371628E-002, 1.4782179E-001, 1.2898425E-001, 2.8208920E-004, 1.2700707E-004, 9.1462133E-004, 4.7996355E+002
 6.3007318E+001, 4.2588708E-002, 1.4841634E-001, 1.2950555E-001, 2.9597365E-004, 1.3603388E-004, 9.2104748E-004, 4.7194690E+002
 6.4008871E+001, 4.0657544E-002, 1.4992386E-001, 1.3077723E-001, 3.0500040E-004, 1.3223163E-004, 9.3172856E-004, 4.7866358E+002
 6.5009177E+001, 3.9017146E-002, 1.5118441E-001, 1.3186345E-001, 3.2451024E-004, 1.4536621E-004, 9.4322451E-004, 4.7932003E+002
 6.6008914E+001, 3.7886638E-002, 1.5208166E-001, 1.3259956E-001, 3.1907493E-004, 1.4671069E-004, 9.4726450E-004, 4.8106376E+002
 6.7005709E+001, 3.5594862E-002, 1.5384831E-001, 1.3411805E-001, 3.4437587E-004, 1.4996528E-004, 9.6293817E-004, 4.8215491E+002
 6.8007205E+001, 3.5306785E-002, 1.5406711E-001, 1.3431069E-001, 3.4989117E-004, 1.4992998E-004, 9.6538999E-004, 4.7928605E+002
 6.9002806E+001, 3.3821811E-002, 1.5523730E-001, 1.3528117E-001, 3.4825319E-004, 1.5441504E-004, 9.7182753E-004, 4.8119421E+002
 7.0006433E+001, 3.2138064E-002, 1.5651511E-001, 1.3640522E-001, 3.7997328E-004, 1.6372928E-004, 9.8604159E-004, 4.8461601E+002
 7.1002307E+001, 3.1045924E-002, 1.5733315E-001, 1.3713772E-001, 4.0702015E-004, 1.7797315E-004, 9.9658640E-004, 4.8371195E+002
 7.2004842E+001, 3.0779957E-002, 1.5752450E-001, 1.3731915E-001, 4.1860996E-004, 1.8515949E-004, 1.0001814E-003, 4.7607649E+002
 7.3005096E+001, 2.9234261E-002, 1.5871522E-001, 1.3834500E-001, 4.3688835E-004, 1.8216807E-004, 1.0110083E-003, 4.8307356E+002
 7.4002707E+001, 2.7991216E-002, 1.5969526E-001, 1.3915704E-001, 4.3513526E-004, 1.8624336E-004, 1.0163179E-003, 4.8120188E+002
 7.5003578E+001, 2.6359849E-002, 1.6096624E-001, 1.4023216E-001, 4.4429765E-004, 1.8467307E-004, 1.0256559E-003, 4.8412864E+002
 7.6007897E+001, 2.5665953E-002, 1.6147103E-001, 1.4070519E-001, 4.7194091E-004, 1.9336479E-004, 1.0345112E-003, 4.8175052E+002
 7.7009170E+001, 2.4542776E-002, 1.6235451E-001, 1.4144114E-001, 4.7237703E-004, 1.9231646E-004, 1.0397302E-003, 4.8006219E+002
 7.8004470E+001, 2.4056760E-002, 1.6273662E-001, 1.4175834E-001, 4.7201266E-004, 1.9725660E-004, 1.0418688E-003, 4.8159732E+002
 7.9006629E+001, 2.2634282E-002, 1.6385074E-001, 1.4269484E-001, 4.7693583E-004, 1.8785235E-004, 1.0493877E-003, 4.8334521E+002
 8.0010594E+001, 2.2690383E-002, 1.6381130E-001, 1.4265400E-001, 4.7277754E-004, 1.9477015E-004, 1.0482674E-003, 4.7760421E+002
 8.1003438E+001, 1.9928587E-002, 1.6580237E-001, 1.4454933E-001, 5.9713022E-004, 2.1534266E-004, 1.0864804E-003, 4.8303586E+002
 8.2006230E+001, 1.9612858E-002, 1.6605420E-001, 1.4475330E-001, 5.9424807E-004, 2.1967617E-004, 1.0873234E-003, 4.8150116E+002
 8.3000125E+001, 1.9442206E-002, 1.6616447E-001, 1.4487684E-001, 6.1080942E-004, 2.2097978E-004, 1.0915139E-003, 4.7915767E+002
 8.4002378E+001, 1.8171016E-002, 1.6717264E-001, 1.4570597E-001, 6.0574408E-004, 2.1830703E-004, 1.0962767E-003, 4.8145120E+002
 8.5002710E+001, 1.7896927E-002, 1.6737013E-001, 1.4589247E-001, 6.1731974E-004, 2.2700658E-004, 1.0999043E-003, 4.8082818E+002
 8.6008132E+001, 1.6887420E-002, 1.6816814E-001, 1.4655318E-001, 6.1559861E-004, 2.2114726E-004, 1.1041648E-003, 4.8308981E+002
 8.7006150E+001, 1.5243367E-002, 1.6938236E-001, 1.4766639E-001, 6.6924153E-004, 2.3512900E-004, 1.1227103E-003, 4.8443876E+002
 8.8007902E+001, 1.4088140E-002, 1.7017262E-001, 1.4848151E-001, 7.5132803E-004, 2.4032024E-004, 1.1448947E-003, 4.8407282E+002
 8.9001369E+001, 1.4024390E-002, 1.7019627E-001, 1.4853768E-001, 7.7031958E-004, 2.3609745E-004, 1.1491038E-003, 4.8090231E+002
 9.0001403E+001, 1.3709030E-002, 1.7051097E-001, 1.4871105E-001, 7.2423964E-004, 2.3442176E-004, 1.1410497E-003, 4.8088867E+002
 9.1005145E+001, 1.2798841E-002, 1.7104188E-001, 1.4939707E-001, 8.5149281E-004, 2.4844323E-004, 1.1714136E-003, 4.8398887E+002
 9.2000295E+001, 1.1551861E-002, 1.7195009E-001, 1.5024845E-001, 9.0136181E-004, 2.5664182E-004, 1.1873747E-003, 4.8077021E+002
 9.3009156E+001, 1.1278503E-002, 1.7215583E-001, 1.5043273E-001, 9.0817523E-004, 2.5444614E-004, 1.1900291E-003, 4.7994639E+002
 9.4001661E+001, 1.0159898E-002, 1.7299981E-001, 1.5118511E-001, 9.3427778E-004, 2.4814536E-004, 1.2005218E-003, 4.8177098E+002
 9.5004305E+001, 9.1480261E-003, 1.7369822E-001, 1.5189564E-001, 1.0016959E-003, 2.5391532E-004, 1.2190283E-003, 4.8464792E+002
 9.6001938E+001, 8.7939428E-003, 1.7391173E-001, 1.5215858E-001, 1.0461348E-003, 2.6103810E-004, 1.2297950E-003, 4.8209629E+002
 9.7007622E+001, 8.3196374E-003, 1.7397726E-001, 1.5261686E-001, 1.2564913E-003, 2.9121091E-004, 1.2752768E-003, 4.8564283E+002
 9.8002661E+001, 7.9863901E-003, 1.7438798E-001, 1.5276375E-001, 1.1549754E-003, 2.7693584E-004, 1.2558939E-003, 4.8027148E+002
 9.9001112E+001, 7.3874083E-003, 1.7475048E-001, 1.5320753E-001, 1.2290544E-003, 2.9041913E-004, 1.2738799E-003, 4.8102662E+002
 1.0000076E+002, 7.1061525E-003, 1.7440864E-001, 1.5366936E-001, 1.6177692E-003, 3.1610827E-004, 1.3552394E-003, 4.7922594E+002
 1.0100653E+002, 6.6032500E-003, 1.7433340E-001, 1.5421845E-001, 1.9365374E-003, 3.8753889E-004, 1.4231487E-003, 4.8200061E+002
 1.0200782E+002, 6.1743371E-003, 1.7482365E-001, 1.5443588E-001, 1.8371792E-003, 3.3298759E-004, 1.4046897E-003, 4.7930458E+002
 1.0301079E+002, 6.6989021E-003, 1.7407489E-001, 1.5424324E-001, 2.0615187E-003, 4.0761384E-004, 1.4484457E-003, 4.7367629E+002
 1.0400088E+002, 6.3708147E-003, 1.7459885E-001, 1.5432680E-001, 1.8779612E-003, 3.9646440E-004, 1.4121297E-003, 4.7458370E+002
 1.0500243E+002, 6.2175097E-003, 1.7433761E-001, 1.5461265E-001, 2.1401107E-003, 4.2521049E-004, 1.4668205E-003, 4.7352794E+002
 1.0600355E+002, 6.6948508E-003, 1.7389582E-001, 1.5432242E-001, 2.1805271E-003, 4.6941560E-004, 1.4729231E-003, 4.7046332E+002
 1.0700802E+002, 5.9689270E-003, 1.7379620E-001, 1.5512208E-001, 2.6403076E-003, 5.2593225E-004, 1.5709248E-003, 4.7292764E+002
 1.0800719E+002, 5.7508391E-003, 1.7404587E-001, 1.5524108E-001, 2.5939137E-003, 4.6352100E-004, 1.5624259E-003, 4.7449626E+002
 1.0900906E+002, 4.9057522E-003, 1.7426614E-001, 1.5600857E-001, 2.8982866E-003, 5.0460329E-004, 1.6289631E-003, 4.7268253E+002
 1.1000579E+002, 4.6832366E-003, 1.7412242E-001, 1.5630433E-001, 3.1147152E-003, 5.4779335E-004, 1.6745329E-003, 4.7564817E+002
 1.1100346E+002, 4.3007529E-003, 1.7370269E-001, 1.5690329E-001, 3.6086938E-003, 6.0811054E-004, 1.7780098E-003, 4.7089040E+002
 1.1200325E+002, 4.7859063E-003, 1.7373753E-001, 1.5637083E-001, 3.3163548E-003, 6.2665544E-004, 1.7155329E-003, 4.7675738E+002
 1.1300742E+002, 4.2263921E-003, 1.7374957E-001, 1.5695113E-001, 3.6133722E-003, 6.3508933E-004, 1.7792849E-003, 4.6601366E+002
 1.1400826E+002, 4.7006403E-003, 1.7313475E-001, 1.5673894E-001, 3.7695470E-003, 7.2947179E-004, 1.8092031E-003, 4.6282182E+002
 1.1500492E+002, 4.3430219E-003, 1.7318341E-001, 1.5710446E-001, 3.9386620E-003, 6.7353383E-004, 1.8457444E-003, 4.6707803E+002
 1.1600845E+002, 4.9450838E-003, 1.7323977E-001, 1.5643800E-001, 3.5672090E-003, 6.9281147E-004, 1.7664299E-003, 4.6641989E+002
 1.1700017E+002, 4.1204189E-003, 1.7192776E-001, 1.5785186E-001, 4.8733655E-003, 1.1553876E-003, 2.0388670E-003, 4.6001353E+002
 1.1800853E+002, 4.3145165E-003, 1.7351963E-001, 1.5695699E-001, 3.7162630E-003, 7.0505974E-004, 1.8000115E-003, 4.6990145E+002
 1.1900601E+002, 4.0255892E-003, 1.7204958E-001, 1.5789337E-001, 4.8421609E-003, 1.1424559E-003, 2.0328832E-003, 4.6221668E+002
 1.2001003E+002, 3.7632268E-003, 1.7239367E-001, 1.5803322E-001, 4.7654616E-003, 9.9212999E-004, 2.0184342E-003, 4.6581390E+002
 1.2101136E+002, 4.1308905E-003, 1.7246891E-001, 1.5764049E-001, 4.5279656E-003, 8.6403967E-004, 1.9679498E-003, 4.6894352E+002
 1.2200493E+002, 4.1951822E-003, 1.7188813E-001, 1.5779557E-001, 4.8611972E-003, 1.1459286E-003, 2.0360281E-003, 4.5942792E+002
 1.2300811E+002, 4.4003311E-003, 1.7100361E-001, 1.5804024E-001, 5.3717369E-003, 1.0886082E-003, 2.1403588E-003, 4.5841156E+002
 1.2400084E+002, 3.9842387E-003, 1.7108718E-001, 1.5840592E-001, 5.5263032E-003, 1.2081607E-003, 2.1739840E-003, 4.5846618E+002
 1.2500430E+002, 3.7289020E-003, 1.7079731E-001, 1.5879273E-001, 5.8536731E-003, 1.3203541E-003, 2.2424925E-003, 4.5777375E+002
 1.2600163E+002, 3.9896901E-003, 1.7099430E-001, 1.5844741E-001, 5.5881513E-003, 1.2066810E-003, 2.1867057E-003, 4.6143867E+002
 1.2700330E+002, 3.8294457E-003, 1.7117126E-001, 1.5852803E-001, 5.5534468E-003, 1.2013000E-003, 2.1802914E-003, 4.6105004E+002
 1.2800742E+002, 3.7170906E-003, 1.7001954E-001, 1.5918528E-001, 6.3952697E-003, 1.3692516E-003, 2.3541017E-003, 4.5522459E+002
 1.2900239E+002, 3.7838898E-003, 1.7076521E-001, 1.5878174E-001, 5.8615088E-003, 1.1973603E-003, 2.2439859E-003, 4.6097179E+002
 1.3000438E+002, 3.4799365E-003, 1.6994074E-001, 1.5947815E-001, 6.5819007E-003, 1.3544223E-003, 2.3936592E-003, 4.5666690E+002
 1.3100711E+002, 3.4416495E-003, 1.6923090E-001, 1.5983402E-001, 7.0753057E-003, 1.5247310E-003, 2.4953304E-003, 4.5665354E+002
 1.3200740E+002, 3.4591363E-003, 1.6931235E-001, 1.5979169E-001, 7.0177681E-003, 1.4559094E-003, 2.4834664E-003, 4.5820779E+002
 1.3300388E+002, 3.5041407E-003, 1.6881840E-001, 1.5992703E-001, 7.3030477E-003, 1.7226564E-003, 2.5417672E-003, 4.5390936E+002
 1.3400566E+002, 3.2918972E-003, 1.6886130E-001, 1.6012666E-001, 7.3884443E-003, 1.7305457E-003, 2.5603256E-003, 4.4923323E+002
 1.3500112E+002, 3.4380452E-003, 1.6907302E-001, 1.5991385E-001, 7.1853309E-003, 1.5391737E-003, 2.5180045E-003, 4.5479011E+002
 1.3600532E+002, 3.4977804E-003, 1.6845134E-001, 1.6009771E-001, 7.5512340E-003, 1.8075565E-003, 2.5928504E-003, 4.5919921E+002
 1.3700793E+002, 3.3941057E-003, 1.6728415E-001, 1.6069133E-001, 8.3673322E-003, 2.2255275E-003, 2.7610564E-003, 4.5111889E+002
 1.3800515E+002, 3.4214371E-003, 1.6874684E-001, 1.6006336E-001, 7.4049079E-003, 1.6695003E-003, 2.5631912E-003, 4.5859161E+002
 1.3900643E+002, 3.3899701E-003, 1.6778348E-001, 1.6055624E-001, 8.0793319E-003, 1.7743645E-003, 2.7022028E-003, 4.5145186E+002
 1.4000955E+002, 3.1310087E-003, 1.6719868E-001, 1.6106178E-001, 8.5967217E-003, 2.0223742E-003, 2.8097422E-003, 4.5363322E+002
 1.4100761E+002, 3.1413674E-003, 1.6743977E-001, 1.6093008E-001, 8.4236523E-003, 2.0191637E-003, 2.7740338E-003, 4.5619921E+002
 1.4200921E+002, 3.1891657E-003, 1.6683710E-001, 1.6115251E-001, 8.8009996E-003, 2.1446910E-003, 2.8514432E-003, 4.5247969E+002
 1.4300822E+002, 3.1695766E-003, 1.6738824E-001, 1.6094691E-001, 8.4545169E-003, 1.9368685E-003, 2.7803521E-003, 4.5052104E+002
 1.4400685E+002, 3.0352152E-003, 1.6689889E-001, 1.6128794E-001, 8.8446963E-003, 2.1259478E-003, 2.8611704E-003, 4.5243879E+002
 1.4500188E+002, 3.0591362E-003, 1.6673745E-001, 1.6135250E-001, 8.9481832E-003, 2.0926442E-003, 2.8824219E-003, 4.5126271E+002
 1.4600333E+002, 2.8693955E-003, 1.6591156E-001, 1.6186759E-001, 9.5754605E-003, 2.4981665E-003, 3.0121236E-003, 4.5051571E+002
 1.4700663E+002, 3.1186399E-003, 1.6664639E-001, 1.6130326E-001, 8.9623708E-003, 2.2234465E-003, 2.8849359E-003, 4.5927634E+002
 1.4800879E+002, 3.1015452E-003, 1.6593236E-001, 1.6164072E-001, 9.4479816E-003, 2.3866641E-003, 2.9849117E-003, 4.4862545E+002
 1.4900297E+002, 2.8741143E-003, 1.6620624E-001, 1.6176208E-001, 9.3922770E-003, 2.3052062E-003, 2.9745569E-003, 4.5478351E+002
 1.5000090E+002, 2.9837367E-003, 1.6595070E-001, 1.6180717E-001, 9.5261307E-003, 2.1788135E-003, 3.0017729E-003, 4.5695616E+002
 1.5100081E+002, 2.9816671E-003, 1.6547283E-001, 1.6198018E-001, 9.8241022E-003, 2.4605331E-003, 3.0628883E-003, 4.5200891E+002
 1.5200779E+002, 3.0044680E-003, 1.6532831E-001, 1.6200137E-001, 9.8980755E-003, 2.5718281E-003, 3.0779105E-003, 4.5067829E+002
 1.5300718E+002, 2.9285335E-003, 1.6495496E-001, 1.6227182E-001, 1.0200675E-002, 2.5627056E-003, 3.1406236E-003, 4.5168777E+002
 1.5400133E+002, 2.9541454E-003, 1.6495867E-001, 1.6224170E-001, 1.0183399E-002, 2.5679843E-003, 3.1369408E-003, 4.4669442E+002
