s,,,,,,,
Time,"O2 EXHAUST","CO2 EXHAUST","H2O EXHAUST","CO EXHAUST","FUEL EXHAUST","SOOT EXHAUST","TEMP EXHAUST"
 0.0000000E+000, 2.3099739E-001, 5.9146498E-004, 5.9412091E-003, 0.0000000E+000, 0.0000000E+000, 0.0000000E+000, 2.0000000E+001
 1.0034313E+000, 2.3099739E-001, 5.9146498E-004, 5.9412091E-003, 4.3521192E-030, 2.3736541E-029, 1.1540541E-030, 2.0432695E+001
 2.0036529E+000, 2.2402503E-001, 6.0039757E-003, 1.0523387E-002, 4.3465372E-005, 8.2307104E-005, 4.0790754E-005, 9.5904121E+001
 3.0041459E+000, 2.2023555E-001, 8.9339156E-003, 1.3023317E-002, 7.7189896E-005, 1.1260701E-004, 6.5077883E-005, 1.2717582E+002
 4.0040943E+000, 2.1638483E-001, 1.1942748E-002, 1.5548455E-002, 8.9678621E-005, 1.4065380E-004, 8.5227647E-005, 1.6226919E+002
 5.0045298E+000, 2.1290654E-001, 1.4642072E-002, 1.7837729E-002, 1.1345253E-004, 1.6980195E-004, 1.0602445E-004, 1.9077900E+002
 6.0017748E+000, 2.0640327E-001, 1.9739543E-002, 2.2101618E-002, 1.2710116E-004, 1.8742437E-004, 1.3853664E-004, 2.4189237E+002
 7.0043694E+000, 2.0002968E-001, 2.4791093E-002, 2.6265477E-002, 1.0808222E-004, 1.5227114E-004, 1.6371402E-004, 2.8454456E+002
 8.0070966E+000, 1.9822163E-001, 2.6231183E-002, 2.7444637E-002, 9.8506422E-005, 1.3615333E-004, 1.6999274E-004, 3.0092125E+002
 9.0044727E+000, 1.9221693E-001, 3.1011394E-002, 3.1363107E-002, 6.9014336E-005, 7.8126974E-005, 1.9133051E-004, 3.3444532E+002
 1.0003345E+001, 1.8696433E-001, 3.5185096E-002, 3.4792379E-002, 4.7482258E-005, 3.6678493E-005, 2.1087368E-004, 3.6014055E+002
 1.1006202E+001, 1.8175329E-001, 3.9313014E-002, 3.8197900E-002, 3.3511628E-005, 7.8038572E-006, 2.3178748E-004, 3.8357162E+002
 1.2000810E+001, 1.7607364E-001, 4.3787202E-002, 4.1916142E-002, 3.2657550E-005, 7.3291070E-007, 2.5754734E-004, 4.0306336E+002
 1.3005212E+001, 1.7089160E-001, 4.7863506E-002, 4.5310161E-002, 3.5279472E-005, 4.7565115E-008, 2.8175210E-004, 4.1745951E+002
 1.4001223E+001, 1.6609585E-001, 5.1635327E-002, 4.8451323E-002, 3.8055092E-005, 1.9125560E-008, 3.0422451E-004, 4.3080132E+002
 1.5006325E+001, 1.6017103E-001, 5.6295010E-002, 5.2332076E-002, 4.1580693E-005, 5.9056215E-008, 3.3200767E-004, 4.4599309E+002
 1.6003560E+001, 1.5758178E-001, 5.8331327E-002, 5.4028043E-002, 4.3146683E-005, 1.0596266E-007, 3.4415459E-004, 4.4803103E+002
 1.7008347E+001, 1.5404269E-001, 6.1114925E-002, 5.6346066E-002, 4.5116564E-005, 2.1268954E-008, 3.6072220E-004, 4.4973513E+002
 1.8001483E+001, 1.5139492E-001, 6.3197312E-002, 5.8080354E-002, 4.6692442E-005, 4.2855625E-008, 3.7313841E-004, 4.5570057E+002
 1.9004602E+001, 1.4710599E-001, 6.6570456E-002, 6.0889585E-002, 4.9220138E-005, 4.2010429E-008, 3.9324535E-004, 4.6040110E+002
 2.0005356E+001, 1.4747457E-001, 6.6280561E-002, 6.0648173E-002, 4.9013103E-005, 6.1652979E-008, 3.9151952E-004, 4.5468648E+002
 2.1004040E+001, 1.4223687E-001, 7.0399987E-002, 6.4078807E-002, 5.2037884E-005, 2.2138277E-008, 4.1606151E-004, 4.6143387E+002
 2.2001605E+001, 1.3963411E-001, 7.2446991E-002, 6.5783603E-002, 5.3574369E-005, 3.2058806E-008, 4.2826402E-004, 4.6221819E+002
 2.3000757E+001, 1.3725556E-001, 7.4317636E-002, 6.7341558E-002, 5.4996942E-005, 6.2418129E-008, 4.3941922E-004, 4.6152818E+002
 2.4001017E+001, 1.3575008E-001, 7.5501675E-002, 6.8327629E-002, 5.5871807E-005, 5.1989719E-008, 4.4647446E-004, 4.6596521E+002
 2.5002548E+001, 1.3548709E-001, 7.5708383E-002, 6.8499947E-002, 5.6114743E-005, 9.1186377E-008, 4.4772567E-004, 4.6148300E+002
 2.6006682E+001, 1.3139822E-001, 7.8924269E-002, 7.1178098E-002, 5.8466310E-005, 8.8782133E-008, 4.6688259E-004, 4.6613650E+002
 2.7006121E+001, 1.3164063E-001, 7.8733636E-002, 7.1019307E-002, 5.8308526E-005, 1.0891901E-007, 4.6574302E-004, 4.6048946E+002
 2.8000910E+001, 1.2923783E-001, 8.0623435E-002, 7.2593121E-002, 5.9696144E-005, 5.2021476E-008, 4.7700173E-004, 4.5862345E+002
 2.9007645E+001, 1.2844294E-001, 8.1248663E-002, 7.3113739E-002, 6.0119831E-005, 2.6104693E-008, 4.8071895E-004, 4.6026297E+002
 3.0003872E+001, 1.2676189E-001, 8.2570716E-002, 7.4214846E-002, 6.1148102E-005, 5.2451257E-008, 4.8860769E-004, 4.6377917E+002
 3.1004091E+001, 1.2662242E-001, 8.2680467E-002, 7.4306178E-002, 6.1192567E-005, 2.5621850E-008, 4.8925373E-004, 4.5671107E+002
 3.2004071E+001, 1.2449266E-001, 8.4355483E-002, 7.5701157E-002, 6.2441926E-005, 3.1607495E-008, 4.9923704E-004, 4.5727143E+002
 3.3004160E+001, 1.2348096E-001, 8.5151178E-002, 7.6363810E-002, 6.3027291E-005, 2.6324289E-008, 5.0397774E-004, 4.5284102E+002
 3.4005909E+001, 1.2228206E-001, 8.6094093E-002, 7.7149074E-002, 6.3724959E-005, 2.0235757E-008, 5.0959642E-004, 4.5205815E+002
 3.5003060E+001, 1.1954080E-001, 8.8250063E-002, 7.8944575E-002, 6.5319645E-005, 1.3806548E-008, 5.2244339E-004, 4.5691208E+002
 3.6000791E+001, 1.1878243E-001, 8.8846459E-002, 7.9441327E-002, 6.5797987E-005, 2.9435461E-008, 5.2600524E-004, 4.5290843E+002
 3.7002009E+001, 1.1872077E-001, 8.8894951E-002, 7.9481709E-002, 6.5833012E-005, 3.8452620E-008, 5.2629401E-004, 4.5715955E+002
 3.8000461E+001, 1.1683275E-001, 9.0379896E-002, 8.0718335E-002, 6.6908648E-005, 1.4340792E-008, 5.3513757E-004, 4.5268557E+002
 3.9002866E+001, 1.1591558E-001, 9.1101201E-002, 8.1319091E-002, 6.7468597E-005, 2.5572876E-008, 5.3944139E-004, 4.5463099E+002
 4.0006284E+001, 1.1265031E-001, 9.3669001E-002, 8.3457927E-002, 6.9558217E-005, 1.4466703E-007, 5.5478355E-004, 4.6412763E+002
 4.1005270E+001, 1.1317053E-001, 9.3260144E-002, 8.3117069E-002, 6.9065896E-005, 2.4238539E-008, 5.5230617E-004, 4.4932311E+002
 4.2001514E+001, 1.1298326E-001, 9.3407455E-002, 8.3239725E-002, 6.9161558E-005, 1.3913620E-008, 5.5318108E-004, 4.5346374E+002
 4.3001717E+001, 1.0920151E-001, 9.6381650E-002, 8.5716777E-002, 7.1429953E-005, 4.3606903E-008, 5.7091851E-004, 4.6035275E+002
 4.4005349E+001, 1.0932115E-001, 9.6287644E-002, 8.5638384E-002, 7.1305642E-005, 1.1529839E-008, 5.7034649E-004, 4.5429770E+002
 4.5001995E+001, 1.0786268E-001, 9.7434634E-002, 8.6593700E-002, 7.2205309E-005, 3.3446102E-008, 5.7719226E-004, 4.5494306E+002
 4.6005794E+001, 1.0822160E-001, 9.7152308E-002, 8.6358622E-002, 7.2020414E-005, 5.3689321E-008, 5.7551511E-004, 4.5836995E+002
 4.7005158E+001, 1.0667476E-001, 9.8368968E-002, 8.7371755E-002, 7.2864166E-005, 1.8828508E-008, 5.8275278E-004, 4.5601081E+002
 4.8000974E+001, 1.0454114E-001, 1.0004699E-001, 8.8769274E-002, 7.4135179E-005, 3.3746810E-008, 5.9275820E-004, 4.5574745E+002
 4.9008227E+001, 1.0315795E-001, 1.0113486E-001, 8.9675246E-002, 7.4933046E-005, 2.1188985E-008, 5.9923914E-004, 4.5881543E+002
 5.0005788E+001, 1.0296124E-001, 1.0128954E-001, 8.9804104E-002, 7.5068954E-005, 4.0545542E-008, 6.0016549E-004, 4.6080969E+002
 5.1001466E+001, 1.0354415E-001, 1.0083111E-001, 8.9422296E-002, 7.4714460E-005, 2.8085219E-008, 5.9743049E-004, 4.6149911E+002
 5.2000357E+001, 1.0288242E-001, 1.0135154E-001, 8.9855727E-002, 7.5107820E-005, 2.5843537E-008, 6.0053344E-004, 4.5218806E+002
 5.3003301E+001, 1.0203420E-001, 1.0201869E-001, 9.0411287E-002, 7.5579423E-005, 1.3206484E-008, 6.0450409E-004, 4.5324617E+002
 5.4008424E+001, 1.0194575E-001, 1.0208816E-001, 9.0469257E-002, 7.5688724E-005, 5.4766133E-008, 6.0493061E-004, 4.5462524E+002
 5.5002606E+001, 1.0149367E-001, 1.0244383E-001, 9.0765331E-002, 7.5887544E-005, 8.2816975E-009, 6.0703602E-004, 4.5794622E+002
 5.6006246E+001, 1.0039268E-001, 1.0330973E-001, 9.1486471E-002, 7.6533821E-005, 7.3894962E-009, 6.1219702E-004, 4.5279736E+002
 5.7007874E+001, 9.8730073E-002, 1.0461733E-001, 9.2575473E-002, 7.7516926E-005, 1.2778888E-008, 6.1999216E-004, 4.5858931E+002
 5.8001601E+001, 9.8780498E-002, 1.0457767E-001, 9.2542446E-002, 7.7488148E-005, 1.4816840E-008, 6.1975595E-004, 4.5254057E+002
 5.9000891E+001, 9.6674261E-002, 1.0623415E-001, 9.3922031E-002, 7.8743606E-005, 2.6878710E-008, 6.2963314E-004, 4.6095266E+002
 6.0000379E+001, 9.4774556E-002, 1.0772813E-001, 9.5166373E-002, 7.9926118E-005, 4.4464832E-008, 6.3855222E-004, 4.5862820E+002
 6.1003518E+001, 9.5171921E-002, 1.0741575E-001, 9.4906039E-002, 7.9600774E-005, 1.4371314E-008, 6.3667040E-004, 4.5505360E+002
 6.2005012E+001, 9.5823610E-002, 1.0690305E-001, 9.4479248E-002, 7.9318832E-005, 8.1007370E-008, 6.3363640E-004, 4.5722549E+002
 6.3003669E+001, 9.3511906E-002, 1.0872131E-001, 9.5993344E-002, 8.0581569E-005, 1.7476498E-008, 6.4445323E-004, 4.5866803E+002
 6.4001376E+001, 9.2955862E-002, 1.0915863E-001, 9.6357550E-002, 8.0909178E-005, 2.3544820E-008, 6.4705999E-004, 4.5973052E+002
 6.5005995E+001, 9.3231970E-002, 1.0894147E-001, 9.6176703E-002, 8.0750461E-005, 2.3512935E-008, 6.4576640E-004, 4.6026765E+002
 6.6002673E+001, 9.3449985E-002, 1.0876995E-001, 9.6033923E-002, 8.0655019E-005, 5.5184048E-008, 6.4475117E-004, 4.5568110E+002
 6.7006486E+001, 9.2449791E-002, 1.0955650E-001, 9.6689081E-002, 8.1299505E-005, 8.3870626E-008, 6.4945160E-004, 4.5600656E+002
 6.8003434E+001, 9.2315245E-002, 1.0966241E-001, 9.6777169E-002, 8.1314712E-005, 3.7046906E-008, 6.5006908E-004, 4.6029430E+002
 6.9006289E+001, 9.0665861E-002, 1.1095967E-001, 9.7857486E-002, 8.2252420E-005, 2.5437281E-008, 6.5779442E-004, 4.5465044E+002
 7.0006228E+001, 9.0513092E-002, 1.1107983E-001, 9.7957546E-002, 8.2335715E-005, 1.9342443E-008, 6.5850922E-004, 4.5021693E+002
 7.1007000E+001, 9.0251970E-002, 1.1128517E-001, 9.8128590E-002, 8.2507007E-005, 3.1666217E-008, 6.5973700E-004, 4.5186342E+002
 7.2008406E+001, 9.0318501E-002, 1.1123288E-001, 9.8084998E-002, 8.2444154E-005, 1.3421791E-008, 6.5942019E-004, 4.4843589E+002
 7.3000734E+001, 8.9787253E-002, 1.1165052E-001, 9.8433028E-002, 8.2865268E-005, 9.5600205E-008, 6.6193313E-004, 4.5478922E+002
 7.4002249E+001, 9.0393909E-002, 1.1117357E-001, 9.8035607E-002, 8.2400543E-005, 1.4128030E-008, 6.5906684E-004, 4.4613405E+002
 7.5004995E+001, 8.8648352E-002, 1.1254642E-001, 9.9178935E-002, 8.3421834E-005, 1.2265191E-008, 6.6724864E-004, 4.5352997E+002
 7.6000225E+001, 8.9054125E-002, 1.1222727E-001, 9.8913165E-002, 8.3198352E-005, 2.1996368E-008, 6.6534958E-004, 4.5721798E+002
 7.7007860E+001, 8.7749748E-002, 1.1325315E-001, 9.9767519E-002, 8.3954822E-005, 1.8108902E-008, 6.7146209E-004, 4.5710744E+002
 7.8000963E+001, 8.6905633E-002, 1.1391684E-001, 1.0032048E-001, 8.4569722E-005, 1.0295277E-007, 6.7544373E-004, 4.6659045E+002
 7.9003473E+001, 8.9179769E-002, 1.1212849E-001, 9.8830855E-002, 8.3102330E-005, 6.0039980E-009, 6.6475600E-004, 4.5108615E+002
 8.0008344E+001, 8.7357076E-002, 1.1356195E-001, 1.0002473E-001, 8.4203344E-005, 2.8650375E-008, 6.7330652E-004, 4.5602069E+002
 8.1007870E+001, 8.6133824E-002, 1.1452389E-001, 1.0082600E-001, 8.5000189E-005, 8.3073026E-008, 6.7905700E-004, 4.6109784E+002
 8.2007896E+001, 8.4822423E-002, 1.1555543E-001, 1.0168490E-001, 8.5673676E-005, 1.9387605E-008, 6.8518436E-004, 4.5686384E+002
 8.3002775E+001, 8.6610004E-002, 1.1414954E-001, 1.0051404E-001, 8.4619419E-005, 1.5679105E-008, 6.7680385E-004, 4.5900193E+002
 8.4000061E+001, 8.4505368E-002, 1.1580477E-001, 1.0189258E-001, 8.5873836E-005, 3.1653146E-008, 6.8667350E-004, 4.5782976E+002
 8.5000370E+001, 8.5751266E-002, 1.1482491E-001, 1.0107652E-001, 8.5130711E-005, 1.9354422E-008, 6.8083078E-004, 4.5641673E+002
 8.6004734E+001, 8.5361695E-002, 1.1513127E-001, 1.0133169E-001, 8.5380754E-005, 3.8660940E-008, 6.8266136E-004, 4.6130678E+002
 8.7002882E+001, 8.6295523E-002, 1.1439673E-001, 1.0072009E-001, 8.4901275E-005, 7.1013717E-008, 6.7829820E-004, 4.5622513E+002
 8.8003567E+001, 8.3179705E-002, 1.1684739E-001, 1.0276088E-001, 8.6646267E-005, 2.7868274E-008, 6.9288651E-004, 4.5887392E+002
 8.9002830E+001, 8.4633284E-002, 1.1570419E-001, 1.0180879E-001, 8.5784685E-005, 1.9547279E-008, 6.8607097E-004, 4.5400240E+002
 9.0006842E+001, 8.3459850E-002, 1.1662700E-001, 1.0257740E-001, 8.6519448E-005, 5.5861889E-008, 6.9158110E-004, 4.5578303E+002
 9.1003292E+001, 8.4292398E-002, 1.1597227E-001, 1.0203207E-001, 8.5998310E-005, 2.8056004E-008, 6.8767172E-004, 4.5465505E+002
 9.2000507E+001, 8.3175570E-002, 1.1685055E-001, 1.0276362E-001, 8.6703951E-005, 5.5820842E-008, 6.9291736E-004, 4.5705518E+002
 9.3002173E+001, 8.1855345E-002, 1.1788809E-001, 1.0362868E-001, 8.7993950E-005, 3.8069184E-007, 6.9921291E-004, 4.6153696E+002
 9.4000396E+001, 8.4191180E-002, 1.1605183E-001, 1.0209839E-001, 8.6086591E-005, 5.5535637E-008, 6.8815216E-004, 4.5776736E+002
 9.5005846E+001, 8.2662432E-002, 1.1725411E-001, 1.0309973E-001, 8.7016051E-005, 6.9294073E-008, 6.9532500E-004, 4.5847579E+002
 9.6001519E+001, 8.3455951E-002, 1.1663002E-001, 1.0257998E-001, 8.6549173E-005, 6.4350066E-008, 6.9160508E-004, 4.5516100E+002
 9.7004579E+001, 8.2913514E-002, 1.1705665E-001, 1.0293527E-001, 8.6863523E-005, 6.2739577E-008, 6.9414697E-004, 4.5642131E+002
 9.8004953E+001, 8.2786716E-002, 1.1715624E-001, 1.0301837E-001, 8.7022022E-005, 1.1702630E-007, 6.9475879E-004, 4.5680564E+002
 9.9006447E+001, 8.1954717E-002, 1.1781063E-001, 1.0356331E-001, 8.7480504E-005, 1.1156074E-007, 6.9865266E-004, 4.5830832E+002
 1.0000667E+002, 8.1116550E-002, 1.1846984E-001, 1.0411230E-001, 8.7972440E-005, 1.0600365E-007, 7.0258165E-004, 4.5843848E+002
 1.0100868E+002, 8.2249592E-002, 1.1757887E-001, 1.0337011E-001, 8.7214769E-005, 4.6143315E-008, 6.9725119E-004, 4.5167911E+002
 1.0200527E+002, 8.2344964E-002, 1.1750379E-001, 1.0330766E-001, 8.7200653E-005, 8.3068681E-008, 6.9681279E-004, 4.6054658E+002
 1.0300204E+002, 8.1771801E-002, 1.1795439E-001, 1.0368316E-001, 8.7659416E-005, 1.5096670E-007, 6.9952494E-004, 4.6144247E+002
 1.0400567E+002, 8.0688804E-002, 1.1880598E-001, 1.0439258E-001, 8.8401042E-005, 2.1625752E-007, 7.0462358E-004, 4.5341833E+002
 1.0500557E+002, 8.1781787E-002, 1.1794680E-001, 1.0367651E-001, 8.7482795E-005, 3.9885002E-008, 6.9944271E-004, 4.4752075E+002
 1.0600418E+002, 7.8462320E-002, 1.2054870E-001, 1.0585429E-001, 9.5148705E-005, 3.5831941E-006, 7.1618920E-004, 4.6340114E+002
 1.0700234E+002, 8.1405534E-002, 1.1824228E-001, 1.0392312E-001, 8.7979735E-005, 2.3989030E-007, 7.0126369E-004, 4.5323164E+002
 1.0800607E+002, 8.0807315E-002, 1.1871104E-001, 1.0431568E-001, 8.9468990E-005, 8.1172266E-007, 7.0430415E-004, 4.5673871E+002
 1.0900166E+002, 8.0229343E-002, 1.1916667E-001, 1.0469381E-001, 8.9109960E-005, 4.4092425E-007, 7.0686853E-004, 4.6231544E+002
 1.1000013E+002, 8.0260835E-002, 1.1914240E-001, 1.0467297E-001, 8.8764225E-005, 2.8105496E-007, 7.0665297E-004, 4.5480864E+002
 1.1100569E+002, 8.0926035E-002, 1.1861859E-001, 1.0423755E-001, 8.8803655E-005, 4.3467356E-007, 7.0362407E-004, 4.6288541E+002
 1.1200007E+002, 8.1139450E-002, 1.1844977E-001, 1.0409818E-001, 8.9322030E-005, 7.5892673E-007, 7.0275728E-004, 4.5507511E+002
 1.1300553E+002, 8.0789081E-002, 1.1872598E-001, 1.0432738E-001, 8.9087189E-005, 5.8389793E-007, 7.0430818E-004, 4.5295591E+002
 1.1400531E+002, 7.8548084E-002, 1.2048589E-001, 1.0579627E-001, 9.2090113E-005, 1.6064229E-006, 7.1516321E-004, 4.6330892E+002
 1.1500173E+002, 7.7659696E-002, 1.2116413E-001, 1.0638669E-001, 1.0606557E-004, 8.7212453E-006, 7.2212002E-004, 4.6381739E+002
 1.1600477E+002, 7.9966180E-002, 1.1937078E-001, 1.0486732E-001, 9.1119087E-005, 1.6260151E-006, 7.0848686E-004, 4.5454277E+002
 1.1700725E+002, 7.9301351E-002, 1.1989118E-001, 1.0530387E-001, 9.3168590E-005, 2.2503527E-006, 7.1194797E-004, 4.5051970E+002
 1.1800930E+002, 7.8513454E-002, 1.2050952E-001, 1.0582049E-001, 9.4500893E-005, 2.7230944E-006, 7.1582184E-004, 4.5820350E+002
 1.1900795E+002, 8.0460894E-002, 1.1898067E-001, 1.0454382E-001, 9.1559297E-005, 1.5892778E-006, 7.0631991E-004, 4.5321214E+002
 1.2000059E+002, 7.8532112E-002, 1.2049867E-001, 1.0580664E-001, 9.1960579E-005, 1.5448304E-006, 7.1520923E-004, 4.5843063E+002
 1.2100709E+002, 7.9623066E-002, 1.1964302E-001, 1.0509110E-001, 8.9770715E-005, 6.7563499E-007, 7.0977372E-004, 4.5672011E+002
 1.2200284E+002, 7.7933731E-002, 1.2096505E-001, 1.0620036E-001, 9.5101760E-005, 2.9692379E-006, 7.1859332E-004, 4.5864907E+002
 1.2300515E+002, 7.9073108E-002, 1.2007460E-001, 1.0545169E-001, 9.0709666E-005, 1.0791486E-006, 7.1247951E-004, 4.5126409E+002
 1.2400249E+002, 7.9370301E-002, 1.1984144E-001, 1.0525680E-001, 9.0158893E-005, 8.6720225E-007, 7.1100829E-004, 4.5505729E+002
 1.2500386E+002, 7.8368665E-002, 1.2062757E-001, 1.0591352E-001, 9.1804729E-005, 1.5538069E-006, 7.1592300E-004, 4.5806033E+002
 1.2600189E+002, 7.8313367E-002, 1.2066914E-001, 1.0595055E-001, 9.3108420E-005, 2.1816280E-006, 7.1644611E-004, 4.5571340E+002
 1.2700359E+002, 7.9181933E-002, 1.1998776E-001, 1.0538092E-001, 9.1461029E-005, 1.5708047E-006, 7.1213852E-004, 4.5352237E+002
 1.2800272E+002, 7.9469567E-002, 1.1976299E-001, 1.0519197E-001, 9.0361760E-005, 8.5791909E-007, 7.1059732E-004, 4.5915553E+002
 1.2900599E+002, 7.7131373E-002, 1.2159227E-001, 1.0672734E-001, 9.8003117E-005, 4.8965750E-006, 7.2285822E-004, 4.6592594E+002
 1.3000504E+002, 7.6567285E-002, 1.2203406E-001, 1.0709775E-001, 9.9640169E-005, 4.8833339E-006, 7.2577423E-004, 4.5834460E+002
 1.3100525E+002, 7.8323852E-002, 1.2066061E-001, 1.0594374E-001, 9.3256038E-005, 2.5243308E-006, 7.1642860E-004, 4.5826015E+002
 1.3200843E+002, 7.9033297E-002, 1.2010609E-001, 1.0547767E-001, 9.0601564E-005, 1.0993571E-006, 7.1263874E-004, 4.5401098E+002
 1.3300509E+002, 7.8479812E-002, 1.2054009E-001, 1.0584071E-001, 9.1763624E-005, 1.7161276E-006, 7.1540684E-004, 4.5527061E+002
 1.3400613E+002, 7.8460778E-002, 1.2055384E-001, 1.0585372E-001, 9.2594925E-005, 2.0133650E-006, 7.1566642E-004, 4.4991368E+002
 1.3500606E+002, 7.7591490E-002, 1.2123417E-001, 1.0642456E-001, 9.5340163E-005, 2.8857425E-006, 7.2020551E-004, 4.5861980E+002
 1.3600368E+002, 7.7366268E-002, 1.2140925E-001, 1.0657283E-001, 9.6772381E-005, 4.0244326E-006, 7.2153061E-004, 4.5704692E+002
 1.3700589E+002, 7.7121194E-002, 1.2160363E-001, 1.0673260E-001, 9.5803480E-005, 3.7272833E-006, 7.2244816E-004, 4.5833900E+002
 1.3800417E+002, 7.7321616E-002, 1.2144449E-001, 1.0660197E-001, 9.6686357E-005, 4.2048414E-006, 7.2171637E-004, 4.5398772E+002
 1.3900891E+002, 7.9286077E-002, 1.1990582E-001, 1.0531270E-001, 9.1406903E-005, 1.6530814E-006, 7.1165170E-004, 4.5073385E+002
 1.4000130E+002, 7.8636527E-002, 1.2041587E-001, 1.0573849E-001, 9.2324877E-005, 1.9288885E-006, 7.1480794E-004, 4.5196806E+002
 1.4100584E+002, 7.8739595E-002, 1.2033630E-001, 1.0567037E-001, 9.1286967E-005, 1.3942733E-006, 7.1412195E-004, 4.6369466E+002
 1.4200348E+002, 7.8754322E-002, 1.2032236E-001, 1.0566172E-001, 9.2836685E-005, 2.1353491E-006, 7.1437645E-004, 4.5018732E+002
 1.4300589E+002, 7.8527196E-002, 1.2049556E-001, 1.0581272E-001, 9.6524014E-005, 4.1580093E-006, 7.1617862E-004, 4.5993992E+002
 1.4400251E+002, 7.7417226E-002, 1.2136883E-001, 1.0653950E-001, 9.6914963E-005, 4.5301530E-006, 7.2132710E-004, 4.6009890E+002
 1.4500377E+002, 7.8325949E-002, 1.2066019E-001, 1.0594191E-001, 9.2473224E-005, 1.8626060E-006, 7.1625681E-004, 4.5311188E+002
 1.4600690E+002, 7.8206396E-002, 1.2075371E-001, 1.0602039E-001, 9.2856996E-005, 2.1944628E-006, 7.1688214E-004, 4.5447651E+002
 1.4700758E+002, 7.7913582E-002, 1.2098063E-001, 1.0621351E-001, 9.5204199E-005, 3.6681539E-006, 7.1870589E-004, 4.5896364E+002
 1.4800391E+002, 7.8392734E-002, 1.2060890E-001, 1.0589763E-001, 9.1616632E-005, 1.5008384E-006, 7.1577402E-004, 4.5693458E+002
 1.4900809E+002, 7.8714668E-002, 1.2035457E-001, 1.0568725E-001, 9.2175854E-005, 1.8674546E-006, 7.1442024E-004, 4.5118649E+002
 1.5000707E+002, 7.6631724E-002, 1.2198331E-001, 1.0705557E-001, 9.9648577E-005, 4.8990741E-006, 7.2548177E-004, 4.5787155E+002
 1.5100145E+002, 7.7724850E-002, 1.2113018E-001, 1.0633676E-001, 9.4638205E-005, 2.8847318E-006, 7.1945058E-004, 4.6001595E+002
 1.5200112E+002, 7.7287336E-002, 1.2147397E-001, 1.0662338E-001, 9.5055603E-005, 3.2973231E-006, 7.2153446E-004, 4.6023435E+002
 1.5300151E+002, 7.6758591E-002, 1.2188750E-001, 1.0697071E-001, 9.6909635E-005, 3.9418001E-006, 7.2433358E-004, 4.5175478E+002
 1.5400152E+002, 7.8556016E-002, 1.2047963E-001, 1.0579105E-001, 9.2083962E-005, 1.7752466E-006, 7.1512554E-004, 4.5777186E+002
