s,,,,,,,
Time,"O2 EXHAUST","CO2 EXHAUST","H2O EXHAUST","CO EXHAUST","FUEL EXHAUST","SOOT EXHAUST","TEMP EXHAUST"
 0.0000000E+000, 2.3099739E-001, 5.9146498E-004, 5.9412091E-003, 0.0000000E+000, 0.0000000E+000, 0.0000000E+000, 2.0000000E+001
 1.0055419E+000, 2.3099739E-001, 5.9146498E-004, 5.9412091E-003, 1.6066991E-031, 1.5243626E-030, 4.4442095E-032, 2.0357263E+001
 2.0001196E+000, 2.2387480E-001, 6.1485062E-003, 1.0582898E-002, 1.1875270E-005, 1.8513287E-004, 3.4793988E-005, 9.1215112E+001
 3.0011795E+000, 2.2084990E-001, 8.5060395E-003, 1.2569118E-002, 2.5702837E-005, 2.0879793E-004, 5.1456707E-005, 1.1937128E+002
 4.0008465E+000, 2.1580583E-001, 1.2455819E-002, 1.5867614E-002, 3.3570979E-005, 2.6522363E-004, 7.6063122E-005, 1.6649280E+002
 5.0006297E+000, 2.1179398E-001, 1.5600112E-002, 1.8497416E-002, 4.1835910E-005, 2.7908058E-004, 9.6084425E-005, 2.0142546E+002
 6.0001722E+000, 2.0643640E-001, 1.9806019E-002, 2.2005928E-002, 4.8056262E-005, 2.9736886E-004, 1.2181939E-004, 2.4372886E+002
 7.0042513E+000, 2.0135383E-001, 2.3819787E-002, 2.5338919E-002, 4.5789432E-005, 2.4835532E-004, 1.4460357E-004, 2.8047477E+002
 8.0068851E+000, 1.9603981E-001, 2.8022177E-002, 2.8825362E-002, 4.1692791E-005, 1.7857470E-004, 1.6808553E-004, 3.1690514E+002
 9.0047698E+000, 1.9108953E-001, 3.1937813E-002, 3.2072818E-002, 3.7303750E-005, 1.1312508E-004, 1.8984142E-004, 3.4220457E+002
 1.0000619E+001, 1.8516909E-001, 3.6617947E-002, 3.5955325E-002, 3.2620559E-005, 4.6274769E-005, 2.1596679E-004, 3.7098284E+002
 1.1004380E+001, 1.7864041E-001, 4.1767482E-002, 4.0234374E-002, 3.1314323E-005, 4.9884160E-006, 2.4554487E-004, 3.9696722E+002
 1.2001174E+001, 1.7343946E-001, 4.5859718E-002, 4.3641294E-002, 3.3742807E-005, 3.4008075E-008, 2.6980015E-004, 4.1283152E+002
 1.3004124E+001, 1.6735641E-001, 5.0643933E-002, 4.7625662E-002, 3.7309299E-005, 2.2659492E-008, 2.9831430E-004, 4.2662931E+002
 1.4003651E+001, 1.6336651E-001, 5.3781914E-002, 5.0239023E-002, 3.9650196E-005, 1.9919393E-008, 3.1701715E-004, 4.3323527E+002
 1.5002451E+001, 1.5760425E-001, 5.8313819E-002, 5.4013269E-002, 4.3031748E-005, 3.1900337E-008, 3.4402820E-004, 4.4606390E+002
 1.6007735E+001, 1.5157791E-001, 6.3053400E-002, 5.7960492E-002, 4.6579979E-005, 5.2069156E-008, 3.7227957E-004, 4.5733175E+002
 1.7007013E+001, 1.4593131E-001, 6.7494342E-002, 6.1658977E-002, 4.9890803E-005, 5.0897036E-008, 3.9874784E-004, 4.6483026E+002
 1.8003490E+001, 1.4267116E-001, 7.0058347E-002, 6.3794373E-002, 5.1830474E-005, 8.1646010E-008, 4.1403555E-004, 4.6361364E+002
 1.9004516E+001, 1.3759625E-001, 7.4049727E-002, 6.7118393E-002, 5.4772843E-005, 4.4057187E-008, 4.3781720E-004, 4.7057431E+002
 2.0003697E+001, 1.3414223E-001, 7.6766182E-002, 6.9380780E-002, 5.6841480E-005, 7.0389390E-008, 4.5401683E-004, 4.7149301E+002
 2.1001302E+001, 1.3046571E-001, 7.9657776E-002, 7.1788848E-002, 5.8946721E-005, 3.8395723E-008, 4.7123996E-004, 4.7016824E+002
 2.2004359E+001, 1.2769136E-001, 8.1839740E-002, 7.3606031E-002, 6.0578377E-005, 4.5697888E-008, 4.8424566E-004, 4.7042856E+002
 2.3007646E+001, 1.2468791E-001, 8.4201903E-002, 7.5573272E-002, 6.2336803E-005, 3.9979709E-008, 4.9832373E-004, 4.6880538E+002
 2.4001317E+001, 1.2141408E-001, 8.6776683E-002, 7.7717621E-002, 6.4273677E-005, 4.8541771E-008, 5.1367331E-004, 4.7227013E+002
 2.5006083E+001, 1.1917017E-001, 8.8541526E-002, 7.9187347E-002, 6.5556854E-005, 2.6218974E-008, 5.2418483E-004, 4.7083549E+002
 2.6004940E+001, 1.1562827E-001, 9.1327084E-002, 8.1507300E-002, 6.7685075E-005, 7.8411778E-008, 5.4079807E-004, 4.7154453E+002
 2.7004545E+001, 1.1336707E-001, 9.3105539E-002, 8.2988349E-002, 6.8970742E-005, 4.3549708E-008, 5.5138906E-004, 4.7233090E+002
 2.8000556E+001, 1.1139654E-001, 9.4655329E-002, 8.4279035E-002, 7.0124625E-005, 5.2994668E-008, 5.6062557E-004, 4.6996361E+002
 2.9009231E+001, 1.0801460E-001, 9.7315169E-002, 8.6494185E-002, 7.2105129E-005, 4.5777480E-008, 5.7647783E-004, 4.7112854E+002
 3.0003153E+001, 1.0545077E-001, 9.9331535E-002, 8.8173485E-002, 7.3628757E-005, 6.8111529E-008, 5.8849990E-004, 4.6868919E+002
 3.1004616E+001, 1.0200396E-001, 1.0204235E-001, 9.0431131E-002, 7.5670442E-005, 1.1990560E-007, 6.0466098E-004, 4.7373033E+002
 3.2001858E+001, 1.0111851E-001, 1.0273878E-001, 9.1011092E-002, 7.6169320E-005, 7.1483247E-008, 6.0880736E-004, 4.7037311E+002
 3.3007093E+001, 9.8157458E-002, 1.0506761E-001, 9.2950551E-002, 7.7890836E-005, 7.3597247E-008, 6.2268416E-004, 4.6902768E+002
 3.4002295E+001, 9.6275528E-002, 1.0654774E-001, 9.4183195E-002, 7.8978303E-005, 5.4147090E-008, 6.3150235E-004, 4.6807646E+002
 3.5009397E+001, 9.3162289E-002, 1.0899623E-001, 9.6222351E-002, 8.0810984E-005, 6.1732456E-008, 6.4609708E-004, 4.7142371E+002
 3.6005122E+001, 9.0293217E-002, 1.1125252E-001, 9.8101632E-002, 8.2604955E-005, 2.1667502E-007, 6.5956887E-004, 4.7256924E+002
 3.7001470E+001, 8.9297597E-002, 1.1203577E-001, 9.8753692E-002, 8.3059908E-005, 4.4146653E-008, 6.6420919E-004, 4.6658452E+002
 3.8004049E+001, 8.6328216E-002, 1.1437111E-001, 1.0069863E-001, 8.4819525E-005, 5.7977688E-008, 6.7813194E-004, 4.6798314E+002
 3.9005861E+001, 8.2343925E-002, 1.1750456E-001, 1.0330835E-001, 8.7225050E-005, 1.8661193E-007, 6.9682251E-004, 4.7642145E+002
 4.0005274E+001, 8.2379824E-002, 1.1747643E-001, 1.0328479E-001, 8.7135945E-005, 1.4651032E-007, 6.9664011E-004, 4.7256444E+002
 4.1006402E+001, 7.9793640E-002, 1.1950924E-001, 1.0497897E-001, 8.9294133E-005, 1.5382222E-006, 7.0889488E-004, 4.6922517E+002
 4.2006509E+001, 7.7616837E-002, 1.2121495E-001, 1.0640638E-001, 9.4200061E-005, 7.7887901E-006, 7.1984735E-004, 4.6996931E+002
 4.3004073E+001, 7.5496747E-002, 1.2286559E-001, 1.0779876E-001, 1.0478729E-004, 2.6698447E-005, 7.3170989E-004, 4.7206143E+002
 4.4001381E+001, 7.3610738E-002, 1.2429281E-001, 1.0904508E-001, 1.3639113E-004, 9.5984440E-005, 7.4682437E-004, 4.7192455E+002
 4.5006950E+001, 7.2123537E-002, 1.2548755E-001, 1.1001559E-001, 1.2430197E-004, 5.9734875E-005, 7.5113647E-004, 4.7133001E+002
 4.6000915E+001, 7.0896965E-002, 1.2640658E-001, 1.1083021E-001, 1.5100663E-004, 1.0696286E-004, 7.6224402E-004, 4.6832931E+002
 4.7008069E+001, 6.9115111E-002, 1.2766669E-001, 1.1201310E-001, 2.2273973E-004, 3.2927689E-004, 7.8507290E-004, 4.6571062E+002
 4.8001273E+001, 6.7394408E-002, 1.2880237E-001, 1.1316811E-001, 3.3450187E-004, 6.5713160E-004, 8.1584171E-004, 4.6664272E+002
 4.9005769E+001, 6.6327450E-002, 1.2961988E-001, 1.1388068E-001, 3.5176319E-004, 6.4576305E-004, 8.2431710E-004, 4.6824998E+002
 5.0007187E+001, 6.5815200E-002, 1.3005724E-001, 1.1421362E-001, 3.3546629E-004, 5.8639182E-004, 8.2332682E-004, 4.6331730E+002
 5.1009104E+001, 6.3822289E-002, 1.3117987E-001, 1.1557853E-001, 5.6423092E-004, 1.2466505E-003, 8.7933720E-004, 4.6123146E+002
 5.2006326E+001, 6.3458856E-002, 1.3151977E-001, 1.1581120E-001, 5.3773484E-004, 1.1589057E-003, 8.7557488E-004, 4.6062667E+002
 5.3003305E+001, 6.2475918E-002, 1.3200035E-001, 1.1646391E-001, 6.7241192E-004, 1.7146883E-003, 9.0750392E-004, 4.5600995E+002
 5.4005268E+001, 6.1434003E-002, 1.3271462E-001, 1.1718541E-001, 7.3968141E-004, 1.7705802E-003, 9.2620123E-004, 4.5732255E+002
 5.5002843E+001, 6.0753040E-002, 1.3308234E-001, 1.1764379E-001, 8.2076566E-004, 2.0604426E-003, 9.4587887E-004, 4.5641031E+002
 5.6000640E+001, 6.0130368E-002, 1.3345148E-001, 1.1805022E-001, 8.7380333E-004, 2.3099467E-003, 9.5949618E-004, 4.5374160E+002
 5.7002867E+001, 5.9519026E-002, 1.3363287E-001, 1.1847106E-001, 1.0172634E-003, 2.8335061E-003, 9.9159053E-004, 4.4882676E+002
 5.8009068E+001, 5.8753792E-002, 1.3402795E-001, 1.1902377E-001, 1.1357554E-003, 3.0449090E-003, 1.0195206E-003, 4.4954432E+002
 5.9008674E+001, 5.8742786E-002, 1.3390556E-001, 1.1904994E-001, 1.2035420E-003, 3.2337808E-003, 1.0334787E-003, 4.4416459E+002
 6.0006132E+001, 5.7960432E-002, 1.3443934E-001, 1.1952909E-001, 1.2229919E-003, 3.5323275E-003, 1.0407833E-003, 4.4648826E+002
 6.1005301E+001, 5.7833973E-002, 1.3449889E-001, 1.1964484E-001, 1.2576700E-003, 3.4808309E-003, 1.0486318E-003, 4.4378442E+002
 6.2009604E+001, 5.7465057E-002, 1.3431522E-001, 1.1988519E-001, 1.4670586E-003, 4.4442273E-003, 1.0928759E-003, 4.4212369E+002
 6.3005652E+001, 5.6979870E-002, 1.3465649E-001, 1.2021759E-001, 1.4927107E-003, 4.4671198E-003, 1.1004053E-003, 4.4013520E+002
 6.4008761E+001, 5.6736638E-002, 1.3463659E-001, 1.2036450E-001, 1.5800041E-003, 4.9440166E-003, 1.1191795E-003, 4.3650163E+002
 6.5007485E+001, 5.6582810E-002, 1.3453292E-001, 1.2046326E-001, 1.6785590E-003, 5.4063633E-003, 1.1399044E-003, 4.3584190E+002
 6.6004575E+001, 5.6125580E-002, 1.3469883E-001, 1.2078393E-001, 1.7755024E-003, 5.7130093E-003, 1.1618433E-003, 4.3230738E+002
 6.7009126E+001, 5.5385687E-002, 1.3509786E-001, 1.2125883E-001, 1.8519277E-003, 6.1218843E-003, 1.1806949E-003, 4.3528906E+002
 6.8005405E+001, 5.5153983E-002, 1.3504142E-001, 1.2146201E-001, 1.9841966E-003, 6.3981109E-003, 1.2089879E-003, 4.3389561E+002
 6.9001505E+001, 5.5113331E-002, 1.3502116E-001, 1.2144519E-001, 1.9850116E-003, 6.6782108E-003, 1.2090477E-003, 4.3051690E+002
 7.0003417E+001, 5.4776844E-002, 1.3520405E-001, 1.2165177E-001, 2.0143119E-003, 6.8990070E-003, 1.2164488E-003, 4.2577160E+002
 7.1006474E+001, 5.4520066E-002, 1.3503071E-001, 1.2180277E-001, 2.1718243E-003, 7.7269823E-003, 1.2495278E-003, 4.2463233E+002
 7.2005281E+001, 5.4489346E-002, 1.3502627E-001, 1.2185583E-001, 2.2014513E-003, 7.6525435E-003, 1.2559122E-003, 4.2620381E+002
 7.3004030E+001, 5.4416162E-002, 1.3476758E-001, 1.2192810E-001, 2.3540624E-003, 8.1943879E-003, 1.2874347E-003, 4.2270915E+002
 7.4008447E+001, 5.4300490E-002, 1.3484722E-001, 1.2199321E-001, 2.3536674E-003, 8.2601193E-003, 1.2878113E-003, 4.2491727E+002
 7.5003569E+001, 5.3896606E-002, 1.3501784E-001, 1.2225517E-001, 2.4176875E-003, 8.5678172E-003, 1.3026539E-003, 4.2243879E+002
 7.6002737E+001, 5.3705542E-002, 1.3492090E-001, 1.2233141E-001, 2.5021302E-003, 9.2641208E-003, 1.3203652E-003, 4.2009963E+002
 7.7002276E+001, 5.3665116E-002, 1.3500715E-001, 1.2236472E-001, 2.4815573E-003, 9.1265389E-003, 1.3164135E-003, 4.2339391E+002
 7.8002426E+001, 5.3417860E-002, 1.3483381E-001, 1.2255587E-001, 2.6596004E-003, 9.7531263E-003, 1.3539340E-003, 4.2000378E+002
 7.9007161E+001, 5.3037913E-002, 1.3489735E-001, 1.2273934E-001, 2.7303965E-003, 1.0491529E-002, 1.3696233E-003, 4.2099142E+002
 8.0005678E+001, 5.3092607E-002, 1.3479269E-001, 1.2272577E-001, 2.7691101E-003, 1.0526807E-002, 1.3773930E-003, 4.1774645E+002
 8.1006031E+001, 5.2932675E-002, 1.3479330E-001, 1.2279827E-001, 2.8080520E-003, 1.0909469E-002, 1.3858238E-003, 4.1400370E+002
 8.2010348E+001, 5.2497660E-002, 1.3492431E-001, 1.2306853E-001, 2.8942592E-003, 1.1395327E-002, 1.4052380E-003, 4.1590398E+002
 8.3000044E+001, 5.2305437E-002, 1.3469110E-001, 1.2323319E-001, 3.0845329E-003, 1.2017085E-002, 1.4450577E-003, 4.1905662E+002
 8.4006732E+001, 5.2486664E-002, 1.3459196E-001, 1.2304369E-001, 3.0288038E-003, 1.2213625E-002, 1.4324253E-003, 4.1433702E+002
 8.5005409E+001, 5.2670346E-002, 1.3432623E-001, 1.2294082E-001, 3.0913668E-003, 1.2388833E-002, 1.4444219E-003, 4.1223393E+002
 8.6009364E+001, 5.2300661E-002, 1.3448060E-001, 1.2313935E-001, 3.1295624E-003, 1.2839755E-002, 1.4535830E-003, 4.1076480E+002
 8.7007120E+001, 5.2081361E-002, 1.3455782E-001, 1.2326831E-001, 3.1643240E-003, 1.3091343E-002, 1.4615531E-003, 4.1527333E+002
 8.8003081E+001, 5.1691097E-002, 1.3455354E-001, 1.2356776E-001, 3.3249151E-003, 1.3544720E-002, 1.4962773E-003, 4.1268945E+002
 8.9000607E+001, 5.1922132E-002, 1.3446277E-001, 1.2340795E-001, 3.2801487E-003, 1.3394869E-002, 1.4860642E-003, 4.1001549E+002
 9.0005852E+001, 5.1859044E-002, 1.3422677E-001, 1.2345755E-001, 3.4109283E-003, 1.3939268E-002, 1.5129946E-003, 4.0727082E+002
 9.1000127E+001, 5.1604191E-002, 1.3433533E-001, 1.2359386E-001, 3.4360274E-003, 1.4248010E-002, 1.5190559E-003, 4.1034144E+002
 9.2006890E+001, 5.1550990E-002, 1.3421673E-001, 1.2357398E-001, 3.4789700E-003, 1.4792210E-002, 1.5276617E-003, 4.0924877E+002
 9.3004560E+001, 5.1324891E-002, 1.3428322E-001, 1.2375533E-001, 3.5455106E-003, 1.4883803E-002, 1.5424451E-003, 4.0813793E+002
 9.4002061E+001, 5.1493319E-002, 1.3415044E-001, 1.2356961E-001, 3.5067783E-003, 1.5187202E-002, 1.5332956E-003, 4.0801339E+002
 9.5008908E+001, 5.1497318E-002, 1.3394682E-001, 1.2355415E-001, 3.5889524E-003, 1.5644222E-002, 1.5498966E-003, 4.1004309E+002
 9.6006446E+001, 5.1574891E-002, 1.3396468E-001, 1.2348363E-001, 3.5438504E-003, 1.5563837E-002, 1.5402410E-003, 4.0540712E+002
 9.7006833E+001, 5.1233964E-002, 1.3379857E-001, 1.2369998E-001, 3.7327790E-003, 1.6469954E-002, 1.5801598E-003, 4.0812158E+002
 9.8001554E+001, 5.1049073E-002, 1.3391436E-001, 1.2382496E-001, 3.7480063E-003, 1.6514282E-002, 1.5841261E-003, 4.0935600E+002
 9.9010839E+001, 5.1061660E-002, 1.3371710E-001, 1.2379779E-001, 3.8212367E-003, 1.6969191E-002, 1.5988289E-003, 4.0837375E+002
 1.0000142E+002, 5.1114294E-002, 1.3359636E-001, 1.2373901E-001, 3.8438497E-003, 1.7227255E-002, 1.6030224E-003, 4.0559782E+002
 1.0100796E+002, 5.1329998E-002, 1.3346399E-001, 1.2348297E-001, 3.7682070E-003, 1.7612627E-002, 1.5858892E-003, 4.0257413E+002
 1.0200819E+002, 5.1335684E-002, 1.3334181E-001, 1.2355045E-001, 3.8569479E-003, 1.7564764E-002, 1.6043816E-003, 4.0687944E+002
 1.0300437E+002, 5.0992283E-002, 1.3355406E-001, 1.2374581E-001, 3.8675517E-003, 1.7800462E-002, 1.6079075E-003, 4.0366216E+002
 1.0400827E+002, 5.1190670E-002, 1.3323808E-001, 1.2354407E-001, 3.9013597E-003, 1.8412217E-002, 1.6133924E-003, 4.0251351E+002
 1.0501056E+002, 5.1085634E-002, 1.3321466E-001, 1.2362274E-001, 3.9534486E-003, 1.8587003E-002, 1.6245279E-003, 4.0361491E+002
 1.0600007E+002, 5.0914126E-002, 1.3305892E-001, 1.2369124E-001, 4.0597166E-003, 1.9350761E-002, 1.6466208E-003, 4.0358250E+002
 1.0700726E+002, 5.1036058E-002, 1.3299487E-001, 1.2364230E-001, 4.0614452E-003, 1.9162214E-002, 1.6466227E-003, 4.0359738E+002
 1.0800317E+002, 5.1110994E-002, 1.3291253E-001, 1.2357745E-001, 4.0636610E-003, 1.9272834E-002, 1.6466251E-003, 4.0197363E+002
 1.0900373E+002, 5.0979508E-002, 1.3276482E-001, 1.2367340E-001, 4.1800003E-003, 1.9741211E-002, 1.6709428E-003, 4.0453145E+002
 1.1000384E+002, 5.1082832E-002, 1.3257354E-001, 1.2350990E-001, 4.1793913E-003, 2.0348488E-002, 1.6697038E-003, 4.0134141E+002
 1.1100727E+002, 5.0916595E-002, 1.3262726E-001, 1.2371212E-001, 4.2615942E-003, 2.0129439E-002, 1.6878011E-003, 4.0358987E+002
 1.1200889E+002, 5.1020776E-002, 1.3253920E-001, 1.2356206E-001, 4.2221692E-003, 2.0470384E-002, 1.6787611E-003, 4.0231104E+002
 1.1300969E+002, 5.1157545E-002, 1.3227263E-001, 1.2343782E-001, 4.2746872E-003, 2.0931084E-002, 1.6885804E-003, 4.0054140E+002
 1.1400386E+002, 5.0970127E-002, 1.3238348E-001, 1.2355978E-001, 4.2905731E-003, 2.1008261E-002, 1.6926606E-003, 4.0187262E+002
 1.1501075E+002, 5.1127242E-002, 1.3221607E-001, 1.2337629E-001, 4.2684624E-003, 2.1420462E-002, 1.6869072E-003, 3.9867618E+002
 1.1600489E+002, 5.1029861E-002, 1.3212075E-001, 1.2342067E-001, 4.3346722E-003, 2.1846045E-002, 1.7006818E-003, 3.9922929E+002
 1.1700378E+002, 5.1009320E-002, 1.3191506E-001, 1.2346763E-001, 4.4501638E-003, 2.2160137E-002, 1.7244793E-003, 4.0134493E+002
 1.1800202E+002, 5.1120583E-002, 1.3184345E-001, 1.2338410E-001, 4.4375786E-003, 2.2170748E-002, 1.7213410E-003, 4.0124873E+002
 1.1900722E+002, 5.0988213E-002, 1.3191255E-001, 1.2347437E-001, 4.4549919E-003, 2.2227239E-002, 1.7255097E-003, 3.9903347E+002
 1.2000493E+002, 5.1040964E-002, 1.3175014E-001, 1.2345665E-001, 4.5171708E-003, 2.2404193E-002, 1.7380222E-003, 3.9934709E+002
 1.2100402E+002, 5.1400094E-002, 1.3154058E-001, 1.2307231E-001, 4.4080088E-003, 2.2855506E-002, 1.7131890E-003, 3.9689671E+002
 1.2200768E+002, 5.1242588E-002, 1.3141673E-001, 1.2323171E-001, 4.5467238E-003, 2.3130704E-002, 1.7424858E-003, 3.9779123E+002
 1.2300093E+002, 5.1328833E-002, 1.3124788E-001, 1.2315372E-001, 4.5803533E-003, 2.3421323E-002, 1.7487842E-003, 3.9942691E+002
 1.2401015E+002, 5.1474707E-002, 1.3114443E-001, 1.2296448E-001, 4.5271021E-003, 2.3774724E-002, 1.7366635E-003, 4.0002425E+002
 1.2500203E+002, 5.1600185E-002, 1.3101487E-001, 1.2287045E-001, 4.5346091E-003, 2.3884749E-002, 1.7375368E-003, 3.9609547E+002
 1.2601095E+002, 5.1413423E-002, 1.3115568E-001, 1.2303676E-001, 4.5600256E-003, 2.3720389E-002, 1.7438523E-003, 3.9933486E+002
 1.2700089E+002, 5.1550567E-002, 1.3088987E-001, 1.2292846E-001, 4.6203962E-003, 2.4114014E-002, 1.7553747E-003, 3.9798058E+002
 1.2800076E+002, 5.1520146E-002, 1.3088174E-001, 1.2290788E-001, 4.6137836E-003, 2.4341456E-002, 1.7538976E-003, 3.9788171E+002
 1.2900938E+002, 5.1865663E-002, 1.3017135E-001, 1.2263983E-001, 4.7863763E-003, 2.5396152E-002, 1.7871261E-003, 3.9736940E+002
 1.3000340E+002, 5.1730476E-002, 1.3043575E-001, 1.2284731E-001, 4.7776062E-003, 2.4598918E-002, 1.7867589E-003, 3.9854786E+002
 1.3100381E+002, 5.1803537E-002, 1.3053588E-001, 1.2275742E-001, 4.6861551E-003, 2.4448997E-002, 1.7675516E-003, 3.9689180E+002
 1.3201030E+002, 5.2242716E-002, 1.2989240E-001, 1.2221804E-001, 4.6884694E-003, 2.6062564E-002, 1.7643265E-003, 3.9419028E+002
 1.3300822E+002, 5.2145864E-002, 1.2976502E-001, 1.2233790E-001, 4.8076891E-003, 2.6247646E-002, 1.7893843E-003, 3.9253617E+002
 1.3400516E+002, 5.1972886E-002, 1.3010515E-001, 1.2260465E-001, 4.7963087E-003, 2.5218748E-002, 1.7888907E-003, 3.9925199E+002
 1.3500466E+002, 5.2238605E-002, 1.2981323E-001, 1.2221003E-001, 4.7194622E-003, 2.6272160E-002, 1.7705741E-003, 3.9413852E+002
 1.3600044E+002, 5.2367098E-002, 1.2958826E-001, 1.2214843E-001, 4.7858654E-003, 2.6432166E-002, 1.7836379E-003, 3.9715160E+002
 1.3701015E+002, 5.2012133E-002, 1.2998533E-001, 1.2247281E-001, 4.7811062E-003, 2.5824803E-002, 1.7849086E-003, 4.0040141E+002
 1.3800970E+002, 5.2432448E-002, 1.2966704E-001, 1.2208563E-001, 4.7178929E-003, 2.6249198E-002, 1.7693868E-003, 3.9349540E+002
 1.3900363E+002, 5.2572987E-002, 1.2932546E-001, 1.2198738E-001, 4.8169481E-003, 2.6741371E-002, 1.7888404E-003, 3.9321859E+002
 1.4000373E+002, 5.2358409E-002, 1.2943219E-001, 1.2209267E-001, 4.8264170E-003, 2.7008344E-002, 1.7915091E-003, 3.9493293E+002
 1.4100591E+002, 5.2485016E-002, 1.2921633E-001, 1.2200108E-001, 4.8733898E-003, 2.7278317E-002, 1.8004219E-003, 3.9392081E+002
 1.4200913E+002, 5.2503715E-002, 1.2930215E-001, 1.2202018E-001, 4.8449741E-003, 2.6949141E-002, 1.7947701E-003, 3.9683366E+002
 1.4300710E+002, 5.2637417E-002, 1.2910463E-001, 1.2174984E-001, 4.7918261E-003, 2.7869823E-002, 1.7821281E-003, 3.9671154E+002
 1.4400624E+002, 5.3160313E-002, 1.2854848E-001, 1.2131794E-001, 4.8097154E-003, 2.8521871E-002, 1.7827761E-003, 3.9178144E+002
 1.4500646E+002, 5.2859939E-002, 1.2880109E-001, 1.2166904E-001, 4.8820099E-003, 2.7868957E-002, 1.7998812E-003, 3.9313875E+002
 1.4600525E+002, 5.2990935E-002, 1.2875641E-001, 1.2160974E-001, 4.8697200E-003, 2.7644565E-002, 1.7969621E-003, 3.9128514E+002
 1.4700601E+002, 5.2998613E-002, 1.2884424E-001, 1.2157062E-001, 4.8106168E-003, 2.7591613E-002, 1.7846830E-003, 3.9252300E+002
 1.4800622E+002, 5.2940524E-002, 1.2867097E-001, 1.2152013E-001, 4.8620922E-003, 2.8389923E-002, 1.7948188E-003, 3.9293154E+002
 1.4900588E+002, 5.3221293E-002, 1.2845148E-001, 1.2136699E-001, 4.8771544E-003, 2.8263727E-002, 1.7968047E-003, 3.9528221E+002
 1.5000387E+002, 5.3136128E-002, 1.2835019E-001, 1.2137129E-001, 4.9252585E-003, 2.8810719E-002, 1.8066276E-003, 3.9435399E+002
 1.5101115E+002, 5.3354778E-002, 1.2812872E-001, 1.2110256E-001, 4.8825092E-003, 2.9414854E-002, 1.7960957E-003, 3.9200384E+002
 1.5200896E+002, 5.3210686E-002, 1.2816328E-001, 1.2130399E-001, 4.9725243E-003, 2.9144284E-002, 1.8157718E-003, 3.9637870E+002
 1.5301106E+002, 5.2906450E-002, 1.2842186E-001, 1.2153269E-001, 4.9792866E-003, 2.8987073E-002, 1.8187339E-003, 3.9590330E+002
 1.5400056E+002, 5.3364869E-002, 1.2819891E-001, 1.2115336E-001, 4.8774258E-003, 2.9026348E-002, 1.7954014E-003, 3.9308728E+002
