s,,,,,,,
Time,O2 EXHAUST,CO2 EXHAUST,H2O EXHAUST,CO EXHAUST,FUEL EXHAUST,SOOT EXHAUST,TEMP EXHAUST
 0.0000000E+000, 2.3099739E-001, 5.9146498E-004, 5.9412092E-003, 0.0000000E+000, 0.0000000E+000, 0.0000000E+000, 2.0000000E+001
 1.0006816E+000, 2.3099739E-001, 5.9146498E-004, 5.9412092E-003, 1.8475214E-025, 3.4775105E-023, 9.2307047E-025, 2.0233937E+001
 2.0036438E+000, 2.2426877E-001, 6.0611691E-003, 8.9994323E-003, 1.2627182E-005, 4.4017422E-004, 3.9460301E-005, 9.4037703E+001
 3.0039659E+000, 2.1941865E-001, 1.0030586E-002, 1.1221457E-002, 2.3188409E-005, 6.0752416E-004, 6.8396059E-005, 1.4312930E+002
 4.0021296E+000, 2.1316105E-001, 1.5143540E-002, 1.4089548E-002, 4.1469146E-005, 8.3332961E-004, 1.0667063E-004, 1.9896058E+002
 5.0011699E+000, 2.0883605E-001, 1.8706694E-002, 1.6084317E-002, 5.0546688E-005, 8.6248951E-004, 1.3255802E-004, 2.3668287E+002
 6.0031324E+000, 2.0206002E-001, 2.4312450E-002, 1.9212934E-002, 5.6992284E-005, 8.4291153E-004, 1.7160528E-004, 2.9219033E+002
 7.0066866E+000, 1.9510509E-001, 3.0088483E-002, 2.2436237E-002, 6.2876964E-005, 7.1202557E-004, 2.1167594E-004, 3.4353017E+002
 8.0046335E+000, 1.8848250E-001, 3.5606624E-002, 2.5513289E-002, 6.6331574E-005, 5.0854301E-004, 2.4949249E-004, 3.8109375E+002
 9.0015987E+000, 1.8097329E-001, 4.1866000E-002, 2.9000928E-002, 6.8118336E-005, 2.8033334E-004, 2.9193176E-004, 4.1805742E+002
 1.0000933E+001, 1.7199293E-001, 4.9337330E-002, 3.3164949E-002, 7.1397178E-005, 7.3826881E-005, 3.4283420E-004, 4.5351157E+002
 1.1006606E+001, 1.6493883E-001, 5.5182503E-002, 3.6426227E-002, 7.7183481E-005, 1.1277947E-005, 3.8334859E-004, 4.7160678E+002
 1.2002190E+001, 1.5776507E-001, 6.1113846E-002, 3.9737874E-002, 8.5077397E-005, 8.3083859E-007, 4.2489405E-004, 4.8621788E+002
 1.3000947E+001, 1.5239674E-001, 6.5550598E-002, 4.2215429E-002, 9.1312579E-005, 2.2082103E-007, 4.5604167E-004, 4.8955826E+002
 1.4004497E+001, 1.4490352E-001, 7.1743327E-002, 4.5673573E-002, 1.0003642E-004, 1.3291500E-007, 4.9952138E-004, 5.0061533E+002
 1.5007055E+001, 1.3915910E-001, 7.6490747E-002, 4.8324639E-002, 1.0673356E-004, 1.2135683E-007, 5.3285544E-004, 5.0460216E+002
 1.6008108E+001, 1.3403180E-001, 8.0728199E-002, 5.0690890E-002, 1.1268189E-004, 1.1741706E-007, 5.6260245E-004, 5.0722548E+002
 1.7006378E+001, 1.2942044E-001, 8.4539235E-002, 5.2819035E-002, 1.1804030E-004, 1.1853350E-007, 5.8935787E-004, 5.0892625E+002
 1.8004670E+001, 1.2496788E-001, 8.8219104E-002, 5.4873875E-002, 1.2316789E-004, 9.5598007E-008, 6.1518248E-004, 5.0976464E+002
 1.9003737E+001, 1.2142429E-001, 9.1147632E-002, 5.6509256E-002, 1.2731872E-004, 1.1809937E-007, 6.3574937E-004, 5.1041127E+002
 2.0004188E+001, 1.1681255E-001, 9.4958859E-002, 5.8637617E-002, 1.3276248E-004, 1.5085919E-007, 6.6252438E-004, 5.0936132E+002
 2.1004483E+001, 1.1315877E-001, 9.7978651E-002, 6.0323795E-002, 1.3691213E-004, 1.0679747E-007, 6.8370421E-004, 5.1030042E+002
 2.2001215E+001, 1.1033606E-001, 1.0031153E-001, 6.1626460E-002, 1.4015154E-004, 8.6697854E-008, 7.0007348E-004, 5.0483298E+002
 2.3004591E+001, 1.0631307E-001, 1.0363622E-001, 6.3483099E-002, 1.4488761E-004, 1.2468041E-007, 7.2342768E-004, 5.1299283E+002
 2.4010620E+001, 1.0401173E-001, 1.0553815E-001, 6.4545168E-002, 1.4756019E-004, 1.2549915E-007, 7.3677988E-004, 5.0771925E+002
 2.5001184E+001, 1.0109398E-001, 1.0794958E-001, 6.5891689E-002, 1.5090334E-004, 9.7505084E-008, 7.5369919E-004, 5.0740895E+002
 2.6000057E+001, 9.8234901E-002, 1.1031239E-001, 6.7211180E-002, 1.5427293E-004, 1.1530927E-007, 7.7029746E-004, 5.0795624E+002
 2.7008775E+001, 9.5696796E-002, 1.1240974E-001, 6.8382590E-002, 1.5738918E-004, 2.1979975E-007, 7.8505783E-004, 5.0907244E+002
 2.8007773E+001, 9.3209946E-002, 1.1446049E-001, 6.9531655E-002, 1.6331750E-004, 1.6496023E-006, 8.0010801E-004, 5.0407876E+002
 2.9006536E+001, 9.0064209E-002, 1.1704802E-001, 7.0987101E-002, 1.7519770E-004, 5.9911027E-006, 8.2004092E-004, 5.0741393E+002
 3.0004205E+001, 8.7547744E-002, 1.1911074E-001, 7.2153677E-002, 1.8961653E-004, 1.1401131E-005, 8.3699195E-004, 5.0611665E+002
 3.1006469E+001, 8.5329334E-002, 1.2093166E-001, 7.3181183E-002, 2.0053638E-004, 1.6080022E-005, 8.5156806E-004, 5.0317852E+002
 3.2008096E+001, 8.2520735E-002, 1.2323222E-001, 7.4483788E-002, 2.1780567E-004, 2.2081213E-005, 8.7072826E-004, 5.0450599E+002
 3.3003821E+001, 7.9846003E-002, 1.2543003E-001, 7.5722260E-002, 2.2963933E-004, 2.5173722E-005, 8.8803267E-004, 5.0711583E+002
 3.4006834E+001, 7.7755538E-002, 1.2713840E-001, 7.6692860E-002, 2.4505132E-004, 3.1762724E-005, 9.0281569E-004, 5.0481524E+002
 3.5000078E+001, 7.5440607E-002, 1.2904420E-001, 7.7763487E-002, 2.5273479E-004, 3.3982153E-005, 9.1726828E-004, 5.0281504E+002
 3.6006099E+001, 7.2711778E-002, 1.3128545E-001, 7.9027262E-002, 2.6544900E-004, 3.7774059E-005, 9.3505336E-004, 5.0476991E+002
 3.7001170E+001, 7.0387696E-002, 1.3318687E-001, 8.0105975E-002, 2.8136896E-004, 4.2772720E-005, 9.5124239E-004, 5.0557656E+002
 3.8006548E+001, 6.8223927E-002, 1.3496463E-001, 8.1107751E-002, 2.9094664E-004, 4.6243986E-005, 9.6524079E-004, 5.0214419E+002
 3.9005414E+001, 6.6136587E-002, 1.3667886E-001, 8.2074368E-002, 3.0068636E-004, 4.9839239E-005, 9.7884703E-004, 5.0268793E+002
 4.0010599E+001, 6.4093479E-002, 1.3835738E-001, 8.3020353E-002, 3.0983486E-004, 5.2943609E-005, 9.9208655E-004, 5.0346998E+002
 4.1005719E+001, 6.2111965E-002, 1.3997729E-001, 8.3940524E-002, 3.2430693E-004, 5.7180088E-005, 1.0060737E-003, 5.0239131E+002
 4.2004800E+001, 5.9968905E-002, 1.4173516E-001, 8.4933851E-002, 3.3592983E-004, 6.0135221E-005, 1.0203769E-003, 5.0439938E+002
 4.3001972E+001, 5.8282672E-002, 1.4314336E-001, 8.5706621E-002, 3.2729504E-004, 6.0582335E-005, 1.0279874E-003, 5.0538152E+002
 4.4005848E+001, 5.6187305E-002, 1.4486592E-001, 8.6676543E-002, 3.3598986E-004, 6.2976058E-005, 1.0414255E-003, 5.0478754E+002
 4.5006445E+001, 5.4276283E-002, 1.4642627E-001, 8.7564861E-002, 3.5147029E-004, 6.6088448E-005, 1.0552287E-003, 5.0272236E+002
 4.6004422E+001, 5.2625193E-002, 1.4777685E-001, 8.8331145E-002, 3.6283553E-004, 7.0449285E-005, 1.0667401E-003, 5.0372334E+002
 4.7009833E+001, 5.0408539E-002, 1.4958709E-001, 8.9361648E-002, 3.8072885E-004, 7.2757271E-005, 1.0827396E-003, 5.0245485E+002
 4.8000352E+001, 4.8255812E-002, 1.5135846E-001, 9.0357611E-002, 3.8853796E-004, 7.4681522E-005, 1.0963158E-003, 5.0624498E+002
 4.9000811E+001, 4.6543510E-002, 1.5277386E-001, 9.1147298E-002, 3.8999813E-004, 7.7102895E-005, 1.1061390E-003, 5.0692297E+002
 5.0004212E+001, 4.4449989E-002, 1.5449379E-001, 9.2116762E-002, 3.9947613E-004, 7.9539667E-005, 1.1197275E-003, 5.0485695E+002
 5.1001505E+001, 4.3184888E-002, 1.5552393E-001, 9.2705886E-002, 4.1177256E-004, 8.1461854E-005, 1.1292854E-003, 5.0356248E+002
 5.2008805E+001, 4.1837982E-002, 1.5664553E-001, 9.3324268E-002, 4.0715170E-004, 8.2134354E-005, 1.1358308E-003, 5.0478305E+002
 5.3000439E+001, 3.9888645E-002, 1.5821901E-001, 9.4236754E-002, 4.3580696E-004, 8.6844475E-005, 1.1525469E-003, 5.0404436E+002
 5.4011400E+001, 3.8454521E-002, 1.5940596E-001, 9.4897973E-002, 4.3622965E-004, 8.6838948E-005, 1.1606128E-003, 5.0309372E+002
 5.5000272E+001, 3.6664576E-002, 1.6087781E-001, 9.5727106E-002, 4.4393587E-004, 8.4906896E-005, 1.1721544E-003, 5.0666721E+002
 5.6001366E+001, 3.5351897E-002, 1.6193587E-001, 9.6341817E-002, 4.6409329E-004, 8.9789220E-005, 1.1835854E-003, 5.0196049E+002
 5.7008957E+001, 3.3772421E-002, 1.6324518E-001, 9.7069839E-002, 4.6348467E-004, 8.6828336E-005, 1.1922522E-003, 5.0474543E+002
 5.8009136E+001, 3.2246323E-002, 1.6450311E-001, 9.7775403E-002, 4.6768603E-004, 8.6502123E-005, 1.2016051E-003, 5.0525263E+002
 5.9004181E+001, 3.0831493E-002, 1.6566844E-001, 9.8429950E-002, 4.7229366E-004, 8.5634231E-005, 1.2104229E-003, 5.0532558E+002
 6.0011388E+001, 3.0007459E-002, 1.6633872E-001, 9.8813561E-002, 4.8052696E-004, 8.8962868E-005, 1.2166918E-003, 5.0335662E+002
 6.1004909E+001, 2.8357558E-002, 1.6768304E-001, 9.9582064E-002, 4.9632662E-004, 8.8730708E-005, 1.2291119E-003, 5.0500397E+002
 6.2006740E+001, 2.6839532E-002, 1.6892473E-001, 1.0028761E-001, 5.0757196E-004, 8.7253421E-005, 1.2398659E-003, 5.0323766E+002
 6.3004210E+001, 2.5171862E-002, 1.7028048E-001, 1.0106543E-001, 5.2567993E-004, 8.7450530E-005, 1.2528577E-003, 5.0704581E+002
 6.4005367E+001, 2.4647628E-002, 1.7070600E-001, 1.0130933E-001, 5.3120604E-004, 9.2181262E-005, 1.2569016E-003, 5.0401999E+002
 6.5002468E+001, 2.3103246E-002, 1.7196050E-001, 1.0202986E-001, 5.4859586E-004, 9.3184904E-005, 1.2690591E-003, 5.0643711E+002
 6.6008712E+001, 2.1994459E-002, 1.7285594E-001, 1.0254913E-001, 5.6488322E-004, 9.3659801E-005, 1.2785677E-003, 5.0514052E+002
 6.7001122E+001, 2.1524427E-002, 1.7325677E-001, 1.0276123E-001, 5.5629264E-004, 9.5285046E-005, 1.2794190E-003, 5.0542481E+002
 6.8005522E+001, 2.0391072E-002, 1.7415614E-001, 1.0329751E-001, 5.8416615E-004, 9.7442271E-005, 1.2914382E-003, 5.0316322E+002
 6.9007457E+001, 1.8791861E-002, 1.7546011E-001, 1.0404164E-001, 5.9848513E-004, 9.9480754E-005, 1.3032697E-003, 5.0683094E+002
 7.0002238E+001, 1.7794504E-002, 1.7625226E-001, 1.0451362E-001, 6.2273844E-004, 9.9717727E-005, 1.3137922E-003, 5.0596952E+002
 7.1000063E+001, 1.7011465E-002, 1.7688127E-001, 1.0488102E-001, 6.3625484E-004, 1.0303111E-004, 1.3209165E-003, 5.0690012E+002
 7.2003922E+001, 1.5866105E-002, 1.7781282E-001, 1.0541548E-001, 6.4869960E-004, 1.0092054E-004, 1.3298438E-003, 5.0720320E+002
 7.3001095E+001, 1.4850457E-002, 1.7864621E-001, 1.0588655E-001, 6.5431110E-004, 1.0007723E-004, 1.3366465E-003, 5.0660666E+002
 7.4010000E+001, 1.3229423E-002, 1.7991546E-001, 1.0666044E-001, 7.0695838E-004, 9.9891475E-005, 1.3564625E-003, 5.0799823E+002
 7.5007157E+001, 1.2653428E-002, 1.8035958E-001, 1.0693735E-001, 7.3017292E-004, 1.0308260E-004, 1.3644238E-003, 5.0370286E+002
 7.6009981E+001, 1.1760358E-002, 1.8104818E-001, 1.0736709E-001, 7.6646819E-004, 1.0583373E-004, 1.3768324E-003, 5.0683053E+002
 7.7001851E+001, 1.0364737E-002, 1.8207634E-001, 1.0805635E-001, 8.5784529E-004, 1.0914675E-004, 1.4033323E-003, 5.0502735E+002
 7.8006598E+001, 9.2635717E-003, 1.8292022E-001, 1.0858705E-001, 9.0551280E-004, 1.1838783E-004, 1.4192225E-003, 5.0524694E+002
 7.9007847E+001, 8.8438506E-003, 1.8319109E-001, 1.0880945E-001, 9.6143373E-004, 1.1341163E-004, 1.4330321E-003, 5.0397415E+002
 8.0001249E+001, 8.3826752E-003, 1.8371576E-001, 1.0897138E-001, 8.5977855E-004, 1.0477862E-004, 1.4147621E-003, 5.0537549E+002
 8.1007298E+001, 7.1490342E-003, 1.8454439E-001, 1.0960957E-001, 9.9801990E-004, 1.0987038E-004, 1.4499692E-003, 5.0538596E+002
 8.2007044E+001, 6.5307137E-003, 1.8496596E-001, 1.0992896E-001, 1.0641705E-003, 1.0257497E-004, 1.4669846E-003, 5.0876361E+002
 8.3009419E+001, 5.9390821E-003, 1.8500472E-001, 1.1036440E-001, 1.3874704E-003, 1.1457991E-004, 1.5365619E-003, 5.0578060E+002
 8.4001468E+001, 5.5760113E-003, 1.8522837E-001, 1.1055798E-001, 1.4414878E-003, 1.2504270E-004, 1.5496461E-003, 5.0236651E+002
 8.5001668E+001, 5.1881650E-003, 1.8536771E-001, 1.1080219E-001, 1.5716719E-003, 1.3066205E-004, 1.5784944E-003, 5.0293967E+002
 8.6005913E+001, 4.5368561E-003, 1.8598800E-001, 1.1107268E-001, 1.5132714E-003, 1.3122034E-004, 1.5701409E-003, 5.0635645E+002
 8.7008051E+001, 4.5334002E-003, 1.8533286E-001, 1.1131114E-001, 1.9844374E-003, 1.5150890E-004, 1.6667587E-003, 5.0227202E+002
 8.8005631E+001, 3.8072417E-003, 1.8580643E-001, 1.1169066E-001, 2.0750217E-003, 1.6177603E-004, 1.6893623E-003, 5.0053304E+002
 8.9004383E+001, 3.6548639E-003, 1.8551850E-001, 1.1190847E-001, 2.3704070E-003, 1.8273827E-004, 1.7507595E-003, 4.9613989E+002
 9.0008532E+001, 3.2779227E-003, 1.8555396E-001, 1.1218116E-001, 2.5680266E-003, 1.9480227E-004, 1.7933682E-003, 4.9841109E+002
 9.1005052E+001, 3.1554197E-003, 1.8583037E-001, 1.1217880E-001, 2.4458918E-003, 1.6661052E-004, 1.7690391E-003, 5.0025731E+002
 9.2001639E+001, 3.0608271E-003, 1.8491950E-001, 1.1257333E-001, 3.1502991E-003, 2.2533442E-004, 1.9139467E-003, 4.9747527E+002
 9.3001737E+001, 3.0660777E-003, 1.8549490E-001, 1.1236615E-001, 2.7381552E-003, 1.8591543E-004, 1.8294475E-003, 4.9353309E+002
 9.4004501E+001, 2.6643132E-003, 1.8514659E-001, 1.1280003E-001, 3.2284692E-003, 1.8743792E-004, 1.9322323E-003, 4.9518421E+002
 9.5008329E+001, 2.5120451E-003, 1.8481725E-001, 1.1303127E-001, 3.5523899E-003, 2.1726471E-004, 1.9994694E-003, 4.9235922E+002
 9.6002881E+001, 2.3110278E-003, 1.8507150E-001, 1.1309362E-001, 3.4905205E-003, 2.0739860E-004, 1.9879126E-003, 4.9212072E+002
 9.7005873E+001, 2.2551352E-003, 1.8458049E-001, 1.1330891E-001, 3.8723020E-003, 2.4525291E-004, 2.0664691E-003, 4.8904157E+002
 9.8006696E+001, 2.1748219E-003, 1.8436093E-001, 1.1344973E-001, 4.0777576E-003, 2.4957893E-004, 2.1090443E-003, 4.8988967E+002
 9.9002596E+001, 2.0011543E-003, 1.8379718E-001, 1.1378294E-001, 4.5832362E-003, 2.7982862E-004, 2.2136330E-003, 4.8680970E+002
 1.0000548E+002, 1.9651493E-003, 1.8380531E-001, 1.1380446E-001, 4.5965826E-003, 2.9626891E-004, 2.2165492E-003, 4.8848889E+002
 1.0100138E+002, 1.9122078E-003, 1.8358523E-001, 1.1392561E-001, 4.7868760E-003, 2.9488667E-004, 2.2558701E-003, 4.8585133E+002
 1.0200819E+002, 2.0974641E-003, 1.8360532E-001, 1.1377783E-001, 4.6626900E-003, 2.8919277E-004, 2.2293792E-003, 4.8502878E+002
 1.0300371E+002, 1.8870031E-003, 1.8278147E-001, 1.1422863E-001, 5.3732252E-003, 3.5015061E-004, 2.3761853E-003, 4.8299311E+002
 1.0400888E+002, 1.9619633E-003, 1.8273738E-001, 1.1418855E-001, 5.3610705E-003, 3.4438676E-004, 2.3732830E-003, 4.8110379E+002
 1.0500610E+002, 1.7353638E-003, 1.8263354E-001, 1.1440311E-001, 5.5737107E-003, 3.2494362E-004, 2.4181761E-003, 4.8809199E+002
 1.0600853E+002, 1.7652819E-003, 1.8183815E-001, 1.1465740E-001, 6.1184498E-003, 3.9977742E-004, 2.5296262E-003, 4.8056448E+002
 1.0700369E+002, 1.7689119E-003, 1.8184086E-001, 1.1465627E-001, 6.1163250E-003, 3.8535728E-004, 2.5291887E-003, 4.8273206E+002
 1.0800679E+002, 1.7128333E-003, 1.8098645E-001, 1.1499512E-001, 6.7528275E-003, 4.7493710E-004, 2.6599168E-003, 4.7898672E+002
 1.0901023E+002, 1.6882145E-003, 1.8074320E-001, 1.1510457E-001, 6.9440270E-003, 4.6554059E-004, 2.6992762E-003, 4.7920999E+002
 1.1001180E+002, 1.7213980E-003, 1.8092992E-001, 1.1501064E-001, 6.7894920E-003, 4.6733184E-004, 2.6673979E-003, 4.7898730E+002
 1.1100894E+002, 1.6351241E-003, 1.7999908E-001, 1.1540823E-001, 7.5049193E-003, 5.1449688E-004, 2.8145340E-003, 4.7663520E+002
 1.1200368E+002, 1.6332845E-003, 1.8006347E-001, 1.1538135E-001, 7.4560409E-003, 5.4049974E-004, 2.8044871E-003, 4.7603640E+002
 1.1300413E+002, 1.5242879E-003, 1.7957648E-001, 1.1563938E-001, 7.8693760E-003, 5.5832810E-004, 2.8898356E-003, 4.8080720E+002
 1.1400547E+002, 1.5629706E-003, 1.7922809E-001, 1.1573722E-001, 8.0972529E-003, 5.5829971E-004, 2.9363524E-003, 4.7274016E+002
 1.1500548E+002, 1.5485839E-003, 1.7837480E-001, 1.1603782E-001, 8.7035409E-003, 6.8073198E-004, 3.0606100E-003, 4.7510478E+002
 1.1600897E+002, 1.6158124E-003, 1.7888777E-001, 1.1581915E-001, 8.3092518E-003, 5.7001256E-004, 2.9795192E-003, 4.7536822E+002
 1.1700422E+002, 1.5983849E-003, 1.7925344E-001, 1.1570422E-001, 8.0603750E-003, 5.4015897E-004, 2.9286159E-003, 4.7483534E+002
 1.1801056E+002, 1.6333772E-003, 1.7753977E-001, 1.1626824E-001, 9.2467849E-003, 7.3618132E-004, 3.1714731E-003, 4.7386354E+002
 1.1900874E+002, 1.5925382E-003, 1.7736324E-001, 1.1636038E-001, 9.3955771E-003, 7.5583440E-004, 3.2021887E-003, 4.7098362E+002
 1.2000383E+002, 1.5618614E-003, 1.7760382E-001, 1.1630723E-001, 9.2492020E-003, 6.9348197E-004, 3.1724216E-003, 4.7305359E+002
 1.2100642E+002, 1.5183416E-003, 1.7707317E-001, 1.1653021E-001, 9.6541575E-003, 7.1686376E-004, 3.2556802E-003, 4.7765326E+002
 1.2200224E+002, 1.5417288E-003, 1.7677189E-001, 1.1661225E-001, 9.8494634E-003, 7.7300363E-004, 3.2955304E-003, 4.7140490E+002
 1.2300834E+002, 1.5317716E-003, 1.7672009E-001, 1.1664280E-001, 9.8957523E-003, 7.5106758E-004, 3.3051067E-003, 4.7110664E+002
 1.2400042E+002, 1.4823384E-003, 1.7675902E-001, 1.1666790E-001, 9.8983899E-003, 7.4240000E-004, 3.3059338E-003, 4.7399859E+002
 1.2500481E+002, 1.5503969E-003, 1.7551991E-001, 1.1704127E-001, 1.0729381E-002, 8.9403210E-004, 3.4757763E-003, 4.6816697E+002
 1.2601177E+002, 1.4756781E-003, 1.7637269E-001, 1.1680559E-001, 1.0174097E-002, 7.8972654E-004, 3.3624508E-003, 4.7175484E+002
 1.2700646E+002, 1.4454496E-003, 1.7503085E-001, 1.1728910E-001, 1.1135834E-002, 9.5492219E-004, 3.5596355E-003, 4.6845564E+002
 1.2800398E+002, 1.3948722E-003, 1.7523090E-001, 1.1726630E-001, 1.1030768E-002, 8.9078107E-004, 3.5384530E-003, 4.7001401E+002
 1.2900971E+002, 1.5063771E-003, 1.7487312E-001, 1.1729667E-001, 1.1210401E-002, 9.7451728E-004, 3.5745632E-003, 4.7049033E+002
 1.3000860E+002, 1.4144592E-003, 1.7469928E-001, 1.1743360E-001, 1.1392854E-002, 9.5707862E-004, 3.6125138E-003, 4.6735806E+002
 1.3100710E+002, 1.3975990E-003, 1.7453255E-001, 1.1750411E-001, 1.1520491E-002, 9.7526803E-004, 3.6387595E-003, 4.6723846E+002
 1.3200663E+002, 1.3733538E-003, 1.7399010E-001, 1.1770819E-001, 1.1916024E-002, 1.0451392E-003, 3.7199187E-003, 4.6781625E+002
 1.3300687E+002, 1.3571821E-003, 1.7360326E-001, 1.1785058E-001, 1.2195691E-002, 1.1075605E-003, 3.7772814E-003, 4.6419354E+002
 1.3401209E+002, 1.3357551E-003, 1.7405125E-001, 1.1772610E-001, 1.1903149E-002, 9.8185819E-004, 3.7175689E-003, 4.6848233E+002
 1.3500260E+002, 1.3321053E-003, 1.7348523E-001, 1.1792724E-001, 1.2306534E-002, 1.0289354E-003, 3.8002531E-003, 4.6956679E+002
 1.3600406E+002, 1.3758993E-003, 1.7280121E-001, 1.1811624E-001, 1.2752193E-002, 1.1802954E-003, 3.8912088E-003, 4.6458292E+002
 1.3700641E+002, 1.3980682E-003, 1.7289526E-001, 1.1808140E-001, 1.2683696E-002, 1.0900601E-003, 3.8771543E-003, 4.6971896E+002
 1.3800903E+002, 1.4107045E-003, 1.7267654E-001, 1.1813825E-001, 1.2823510E-002, 1.1638246E-003, 3.9056616E-003, 4.6566722E+002
 1.3901024E+002, 1.3980924E-003, 1.7191800E-001, 1.1840933E-001, 1.3365388E-002, 1.2508333E-003, 4.0167459E-003, 4.6369389E+002
 1.4000399E+002, 1.3659441E-003, 1.7187147E-001, 1.1846736E-001, 1.3430551E-002, 1.1605978E-003, 4.0304043E-003, 4.6412306E+002
 1.4100095E+002, 1.3944728E-003, 1.7184862E-001, 1.1845600E-001, 1.3431561E-002, 1.1492843E-003, 4.0304671E-003, 4.6810731E+002
 1.4200775E+002, 1.3912572E-003, 1.7165355E-001, 1.1852298E-001, 1.3568848E-002, 1.1864673E-003, 4.0585915E-003, 4.6553446E+002
 1.4300415E+002, 1.4575451E-003, 1.7100054E-001, 1.1867739E-001, 1.3974151E-002, 1.3711591E-003, 4.1411032E-003, 4.6319271E+002
 1.4400537E+002, 1.3738623E-003, 1.7131776E-001, 1.1864219E-001, 1.3808340E-002, 1.2787533E-003, 4.1076836E-003, 4.6524880E+002
 1.4500979E+002, 1.3482480E-003, 1.7123724E-001, 1.1870187E-001, 1.3889709E-002, 1.2202221E-003, 4.1245882E-003, 4.6592842E+002
 1.4600505E+002, 1.3772940E-003, 1.7066104E-001, 1.1887182E-001, 1.4273390E-002, 1.3217765E-003, 4.2029798E-003, 4.6587131E+002
 1.4700916E+002, 1.3585711E-003, 1.7010730E-001, 1.1906282E-001, 1.4663932E-002, 1.4627843E-003, 4.2829933E-003, 4.6460469E+002
 1.4801153E+002, 1.4074497E-003, 1.7008415E-001, 1.1904312E-001, 1.4658383E-002, 1.4126302E-003, 4.2816477E-003, 4.6301834E+002
 1.4900217E+002, 1.3686422E-003, 1.6957457E-001, 1.1923430E-001, 1.5029841E-002, 1.5482701E-003, 4.3578664E-003, 4.6277742E+002
 1.5000043E+002, 1.3998434E-003, 1.7000318E-001, 1.1909011E-001, 1.4730011E-002, 1.3491722E-003, 4.2964608E-003, 4.6471001E+002
 1.5101137E+002, 1.3470345E-003, 1.6989960E-001, 1.1914808E-001, 1.4820802E-002, 1.4599964E-003, 4.3152313E-003, 4.6677387E+002
 1.5200847E+002, 1.3177212E-003, 1.6948615E-001, 1.1929973E-001, 1.5119527E-002, 1.5799243E-003, 4.3765015E-003, 4.6504803E+002
 1.5301082E+002, 1.3814071E-003, 1.6923980E-001, 1.1932349E-001, 1.5245612E-002, 1.6767212E-003, 4.4018797E-003, 4.6135373E+002
 1.5400505E+002, 1.3499228E-003, 1.6954274E-001, 1.1926684E-001, 1.5068938E-002, 1.5120560E-003, 4.3660349E-003, 4.6611686E+002
