s,,,,,,,
Time,"O2 EXHAUST","CO2 EXHAUST","H2O EXHAUST","CO EXHAUST","FUEL EXHAUST","SOOT EXHAUST","TEMP EXHAUST"
 0.0000000E+000, 2.3099739E-001, 5.9146498E-004, 5.9412092E-003, 0.0000000E+000, 0.0000000E+000, 0.0000000E+000, 2.0000000E+001
 1.0040062E+000, 2.3099739E-001, 5.9146498E-004, 5.9412092E-003, 3.2838392E-025, 1.8879988E-025, 8.5342914E-025, 2.2536092E+001
 2.0015389E+000, 2.1588634E-001, 1.1861046E-002, 1.2479433E-002, 1.8102505E-004, 2.3817118E-004, 1.2798212E-004, 1.6172346E+002
 3.0004774E+000, 2.0340601E-001, 2.1341437E-002, 1.7855723E-002, 2.3576999E-004, 2.3702533E-004, 2.1473162E-004, 2.6427672E+002
 4.0044813E+000, 1.9005109E-001, 3.1622026E-002, 2.3573901E-002, 2.0760321E-004, 1.8030530E-004, 2.9003574E-004, 3.6514304E+002
 5.0012183E+000, 1.7727323E-001, 4.1533943E-002, 2.9029164E-002, 1.3508492E-004, 7.3247885E-005, 3.5291348E-004, 4.3375452E+002
 6.0016464E+000, 1.6217246E-001, 5.3173007E-002, 3.5491304E-002, 9.4087327E-005, 2.1185735E-006, 4.3621528E-004, 4.9400453E+002
 7.0084384E+000, 1.4187044E-001, 6.8686127E-002, 4.4207520E-002, 1.2032240E-004, 6.3724414E-007, 5.6458512E-004, 5.5127903E+002
 8.0043319E+000, 1.2601278E-001, 8.0781917E-002, 5.1021949E-002, 1.5505100E-004, 3.0405648E-006, 6.6773696E-004, 5.8739549E+002
 9.0042458E+000, 1.0798449E-001, 9.4567761E-002, 5.8758751E-002, 1.7140164E-004, 1.5247424E-006, 7.8032076E-004, 6.0736025E+002
 1.0002547E+001, 9.9734358E-002, 1.0088091E-001, 6.2297867E-002, 1.7584112E-004, 6.8278398E-007, 8.3122431E-004, 6.1163190E+002
 1.1008790E+001, 8.6560601E-002, 1.1091891E-001, 6.7962350E-002, 2.1195905E-004, 2.8521197E-006, 9.1839214E-004, 6.1658311E+002
 1.2004927E+001, 7.3436813E-002, 1.2093771E-001, 7.3599412E-002, 2.3506418E-004, 4.0180583E-006, 1.0026181E-003, 6.2411189E+002
 1.3006583E+001, 6.3726430E-002, 1.2833908E-001, 7.7773787E-002, 2.5995016E-004, 6.5970419E-006, 1.0665158E-003, 6.3039623E+002
 1.4006470E+001, 5.1361951E-002, 1.3781831E-001, 8.3072554E-002, 2.5471774E-004, 2.7819414E-006, 1.1403967E-003, 6.3385023E+002
 1.5009123E+001, 4.2105465E-002, 1.4401718E-001, 8.7323536E-002, 8.6450533E-004, 3.5466515E-005, 1.3201848E-003, 6.3717857E+002
 1.6000400E+001, 3.4288431E-002, 1.4899300E-001, 9.0998535E-002, 1.5589121E-003, 5.4471382E-005, 1.5084382E-003, 6.4727445E+002
 1.7006078E+001, 3.1664322E-002, 1.5281878E-001, 9.1545192E-002, 3.1478145E-004, 4.4707059E-006, 1.2719633E-003, 6.2988848E+002
 1.8004149E+001, 2.4748794E-002, 1.5796137E-001, 9.4560076E-002, 4.2134361E-004, 3.3461328E-006, 1.3355005E-003, 6.3502496E+002
 1.9008450E+001, 2.2161005E-002, 1.6011005E-001, 9.5615937E-002, 3.0687062E-004, 2.0505248E-006, 1.3279582E-003, 6.2085291E+002
 2.0006215E+001, 1.4786703E-002, 1.6244513E-001, 9.9813226E-002, 2.5625009E-003, 2.1372104E-004, 1.8300493E-003, 6.4084063E+002
 2.1001673E+001, 1.1420226E-002, 1.6597501E-001, 1.0097294E-001, 1.9253716E-003, 6.7844131E-005, 1.7213756E-003, 6.2994505E+002
 2.2004922E+001, 9.2404945E-003, 1.6869583E-001, 1.0157564E-001, 1.2074029E-003, 2.0166734E-005, 1.5889687E-003, 6.2527866E+002
 2.3008899E+001, 5.6495181E-003, 1.7122171E-001, 1.0316210E-001, 1.3428428E-003, 1.7805907E-004, 1.6379938E-003, 6.2895790E+002
 2.4004798E+001, 1.5787299E-003, 1.7176162E-001, 1.0575304E-001, 3.1279022E-003, 9.7789785E-005, 2.0249876E-003, 6.3202231E+002
 2.5007419E+001, 2.1143056E-003, 1.7237485E-001, 1.0518785E-001, 2.4194007E-003, 1.2879767E-004, 1.8779349E-003, 6.2053733E+002
 2.6000971E+001, 1.7166977E-003, 1.6860692E-001, 1.0655277E-001, 5.1324957E-003, 8.7335556E-004, 2.4298214E-003, 5.9286020E+002
 2.7003974E+001, 1.6287101E-003, 1.6839619E-001, 1.0668237E-001, 5.3255392E-003, 8.6076077E-004, 2.4695431E-003, 5.8785083E+002
 2.8004018E+001, 6.8588420E-004, 1.6813398E-001, 1.0744913E-001, 6.0369528E-003, 5.8582391E-004, 2.6199964E-003, 5.9847684E+002
 2.9000270E+001, 6.0027726E-004, 1.6760294E-001, 1.0765553E-001, 6.4304306E-003, 7.2749654E-004, 2.7001582E-003, 5.8874573E+002
 3.0002224E+001, 5.6425301E-004, 1.6686361E-001, 1.0784573E-001, 6.9035659E-003, 1.1768985E-003, 2.7957521E-003, 5.8313329E+002
 3.1009102E+001, 1.0757314E-003, 1.6531828E-001, 1.0791932E-001, 7.6378120E-003, 1.6679701E-003, 2.9409519E-003, 5.7069791E+002
 3.2001850E+001, 6.4792224E-004, 1.6281810E-001, 1.0906424E-001, 9.6212240E-003, 1.3711341E-003, 3.3464181E-003, 5.7207640E+002
 3.3000871E+001, 1.9632038E-003, 1.6353933E-001, 1.0788029E-001, 8.3844304E-003, 1.7514827E-003, 3.0869540E-003, 5.6812216E+002
 3.4004373E+001, 1.0127780E-003, 1.6341074E-001, 1.0856559E-001, 8.9751236E-003, 1.7442748E-003, 3.2125830E-003, 5.6616341E+002
 3.5003943E+001, 1.7668949E-003, 1.6191140E-001, 1.0835308E-001, 9.4690095E-003, 2.8957015E-003, 3.3066158E-003, 5.5613855E+002
 3.6001887E+001, 1.7566109E-003, 1.6111543E-001, 1.0864710E-001, 1.0045078E-002, 2.7109779E-003, 3.4238278E-003, 5.6041841E+002
 3.7008627E+001, 3.6157412E-003, 1.6045822E-001, 1.0753893E-001, 9.4692723E-003, 3.1019805E-003, 3.2951751E-003, 5.5281285E+002
 3.8008807E+001, 3.8082268E-003, 1.5907895E-001, 1.0778607E-001, 1.0266095E-002, 3.5220705E-003, 3.4551050E-003, 5.4646245E+002
 3.9006599E+001, 3.1276161E-003, 1.5961292E-001, 1.0802055E-001, 1.0217304E-002, 3.8500548E-003, 3.4488707E-003, 5.5227839E+002
 4.0003863E+001, 2.4553430E-003, 1.5911429E-001, 1.0867589E-001, 1.0945151E-002, 3.6050482E-003, 3.6009768E-003, 5.5289373E+002
 4.1000861E+001, 1.7850012E-003, 1.6097445E-001, 1.0857047E-001, 1.0049628E-002, 3.3454052E-003, 3.4236909E-003, 5.6096938E+002
 4.2004086E+001, 1.3106879E-003, 1.5971867E-001, 1.0925197E-001, 1.1130733E-002, 3.6212559E-003, 3.6455484E-003, 5.5601175E+002
 4.3005394E+001, 2.3957881E-003, 1.5922506E-001, 1.0863925E-001, 1.0869317E-002, 3.8584188E-003, 3.5855955E-003, 5.6005638E+002
 4.4003380E+001, 1.3270644E-003, 1.6070618E-001, 1.0904341E-001, 1.0533619E-002, 2.8729491E-003, 3.5253352E-003, 5.6774090E+002
 4.5004860E+001, 1.4382302E-003, 1.5942208E-001, 1.0922153E-001, 1.1237561E-002, 3.8676508E-003, 3.6661071E-003, 5.6656328E+002
 4.6001325E+001, 1.3288805E-003, 1.5920507E-001, 1.0928921E-001, 1.1387165E-002, 4.3379673E-003, 3.6964677E-003, 5.5693107E+002
 4.7009752E+001, 1.0294342E-003, 1.5759603E-001, 1.0990030E-001, 1.2569361E-002, 5.0221829E-003, 3.9372063E-003, 5.6167322E+002
 4.8010104E+001, 9.4606132E-004, 1.5851920E-001, 1.0960813E-001, 1.1939751E-002, 5.3325220E-003, 3.8095218E-003, 5.6044954E+002
 4.9010186E+001, 1.0628091E-003, 1.5644213E-001, 1.1011365E-001, 1.3243280E-002, 5.8648120E-003, 4.0725704E-003, 5.5126601E+002
 5.0007966E+001, 9.4007412E-004, 1.5546688E-001, 1.1052903E-001, 1.3992634E-002, 5.7575102E-003, 4.2255172E-003, 5.5843220E+002
 5.1006998E+001, 1.2258904E-003, 1.5606316E-001, 1.1021882E-001, 1.3488267E-002, 5.2916435E-003, 4.1220953E-003, 5.4395006E+002
 5.2010490E+001, 9.9681851E-004, 1.5611273E-001, 1.1025438E-001, 1.3497149E-002, 5.9281158E-003, 4.1243948E-003, 5.5088822E+002
 5.3011142E+001, 1.3625084E-003, 1.5358449E-001, 1.1074043E-001, 1.4982394E-002, 6.4411062E-003, 4.4228341E-003, 5.4131221E+002
 5.4002545E+001, 1.3898608E-003, 1.5369310E-001, 1.1075521E-001, 1.4944658E-002, 6.0200200E-003, 4.4156006E-003, 5.3945967E+002
 5.5005259E+001, 1.5884713E-003, 1.5156429E-001, 1.1113013E-001, 1.6171376E-002, 7.1188675E-003, 4.6617742E-003, 5.3063519E+002
 5.6003191E+001, 1.4621571E-003, 1.5206607E-001, 1.1119617E-001, 1.5999966E-002, 6.2396846E-003, 4.6289895E-003, 5.3843994E+002
 5.7007974E+001, 1.6526940E-003, 1.5029440E-001, 1.1148833E-001, 1.7005471E-002, 7.1713710E-003, 4.8305592E-003, 5.3147599E+002
 5.8006484E+001, 2.4353557E-003, 1.4786822E-001, 1.1154471E-001, 1.8114062E-002, 8.3916248E-003, 5.0490536E-003, 5.1660965E+002
 5.9005684E+001, 2.0379694E-003, 1.4889197E-001, 1.1162840E-001, 1.7728448E-002, 7.4941905E-003, 4.9744727E-003, 5.2996257E+002
 6.0006938E+001, 1.8970141E-003, 1.4876184E-001, 1.1180712E-001, 1.7923563E-002, 7.2392011E-003, 5.0152751E-003, 5.2788168E+002
 6.1012370E+001, 2.1279245E-003, 1.4684632E-001, 1.1211615E-001, 1.9005091E-002, 8.1850053E-003, 5.2320064E-003, 5.2283073E+002
 6.2002613E+001, 1.9544679E-003, 1.4624414E-001, 1.1233735E-001, 1.9443000E-002, 8.7429603E-003, 5.3211334E-003, 5.2627421E+002
 6.3000076E+001, 2.4624191E-003, 1.4506074E-001, 1.1239043E-001, 2.0000700E-002, 8.6548623E-003, 5.4313422E-003, 5.2018757E+002
 6.4009487E+001, 2.3747625E-003, 1.4356430E-001, 1.1289289E-001, 2.1047093E-002, 8.9020410E-003, 5.6438529E-003, 5.2195769E+002
 6.5008596E+001, 2.3943726E-003, 1.4396162E-001, 1.1278464E-001, 2.0788271E-002, 8.6967183E-003, 5.5915035E-003, 5.2363576E+002
 6.6001340E+001, 2.0954936E-003, 1.4443125E-001, 1.1290623E-001, 2.0676162E-002, 8.2580570E-003, 5.5711808E-003, 5.2963086E+002
 6.7004226E+001, 1.7714388E-003, 1.4646241E-001, 1.1247801E-001, 1.9455074E-002, 8.2044572E-003, 5.3254466E-003, 5.3817148E+002
 6.8008789E+001, 1.9182909E-003, 1.4502309E-001, 1.1274612E-001, 2.0295263E-002, 8.8049316E-003, 5.4942003E-003, 5.2949803E+002
 6.9001170E+001, 2.0524628E-003, 1.4376608E-001, 1.1314607E-001, 2.1153779E-002, 8.2832561E-003, 5.6683204E-003, 5.3214385E+002
 7.0011101E+001, 2.7195440E-003, 1.4063183E-001, 1.1361988E-001, 2.2894172E-002, 8.8220861E-003, 6.0166695E-003, 5.2364781E+002
 7.1007902E+001, 2.7732101E-003, 1.4105766E-001, 1.1353633E-001, 2.2640639E-002, 8.2659840E-003, 5.9656778E-003, 5.2576725E+002
 7.2005409E+001, 2.5409982E-003, 1.4079151E-001, 1.1372799E-001, 2.2907742E-002, 8.5820018E-003, 6.0208411E-003, 5.2846691E+002
 7.3007328E+001, 2.4603118E-003, 1.4075910E-001, 1.1372236E-001, 2.2919398E-002, 9.0173111E-003, 6.0230859E-003, 5.2858629E+002
 7.4004055E+001, 2.5994057E-003, 1.3996876E-001, 1.1384477E-001, 2.3361001E-002, 9.2563646E-003, 6.1115147E-003, 5.2630978E+002
 7.5007690E+001, 2.4380826E-003, 1.3938828E-001, 1.1412010E-001, 2.3829788E-002, 9.3871882E-003, 6.2074317E-003, 5.3007494E+002
 7.6011326E+001, 2.4663398E-003, 1.3947047E-001, 1.1404663E-001, 2.3737343E-002, 9.5585515E-003, 6.1882622E-003, 5.2564836E+002
 7.7008281E+001, 2.6385361E-003, 1.3758282E-001, 1.1452343E-001, 2.4933880E-002, 9.6598928E-003, 6.4298683E-003, 5.2426207E+002
 7.8007650E+001, 2.4044026E-003, 1.3763218E-001, 1.1472200E-001, 2.5065717E-002, 9.3135096E-003, 6.4585235E-003, 5.2803001E+002
 7.9001952E+001, 2.9934360E-003, 1.3506724E-001, 1.1494685E-001, 2.6366512E-002, 1.0578500E-002, 6.7171293E-003, 5.1802801E+002
 8.0004305E+001, 2.5031605E-003, 1.3731531E-001, 1.1483339E-001, 2.5288904E-002, 8.8464365E-003, 6.5038662E-003, 5.2827266E+002
 8.1000057E+001, 2.7109129E-003, 1.3595262E-001, 1.1500464E-001, 2.6020911E-002, 9.6375435E-003, 6.6500324E-003, 5.2101674E+002
 8.2009096E+001, 2.0321224E-003, 1.3778366E-001, 1.1478997E-001, 2.5056232E-002, 1.0144093E-002, 6.4576924E-003, 5.3245934E+002
 8.3000937E+001, 2.1587701E-003, 1.3770592E-001, 1.1479766E-001, 2.5094334E-002, 9.7238353E-003, 6.4652446E-003, 5.2788866E+002
 8.4012602E+001, 2.3022700E-003, 1.3681960E-001, 1.1502445E-001, 2.5657202E-002, 9.4925178E-003, 6.5789113E-003, 5.2728475E+002
 8.5002570E+001, 1.8650562E-003, 1.3747858E-001, 1.1520590E-001, 2.5508378E-002, 8.8845084E-003, 6.5522141E-003, 5.3664436E+002
 8.6000239E+001, 2.3736177E-003, 1.3698592E-001, 1.1496230E-001, 2.5535032E-002, 9.2472762E-003, 6.5540324E-003, 5.3147762E+002
 8.7008643E+001, 1.9752397E-003, 1.3620668E-001, 1.1549277E-001, 2.6288805E-002, 9.1890520E-003, 6.7094778E-003, 5.3899356E+002
 8.8002821E+001, 1.8355978E-003, 1.3816742E-001, 1.1512851E-001, 2.5143883E-002, 8.1133314E-003, 6.4795119E-003, 5.4065291E+002
 8.9010474E+001, 1.7608387E-003, 1.3718691E-001, 1.1545779E-001, 2.5829861E-002, 8.3471480E-003, 6.6188307E-003, 5.4007021E+002
 9.0000585E+001, 1.8956564E-003, 1.3706160E-001, 1.1529936E-001, 2.5763893E-002, 9.0109586E-003, 6.6036987E-003, 5.3720791E+002
 9.1008115E+001, 1.8046203E-003, 1.3608370E-001, 1.1547103E-001, 2.6330308E-002, 1.0278440E-002, 6.7174082E-003, 5.3377672E+002
 9.2000511E+001, 1.5265640E-003, 1.3856830E-001, 1.1497489E-001, 2.4855304E-002, 9.5493941E-003, 6.4208184E-003, 5.3953157E+002
 9.3007883E+001, 1.4715890E-003, 1.3755872E-001, 1.1524518E-001, 2.5509447E-002, 1.0122039E-002, 6.5530831E-003, 5.3774787E+002
 9.4008823E+001, 1.5585364E-003, 1.3612725E-001, 1.1568110E-001, 2.6473607E-002, 9.9226039E-003, 6.7484750E-003, 5.3716742E+002
 9.5007861E+001, 1.8168759E-003, 1.3683715E-001, 1.1533256E-001, 2.5890283E-002, 9.5811877E-003, 6.6290238E-003, 5.3801898E+002
 9.6013292E+001, 1.6386903E-003, 1.3805315E-001, 1.1503472E-001, 2.5127723E-002, 9.7387681E-003, 6.4751507E-003, 5.4587338E+002
 9.7007789E+001, 1.5767866E-003, 1.3933300E-001, 1.1487894E-001, 2.4441605E-002, 8.4096595E-003, 6.3381653E-003, 5.4889699E+002
 9.8013228E+001, 1.3734084E-003, 1.3987548E-001, 1.1517731E-001, 2.4428445E-002, 6.3391196E-003, 6.3396262E-003, 5.5733678E+002
 9.9004272E+001, 1.8869878E-003, 1.4640293E-001, 1.1310177E-001, 1.9949216E-002, 3.9985008E-003, 5.4309020E-003, 5.6647574E+002
 1.0001141E+002, 1.9073410E-003, 1.4519085E-001, 1.1343087E-001, 2.0736448E-002, 4.2979969E-003, 5.5900979E-003, 5.7838200E+002
 1.0100928E+002, 6.6270857E-004, 1.4076683E-001, 1.1553256E-001, 2.4312010E-002, 5.3372003E-003, 6.3217102E-003, 5.7711182E+002
 1.0200081E+002, 6.9938509E-004, 1.3822636E-001, 1.1642201E-001, 2.6112505E-002, 4.7596771E-003, 6.6876383E-003, 5.7571458E+002
 1.0300845E+002, 3.6664538E-004, 1.3570525E-001, 1.1722620E-001, 2.7846894E-002, 6.2077397E-003, 7.0395555E-003, 5.7360164E+002
 1.0400763E+002, 4.9053405E-004, 1.3336786E-001, 1.1753539E-001, 2.9118353E-002, 8.4378970E-003, 7.2936766E-003, 5.7875618E+002
 1.0500730E+002, 3.1101177E-004, 1.3495622E-001, 1.1730647E-001, 2.8241908E-002, 7.4354215E-003, 7.1183271E-003, 5.7827579E+002
 1.0600139E+002, 6.6438775E-004, 1.3918176E-001, 1.1603967E-001, 2.5399745E-002, 5.3599668E-003, 6.5423824E-003, 5.7567696E+002
 1.0700884E+002, 6.2985384E-004, 1.3728602E-001, 1.1648945E-001, 2.6583304E-002, 6.5049959E-003, 6.7811468E-003, 5.6588650E+002
 1.0800668E+002, 4.5232417E-004, 1.3406126E-001, 1.1748647E-001, 2.8773432E-002, 7.5186730E-003, 7.2252065E-003, 5.5979890E+002
 1.0900538E+002, 4.7735366E-004, 1.3360803E-001, 1.1747748E-001, 2.8968030E-002, 8.3716793E-003, 7.2633468E-003, 5.7685136E+002
 1.1000972E+002, 9.0834817E-004, 1.3767236E-001, 1.1625155E-001, 2.6227022E-002, 6.0418283E-003, 6.7078136E-003, 5.8468867E+002
 1.1101112E+002, 2.1928374E-003, 1.3927848E-001, 1.1480249E-001, 2.4397075E-002, 6.4229979E-003, 6.3281772E-003, 5.9020826E+002
 1.1201326E+002, 1.7062314E-003, 1.4204783E-001, 1.1437821E-001, 2.2853188E-002, 5.5533566E-003, 6.0190709E-003, 5.8658123E+002
 1.1300895E+002, 4.3072099E-004, 1.3695126E-001, 1.1687277E-001, 2.7024687E-002, 5.6389844E-003, 6.8731280E-003, 5.7359933E+002
 1.1400613E+002, 5.2906658E-004, 1.3236044E-001, 1.1781365E-001, 2.9775835E-002, 8.5676002E-003, 7.4266723E-003, 5.6667295E+002
 1.1500579E+002, 7.1888215E-004, 1.3269958E-001, 1.1774479E-001, 2.9569488E-002, 7.5263299E-003, 7.3851094E-003, 5.5650646E+002
 1.1600324E+002, 5.1069537E-004, 1.3519780E-001, 1.1716238E-001, 2.8022178E-002, 7.0106743E-003, 7.0731256E-003, 5.5739777E+002
 1.1701242E+002, 4.9228216E-004, 1.3107060E-001, 1.1821140E-001, 3.0650432E-002, 8.8368953E-003, 7.6039844E-003, 5.5252003E+002
 1.1801358E+002, 5.8566749E-004, 1.3447926E-001, 1.1736399E-001, 2.8492617E-002, 6.8860622E-003, 7.1683034E-003, 5.5598848E+002
 1.1901233E+002, 7.7812681E-004, 1.3600246E-001, 1.1699882E-001, 2.7535797E-002, 5.3032555E-003, 6.9752027E-003, 5.5929191E+002
 1.2000206E+002, 2.2569339E-003, 1.3854343E-001, 1.1535441E-001, 2.5138892E-002, 4.2182756E-003, 6.4813986E-003, 5.6683235E+002
 1.2101042E+002, 8.2935724E-004, 1.3610369E-001, 1.1700183E-001, 2.7492051E-002, 4.8698727E-003, 6.9666223E-003, 5.7068380E+002
 1.2201277E+002, 1.7964686E-003, 1.3528882E-001, 1.1636678E-001, 2.7359026E-002, 6.3753961E-003, 6.9316609E-003, 5.5664359E+002
 1.2301421E+002, 1.7862905E-003, 1.3043487E-001, 1.1796609E-001, 3.0725194E-002, 6.2230709E-003, 7.6149711E-003, 5.4567513E+002
 1.2400578E+002, 1.5481164E-003, 1.3382912E-001, 1.1707630E-001, 2.8547924E-002, 5.9431329E-003, 7.1750128E-003, 5.6404443E+002
 1.2501135E+002, 1.7099469E-003, 1.3297561E-001, 1.1704764E-001, 2.8903471E-002, 7.1439227E-003, 7.2444956E-003, 5.5764309E+002
 1.2601110E+002, 1.0037438E-003, 1.3113125E-001, 1.1816643E-001, 3.0580234E-002, 6.8627939E-003, 7.5894043E-003, 5.5309079E+002
 1.2700649E+002, 1.1702201E-003, 1.3245170E-001, 1.1764604E-001, 2.9597275E-002, 6.7479125E-003, 7.3891021E-003, 5.6117066E+002
 1.2800799E+002, 8.1165088E-004, 1.2963324E-001, 1.1890105E-001, 3.1804070E-002, 6.1177852E-003, 7.8399422E-003, 5.5687636E+002
 1.2900791E+002, 1.2110604E-003, 1.3466915E-001, 1.1714592E-001, 2.8232427E-002, 5.2466275E-003, 7.1140127E-003, 5.7054686E+002
 1.3000765E+002, 8.3671516E-004, 1.3524701E-001, 1.1718604E-001, 2.8012134E-002, 5.4089771E-003, 7.0713540E-003, 5.6453014E+002
 1.3100688E+002, 8.1060916E-004, 1.2767247E-001, 1.1932433E-001, 3.2996015E-002, 7.4159942E-003, 8.0799909E-003, 5.5533577E+002
 1.3200252E+002, 9.2905098E-004, 1.2826967E-001, 1.1919014E-001, 3.2626859E-002, 6.5609737E-003, 8.0055639E-003, 5.4709210E+002
 1.3300304E+002, 1.9976316E-003, 1.2301278E-001, 1.1984141E-001, 3.5438805E-002, 8.5578526E-003, 8.5668691E-003, 5.2680624E+002
 1.3400293E+002, 1.1803743E-003, 1.2695678E-001, 1.1935837E-001, 3.3333616E-002, 7.0901193E-003, 8.1467093E-003, 5.4285115E+002
 1.3500361E+002, 1.2356820E-003, 1.3265166E-001, 1.1771381E-001, 2.9558072E-002, 5.6598787E-003, 7.3822740E-003, 5.6447389E+002
 1.3600329E+002, 1.1952439E-003, 1.3790884E-001, 1.1621925E-001, 2.6092152E-002, 4.5752364E-003, 6.6807613E-003, 5.9131390E+002
 1.3700940E+002, 1.2163411E-003, 1.3541979E-001, 1.1687275E-001, 2.7692339E-002, 5.4139689E-003, 7.0041561E-003, 5.8452705E+002
 1.3801510E+002, 2.8300030E-003, 1.3253947E-001, 1.1668448E-001, 2.8803771E-002, 5.5836304E-003, 7.2196613E-003, 5.6343142E+002
 1.3900172E+002, 1.6372496E-003, 1.3150236E-001, 1.1764120E-001, 3.0007869E-002, 6.7213887E-003, 7.4696231E-003, 5.5895263E+002
 1.4000162E+002, 1.1155680E-003, 1.2760516E-001, 1.1925847E-001, 3.2970832E-002, 6.6853454E-003, 8.0740555E-003, 5.4498654E+002
 1.4101549E+002, 1.6625358E-003, 1.2661846E-001, 1.1898394E-001, 3.3193494E-002, 8.0617767E-003, 8.1139943E-003, 5.3643330E+002
 1.4201126E+002, 2.2647562E-003, 1.2294749E-001, 1.1960199E-001, 3.5282700E-002, 9.0501320E-003, 8.5328853E-003, 5.3160602E+002
 1.4300029E+002, 1.2977990E-003, 1.2225447E-001, 1.2051515E-001, 3.6296654E-002, 8.8310148E-003, 8.7447959E-003, 5.4354388E+002
 1.4400779E+002, 2.7651987E-003, 1.2925121E-001, 1.1747881E-001, 3.0867470E-002, 7.5028867E-003, 7.6361160E-003, 5.9079250E+002
 1.4500673E+002, 4.0537443E-003, 1.3403416E-001, 1.1535923E-001, 2.7117791E-002, 5.6767929E-003, 6.8700089E-003, 5.8756003E+002
 1.4600980E+002, 4.2475359E-003, 1.2520961E-001, 1.1770078E-001, 3.2807386E-002, 8.0028986E-003, 8.0200640E-003, 5.3894295E+002
 1.4701314E+002, 1.9052303E-003, 1.2384577E-001, 1.1955055E-001, 3.4850504E-002, 9.0771757E-003, 8.4473287E-003, 5.2715611E+002
 1.4800166E+002, 2.4894238E-003, 1.2198723E-001, 1.1979789E-001, 3.5853761E-002, 8.8180808E-003, 8.6477236E-003, 5.2550639E+002
 1.4900803E+002, 2.6079089E-003, 1.2432481E-001, 1.1908804E-001, 3.4276050E-002, 8.0464977E-003, 8.3279495E-003, 5.3233377E+002
 1.5000470E+002, 2.9849219E-003, 1.3181003E-001, 1.1657482E-001, 2.9043182E-002, 7.0654379E-003, 7.2652272E-003, 5.7483741E+002
 1.5100887E+002, 2.1352652E-003, 1.3165339E-001, 1.1733918E-001, 2.9704076E-002, 6.2071717E-003, 7.4056814E-003, 5.7176982E+002
 1.5201128E+002, 1.5560688E-003, 1.2383515E-001, 1.1991341E-001, 3.5134872E-002, 8.3171877E-003, 8.5082105E-003, 5.5214939E+002
 1.5300015E+002, 7.6461341E-004, 1.1967747E-001, 1.2167981E-001, 3.8331066E-002, 9.0043513E-003, 9.1605908E-003, 5.6046676E+002
 1.5401314E+002, 8.7783041E-004, 1.1807058E-001, 1.2198670E-001, 3.9275688E-002, 9.8395051E-003, 9.3504104E-003, 5.6135091E+002
