s,,,,,,,
Time,O2 EXHAUST,CO2 EXHAUST,H2O EXHAUST,CO EXHAUST,FUEL EXHAUST,SOOT EXHAUST,TEMP EXHAUST
 0.0000000E+000, 2.3099739E-001, 5.9146498E-004, 5.9412092E-003, 0.0000000E+000, 0.0000000E+000, 0.0000000E+000, 2.0000000E+001
 1.0046034E+000, 2.3099739E-001, 5.9146498E-004, 5.9412092E-003, 3.9994954E-027, 5.6532938E-026, 1.3281907E-026, 2.0840213E+001
 2.0037181E+000, 2.2412348E-001, 5.8031114E-003, 8.8874240E-003, 2.3339289E-005, 1.1118399E-004, 4.6240817E-005, 9.3984299E+001
 3.0032763E+000, 2.1829391E-001, 1.0226093E-002, 1.1392124E-002, 4.6331298E-005, 1.6169878E-004, 8.6166712E-005, 1.5091425E+002
 4.0004894E+000, 2.1221454E-001, 1.4828294E-002, 1.4007622E-002, 7.7511705E-005, 2.1349112E-004, 1.2926628E-004, 2.0892821E+002
 5.0018297E+000, 2.0767429E-001, 1.8275481E-002, 1.5959751E-002, 9.5382927E-005, 2.3942094E-004, 1.6037333E-004, 2.4801001E+002
 6.0005137E+000, 2.0301088E-001, 2.1842386E-002, 1.7962007E-002, 9.9939493E-005, 2.3129232E-004, 1.8957278E-004, 2.8612929E+002
 7.0031908E+000, 1.9848537E-001, 2.5309290E-002, 1.9905939E-002, 1.0258853E-004, 2.0710314E-004, 2.1757192E-004, 3.1885883E+002
 8.0012606E+000, 1.9107734E-001, 3.0999746E-002, 2.3086049E-002, 9.8595275E-005, 1.4934977E-004, 2.6174027E-004, 3.7114287E+002
 9.0065573E+000, 1.8499698E-001, 3.5684584E-002, 2.5694175E-002, 8.7442723E-005, 8.6249463E-005, 2.9641683E-004, 4.0319280E+002
 1.0006759E+001, 1.7845164E-001, 4.0719598E-002, 2.8502090E-002, 7.9292693E-005, 3.2318374E-005, 3.3450789E-004, 4.3393719E+002
 1.1005322E+001, 1.7346423E-001, 4.4545769E-002, 3.0642364E-002, 7.8244620E-005, 7.5805776E-006, 3.6455700E-004, 4.4871427E+002
 1.2001474E+001, 1.6921734E-001, 4.7794821E-002, 3.2465414E-002, 8.1788522E-005, 1.0571926E-006, 3.9102437E-004, 4.6241274E+002
 1.3006477E+001, 1.6344515E-001, 5.2205756E-002, 3.4943563E-002, 8.9103500E-005, 7.9840118E-008, 4.2749350E-004, 4.7879945E+002
 1.4003621E+001, 1.5987433E-001, 5.4934139E-002, 3.6476622E-002, 9.3786460E-005, 3.3584248E-008, 4.5008542E-004, 4.8356116E+002
 1.5006684E+001, 1.5685242E-001, 5.7243080E-002, 3.7774027E-002, 9.7771340E-005, 2.8975795E-008, 4.6920890E-004, 4.8797076E+002
 1.6001350E+001, 1.5399650E-001, 5.9425200E-002, 3.9000163E-002, 1.0153101E-004, 2.1030204E-008, 4.8728065E-004, 4.8985891E+002
 1.7003416E+001, 1.5170998E-001, 6.1172251E-002, 3.9981840E-002, 1.0454672E-004, 2.2619450E-008, 5.0175047E-004, 4.9003991E+002
 1.8007182E+001, 1.4914110E-001, 6.3135044E-002, 4.1084741E-002, 1.0793246E-004, 2.2543366E-008, 5.1800666E-004, 4.9595714E+002
 1.9001659E+001, 1.4732455E-001, 6.4523012E-002, 4.1864645E-002, 1.1032632E-004, 1.9241872E-008, 5.2950197E-004, 4.9473294E+002
 2.0002806E+001, 1.4427976E-001, 6.6849409E-002, 4.3171872E-002, 1.1435143E-004, 3.4998644E-008, 5.4877219E-004, 4.9701654E+002
 2.1003762E+001, 1.4347564E-001, 6.7463840E-002, 4.3517104E-002, 1.1539641E-004, 1.7420418E-008, 5.5385782E-004, 4.9280873E+002
 2.2004974E+001, 1.4100662E-001, 6.9350309E-002, 4.4577135E-002, 1.1866423E-004, 2.9285796E-008, 5.6948482E-004, 5.0179499E+002
 2.3005980E+001, 1.3998437E-001, 7.0131384E-002, 4.5016020E-002, 1.2000852E-004, 2.5349793E-008, 5.7595317E-004, 4.9593045E+002
 2.4000434E+001, 1.3824959E-001, 7.1456876E-002, 4.5760813E-002, 1.2229020E-004, 1.8481416E-008, 5.8693010E-004, 4.9485408E+002
 2.5001971E+001, 1.3650859E-001, 7.2787103E-002, 4.6508284E-002, 1.2459354E-004, 2.4757317E-008, 5.9794915E-004, 4.9682937E+002
 2.6005127E+001, 1.3492576E-001, 7.3996467E-002, 4.7187849E-002, 1.2669419E-004, 3.7710815E-008, 6.0796842E-004, 5.0067534E+002
 2.7007201E+001, 1.3381726E-001, 7.4843453E-002, 4.7663757E-002, 1.2814210E-004, 2.7659057E-008, 6.1498049E-004, 4.9400114E+002
 2.8003299E+001, 1.3262626E-001, 7.5753469E-002, 4.8175093E-002, 1.2970773E-004, 2.4695204E-008, 6.2251652E-004, 4.9820220E+002
 2.9005647E+001, 1.3098660E-001, 7.7006253E-002, 4.8879055E-002, 1.3188282E-004, 3.7043290E-008, 6.3289530E-004, 4.9903119E+002
 3.0001888E+001, 1.3028615E-001, 7.7541458E-002, 4.9179780E-002, 1.3279903E-004, 2.5943673E-008, 6.3732646E-004, 4.9617595E+002
 3.1002024E+001, 1.2931373E-001, 7.8284445E-002, 4.9597266E-002, 1.3408010E-004, 2.7447401E-008, 6.4347989E-004, 4.9164657E+002
 3.2004683E+001, 1.2781773E-001, 7.9427497E-002, 5.0239548E-002, 1.3604928E-004, 2.6903329E-008, 6.5294630E-004, 4.9730660E+002
 3.3003930E+001, 1.2739326E-001, 7.9751816E-002, 5.0421788E-002, 1.3661170E-004, 3.3057300E-008, 6.5563300E-004, 4.9534094E+002
 3.4004330E+001, 1.2585815E-001, 8.0924755E-002, 5.1080856E-002, 1.3862643E-004, 1.7201486E-008, 6.6534565E-004, 4.9246232E+002
 3.5007182E+001, 1.2426364E-001, 8.2143044E-002, 5.1765436E-002, 1.4074244E-004, 3.2340262E-008, 6.7543884E-004, 4.9751130E+002
 3.6006008E+001, 1.2330753E-001, 8.2873569E-002, 5.2175925E-002, 1.4200566E-004, 3.3051323E-008, 6.8148983E-004, 4.9832283E+002
 3.7002099E+001, 1.2257269E-001, 8.3435051E-002, 5.2491411E-002, 1.4296439E-004, 2.1321243E-008, 6.8613802E-004, 4.9425009E+002
 3.8007684E+001, 1.2138788E-001, 8.4340323E-002, 5.3000088E-002, 1.4452742E-004, 2.3819662E-008, 6.9363595E-004, 4.9624125E+002
 3.9002667E+001, 1.2120914E-001, 8.4476905E-002, 5.3076823E-002, 1.4475459E-004, 1.4733330E-008, 6.9476534E-004, 4.8943771E+002
 4.0005510E+001, 1.2042716E-001, 8.5074371E-002, 5.3412556E-002, 1.4579601E-004, 2.8541726E-008, 6.9971597E-004, 4.9925586E+002
 4.1006789E+001, 1.1992000E-001, 8.5461896E-002, 5.3630294E-002, 1.4645418E-004, 1.5847161E-008, 7.0292331E-004, 4.8851033E+002
 4.2002684E+001, 1.1906294E-001, 8.6116732E-002, 5.3998259E-002, 1.4759132E-004, 2.4583748E-008, 7.0834840E-004, 4.9213754E+002
 4.3004947E+001, 1.1816188E-001, 8.6805192E-002, 5.4385113E-002, 1.4878347E-004, 2.6642582E-008, 7.1405132E-004, 4.9306988E+002
 4.4000299E+001, 1.1739541E-001, 8.7390833E-002, 5.4714182E-002, 1.4978986E-004, 2.5470912E-008, 7.1890088E-004, 4.9842560E+002
 4.5003297E+001, 1.1685602E-001, 8.7802957E-002, 5.4945761E-002, 1.5050499E-004, 2.8225810E-008, 7.2231507E-004, 4.9405292E+002
 4.6004172E+001, 1.1669203E-001, 8.7928250E-002, 5.5016169E-002, 1.5072512E-004, 2.8536167E-008, 7.2335363E-004, 4.9190654E+002
 4.7001383E+001, 1.1637924E-001, 8.8167251E-002, 5.5150456E-002, 1.5113090E-004, 2.4918785E-008, 7.2533168E-004, 4.9238716E+002
 4.8003933E+001, 1.1535204E-001, 8.8952102E-002, 5.5591466E-002, 1.5248446E-004, 2.5038675E-008, 7.3183189E-004, 4.9138423E+002
 4.9003638E+001, 1.1549523E-001, 8.8842701E-002, 5.5529989E-002, 1.5229229E-004, 2.0767563E-008, 7.3092507E-004, 4.9334200E+002
 5.0005227E+001, 1.1459573E-001, 8.9529967E-002, 5.5916178E-002, 1.5348632E-004, 2.7569526E-008, 7.3661895E-004, 4.9157887E+002
 5.1002621E+001, 1.1397155E-001, 9.0006899E-002, 5.6184157E-002, 1.5430078E-004, 2.0378930E-008, 7.4056722E-004, 4.9286319E+002
 5.2006725E+001, 1.1370017E-001, 9.0214237E-002, 5.6300670E-002, 1.5466581E-004, 3.5814177E-008, 7.4228602E-004, 4.9448842E+002
 5.3000691E+001, 1.1343444E-001, 9.0417288E-002, 5.6414754E-002, 1.5500766E-004, 2.0469340E-008, 7.4396591E-004, 4.9112586E+002
 5.4006966E+001, 1.1288148E-001, 9.0839772E-002, 5.6652162E-002, 1.5574571E-004, 2.5894262E-008, 7.4746699E-004, 4.9379138E+002
 5.5005478E+001, 1.1244188E-001, 9.1175635E-002, 5.6840896E-002, 1.5633356E-004, 3.6786044E-008, 7.5025048E-004, 4.9705909E+002
 5.6000586E+001, 1.1236911E-001, 9.1231255E-002, 5.6872133E-002, 1.5641746E-004, 2.3726048E-008, 7.5070856E-004, 4.8894547E+002
 5.7004150E+001, 1.1216036E-001, 9.1390769E-002, 5.6961753E-002, 1.5668353E-004, 1.6415889E-008, 7.5202773E-004, 4.9120341E+002
 5.8007729E+001, 1.1092466E-001, 9.2334911E-002, 5.7492287E-002, 1.5832528E-004, 2.7626666E-008, 7.5985009E-004, 4.9477689E+002
 5.9004079E+001, 1.1204914E-001, 9.1475745E-002, 5.7009509E-002, 1.5683572E-004, 2.0403841E-008, 7.5273272E-004, 4.8772873E+002
 6.0001894E+001, 1.1044445E-001, 9.2701826E-002, 5.7698451E-002, 1.5895284E-004, 2.5055354E-008, 7.6288780E-004, 4.9423528E+002
 6.1001819E+001, 1.1022757E-001, 9.2867545E-002, 5.7791565E-002, 1.5923554E-004, 2.2151450E-008, 7.6425963E-004, 4.9376736E+002
 6.2007087E+001, 1.1040348E-001, 9.2733121E-002, 5.7716046E-002, 1.5901466E-004, 2.5663330E-008, 7.6314867E-004, 4.9335291E+002
 6.3006779E+001, 1.1019436E-001, 9.2892923E-002, 5.7805822E-002, 1.5927732E-004, 1.6387908E-008, 7.6446939E-004, 4.8966836E+002
 6.4000730E+001, 1.0987697E-001, 9.3135412E-002, 5.7942091E-002, 1.5970566E-004, 2.5931554E-008, 7.6647988E-004, 4.9247638E+002
 6.5007516E+001, 1.0984162E-001, 9.3162414E-002, 5.7957270E-002, 1.5975701E-004, 3.0518600E-008, 7.6670454E-004, 4.9213251E+002
 6.6006055E+001, 1.0941711E-001, 9.3486787E-002, 5.8139522E-002, 1.6030613E-004, 1.9961471E-008, 7.6938882E-004, 4.9107396E+002
 6.7007038E+001, 1.0961873E-001, 9.3332745E-002, 5.8052958E-002, 1.6003386E-004, 1.3234522E-008, 7.6811161E-004, 4.8384530E+002
 6.8005654E+001, 1.0925575E-001, 9.3610047E-002, 5.8208803E-002, 1.6053488E-004, 3.3682676E-008, 7.7041314E-004, 4.8914361E+002
 6.9002262E+001, 1.0858333E-001, 9.4123847E-002, 5.8497489E-002, 1.6140493E-004, 2.3457577E-008, 7.7466504E-004, 4.9115666E+002
 7.0006111E+001, 1.0828192E-001, 9.4354147E-002, 5.8626896E-002, 1.6180235E-004, 1.9529173E-008, 7.7657246E-004, 4.9171169E+002
 7.1000485E+001, 1.0837928E-001, 9.4279723E-002, 5.8585103E-002, 1.6169477E-004, 4.1038171E-008, 7.7596053E-004, 4.9449220E+002
 7.2006736E+001, 1.0829414E-001, 9.4344812E-002, 5.8621649E-002, 1.6178511E-004, 2.2246687E-008, 7.7649490E-004, 4.9160855E+002
 7.3001773E+001, 1.0788609E-001, 9.4656588E-002, 5.8796841E-002, 1.6232606E-004, 2.1085616E-008, 7.7907775E-004, 4.8913932E+002
 7.4006400E+001, 1.0763223E-001, 9.4850555E-002, 5.8905827E-002, 1.6265732E-004, 2.0042129E-008, 7.8068350E-004, 4.9027543E+002
 7.5002341E+001, 1.0709587E-001, 9.5260365E-002, 5.9136103E-002, 1.6336566E-004, 2.4630140E-008, 7.8407793E-004, 4.9108578E+002
 7.6003770E+001, 1.0764222E-001, 9.4842891E-002, 5.8901544E-002, 1.6266254E-004, 3.0148311E-008, 7.8062398E-004, 4.9297102E+002
 7.7001531E+001, 1.0703910E-001, 9.5303743E-002, 5.9160481E-002, 1.6344379E-004, 2.3146897E-008, 7.8443790E-004, 4.8975746E+002
 7.8006917E+001, 1.0690138E-001, 9.5408956E-002, 5.9219606E-002, 1.6362947E-004, 2.7464551E-008, 7.8531020E-004, 4.9426399E+002
 7.9004165E+001, 1.0662336E-001, 9.5621398E-002, 5.9338967E-002, 1.6398751E-004, 1.8566890E-008, 7.8706787E-004, 4.8832369E+002
 8.0000821E+001, 1.0666024E-001, 9.5593213E-002, 5.9323136E-002, 1.6394359E-004, 2.3313484E-008, 7.8683544E-004, 4.9022039E+002
 8.1006933E+001, 1.0734725E-001, 9.5068301E-002, 5.9028179E-002, 1.6303225E-004, 1.7093004E-008, 7.8248677E-004, 4.8779348E+002
 8.2005153E+001, 1.0642734E-001, 9.5771157E-002, 5.9423126E-002, 1.6425210E-004, 2.3831744E-008, 7.8830954E-004, 4.9043593E+002
 8.3004638E+001, 1.0706579E-001, 9.5283337E-002, 5.9149020E-002, 1.6341251E-004, 2.7569471E-008, 7.8426974E-004, 4.9168188E+002
 8.4004031E+001, 1.0671008E-001, 9.5555122E-002, 5.9301741E-002, 1.6388423E-004, 3.1040337E-008, 7.8652133E-004, 4.9577893E+002
 8.5006330E+001, 1.0645257E-001, 9.5751891E-002, 5.9412291E-002, 1.6421222E-004, 1.8102429E-008, 7.8814855E-004, 4.8703975E+002
 8.6006915E+001, 1.0644799E-001, 9.5755386E-002, 5.9414260E-002, 1.6422155E-004, 2.3621705E-008, 7.8817821E-004, 4.9123383E+002
 8.7003356E+001, 1.0600532E-001, 9.6093606E-002, 5.9604315E-002, 1.6481124E-004, 2.7953753E-008, 7.9098075E-004, 4.9154094E+002
 8.8005290E+001, 1.0567472E-001, 9.6346202E-002, 5.9746257E-002, 1.6525333E-004, 2.7889743E-008, 7.9307416E-004, 4.9347639E+002
 8.9004795E+001, 1.0542019E-001, 9.6540680E-002, 5.9855531E-002, 1.6558536E-004, 3.2960817E-008, 7.9468412E-004, 4.9343555E+002
 9.0002004E+001, 1.0568215E-001, 9.6340525E-002, 5.9743061E-002, 1.6523829E-004, 3.0929442E-008, 7.9302602E-004, 4.8909023E+002
 9.1005953E+001, 1.0516494E-001, 9.6735714E-002, 5.9965117E-002, 1.6591840E-004, 2.7088145E-008, 7.9629870E-004, 4.9528096E+002
 9.2003923E+001, 1.0615069E-001, 9.5982548E-002, 5.9541898E-002, 1.6460954E-004, 1.8456233E-008, 7.9005878E-004, 4.9172843E+002
 9.3003759E+001, 1.0630320E-001, 9.5866017E-002, 5.9476422E-002, 1.6441117E-004, 1.9892573E-008, 7.8909421E-004, 4.9051439E+002
 9.4000143E+001, 1.0584005E-001, 9.6219899E-002, 5.9675270E-002, 1.6502223E-004, 2.0827119E-008, 7.9202526E-004, 4.8644697E+002
 9.5003989E+001, 1.0535716E-001, 9.6588833E-002, 5.9882594E-002, 1.6567338E-004, 3.2726417E-008, 7.9508399E-004, 4.9389134E+002
 9.6004707E+001, 1.0584412E-001, 9.6216784E-002, 5.9673525E-002, 1.6502065E-004, 2.2270398E-008, 7.9200027E-004, 4.9095366E+002
 9.7004505E+001, 1.0503851E-001, 9.6832318E-002, 6.0019400E-002, 1.6608574E-004, 2.6246158E-008, 7.9709894E-004, 4.9495281E+002
 9.8007571E+001, 1.0639914E-001, 9.5792732E-002, 5.9435232E-002, 1.6427613E-004, 1.2836092E-008, 7.8848540E-004, 4.8438573E+002
 9.9004919E+001, 1.0537391E-001, 9.6576066E-002, 5.9875396E-002, 1.6563169E-004, 1.6751858E-008, 7.9497404E-004, 4.8660324E+002
 1.0000415E+002, 1.0577168E-001, 9.6272141E-002, 5.9704622E-002, 1.6510971E-004, 1.8835166E-008, 7.9245737E-004, 4.8978597E+002
 1.0100557E+002, 1.0533168E-001, 9.6608296E-002, 5.9893532E-002, 1.6570797E-004, 3.1141906E-008, 7.9524541E-004, 4.9317154E+002
 1.0200027E+002, 1.0600320E-001, 9.6095246E-002, 5.9605220E-002, 1.6480110E-004, 1.6175815E-008, 7.9099155E-004, 4.8715366E+002
 1.0300389E+002, 1.0480779E-001, 9.7008603E-002, 6.0118450E-002, 1.6638596E-004, 2.2628001E-008, 7.9855813E-004, 4.9131034E+002
 1.0400487E+002, 1.0546887E-001, 9.6503504E-002, 5.9834629E-002, 1.6551120E-004, 1.9934975E-008, 7.9437407E-004, 4.9214314E+002
 1.0500471E+002, 1.0551607E-001, 9.6467431E-002, 5.9814365E-002, 1.6545384E-004, 2.6679070E-008, 7.9407635E-004, 4.9469501E+002
 1.0600389E+002, 1.0495109E-001, 9.6899073E-002, 6.0056939E-002, 1.6622366E-004, 4.0670768E-008, 7.9765670E-004, 4.9531749E+002
 1.0700205E+002, 1.0477551E-001, 9.7033270E-002, 6.0132313E-002, 1.6643048E-004, 2.3326611E-008, 7.9876285E-004, 4.8746769E+002
 1.0800735E+002, 1.0468082E-001, 9.7105615E-002, 6.0172967E-002, 1.6655793E-004, 2.6635896E-008, 7.9936259E-004, 4.9339289E+002
 1.0900037E+002, 1.0565656E-001, 9.6360096E-002, 5.9754044E-002, 1.6526153E-004, 1.7146054E-008, 7.9318585E-004, 4.9158835E+002
 1.1000175E+002, 1.0455831E-001, 9.7199216E-002, 6.0225564E-002, 1.6672070E-004, 3.1889928E-008, 8.0013809E-004, 4.9459639E+002
 1.1100086E+002, 1.0474992E-001, 9.7052817E-002, 6.0143300E-002, 1.6646697E-004, 3.2334003E-008, 7.9892534E-004, 4.9481272E+002
 1.1200133E+002, 1.0407749E-001, 9.7566599E-002, 6.0431993E-002, 1.6735057E-004, 2.6363026E-008, 8.0318000E-004, 4.9525358E+002
 1.1300251E+002, 1.0467151E-001, 9.7112743E-002, 6.0176956E-002, 1.6655714E-004, 1.6111969E-008, 7.9941883E-004, 4.8760502E+002
 1.1400022E+002, 1.0431838E-001, 9.7382548E-002, 6.0328569E-002, 1.6702932E-004, 2.4985704E-008, 8.0165485E-004, 4.9034655E+002
 1.1500410E+002, 1.0472463E-001, 9.7072160E-002, 6.0154154E-002, 1.6648807E-004, 1.6262402E-008, 7.9908291E-004, 4.9047170E+002
 1.1600700E+002, 1.0476965E-001, 9.7037771E-002, 6.0134823E-002, 1.6642298E-004, 8.6985060E-009, 7.9879685E-004, 4.8405724E+002
 1.1700200E+002, 1.0425148E-001, 9.7433657E-002, 6.0357297E-002, 1.6712491E-004, 2.8130009E-008, 8.0207973E-004, 4.9239709E+002
 1.1800041E+002, 1.0509802E-001, 9.6786843E-002, 5.9993846E-002, 1.6600600E-004, 3.0459262E-008, 7.9672203E-004, 4.9569011E+002
 1.1900367E+002, 1.0460291E-001, 9.7165143E-002, 6.0206412E-002, 1.6665714E-004, 2.5912864E-008, 7.9985487E-004, 4.8946241E+002
 1.2000049E+002, 1.0404425E-001, 9.7591969E-002, 6.0446270E-002, 1.6741115E-004, 3.7584661E-008, 8.0339373E-004, 4.9697680E+002
 1.2100576E+002, 1.0471758E-001, 9.7077513E-002, 6.0157184E-002, 1.6651522E-004, 3.5680022E-008, 7.9913108E-004, 4.9582247E+002
 1.2200188E+002, 1.0460864E-001, 9.7160771E-002, 6.0203951E-002, 1.6664588E-004, 2.1403143E-008, 7.9981786E-004, 4.8998070E+002
 1.2300699E+002, 1.0419523E-001, 9.7476636E-002, 6.0381445E-002, 1.6719741E-004, 3.0393872E-008, 8.0243535E-004, 4.9466107E+002
 1.2400468E+002, 1.0454471E-001, 9.7209610E-002, 6.0231404E-002, 1.6673857E-004, 3.1328184E-008, 8.0022416E-004, 4.9421666E+002
 1.2500253E+002, 1.0499192E-001, 9.6867922E-002, 6.0039398E-002, 1.6614076E-004, 2.1238646E-008, 7.9739245E-004, 4.9188681E+002
 1.2600642E+002, 1.0504431E-001, 9.6827898E-002, 6.0016907E-002, 1.6607122E-004, 1.9194752E-008, 7.9706085E-004, 4.9063540E+002
 1.2700624E+002, 1.0528748E-001, 9.6642087E-002, 5.9912505E-002, 1.6575456E-004, 2.2722684E-008, 7.9552276E-004, 4.9173619E+002
 1.2800322E+002, 1.0462389E-001, 9.7149105E-002, 6.0197407E-002, 1.6663472E-004, 3.2077930E-008, 7.9972317E-004, 4.9721061E+002
 1.2900677E+002, 1.0479535E-001, 9.7018117E-002, 6.0123791E-002, 1.6639824E-004, 1.9313841E-008, 7.9863605E-004, 4.9251986E+002
 1.3000352E+002, 1.0410004E-001, 9.7549358E-002, 6.0422312E-002, 1.6732623E-004, 3.4000514E-008, 8.0303836E-004, 4.9474662E+002
 1.3100663E+002, 1.0457601E-001, 9.7185681E-002, 6.0217964E-002, 1.6670156E-004, 3.5821449E-008, 8.0002690E-004, 4.9157850E+002
 1.3200375E+002, 1.0440697E-001, 9.7314864E-002, 6.0290537E-002, 1.6691222E-004, 2.0980908E-008, 8.0109420E-004, 4.8896804E+002
 1.3300044E+002, 1.0425067E-001, 9.7434268E-002, 6.0357644E-002, 1.6712868E-004, 2.7943893E-008, 8.0208538E-004, 4.9068534E+002
 1.3400679E+002, 1.0424997E-001, 9.7434808E-002, 6.0357942E-002, 1.6712541E-004, 2.7677409E-008, 8.0208895E-004, 4.9220100E+002
 1.3500411E+002, 1.0408797E-001, 9.7558608E-002, 6.0427494E-002, 1.6732989E-004, 1.8908148E-008, 8.0311233E-004, 4.8895645E+002
 1.3600389E+002, 1.0437401E-001, 9.7340037E-002, 6.0304690E-002, 1.6696177E-004, 2.2597933E-008, 8.0130401E-004, 4.8836794E+002
 1.3700142E+002, 1.0404987E-001, 9.7587701E-002, 6.0443850E-002, 1.6738680E-004, 2.4841068E-008, 8.0335474E-004, 4.9059122E+002
 1.3800773E+002, 1.0474752E-001, 9.7054657E-002, 6.0144324E-002, 1.6646260E-004, 2.3845668E-008, 7.9893896E-004, 4.9655277E+002
 1.3900128E+002, 1.0426490E-001, 9.7423415E-002, 6.0351531E-002, 1.6709874E-004, 2.1217422E-008, 8.0199309E-004, 4.8918437E+002
 1.4000613E+002, 1.0421218E-001, 9.7463680E-002, 6.0374170E-002, 1.6717889E-004, 2.7002026E-008, 8.0232886E-004, 4.8958971E+002
 1.4100779E+002, 1.0504929E-001, 9.6824081E-002, 6.0014768E-002, 1.6606880E-004, 2.5407387E-008, 7.9703014E-004, 4.9189160E+002
 1.4200587E+002, 1.0414915E-001, 9.7511856E-002, 6.0401224E-002, 1.6724904E-004, 1.7105563E-008, 8.0272509E-004, 4.8644516E+002
 1.4300083E+002, 1.0440759E-001, 9.7314393E-002, 6.0290267E-002, 1.6690704E-004, 1.7852349E-008, 8.0108937E-004, 4.8660669E+002
 1.4400102E+002, 1.0483500E-001, 9.6987827E-002, 6.0106767E-002, 1.6634310E-004, 1.6712232E-008, 7.9838456E-004, 4.8426524E+002
 1.4500697E+002, 1.0416922E-001, 9.7496512E-002, 6.0392613E-002, 1.6723096E-004, 2.5967759E-008, 8.0259981E-004, 4.9486118E+002
 1.4600424E+002, 1.0453029E-001, 9.7220634E-002, 6.0237589E-002, 1.6675007E-004, 2.1459320E-008, 8.0031386E-004, 4.9114549E+002
 1.4700410E+002, 1.0409175E-001, 9.7555697E-002, 6.0425872E-002, 1.6733548E-004, 2.7996638E-008, 8.0309051E-004, 4.9203653E+002
 1.4800683E+002, 1.0491475E-001, 9.6926881E-002, 6.0072532E-002, 1.6624654E-004, 2.4999103E-008, 7.9788163E-004, 4.9110309E+002
 1.4900402E+002, 1.0464820E-001, 9.7130558E-002, 6.0186965E-002, 1.6658669E-004, 1.3524840E-008, 7.9956612E-004, 4.8707902E+002
 1.5000275E+002, 1.0419741E-001, 9.7474977E-002, 6.0380506E-002, 1.6718938E-004, 2.5413465E-008, 8.0242050E-004, 4.9255983E+002
 1.5100411E+002, 1.0387922E-001, 9.7718102E-002, 6.0517112E-002, 1.6760368E-004, 1.8452016E-008, 8.0443301E-004, 4.8988705E+002
 1.5200050E+002, 1.0449624E-001, 9.7246658E-002, 6.0252210E-002, 1.6679319E-004, 1.7658424E-008, 8.0052901E-004, 4.9106967E+002
 1.5300425E+002, 1.0462235E-001, 9.7150307E-002, 6.0198062E-002, 1.6662109E-004, 1.2974040E-008, 7.9972975E-004, 4.8853178E+002
 1.5400669E+002, 1.0482583E-001, 9.6994802E-002, 6.0110714E-002, 1.6637657E-004, 3.7152806E-008, 7.9844692E-004, 4.9488576E+002
