s,,,,,,,
Time,O2 EXHAUST,CO2 EXHAUST,H2O EXHAUST,CO EXHAUST,FUEL EXHAUST,SOOT EXHAUST,TEMP EXHAUST
 0.0000000E+000, 2.3099739E-001, 5.9146498E-004, 5.9412092E-003, 0.0000000E+000, 0.0000000E+000, 0.0000000E+000, 2.0000000E+001
 1.0039360E+000, 2.3099739E-001, 5.9146498E-004, 5.9412092E-003, 9.0870794E-026, 6.1919667E-024, 4.1837628E-025, 2.0447979E+001
 2.0044830E+000, 2.2135910E-001, 9.4580461E-003, 9.6531353E-003, 2.6937461E-005, 1.4887664E-004, 5.9203106E-005, 1.2192303E+002
 3.0040672E+000, 2.1455514E-001, 1.5715289E-002, 1.2282730E-002, 5.6120187E-005, 2.0232935E-004, 1.0316425E-004, 1.8676017E+002
 4.0048237E+000, 2.0821521E-001, 2.1540875E-002, 1.4733348E-002, 8.5865796E-005, 2.5982470E-004, 1.4464507E-004, 2.4265171E+002
 5.0009143E+000, 2.0280687E-001, 2.6532939E-002, 1.6822655E-002, 9.9994861E-005, 2.7120650E-004, 1.7775496E-004, 2.8530893E+002
 6.0043975E+000, 1.9734113E-001, 3.1588888E-002, 1.8932648E-002, 1.0791643E-004, 2.6983403E-004, 2.0991885E-004, 3.2913692E+002
 7.0008563E+000, 1.9158984E-001, 3.6931252E-002, 2.1153130E-002, 1.0658578E-004, 2.2240183E-004, 2.4182472E-004, 3.6738240E+002
 8.0026368E+000, 1.8582542E-001, 4.2304269E-002, 2.3377020E-002, 9.5355387E-005, 1.4791424E-004, 2.7179265E-004, 4.0659578E+002
 9.0024899E+000, 1.8202055E-001, 4.5848787E-002, 2.4844799E-002, 8.8709080E-005, 1.0351135E-004, 2.9172560E-004, 4.2423987E+002
 1.0003913E+001, 1.7701499E-001, 5.0516066E-002, 2.6775471E-002, 7.7790303E-005, 3.8375862E-005, 3.1750783E-004, 4.4727412E+002
 1.1002797E+001, 1.7382724E-001, 5.3479262E-002, 2.8005245E-002, 7.5144014E-005, 1.3661330E-005, 3.3479562E-004, 4.6207841E+002
 1.2004580E+001, 1.7045613E-001, 5.6604411E-002, 2.9306088E-002, 7.6463421E-005, 2.5042626E-006, 3.5390958E-004, 4.7188088E+002
 1.3000174E+001, 1.6798062E-001, 5.8895833E-002, 3.0261444E-002, 7.9085896E-005, 6.2559068E-007, 3.6827920E-004, 4.7816971E+002
 1.4002342E+001, 1.6713896E-001, 5.9674703E-002, 3.0586263E-002, 8.0070240E-005, 3.6411272E-007, 3.7318345E-004, 4.7563499E+002
 1.5002561E+001, 1.6573579E-001, 6.0973019E-002, 3.1127789E-002, 8.1794755E-005, 2.5583929E-007, 3.8137643E-004, 4.7833186E+002
 1.6001834E+001, 1.6460452E-001, 6.2019748E-002, 3.1564385E-002, 8.3191775E-005, 1.6821811E-007, 3.8798319E-004, 4.8196765E+002
 1.7003563E+001, 1.6431113E-001, 6.2291170E-002, 3.1677608E-002, 8.3566969E-005, 2.4984632E-007, 3.8969914E-004, 4.7450414E+002
 1.8003538E+001, 1.6320136E-001, 6.3317966E-002, 3.2105908E-002, 8.4956113E-005, 1.8744172E-007, 3.9618411E-004, 4.8531259E+002
 1.9004588E+001, 1.6168653E-001, 6.4719563E-002, 3.2690528E-002, 8.6834225E-005, 1.4301567E-007, 4.0503234E-004, 4.7979187E+002
 2.0002639E+001, 1.6188487E-001, 6.4536081E-002, 3.2613981E-002, 8.6572367E-005, 8.1008706E-008, 4.0387060E-004, 4.8111834E+002
 2.1004304E+001, 1.6037035E-001, 6.5937332E-002, 3.3198491E-002, 8.8485976E-005, 1.0830430E-007, 4.1272436E-004, 4.9319626E+002
 2.2003638E+001, 1.5911091E-001, 6.7102607E-002, 3.3684549E-002, 9.0058375E-005, 9.7199434E-008, 4.2008305E-004, 4.9423416E+002
 2.3003878E+001, 1.5896844E-001, 6.7234433E-002, 3.3739529E-002, 9.0228425E-005, 7.9531503E-008, 4.2091385E-004, 4.8844815E+002
 2.4000138E+001, 1.5855057E-001, 6.7621054E-002, 3.3900799E-002, 9.0753957E-005, 9.3331512E-008, 4.2335617E-004, 4.8827631E+002
 2.5000887E+001, 1.5890746E-001, 6.7290840E-002, 3.3763064E-002, 9.0312706E-005, 1.0014854E-007, 4.2127181E-004, 4.8898962E+002
 2.6005992E+001, 1.5809058E-001, 6.8046641E-002, 3.4078324E-002, 9.1333472E-005, 9.4727764E-008, 4.2604487E-004, 4.8984975E+002
 2.7004859E+001, 1.5826892E-001, 6.7881650E-002, 3.4009498E-002, 9.1105243E-005, 8.6592163E-008, 4.2500176E-004, 4.8666616E+002
 2.8006354E+001, 1.5822913E-001, 6.7918460E-002, 3.4024855E-002, 9.1157375E-005, 8.4706885E-008, 4.2523474E-004, 4.8729112E+002
 2.9004530E+001, 1.5720947E-001, 6.8861875E-002, 3.4418370E-002, 9.2429470E-005, 8.6033591E-008, 4.3119219E-004, 4.8591045E+002
 3.0006400E+001, 1.5710250E-001, 6.8960851E-002, 3.4459656E-002, 9.2564678E-005, 8.2022112E-008, 4.3181757E-004, 4.9020052E+002
 3.1002842E+001, 1.5701565E-001, 6.9041215E-002, 3.4493173E-002, 9.2668151E-005, 6.5181040E-008, 4.3232401E-004, 4.8574849E+002
 3.2004411E+001, 1.5685364E-001, 6.9191115E-002, 3.4555697E-002, 9.2868323E-005, 6.2023539E-008, 4.3327017E-004, 4.8414059E+002
 3.3004623E+001, 1.5696826E-001, 6.9085056E-002, 3.4511460E-002, 9.2728242E-005, 7.4458821E-008, 4.3260106E-004, 4.8835685E+002
 3.4001686E+001, 1.5622079E-001, 6.9776609E-002, 3.4799937E-002, 9.3679356E-005, 1.0096111E-007, 4.3697206E-004, 4.8721621E+002
 3.5001750E+001, 1.5622070E-001, 6.9776704E-002, 3.4799974E-002, 9.3676863E-005, 8.6316906E-008, 4.3697209E-004, 4.8712593E+002
 3.6003932E+001, 1.5627973E-001, 6.9722103E-002, 3.4777190E-002, 9.3592788E-005, 7.6624489E-008, 4.3662506E-004, 4.8708997E+002
 3.7001335E+001, 1.5649358E-001, 6.9524241E-002, 3.4694656E-002, 9.3324997E-005, 7.8639064E-008, 4.3537539E-004, 4.8762623E+002
 3.8005916E+001, 1.5603053E-001, 6.9952688E-002, 3.4873362E-002, 9.3894661E-005, 5.5026623E-008, 4.3807921E-004, 4.8451635E+002
 3.9002373E+001, 1.5576708E-001, 7.0196419E-002, 3.4975038E-002, 9.4235074E-005, 7.1468563E-008, 4.3962084E-004, 4.8830450E+002
 4.0003998E+001, 1.5499823E-001, 7.0907768E-002, 3.5271760E-002, 9.5200649E-005, 9.1165143E-008, 4.4411421E-004, 4.8916244E+002
 4.1002903E+001, 1.5502965E-001, 7.0878701E-002, 3.5259638E-002, 9.5163607E-005, 8.4317834E-008, 4.4393113E-004, 4.8875937E+002
 4.2005326E+001, 1.5545333E-001, 7.0486716E-002, 3.5096123E-002, 9.4623586E-005, 7.6864194E-008, 4.4145337E-004, 4.8394520E+002
 4.3005651E+001, 1.5480196E-001, 7.1089361E-002, 3.5347509E-002, 9.5449294E-005, 8.3284029E-008, 4.4526174E-004, 4.8722292E+002
 4.4001660E+001, 1.5547976E-001, 7.0462241E-002, 3.5085925E-002, 9.4601956E-005, 8.9402834E-008, 4.4130126E-004, 4.8755437E+002
 4.5003006E+001, 1.5641686E-001, 6.9595234E-002, 3.4724261E-002, 9.3412548E-005, 7.8906454E-008, 4.3582194E-004, 4.7912008E+002
 4.6005029E+001, 1.5592463E-001, 7.0050650E-002, 3.4914231E-002, 9.4034874E-005, 8.0538421E-008, 4.3869956E-004, 4.8202700E+002
 4.7005240E+001, 1.5590468E-001, 7.0069118E-002, 3.4921929E-002, 9.4053831E-005, 6.7991166E-008, 4.3881490E-004, 4.8618258E+002
 4.8000115E+001, 1.5547456E-001, 7.0467037E-002, 3.5087932E-002, 9.4615644E-005, 1.0400176E-007, 4.4133309E-004, 4.9080760E+002
 4.9004388E+001, 1.5458121E-001, 7.1293595E-002, 3.5432705E-002, 9.5731283E-005, 9.3678994E-008, 4.4655285E-004, 4.9239522E+002
 5.0005276E+001, 1.5451176E-001, 7.1357874E-002, 3.5459505E-002, 9.5805249E-005, 5.9255559E-008, 4.4695603E-004, 4.8709247E+002
 5.1001423E+001, 1.5460164E-001, 7.1274703E-002, 3.5424820E-002, 9.5700686E-005, 8.3124557E-008, 4.4643246E-004, 4.8899981E+002
 5.2002520E+001, 1.5501114E-001, 7.0895829E-002, 3.5266780E-002, 9.5184287E-005, 7.2847477E-008, 4.4403876E-004, 4.8851731E+002
 5.3001272E+001, 1.5604272E-001, 6.9941399E-002, 3.4868658E-002, 9.3884845E-005, 7.9345715E-008, 4.3800908E-004, 4.7821932E+002
 5.4004842E+001, 1.5559862E-001, 7.0352291E-002, 3.5040052E-002, 9.4442177E-005, 6.9451735E-008, 4.4060448E-004, 4.8015848E+002
 5.5000817E+001, 1.5550637E-001, 7.0437623E-002, 3.5075653E-002, 9.4565327E-005, 9.1488533E-008, 4.4114506E-004, 4.8454661E+002
 5.6000127E+001, 1.5567219E-001, 7.0284205E-002, 3.5011658E-002, 9.4356701E-005, 8.4329658E-008, 4.4017589E-004, 4.8465516E+002
 5.7006404E+001, 1.5468669E-001, 7.1196026E-002, 3.5391995E-002, 9.5586694E-005, 7.0943249E-008, 4.4593393E-004, 4.9007616E+002
 5.8003587E+001, 1.5504421E-001, 7.0865232E-002, 3.5254015E-002, 9.5141037E-005, 8.0435991E-008, 4.4384512E-004, 4.8286041E+002
 5.9003382E+001, 1.5646545E-001, 6.9550275E-002, 3.4705511E-002, 9.3355091E-005, 6.7469799E-008, 4.3553872E-004, 4.8135193E+002
 6.0005258E+001, 1.5490832E-001, 7.0990964E-002, 3.5306458E-002, 9.5308137E-005, 7.0456394E-008, 4.4463857E-004, 4.8455948E+002
 6.1005514E+001, 1.5422157E-001, 7.1626354E-002, 3.5571501E-002, 9.6175737E-005, 8.3683626E-008, 4.4865324E-004, 4.9007541E+002
 6.2006613E+001, 1.5405736E-001, 7.1778302E-002, 3.5634874E-002, 9.6372728E-005, 6.1272018E-008, 4.4961106E-004, 4.8379784E+002
 6.3002803E+001, 1.5460329E-001, 7.1273201E-002, 3.5424178E-002, 9.5682624E-005, 5.5853559E-008, 4.4641953E-004, 4.8502796E+002
 6.4000139E+001, 1.5365913E-001, 7.2146749E-002, 3.5788562E-002, 9.6872608E-005, 7.3865564E-008, 4.5193838E-004, 4.9046118E+002
 6.5003910E+001, 1.5406827E-001, 7.1768213E-002, 3.5630659E-002, 9.6352566E-005, 6.2045272E-008, 4.4954595E-004, 4.8487842E+002
 6.6000933E+001, 1.5458122E-001, 7.1293593E-002, 3.5432701E-002, 9.5727815E-005, 9.1182397E-008, 4.4655210E-004, 4.8875809E+002
 6.7000314E+001, 1.5458185E-001, 7.1293014E-002, 3.5432457E-002, 9.5724253E-005, 8.9686575E-008, 4.4654784E-004, 4.8774506E+002
 6.8001910E+001, 1.5473780E-001, 7.1148725E-002, 3.5372270E-002, 9.5528554E-005, 9.1569936E-008, 4.4563645E-004, 4.8711225E+002
 6.9002690E+001, 1.5470238E-001, 7.1181520E-002, 3.5385939E-002, 9.5561413E-005, 6.4366766E-008, 4.4584111E-004, 4.8516694E+002
 7.0006073E+001, 1.5480979E-001, 7.1082140E-002, 3.5344485E-002, 9.5426259E-005, 6.2497759E-008, 4.4521330E-004, 4.8616645E+002
 7.1001313E+001, 1.5497608E-001, 7.0928279E-002, 3.5280307E-002, 9.5218870E-005, 6.2835369E-008, 4.4424171E-004, 4.8344585E+002
 7.2002758E+001, 1.5531760E-001, 7.0612262E-002, 3.5148509E-002, 9.4812567E-005, 1.1715903E-007, 4.4225039E-004, 4.8605146E+002
 7.3001195E+001, 1.5472532E-001, 7.1160283E-002, 3.5377086E-002, 9.5538858E-005, 7.0372447E-008, 4.4570830E-004, 4.8712727E+002
 7.4002315E+001, 1.5367364E-001, 7.2133330E-002, 3.5782964E-002, 9.6853603E-005, 7.6786269E-008, 4.5185345E-004, 4.9237072E+002
 7.5000946E+001, 1.5401730E-001, 7.1815335E-002, 3.5650337E-002, 9.6439602E-005, 1.0014549E-007, 4.4984855E-004, 4.9105373E+002
 7.6001997E+001, 1.5466462E-001, 7.1216448E-002, 3.5400510E-002, 9.5610593E-005, 6.5161710E-008, 4.4606211E-004, 4.8219990E+002
 7.7005059E+001, 1.5394889E-001, 7.1878643E-002, 3.5676738E-002, 9.6519182E-005, 9.8564339E-008, 4.5024708E-004, 4.8941625E+002
 7.8002102E+001, 1.5356118E-001, 7.2237375E-002, 3.5826367E-002, 9.6997282E-005, 6.7512704E-008, 4.5251119E-004, 4.8964167E+002
 7.9003480E+001, 1.5499403E-001, 7.0911676E-002, 3.5273383E-002, 9.5197888E-005, 6.8595447E-008, 4.4413717E-004, 4.8281905E+002
 8.0000334E+001, 1.5461829E-001, 7.1259312E-002, 3.5418389E-002, 9.5668101E-005, 7.6088287E-008, 4.4633273E-004, 4.8428011E+002
 8.1003484E+001, 1.5442804E-001, 7.1435296E-002, 3.5491821E-002, 9.5932797E-005, 1.1120827E-007, 4.4744990E-004, 4.9274981E+002
 8.2002646E+001, 1.5482123E-001, 7.1071533E-002, 3.5340073E-002, 9.5425946E-005, 9.1062034E-008, 4.4514931E-004, 4.8941572E+002
 8.3002532E+001, 1.5415345E-001, 7.1689382E-002, 3.5597792E-002, 9.6262003E-005, 9.2831296E-008, 4.4905152E-004, 4.8332206E+002
 8.4003341E+001, 1.5408602E-001, 7.1751777E-002, 3.5623811E-002, 9.6338505E-005, 7.7820954E-008, 4.4944389E-004, 4.8722879E+002
 8.5001757E+001, 1.5465066E-001, 7.1229372E-002, 3.5405900E-002, 9.5626930E-005, 6.2179918E-008, 4.4614349E-004, 4.8158086E+002
 8.6005773E+001, 1.5526828E-001, 7.0657922E-002, 3.5167537E-002, 9.4855560E-005, 7.5703912E-008, 4.4253474E-004, 4.8131730E+002
 8.7001577E+001, 1.5450704E-001, 7.1362234E-002, 3.5461327E-002, 9.5813962E-005, 7.4888788E-008, 4.4698417E-004, 4.8315445E+002
 8.8005303E+001, 1.5377788E-001, 7.2036851E-002, 3.5742739E-002, 9.6741693E-005, 1.0099417E-007, 4.5124811E-004, 4.8899823E+002
 8.9001178E+001, 1.5483500E-001, 7.1058811E-002, 3.5334756E-002, 9.5397726E-005, 7.7239698E-008, 4.4506660E-004, 4.8376006E+002
 9.0001783E+001, 1.5428354E-001, 7.1569042E-002, 3.5547583E-002, 9.6085990E-005, 6.6043198E-008, 4.4828865E-004, 4.8306196E+002
 9.1000370E+001, 1.5485690E-001, 7.1038528E-002, 3.5326308E-002, 9.5382442E-005, 9.8885521E-008, 4.4494111E-004, 4.8530579E+002
 9.2005047E+001, 1.5404174E-001, 7.1792747E-002, 3.5640904E-002, 9.6397872E-005, 8.1255298E-008, 4.4970349E-004, 4.8817157E+002
 9.3003724E+001, 1.5500191E-001, 7.0904351E-002, 3.5270344E-002, 9.5205381E-005, 9.7689543E-008, 4.4409464E-004, 4.8657938E+002
 9.4005706E+001, 1.5414391E-001, 7.1698215E-002, 3.5601471E-002, 9.6267211E-005, 7.0570155E-008, 4.4910587E-004, 4.8689159E+002
 9.5000410E+001, 1.5501552E-001, 7.0891774E-002, 3.5265090E-002, 9.5180626E-005, 8.9440786E-008, 4.4401355E-004, 4.8837326E+002
 9.6002546E+001, 1.5489827E-001, 7.1000268E-002, 3.5310336E-002, 9.5317853E-005, 7.0147168E-008, 4.4469672E-004, 4.8571412E+002
 9.7003668E+001, 1.5451709E-001, 7.1352939E-002, 3.5457451E-002, 9.5803239E-005, 7.9638723E-008, 4.4692587E-004, 4.8601967E+002
 9.8001368E+001, 1.5435308E-001, 7.1504689E-002, 3.5520744E-002, 9.6002541E-005, 7.0589854E-008, 4.4788299E-004, 4.8756320E+002
 9.9003506E+001, 1.5390477E-001, 7.1919463E-002, 3.5693764E-002, 9.6572764E-005, 8.6406646E-008, 4.5050454E-004, 4.8856125E+002
 1.0000450E+002, 1.5365162E-001, 7.2153689E-002, 3.5791462E-002, 9.6887167E-005, 8.0519670E-008, 4.5198332E-004, 4.9034440E+002
 1.0100436E+002, 1.5469076E-001, 7.1192255E-002, 3.5390423E-002, 9.5582766E-005, 7.9719691E-008, 4.4591037E-004, 4.8787348E+002
 1.0200584E+002, 1.5499184E-001, 7.0913683E-002, 3.5274226E-002, 9.5207228E-005, 8.4467968E-008, 4.4415127E-004, 4.8279976E+002
 1.0300335E+002, 1.5428071E-001, 7.1571652E-002, 3.5548675E-002, 9.6092672E-005, 6.6590629E-008, 4.4830581E-004, 4.8843600E+002
 1.0400316E+002, 1.5398930E-001, 7.1841256E-002, 3.5661140E-002, 9.6465034E-005, 8.7659644E-008, 4.5001020E-004, 4.9354568E+002
 1.0500149E+002, 1.5454655E-001, 7.1325691E-002, 3.5446078E-002, 9.5758331E-005, 6.9059680E-008, 4.4675205E-004, 4.8519706E+002
 1.0600161E+002, 1.5456317E-001, 7.1310303E-002, 3.5439664E-002, 9.5742531E-005, 7.8964860E-008, 4.4665594E-004, 4.8568269E+002
 1.0700398E+002, 1.5460135E-001, 7.1275006E-002, 3.5424928E-002, 9.5681178E-005, 4.8744003E-008, 4.4643010E-004, 4.8531604E+002
 1.0800525E+002, 1.5465953E-001, 7.1221152E-002, 3.5402479E-002, 9.5623612E-005, 8.1287552E-008, 4.4609325E-004, 4.9233556E+002
 1.0900555E+002, 1.5422840E-001, 7.1620039E-002, 3.5568863E-002, 9.6162864E-005, 7.1494174E-008, 4.4861243E-004, 4.8584507E+002
 1.1000634E+002, 1.5426880E-001, 7.1582676E-002, 3.5553270E-002, 9.6104410E-005, 6.8172387E-008, 4.4837476E-004, 4.8282516E+002
 1.1100245E+002, 1.5393683E-001, 7.1889810E-002, 3.5681391E-002, 9.6528489E-005, 8.3216174E-008, 4.5031637E-004, 4.8717798E+002
 1.1200341E+002, 1.5438412E-001, 7.1475945E-002, 3.5508768E-002, 9.5978733E-005, 9.6300177E-008, 4.4770469E-004, 4.8933468E+002
 1.1300689E+002, 1.5389518E-001, 7.1928355E-002, 3.5697464E-002, 9.6575887E-005, 6.2511821E-008, 4.5055879E-004, 4.8290723E+002
 1.1400118E+002, 1.5509733E-001, 7.0816097E-002, 3.5233513E-002, 9.5066960E-005, 7.2313452E-008, 4.4353317E-004, 4.8190550E+002
 1.1500439E+002, 1.5430789E-001, 7.1546493E-002, 3.5538189E-002, 9.6067240E-005, 8.2718832E-008, 4.4814876E-004, 4.8886155E+002
 1.1600383E+002, 1.5496926E-001, 7.0934608E-002, 3.5282938E-002, 9.5218309E-005, 5.0075851E-008, 4.4427973E-004, 4.7845182E+002
 1.1700258E+002, 1.5418754E-001, 7.1657841E-002, 3.5584634E-002, 9.6217694E-005, 8.5934688E-008, 4.4885197E-004, 4.8841622E+002
 1.1800587E+002, 1.5350493E-001, 7.2289400E-002, 3.5848077E-002, 9.7077662E-005, 9.2970224E-008, 4.5284191E-004, 4.9235294E+002
 1.1900440E+002, 1.5368932E-001, 7.2118810E-002, 3.5776911E-002, 9.6837800E-005, 7.2385551E-008, 4.5176257E-004, 4.8814120E+002
 1.2000084E+002, 1.5507385E-001, 7.0837823E-002, 3.5242576E-002, 9.5097039E-005, 6.6118974E-008, 4.4367054E-004, 4.8923833E+002
 1.2100145E+002, 1.5392992E-001, 7.1896199E-002, 3.5684056E-002, 9.6537700E-005, 8.2478283E-008, 4.5035684E-004, 4.8785716E+002
 1.2200003E+002, 1.5519672E-001, 7.0724134E-002, 3.5195157E-002, 9.4946485E-005, 7.2100891E-008, 4.4295321E-004, 4.8394118E+002
 1.2300444E+002, 1.5396459E-001, 7.1864091E-002, 3.5670683E-002, 9.6514608E-005, 1.1882427E-007, 4.5015842E-004, 4.9063213E+002
 1.2400450E+002, 1.5399216E-001, 7.1838629E-002, 3.5660034E-002, 9.6450114E-005, 6.1268520E-008, 4.4999117E-004, 4.8410785E+002
 1.2500501E+002, 1.5418670E-001, 7.1658646E-002, 3.5584956E-002, 9.6203960E-005, 5.3093399E-008, 4.4885387E-004, 4.8615452E+002
 1.2600101E+002, 1.5437613E-001, 7.1483343E-002, 3.5511851E-002, 9.5985083E-005, 9.5337310E-008, 4.4775063E-004, 4.8671991E+002
 1.2700059E+002, 1.5560569E-001, 7.0345743E-002, 3.5037323E-002, 9.4435746E-005, 7.7085262E-008, 4.4056364E-004, 4.8318125E+002
 1.2800620E+002, 1.5517051E-001, 7.0748393E-002, 3.5205273E-002, 9.4976678E-005, 6.0737857E-008, 4.4310585E-004, 4.8064686E+002
 1.2900265E+002, 1.5602541E-001, 6.9957403E-002, 3.4875338E-002, 9.3911077E-005, 9.2853900E-008, 4.3811114E-004, 4.7923606E+002
 1.3000390E+002, 1.5520403E-001, 7.0717369E-002, 3.5192337E-002, 9.4938913E-005, 6.7330259E-008, 4.4291082E-004, 4.8515335E+002
 1.3100509E+002, 1.5429063E-001, 7.1562466E-002, 3.5544847E-002, 9.6084617E-005, 7.5088357E-008, 4.4824874E-004, 4.8782496E+002
 1.3200047E+002, 1.5474147E-001, 7.1145344E-002, 3.5370853E-002, 9.5516517E-005, 8.1405832E-008, 4.4561349E-004, 4.8893921E+002
 1.3300520E+002, 1.5498199E-001, 7.0922804E-002, 3.5278028E-002, 9.5216773E-005, 6.8673572E-008, 4.4420828E-004, 4.8272787E+002
 1.3400484E+002, 1.5443629E-001, 7.1427699E-002, 3.5488635E-002, 9.5903742E-005, 7.2948757E-008, 4.4739790E-004, 4.8595561E+002
 1.3500424E+002, 1.5401121E-001, 7.1821002E-002, 3.5652686E-002, 9.6431639E-005, 6.5507321E-008, 4.4988099E-004, 4.8958474E+002
 1.3600128E+002, 1.5470257E-001, 7.1181340E-002, 3.5385864E-002, 9.5561346E-005, 6.4331422E-008, 4.4584001E-004, 4.8407880E+002
 1.3700225E+002, 1.5468440E-001, 7.1198162E-002, 3.5392877E-002, 9.5580136E-005, 5.1467128E-008, 4.4594540E-004, 4.8279371E+002
 1.3800633E+002, 1.5435181E-001, 7.1505861E-002, 3.5521235E-002, 9.6006522E-005, 7.7166004E-008, 4.4789091E-004, 4.8604041E+002
 1.3900579E+002, 1.5417721E-001, 7.1667419E-002, 3.5588620E-002, 9.6220915E-005, 6.3592395E-008, 4.4891037E-004, 4.8483811E+002
 1.4000516E+002, 1.5517482E-001, 7.0744385E-002, 3.5203612E-002, 9.4982791E-005, 8.8770123E-008, 4.4308301E-004, 4.8818123E+002
 1.4100400E+002, 1.5454921E-001, 7.1323221E-002, 3.5445054E-002, 9.5762008E-005, 8.5492937E-008, 4.4673796E-004, 4.8425272E+002
 1.4200431E+002, 1.5402563E-001, 7.1807636E-002, 3.5647119E-002, 9.6422696E-005, 8.7933634E-008, 4.4979854E-004, 4.9110435E+002
 1.4300334E+002, 1.5400643E-001, 7.1825408E-002, 3.5654530E-002, 9.6444297E-005, 7.7966419E-008, 4.4991025E-004, 4.8981017E+002
 1.4400322E+002, 1.5424183E-001, 7.1607628E-002, 3.5563681E-002, 9.6140734E-005, 6.1861675E-008, 4.4853290E-004, 4.8261446E+002
 1.4500480E+002, 1.5585532E-001, 7.0114768E-002, 3.4940981E-002, 9.4126539E-005, 1.1219540E-007, 4.3910557E-004, 4.8236915E+002
 1.4600428E+002, 1.5548430E-001, 7.0458051E-002, 3.5084169E-002, 9.4588064E-005, 7.6206708E-008, 4.4127303E-004, 4.8287557E+002
 1.4700355E+002, 1.5463832E-001, 7.1240779E-002, 3.5410660E-002, 9.5644195E-005, 6.9309848E-008, 4.4621593E-004, 4.8509968E+002
 1.4800456E+002, 1.5379466E-001, 7.2021347E-002, 3.5736257E-002, 9.6705499E-005, 7.4536712E-008, 4.5114692E-004, 4.9038681E+002
 1.4900380E+002, 1.5488130E-001, 7.1015976E-002, 3.5316889E-002, 9.5338987E-005, 6.9825742E-008, 4.4479590E-004, 4.8169811E+002
 1.5000597E+002, 1.5490780E-001, 7.0991443E-002, 3.5306661E-002, 9.5312204E-005, 8.5639427E-008, 4.4464233E-004, 4.8155338E+002
 1.5100049E+002, 1.5412093E-001, 7.1719472E-002, 3.5610337E-002, 9.6296265E-005, 1.0014226E-007, 4.4924018E-004, 4.8444373E+002
 1.5200347E+002, 1.5497694E-001, 7.0927490E-002, 3.5279977E-002, 9.5217287E-005, 6.1455922E-008, 4.4423662E-004, 4.8192499E+002
 1.5300651E+002, 1.5477139E-001, 7.1117668E-002, 3.5359303E-002, 9.5473123E-005, 5.6386990E-008, 4.4543743E-004, 4.8512106E+002
 1.5400525E+002, 1.5423265E-001, 7.1616108E-002, 3.5567227E-002, 9.6161585E-005, 8.0528964E-008, 4.4858847E-004, 4.8894626E+002
