s,,,,,,,
Time,"O2 EXHAUST","CO2 EXHAUST","H2O EXHAUST","CO EXHAUST","FUEL EXHAUST","SOOT EXHAUST","TEMP EXHAUST"
 0.0000000E+000, 2.3099739E-001, 5.9146498E-004, 5.9412091E-003, 0.0000000E+000, 0.0000000E+000, 0.0000000E+000, 2.0000000E+001
 1.0000847E+000, 2.3099739E-001, 5.9146498E-004, 5.9412091E-003, 2.1228276E-035, 8.7241747E-034, 7.8143174E-036, 2.0257359E+001
 2.0000987E+000, 2.2486090E-001, 5.3819505E-003, 9.9324278E-003, 4.9584478E-006, 1.8531018E-004, 2.8852364E-005, 8.4089677E+001
 3.0041574E+000, 2.2203045E-001, 7.5997225E-003, 1.1789560E-002, 1.1952728E-005, 1.8930451E-004, 4.3226217E-005, 1.1095566E+002
 4.0036812E+000, 2.1682491E-001, 1.1678155E-002, 1.5192623E-002, 1.8566165E-005, 2.4714693E-004, 6.8307290E-005, 1.6117236E+002
 5.0021182E+000, 2.1439255E-001, 1.3578488E-002, 1.6781047E-002, 2.3158603E-005, 2.9188093E-004, 8.0320774E-005, 1.8383685E+002
 6.0058775E+000, 2.0916316E-001, 1.7687391E-002, 2.0205174E-002, 2.7397508E-005, 3.0416115E-004, 1.0506453E-004, 2.2956439E+002
 7.0033821E+000, 2.0595721E-001, 2.0213353E-002, 2.2309560E-002, 2.9583950E-005, 2.7688404E-004, 1.2018494E-004, 2.5288793E+002
 8.0015389E+000, 2.0146606E-001, 2.3757494E-002, 2.5257260E-002, 3.0029955E-005, 2.2857569E-004, 1.4083279E-004, 2.8781050E+002
 9.0051182E+000, 1.9648627E-001, 2.7690695E-002, 2.8527325E-002, 2.9844234E-005, 1.6137141E-004, 1.6359991E-004, 3.1964525E+002
 1.0000713E+001, 1.9130407E-001, 3.1784678E-002, 3.1929641E-002, 2.8905102E-005, 9.2250656E-005, 1.8713631E-004, 3.4860314E+002
 1.1001629E+001, 1.8659782E-001, 3.5499858E-002, 3.5018145E-002, 2.8606393E-005, 4.0467835E-005, 2.0861479E-004, 3.7084117E+002
 1.2002842E+001, 1.8154503E-001, 3.9482908E-002, 3.8331410E-002, 2.9440558E-005, 7.1123600E-006, 2.3189180E-004, 3.9087345E+002
 1.3002510E+001, 1.7745205E-001, 4.2703715E-002, 4.1012992E-002, 3.1426805E-005, 7.3662149E-007, 2.5099817E-004, 4.0387779E+002
 1.4001690E+001, 1.7164670E-001, 4.7269706E-002, 4.4815543E-002, 3.4788327E-005, 1.8848057E-008, 2.7820253E-004, 4.2302028E+002
 1.5007040E+001, 1.6717233E-001, 5.0788714E-002, 4.7746233E-002, 3.7414695E-005, 1.7654782E-008, 2.9917665E-004, 4.3414030E+002
 1.6002881E+001, 1.6260301E-001, 5.4382381E-002, 5.0739112E-002, 4.0103197E-005, 2.4941362E-008, 3.2059713E-004, 4.3993588E+002
 1.7004825E+001, 1.5918655E-001, 5.7069395E-002, 5.2976861E-002, 4.2086833E-005, 1.2803550E-008, 3.3660765E-004, 4.4269830E+002
 1.8008162E+001, 1.5393476E-001, 6.1199833E-002, 5.6416753E-002, 4.5166293E-005, 1.3353645E-008, 3.6122532E-004, 4.5297936E+002
 1.9008355E+001, 1.5026731E-001, 6.4084190E-002, 5.8818912E-002, 4.7328599E-005, 2.4319598E-008, 3.7841884E-004, 4.5315029E+002
 2.0002777E+001, 1.4620539E-001, 6.7278809E-002, 6.1479450E-002, 4.9715620E-005, 2.9204609E-008, 3.9746011E-004, 4.6091967E+002
 2.1002297E+001, 1.4331544E-001, 6.9551665E-002, 6.3372368E-002, 5.1435406E-005, 4.5587260E-008, 4.1101195E-004, 4.6231672E+002
 2.2003464E+001, 1.4011970E-001, 7.2065089E-002, 6.5465543E-002, 5.3286784E-005, 3.8193175E-008, 4.2598724E-004, 4.6126453E+002
 2.3007998E+001, 1.3705937E-001, 7.4471981E-002, 6.7470039E-002, 5.5080495E-005, 3.4313447E-008, 4.4033231E-004, 4.5926373E+002
 2.4003639E+001, 1.3376471E-001, 7.7063217E-002, 6.9628009E-002, 5.6985483E-005, 1.2358713E-008, 4.5577042E-004, 4.6114389E+002
 2.5003176E+001, 1.3131961E-001, 7.8986247E-002, 7.1229529E-002, 5.8414573E-005, 1.2492099E-008, 4.6723080E-004, 4.5949374E+002
 2.6005489E+001, 1.2701609E-001, 8.2370876E-002, 7.4048317E-002, 6.0946990E-005, 1.8148007E-008, 4.8740535E-004, 4.6324723E+002
 2.7005997E+001, 1.2476828E-001, 8.4138719E-002, 7.5520622E-002, 6.2274536E-005, 2.5543353E-008, 4.9794386E-004, 4.6108273E+002
 2.8002192E+001, 1.2156563E-001, 8.6657555E-002, 7.7618333E-002, 6.4145050E-005, 2.0255888E-008, 5.1295469E-004, 4.6339894E+002
 2.9006669E+001, 1.1967281E-001, 8.8146229E-002, 7.8858113E-002, 6.5248992E-005, 1.7835057E-008, 5.2182599E-004, 4.5991625E+002
 3.0001307E+001, 1.1731308E-001, 9.0002116E-002, 8.0403727E-002, 6.6633816E-005, 1.8351719E-008, 5.3288745E-004, 4.5744711E+002
 3.1002429E+001, 1.1437256E-001, 9.2314790E-002, 8.2329739E-002, 6.8348646E-005, 1.4316453E-008, 5.4666910E-004, 4.5942862E+002
 3.2006043E+001, 1.1127952E-001, 9.4747383E-002, 8.4355670E-002, 7.0177879E-005, 2.9773535E-008, 5.6117089E-004, 4.6016368E+002
 3.3007040E+001, 1.0957104E-001, 9.6091107E-002, 8.5474708E-002, 7.1161046E-005, 1.2973524E-008, 5.6917553E-004, 4.5651188E+002
 3.4004963E+001, 1.0668576E-001, 9.8360291E-002, 8.7364560E-002, 7.2873861E-005, 3.0019008E-008, 5.8270457E-004, 4.6118381E+002
 3.5003957E+001, 1.0393202E-001, 1.0052606E-001, 8.9168243E-002, 7.4487914E-005, 3.1676406E-008, 5.9561254E-004, 4.6112608E+002
 3.6005746E+001, 1.0236412E-001, 1.0175919E-001, 9.0195201E-002, 7.5400741E-005, 2.5433732E-008, 6.0296066E-004, 4.5211397E+002
 3.7006998E+001, 9.9311884E-002, 1.0415969E-001, 9.2194410E-002, 7.7208687E-005, 3.9562129E-008, 6.1727175E-004, 4.6047078E+002
 3.8001983E+001, 9.6834444E-002, 1.0610818E-001, 9.3817107E-002, 7.8643463E-005, 2.6544535E-008, 6.2888099E-004, 4.5985309E+002
 3.9005977E+001, 9.4216940E-002, 1.0816681E-001, 9.5531554E-002, 8.0173306E-005, 2.4791887E-008, 6.4114946E-004, 4.5955059E+002
 4.0003267E+001, 9.2726910E-002, 1.0933867E-001, 9.6507521E-002, 8.1057938E-005, 3.0172371E-008, 6.4813621E-004, 4.5674334E+002
 4.1005631E+001, 9.0637973E-002, 1.1098160E-001, 9.7875755E-002, 8.2270801E-005, 2.2276455E-008, 6.5792557E-004, 4.5689704E+002
 4.2000011E+001, 8.7571940E-002, 1.1339295E-001, 9.9883999E-002, 8.4085423E-005, 3.0672227E-008, 6.7230103E-004, 4.5850738E+002
 4.3009075E+001, 8.5337643E-002, 1.1515021E-001, 1.0134744E-001, 8.5377819E-005, 2.2327682E-008, 6.8277058E-004, 4.5791627E+002
 4.4000325E+001, 8.3573325E-002, 1.1653781E-001, 1.0250306E-001, 8.6415440E-005, 2.6083764E-008, 6.9104142E-004, 4.5716878E+002
 4.5002396E+001, 8.1654109E-002, 1.1804717E-001, 1.0376016E-001, 8.7583854E-005, 7.6306794E-008, 7.0004662E-004, 4.5587519E+002
 4.6004202E+001, 7.9277360E-002, 1.1991340E-001, 1.0531807E-001, 9.0919478E-005, 1.5581856E-006, 7.1159023E-004, 4.5639890E+002
 4.7005069E+001, 7.6928346E-002, 1.2175030E-001, 1.0686074E-001, 9.9068759E-005, 6.5165777E-006, 7.2400547E-004, 4.5599667E+002
 4.8005833E+001, 7.4058296E-002, 1.2398927E-001, 1.0874779E-001, 1.1253637E-004, 1.4644245E-005, 7.3990310E-004, 4.6286456E+002
 4.9007506E+001, 7.2188178E-002, 1.2544262E-001, 1.0997923E-001, 1.2472284E-004, 2.3749396E-005, 7.5096791E-004, 4.6244872E+002
 5.0005103E+001, 7.0858924E-002, 1.2648050E-001, 1.1085259E-001, 1.3023520E-004, 2.8179886E-005, 7.5817921E-004, 4.5765301E+002
 5.1000520E+001, 6.8899459E-002, 1.2799065E-001, 1.1214871E-001, 1.5160757E-004, 3.9794800E-005, 7.7156126E-004, 4.5847006E+002
 5.2004827E+001, 6.6204009E-002, 1.3008174E-001, 1.1392453E-001, 1.7125637E-004, 5.6684622E-005, 7.8793908E-004, 4.6090238E+002
 5.3006868E+001, 6.5162504E-002, 1.3089455E-001, 1.1460755E-001, 1.7509472E-004, 6.6084019E-005, 7.9348302E-004, 4.5773971E+002
 5.4001416E+001, 6.3315952E-002, 1.3232851E-001, 1.1582459E-001, 1.8818159E-004, 7.2747294E-005, 8.0463023E-004, 4.5997175E+002
 5.5005774E+001, 6.0159073E-002, 1.3477643E-001, 1.1790551E-001, 2.1226978E-004, 9.0431092E-005, 8.2403786E-004, 4.6060529E+002
 5.6003603E+001, 6.0421726E-002, 1.3455604E-001, 1.1773752E-001, 2.2031351E-004, 1.0210744E-004, 8.2450066E-004, 4.5359606E+002
 5.7008028E+001, 5.7806485E-002, 1.3659583E-001, 1.1945618E-001, 2.3232218E-004, 1.1376756E-004, 8.3892758E-004, 4.5817550E+002
 5.8004784E+001, 5.6419619E-002, 1.3764904E-001, 1.2037940E-001, 2.5738678E-004, 1.3009563E-004, 8.5045900E-004, 4.5703688E+002
 5.9003093E+001, 5.4119585E-002, 1.3943758E-001, 1.2189444E-001, 2.7215239E-004, 1.3706485E-004, 8.6402564E-004, 4.6059559E+002
 6.0002415E+001, 5.2517752E-002, 1.4068329E-001, 1.2294737E-001, 2.8126091E-004, 1.5059673E-004, 8.7322030E-004, 4.5884926E+002
 6.1001268E+001, 5.0902269E-002, 1.4192800E-001, 1.2401521E-001, 2.9863909E-004, 1.6385290E-004, 8.8419883E-004, 4.6166741E+002
 6.2008957E+001, 5.0000679E-002, 1.4259941E-001, 1.2461992E-001, 3.2313664E-004, 1.8315123E-004, 8.9339360E-004, 4.5566863E+002
 6.3004661E+001, 4.8716014E-002, 1.4362261E-001, 1.2545451E-001, 3.1468189E-004, 1.8472082E-004, 8.9749721E-004, 4.5916777E+002
 6.4003713E+001, 4.6215288E-002, 1.4553358E-001, 1.2711773E-001, 3.5385108E-004, 1.9615453E-004, 9.1705480E-004, 4.5859478E+002
 6.5000735E+001, 4.5063171E-002, 1.4645561E-001, 1.2786307E-001, 3.4270319E-004, 2.0128217E-004, 9.1998896E-004, 4.6075237E+002
 6.6005306E+001, 4.4590359E-002, 1.4681535E-001, 1.2817851E-001, 3.5130376E-004, 2.0270333E-004, 9.2393619E-004, 4.5561708E+002
 6.7005317E+001, 4.2157882E-002, 1.4869221E-001, 1.2978682E-001, 3.7652042E-004, 2.1554555E-004, 9.4027661E-004, 4.5724433E+002
 6.8003024E+001, 4.0781072E-002, 1.4971016E-001, 1.3071266E-001, 4.1841800E-004, 2.5022912E-004, 9.5524641E-004, 4.6023076E+002
 6.9001126E+001, 3.8793845E-002, 1.5126131E-001, 1.3202073E-001, 4.2810958E-004, 2.4814846E-004, 9.6633838E-004, 4.6055411E+002
 7.0003158E+001, 3.8732763E-002, 1.5134461E-001, 1.3204163E-001, 4.0270429E-004, 2.5356623E-004, 9.6132363E-004, 4.5742568E+002
 7.1002375E+001, 3.6766569E-002, 1.5284191E-001, 1.3335069E-001, 4.3649675E-004, 2.6763584E-004, 9.7731895E-004, 4.5761455E+002
 7.2008314E+001, 3.4666265E-002, 1.5445103E-001, 1.3474826E-001, 4.6790355E-004, 2.6618861E-004, 9.9344635E-004, 4.6300312E+002
 7.3002710E+001, 3.3860574E-002, 1.5505921E-001, 1.3528504E-001, 4.8431853E-004, 2.8134968E-004, 1.0005253E-003, 4.5768467E+002
 7.4003645E+001, 3.2426155E-002, 1.5618428E-001, 1.3622512E-001, 4.8680261E-004, 2.8534975E-004, 1.0075869E-003, 4.6176506E+002
 7.5008335E+001, 3.1182712E-002, 1.5718186E-001, 1.3703256E-001, 4.7523524E-004, 2.7380489E-004, 1.0108683E-003, 4.6105426E+002
 7.6003276E+001, 2.9519246E-002, 1.5839840E-001, 1.3816234E-001, 5.3751885E-004, 2.9783669E-004, 1.0314012E-003, 4.6210291E+002
 7.7006405E+001, 2.8678499E-002, 1.5897312E-001, 1.3874677E-001, 5.9367255E-004, 3.3732676E-004, 1.0468859E-003, 4.6126721E+002
 7.8001916E+001, 2.8096295E-002, 1.5946167E-001, 1.3911436E-001, 5.7337032E-004, 3.3050946E-004, 1.0453253E-003, 4.5742160E+002
 7.9003864E+001, 2.5825348E-002, 1.6117226E-001, 1.4063921E-001, 6.2734742E-004, 3.3299705E-004, 1.0669255E-003, 4.5972639E+002
 8.0003550E+001, 2.5656796E-002, 1.6130319E-001, 1.4074539E-001, 6.2599924E-004, 3.5325522E-004, 1.0673930E-003, 4.5758799E+002
 8.1002568E+001, 2.4272756E-002, 1.6235837E-001, 1.4166930E-001, 6.5050823E-004, 3.5092696E-004, 1.0788156E-003, 4.5907118E+002
 8.2001677E+001, 2.2863226E-002, 1.6345380E-001, 1.4259768E-001, 6.5979594E-004, 3.5682445E-004, 1.0871776E-003, 4.5734777E+002
 8.3006903E+001, 2.1879317E-002, 1.6418054E-001, 1.4326382E-001, 6.9237811E-004, 3.6498327E-004, 1.0984427E-003, 4.6115944E+002
 8.4009159E+001, 2.0929708E-002, 1.6487270E-001, 1.4391155E-001, 7.3038720E-004, 3.7221479E-004, 1.1106817E-003, 4.5829088E+002
 8.5006742E+001, 1.9082779E-002, 1.6621834E-001, 1.4517217E-001, 8.0499684E-004, 3.8411450E-004, 1.1346306E-003, 4.6735846E+002
 8.6004379E+001, 1.8980817E-002, 1.6628368E-001, 1.4524249E-001, 8.1345123E-004, 3.9996227E-004, 1.1368391E-003, 4.5685308E+002
 8.7004900E+001, 1.7855025E-002, 1.6705356E-001, 1.4603091E-001, 8.9151429E-004, 4.2867865E-004, 1.1581968E-003, 4.5929875E+002
 8.8007919E+001, 1.6685164E-002, 1.6794571E-001, 1.4681247E-001, 9.1243496E-004, 4.2370971E-004, 1.1678974E-003, 4.5865440E+002
 8.9003630E+001, 1.5848425E-002, 1.6857256E-001, 1.4738016E-001, 9.3685042E-004, 4.0804367E-004, 1.1768159E-003, 4.5718907E+002
 9.0003294E+001, 1.4554022E-002, 1.6949414E-001, 1.4827087E-001, 1.0023733E-003, 4.3087571E-004, 1.1963394E-003, 4.6145883E+002
 9.1002027E+001, 1.3541218E-002, 1.6992982E-001, 1.4910314E-001, 1.2496134E-003, 4.8255755E-004, 1.2523698E-003, 4.5798178E+002
 9.2005061E+001, 1.3183920E-002, 1.7027411E-001, 1.4930699E-001, 1.2062826E-003, 4.7573418E-004, 1.2449893E-003, 4.5842677E+002
 9.3008900E+001, 1.2041413E-002, 1.7093595E-001, 1.5017249E-001, 1.3720250E-003, 4.8402076E-004, 1.2846945E-003, 4.6217883E+002
 9.4007280E+001, 1.1259700E-002, 1.7105648E-001, 1.5091022E-001, 1.7074245E-003, 5.7732651E-004, 1.3579757E-003, 4.6035596E+002
 9.5003634E+001, 1.0787266E-002, 1.7147776E-001, 1.5119432E-001, 1.6726582E-003, 5.7849797E-004, 1.3528950E-003, 4.6141542E+002
 9.6006808E+001, 1.1030386E-002, 1.7123382E-001, 1.5105606E-001, 1.7066553E-003, 6.0089045E-004, 1.3588377E-003, 4.4720364E+002
 9.7003215E+001, 9.8998632E-003, 1.7164263E-001, 1.5202778E-001, 2.0389201E-003, 6.4381985E-004, 1.4331120E-003, 4.5559095E+002
 9.8000021E+001, 9.1611758E-003, 1.7194679E-001, 1.5263743E-001, 2.2266234E-003, 6.9839224E-004, 1.4754958E-003, 4.5322810E+002
 9.9003503E+001, 8.8724509E-003, 1.7249459E-001, 1.5267913E-001, 2.0089704E-003, 6.4169901E-004, 1.4315710E-003, 4.5278249E+002
 1.0000546E+002, 8.0835046E-003, 1.7192215E-001, 1.5375488E-001, 2.8251331E-003, 8.0968102E-004, 1.6048735E-003, 4.5159583E+002
 1.0101065E+002, 7.9060175E-003, 1.7242180E-001, 1.5371413E-001, 2.5850623E-003, 7.1192791E-004, 1.5558180E-003, 4.5346509E+002
 1.0200483E+002, 7.7793730E-003, 1.7202287E-001, 1.5402343E-001, 2.9222884E-003, 8.1127825E-004, 1.6264824E-003, 4.4763581E+002
 1.0300310E+002, 7.2341734E-003, 1.7259009E-001, 1.5432176E-001, 2.8310841E-003, 7.6731222E-004, 1.6100344E-003, 4.4977190E+002
 1.0400452E+002, 7.0455712E-003, 1.7153755E-001, 1.5498671E-001, 3.6413814E-003, 1.0219311E-003, 1.7792838E-003, 4.4333038E+002
 1.0500826E+002, 7.0634355E-003, 1.7182736E-001, 1.5485072E-001, 3.4429014E-003, 9.0647634E-004, 1.7380119E-003, 4.4238870E+002
 1.0600661E+002, 6.6019725E-003, 1.7143979E-001, 1.5550811E-001, 3.9581240E-003, 9.9828339E-004, 1.8472614E-003, 4.4356985E+002
 1.0700750E+002, 6.2845128E-003, 1.7168364E-001, 1.5571007E-001, 3.9578212E-003, 1.0340498E-003, 1.8486100E-003, 4.4736355E+002
 1.0800429E+002, 6.4699894E-003, 1.7037567E-001, 1.5612365E-001, 4.7474582E-003, 1.2357760E-003, 2.0119071E-003, 4.3665177E+002
 1.0900020E+002, 6.2408073E-003, 1.7071573E-001, 1.5618679E-001, 4.6320984E-003, 1.2617802E-003, 1.9889147E-003, 4.4293914E+002
 1.1000504E+002, 6.0604368E-003, 1.7072160E-001, 1.5639012E-001, 4.7362301E-003, 1.1947527E-003, 2.0114831E-003, 4.4078637E+002
 1.1101007E+002, 6.0355660E-003, 1.7008348E-001, 1.5671579E-001, 5.1865751E-003, 1.2825189E-003, 2.1052398E-003, 4.3807062E+002
 1.1200224E+002, 5.4747213E-003, 1.6982905E-001, 1.5735289E-001, 5.6336066E-003, 1.6059786E-003, 2.2005052E-003, 4.3279269E+002
 1.1300520E+002, 5.7636309E-003, 1.6957107E-001, 1.5719091E-001, 5.6610711E-003, 1.5587652E-003, 2.2049525E-003, 4.3579132E+002
 1.1400082E+002, 5.5817871E-003, 1.6954147E-001, 1.5741105E-001, 5.7895659E-003, 1.5021731E-003, 2.2325875E-003, 4.4175307E+002
 1.1500963E+002, 5.4928761E-003, 1.6916445E-001, 1.5765738E-001, 6.0842613E-003, 1.6507950E-003, 2.2941752E-003, 4.2951634E+002
 1.1600759E+002, 5.4067278E-003, 1.6921107E-001, 1.5773670E-001, 6.1054441E-003, 1.6016215E-003, 2.2990294E-003, 4.3239947E+002
 1.1700995E+002, 5.1887579E-003, 1.6813641E-001, 1.5841046E-001, 6.9304169E-003, 1.9895142E-003, 2.4713269E-003, 4.3042798E+002
 1.1800810E+002, 5.1283599E-003, 1.6824037E-001, 1.5846960E-001, 6.9155149E-003, 1.7967526E-003, 2.4687042E-003, 4.3071615E+002
 1.1900238E+002, 5.3203368E-003, 1.6753030E-001, 1.5855753E-001, 7.2728558E-003, 2.0694456E-003, 2.5419178E-003, 4.2862228E+002
 1.2000688E+002, 5.0694651E-003, 1.6750148E-001, 1.5881889E-001, 7.4230408E-003, 2.1370647E-003, 2.5742517E-003, 4.2457749E+002
 1.2100956E+002, 5.0694461E-003, 1.6714797E-001, 1.5898517E-001, 7.6650864E-003, 2.1844042E-003, 2.6245817E-003, 4.2456027E+002
 1.2200201E+002, 4.9693344E-003, 1.6668206E-001, 1.5928986E-001, 8.0292844E-003, 2.3257469E-003, 2.7006946E-003, 4.2269157E+002
 1.2300400E+002, 5.0318653E-003, 1.6654083E-001, 1.5928891E-001, 8.0905844E-003, 2.3512402E-003, 2.7131413E-003, 4.2454633E+002
 1.2400676E+002, 5.0351799E-003, 1.6566154E-001, 1.5968615E-001, 8.6841837E-003, 2.5204595E-003, 2.8365007E-003, 4.2166853E+002
 1.2500732E+002, 4.9002208E-003, 1.6532778E-001, 1.5995819E-001, 8.9734911E-003, 2.6727206E-003, 2.8971732E-003, 4.2172239E+002
 1.2600851E+002, 4.8738507E-003, 1.6566784E-001, 1.5985675E-001, 8.7710605E-003, 2.5035995E-003, 2.8553377E-003, 4.2477798E+002
 1.2700714E+002, 4.9799944E-003, 1.6455676E-001, 1.6024551E-001, 9.4617047E-003, 2.7416123E-003, 2.9983541E-003, 4.2381369E+002
 1.2800103E+002, 5.0762085E-003, 1.6440948E-001, 1.6019822E-001, 9.5014520E-003, 2.8232649E-003, 3.0061018E-003, 4.1944358E+002
 1.2900938E+002, 5.1124720E-003, 1.6343241E-001, 1.6053960E-001, 1.0109228E-002, 3.2754706E-003, 3.1319631E-003, 4.1979040E+002
 1.3000987E+002, 5.0139470E-003, 1.6410040E-001, 1.6036677E-001, 9.7257383E-003, 3.0343452E-003, 3.0528469E-003, 4.1828813E+002
 1.3100716E+002, 5.0060332E-003, 1.6350278E-001, 1.6063489E-001, 1.0128346E-002, 3.1997625E-003, 3.1365082E-003, 4.1897356E+002
 1.3200483E+002, 4.9910828E-003, 1.6280709E-001, 1.6101195E-001, 1.0630490E-002, 3.1557418E-003, 3.2411401E-003, 4.1855899E+002
 1.3300567E+002, 4.7790661E-003, 1.6263268E-001, 1.6124469E-001, 1.0829953E-002, 3.4687889E-003, 3.2832945E-003, 4.1924311E+002
 1.3400185E+002, 5.0534745E-003, 1.6212729E-001, 1.6109867E-001, 1.0975367E-002, 3.9189989E-003, 3.3118336E-003, 4.1696621E+002
 1.3500611E+002, 4.7838047E-003, 1.6201976E-001, 1.6150037E-001, 1.1232793E-002, 3.6616779E-003, 3.3669174E-003, 4.1801896E+002
 1.3600917E+002, 4.7676754E-003, 1.6134519E-001, 1.6181597E-001, 1.1693989E-002, 3.8267418E-003, 3.4628113E-003, 4.1371531E+002
 1.3700847E+002, 4.9227116E-003, 1.6146138E-001, 1.6150783E-001, 1.1482218E-002, 4.1746985E-003, 3.4176581E-003, 4.1576173E+002
 1.3800372E+002, 4.9163808E-003, 1.6130182E-001, 1.6166839E-001, 1.1635514E-002, 3.8794113E-003, 3.4499056E-003, 4.1391792E+002
 1.3900130E+002, 4.8594133E-003, 1.6039495E-001, 1.6209004E-001, 1.2254606E-002, 4.2607848E-003, 3.5786226E-003, 4.1622638E+002
 1.4000059E+002, 4.6767666E-003, 1.5990262E-001, 1.6248499E-001, 1.2677914E-002, 4.4414603E-003, 3.6673741E-003, 4.1342298E+002
 1.4100734E+002, 4.9824759E-003, 1.5991228E-001, 1.6219640E-001, 1.2521556E-002, 4.2904454E-003, 3.6335929E-003, 4.1175577E+002
 1.4200471E+002, 4.8796576E-003, 1.5949949E-001, 1.6247980E-001, 1.2851316E-002, 4.4212586E-003, 3.7025613E-003, 4.1282199E+002
 1.4300873E+002, 4.8209818E-003, 1.5920857E-001, 1.6260437E-001, 1.3044909E-002, 4.7570760E-003, 3.7427699E-003, 4.1193430E+002
 1.4400439E+002, 4.8120440E-003, 1.5854265E-001, 1.6285753E-001, 1.3470086E-002, 5.1249841E-003, 3.8309200E-003, 4.1227650E+002
 1.4500628E+002, 4.9766553E-003, 1.5905653E-001, 1.6250677E-001, 1.3060172E-002, 4.7994268E-003, 3.7451914E-003, 4.1369374E+002
 1.4600331E+002, 4.9799292E-003, 1.5799378E-001, 1.6295594E-001, 1.3761717E-002, 5.1312972E-003, 3.8908473E-003, 4.0772767E+002
 1.4700800E+002, 4.4661117E-003, 1.5800731E-001, 1.6342837E-001, 1.4004848E-002, 5.3755526E-003, 3.9435413E-003, 4.1283802E+002
 1.4800744E+002, 4.9226036E-003, 1.5770339E-001, 1.6315700E-001, 1.3994386E-002, 5.1531872E-003, 3.9395142E-003, 4.1264361E+002
 1.4901118E+002, 4.8282313E-003, 1.5745411E-001, 1.6328851E-001, 1.4173539E-002, 5.5275399E-003, 3.9768396E-003, 4.1116667E+002
 1.5000573E+002, 4.8594282E-003, 1.5718622E-001, 1.6341098E-001, 1.4354770E-002, 5.4458962E-003, 4.0145050E-003, 4.1018627E+002
 1.5100699E+002, 4.6823235E-003, 1.5710836E-001, 1.6361917E-001, 1.4498435E-002, 5.5148562E-003, 4.0451435E-003, 4.1632791E+002
 1.5200696E+002, 4.8460518E-003, 1.5621281E-001, 1.6382087E-001, 1.4996751E-002, 5.8250999E-003, 4.1477893E-003, 4.0843827E+002
 1.5300155E+002, 4.8508795E-003, 1.5668901E-001, 1.6370597E-001, 1.4726735E-002, 5.3030026E-003, 4.0921163E-003, 4.1218692E+002
 1.5400536E+002, 4.8971941E-003, 1.5616496E-001, 1.6380466E-001, 1.5008988E-002, 5.7710826E-003, 4.1501598E-003, 4.1147131E+002
