s,,,,,,,
Time,"O2 EXHAUST","CO2 EXHAUST","H2O EXHAUST","CO EXHAUST","FUEL EXHAUST","SOOT EXHAUST","TEMP EXHAUST"
 0.0000000E+000, 2.3099739E-001, 5.9146498E-004, 5.9412092E-003, 0.0000000E+000, 0.0000000E+000, 0.0000000E+000, 2.0000000E+001
 1.0006540E+000, 2.3099739E-001, 5.9146498E-004, 5.9412092E-003, 2.2914573E-028, 1.5697392E-027, 6.5813121E-029, 2.1160781E+001
 2.0001599E+000, 2.1991087E-001, 9.5304263E-003, 1.1588231E-002, 7.1525991E-005, 2.8020398E-004, 5.2371723E-005, 1.2648329E+002
 3.0043098E+000, 2.1109993E-001, 1.6677394E-002, 1.6088535E-002, 1.1795623E-004, 3.5476563E-004, 9.1937807E-005, 2.0303823E+002
 4.0043026E+000, 2.0418452E-001, 2.2320440E-002, 1.9610055E-002, 1.3248232E-004, 3.9843174E-004, 1.1843247E-004, 2.6227744E+002
 5.0050497E+000, 1.9385928E-001, 3.0820031E-002, 2.4867419E-002, 1.2131580E-004, 3.1678263E-004, 1.5125344E-004, 3.3780609E+002
 6.0027154E+000, 1.8007226E-001, 4.2232417E-002, 3.1875900E-002, 7.0942190E-005, 1.3797339E-004, 1.8773630E-004, 4.1561961E+002
 7.0003628E+000, 1.7222872E-001, 4.8724284E-002, 3.5861418E-002, 4.1482039E-005, 4.5999378E-005, 2.0831669E-004, 4.5068851E+002
 8.0008925E+000, 1.6240422E-001, 5.6805662E-002, 4.0859570E-002, 3.0627030E-005, 1.6640580E-006, 2.3947181E-004, 4.8578603E+002
 9.0054173E+000, 1.4874663E-001, 6.7999471E-002, 4.7812121E-002, 3.6256768E-005, 2.0934603E-007, 2.8705675E-004, 5.2408347E+002
 1.0008935E+001, 1.4230214E-001, 7.3280493E-002, 5.1092969E-002, 3.9449949E-005, 2.8405243E-007, 3.0962158E-004, 5.2715700E+002
 1.1007380E+001, 1.2815273E-001, 8.4876680E-002, 5.8295887E-002, 4.5598487E-005, 2.4391148E-007, 3.5898488E-004, 5.5663587E+002
 1.2000132E+001, 1.2104426E-001, 9.0701982E-002, 6.1914694E-002, 4.8998461E-005, 3.5085270E-007, 3.8384910E-004, 5.6088918E+002
 1.3002518E+001, 1.0973896E-001, 9.9966524E-002, 6.7670046E-002, 5.4414547E-005, 5.0894745E-007, 4.2339495E-004, 5.7282268E+002
 1.4002484E+001, 1.0456760E-001, 1.0420192E-001, 7.0303595E-002, 5.8572834E-005, 1.0991710E-006, 4.4183449E-004, 5.7223841E+002
 1.5003267E+001, 9.5704289E-002, 1.1146840E-001, 7.4814658E-002, 6.0704887E-005, 4.8791251E-007, 4.7239789E-004, 5.8126782E+002
 1.6007022E+001, 9.1359250E-002, 1.1502945E-001, 7.7026526E-002, 6.2548700E-005, 4.5281547E-007, 4.8754728E-004, 5.6982865E+002
 1.7004625E+001, 8.6920744E-002, 1.1866670E-001, 7.9286118E-002, 6.4705549E-005, 5.1703201E-007, 5.0307949E-004, 5.7495737E+002
 1.8004829E+001, 8.1663013E-002, 1.2296858E-001, 8.1965237E-002, 7.1872553E-005, 1.8084683E-006, 5.2243954E-004, 5.7451606E+002
 1.9003047E+001, 7.7838948E-002, 1.2608188E-001, 8.3919561E-002, 8.7778856E-005, 5.4696300E-006, 5.3874886E-004, 5.6969403E+002
 2.0008820E+001, 7.3982624E-002, 1.2923740E-001, 8.5884304E-002, 9.2725113E-005, 7.2461539E-006, 5.5288324E-004, 5.6910826E+002
 2.1004576E+001, 6.9431397E-002, 1.3295419E-001, 8.8206124E-002, 1.0383760E-004, 9.0411897E-006, 5.7066508E-004, 5.6937878E+002
 2.2002855E+001, 6.5783126E-002, 1.3594572E-001, 9.0062756E-002, 1.0434952E-004, 8.6378051E-006, 5.8316928E-004, 5.7234579E+002
 2.3000422E+001, 6.1825690E-002, 1.3919050E-001, 9.2076910E-002, 1.0514701E-004, 7.8143880E-006, 5.9678395E-004, 5.7270996E+002
 2.4008459E+001, 5.4313876E-002, 1.4533460E-001, 9.5905115E-002, 1.1662808E-004, 1.1333580E-005, 6.2470162E-004, 5.8032101E+002
 2.5008983E+001, 5.4662002E-002, 1.4503992E-001, 9.5731571E-002, 1.2306737E-004, 1.1913866E-005, 6.2486131E-004, 5.7122886E+002
 2.6006889E+001, 5.1849486E-002, 1.4734677E-001, 9.7162633E-002, 1.2302080E-004, 1.1573886E-005, 6.3440901E-004, 5.6995350E+002
 2.7007823E+001, 4.7551619E-002, 1.5085203E-001, 9.9357165E-002, 1.3686569E-004, 1.2787732E-005, 6.5190029E-004, 5.6958457E+002
 2.8006873E+001, 4.3322926E-002, 1.5431041E-001, 1.0151217E-001, 1.4346167E-004, 1.5743266E-005, 6.6764318E-004, 5.7253348E+002
 2.9009004E+001, 4.3274324E-002, 1.5436063E-001, 1.0153330E-001, 1.3649321E-004, 1.2764718E-005, 6.6635720E-004, 5.7205824E+002
 3.0009268E+001, 3.5887981E-002, 1.6041639E-001, 1.0529269E-001, 1.3823290E-004, 1.1739630E-005, 6.9182024E-004, 5.8053427E+002
 3.1004409E+001, 3.5680676E-002, 1.6055328E-001, 1.0541051E-001, 1.6108987E-004, 1.7026118E-005, 6.9728800E-004, 5.6735518E+002
 3.2006826E+001, 3.3100140E-002, 1.6264010E-001, 1.0673494E-001, 1.8179746E-004, 1.9833541E-005, 7.1037382E-004, 5.7549679E+002
 3.3001198E+001, 3.0720007E-002, 1.6460007E-001, 1.0794294E-001, 1.7628744E-004, 1.9133634E-005, 7.1731298E-004, 5.7110526E+002
 3.4002760E+001, 2.6659949E-002, 1.6796374E-001, 1.0999617E-001, 1.5298676E-004, 1.3837558E-005, 7.2625351E-004, 5.8124672E+002
 3.5000402E+001, 2.3822774E-002, 1.7024946E-001, 1.1145594E-001, 1.8198269E-004, 1.6263442E-005, 7.4194048E-004, 5.7540204E+002
 3.6010483E+001, 2.1915357E-002, 1.7180169E-001, 1.1243149E-001, 1.9071229E-004, 1.5723318E-005, 7.5024326E-004, 5.8040848E+002
 3.7008056E+001, 2.1216254E-002, 1.7218237E-001, 1.1286315E-001, 3.2648475E-004, 2.5446805E-005, 7.8093048E-004, 5.7034671E+002
 3.8000994E+001, 1.6988789E-002, 1.7577281E-001, 1.1496569E-001, 2.3973391E-004, 1.8659845E-005, 7.7720669E-004, 5.7699515E+002
 3.9004583E+001, 1.2450297E-002, 1.7915199E-001, 1.1741273E-001, 4.8322313E-004, 2.3228328E-005, 8.4341192E-004, 5.8649695E+002
 4.0009732E+001, 1.1503441E-002, 1.8028232E-001, 1.1775262E-001, 2.3231053E-004, 1.7616588E-005, 7.9429879E-004, 5.8027275E+002
 4.1007997E+001, 1.0898096E-002, 1.8069645E-001, 1.1809183E-001, 2.8949254E-004, 2.8027577E-005, 8.0827457E-004, 5.7995693E+002
 4.2000143E+001, 7.9678901E-003, 1.8293188E-001, 1.1965048E-001, 4.0879238E-004, 2.8661140E-005, 8.4311455E-004, 5.7815710E+002
 4.3000518E+001, 6.9320196E-003, 1.8330794E-001, 1.2036029E-001, 7.3981046E-004, 7.1987392E-005, 9.1564384E-004, 5.6947297E+002
 4.4007057E+001, 6.0761983E-003, 1.8386205E-001, 1.2086110E-001, 8.4874666E-004, 4.4021876E-005, 9.4129572E-004, 5.7226568E+002
 4.5001827E+001, 4.8480708E-003, 1.8408525E-001, 1.2180053E-001, 1.4049204E-003, 5.6074780E-005, 1.0614655E-003, 5.7641599E+002
 4.6004000E+001, 3.5929771E-003, 1.8454003E-001, 1.2267224E-001, 1.8142577E-003, 5.2035173E-005, 1.1511127E-003, 5.7730538E+002
 4.7005187E+001, 3.1585863E-003, 1.8170358E-001, 1.2404059E-001, 3.9888822E-003, 7.6773279E-004, 1.6056074E-003, 5.5542174E+002
 4.8001820E+001, 3.9409357E-003, 1.8323643E-001, 1.2287764E-001, 2.5189465E-003, 1.9770800E-004, 1.2967990E-003, 5.5683610E+002
 4.9003516E+001, 3.1764796E-003, 1.8188928E-001, 1.2403571E-001, 3.9038568E-003, 3.4225851E-004, 1.5881461E-003, 5.4708880E+002
 5.0006135E+001, 1.9144627E-003, 1.8276153E-001, 1.2473201E-001, 4.0118156E-003, 4.0042127E-004, 1.6149067E-003, 5.5068133E+002
 5.1009359E+001, 1.2744266E-003, 1.8233605E-001, 1.2543500E-001, 4.6833214E-003, 4.3478282E-004, 1.7571165E-003, 5.4815923E+002
 5.2010000E+001, 1.8076295E-003, 1.8221008E-001, 1.2504246E-001, 4.4649449E-003, 4.1169839E-004, 1.7097741E-003, 5.5325872E+002
 5.3004737E+001, 2.0910801E-003, 1.8124051E-001, 1.2516000E-001, 4.9648953E-003, 5.9246808E-004, 1.8129480E-003, 5.3938830E+002
 5.4004381E+001, 1.5009993E-003, 1.8088742E-001, 1.2576037E-001, 5.5345746E-003, 7.8345806E-004, 1.9336262E-003, 5.3768472E+002
 5.5002378E+001, 9.6755162E-004, 1.7988254E-001, 1.2656663E-001, 6.5281552E-003, 1.0243936E-003, 2.1424896E-003, 5.4047428E+002
 5.6007315E+001, 1.2213368E-003, 1.7934234E-001, 1.2654458E-001, 6.7460572E-003, 1.1599814E-003, 2.1869705E-003, 5.3114093E+002
 5.7006672E+001, 1.1505194E-003, 1.7937390E-001, 1.2662322E-001, 6.7864453E-003, 1.0008263E-003, 2.1957601E-003, 5.3446089E+002
 5.8000745E+001, 8.1068924E-004, 1.7835329E-001, 1.2724042E-001, 7.6561671E-003, 1.4050636E-003, 2.3780031E-003, 5.3131502E+002
 5.9002543E+001, 7.4610311E-004, 1.7725726E-001, 1.2772191E-001, 8.4628923E-003, 1.4842841E-003, 2.5464261E-003, 5.3198673E+002
 6.0010188E+001, 7.7412393E-004, 1.7686180E-001, 1.2779863E-001, 8.6876519E-003, 1.7818353E-003, 2.5929774E-003, 5.2551438E+002
 6.1003538E+001, 6.9188595E-004, 1.7616997E-001, 1.2811449E-001, 9.2055939E-003, 1.9462510E-003, 2.7011594E-003, 5.2252592E+002
 6.2008105E+001, 7.0255150E-004, 1.7574984E-001, 1.2828056E-001, 9.5017730E-003, 1.9202983E-003, 2.7629202E-003, 5.2233527E+002
 6.3006032E+001, 6.5678152E-004, 1.7455480E-001, 1.2875320E-001, 1.0345634E-002, 2.1645872E-003, 2.9388954E-003, 5.2115499E+002
 6.4009943E+001, 6.6776072E-004, 1.7456411E-001, 1.2874386E-001, 1.0335073E-002, 2.1463422E-003, 2.9366697E-003, 5.2087942E+002
 6.5010622E+001, 6.0670556E-004, 1.7403245E-001, 1.2895492E-001, 1.0711687E-002, 2.4218053E-003, 3.0152146E-003, 5.1830385E+002
 6.6000172E+001, 6.0651353E-004, 1.7355683E-001, 1.2911572E-001, 1.1028816E-002, 2.5797411E-003, 3.0812376E-003, 5.1362205E+002
 6.7001033E+001, 5.7821000E-004, 1.7254444E-001, 1.2947171E-001, 1.1713557E-002, 2.9644611E-003, 3.2238543E-003, 5.1809288E+002
 6.8008318E+001, 6.7067297E-004, 1.7197117E-001, 1.2956695E-001, 1.2027752E-002, 3.2580786E-003, 3.2888440E-003, 5.0934604E+002
 6.9000659E+001, 6.0017637E-004, 1.7224696E-001, 1.2962526E-001, 1.1947308E-002, 2.7061060E-003, 3.2727380E-003, 5.1467613E+002
 7.0002363E+001, 5.7047976E-004, 1.7097962E-001, 1.3001846E-001, 1.2768992E-002, 3.4254847E-003, 3.4436599E-003, 5.1246043E+002
 7.1006311E+001, 6.4992980E-004, 1.7007209E-001, 1.3020086E-001, 1.3288828E-002, 4.0131154E-003, 3.5513555E-003, 5.0821724E+002
 7.2003544E+001, 6.0890941E-004, 1.7011117E-001, 1.3017453E-001, 1.3254579E-002, 4.2378373E-003, 3.5441747E-003, 5.1277160E+002
 7.3003646E+001, 5.8974585E-004, 1.6977284E-001, 1.3037014E-001, 1.3535306E-002, 4.0244404E-003, 3.6029610E-003, 5.0705044E+002
 7.4006423E+001, 5.7360940E-004, 1.6918925E-001, 1.3048536E-001, 1.3869275E-002, 4.6947747E-003, 3.6721486E-003, 5.0681510E+002
 7.5004421E+001, 5.5207826E-004, 1.6884604E-001, 1.3067394E-001, 1.4147429E-002, 4.5363283E-003, 3.7303632E-003, 5.0932701E+002
 7.6005261E+001, 6.3995710E-004, 1.6944955E-001, 1.3043575E-001, 1.3720554E-002, 4.1387405E-003, 3.6413395E-003, 5.1128676E+002
 7.7000943E+001, 6.1720610E-004, 1.6763677E-001, 1.3098109E-001, 1.4884026E-002, 5.1702257E-003, 3.8832827E-003, 5.0532744E+002
 7.8007940E+001, 5.8484035E-004, 1.6708285E-001, 1.3118313E-001, 1.5263857E-002, 5.4152686E-003, 3.9624250E-003, 5.0543249E+002
 7.9001290E+001, 5.7797490E-004, 1.6780061E-001, 1.3101217E-001, 1.4833793E-002, 4.8490048E-003, 3.8731907E-003, 5.0581494E+002
 8.0005580E+001, 5.4471181E-004, 1.6712394E-001, 1.3125989E-001, 1.5298298E-002, 5.1175142E-003, 3.9699787E-003, 5.0465611E+002
 8.1009891E+001, 6.0111567E-004, 1.6692606E-001, 1.3124047E-001, 1.5371054E-002, 5.3771794E-003, 3.9847586E-003, 5.0214183E+002
 8.2005077E+001, 5.6533669E-004, 1.6619959E-001, 1.3153255E-001, 1.5887387E-002, 5.5352772E-003, 4.0924521E-003, 5.0369108E+002
 8.3007237E+001, 5.7283384E-004, 1.6610677E-001, 1.3152251E-001, 1.5921195E-002, 5.7412664E-003, 4.0993166E-003, 5.0346022E+002
 8.4007153E+001, 5.4887296E-004, 1.6569513E-001, 1.3166297E-001, 1.6196922E-002, 5.9713578E-003, 4.1567283E-003, 5.0618480E+002
 8.5007813E+001, 5.7608185E-004, 1.6615975E-001, 1.3141983E-001, 1.5828603E-002, 6.1333200E-003, 4.0796852E-003, 4.9772115E+002
 8.6008949E+001, 5.6225726E-004, 1.6524722E-001, 1.3175167E-001, 1.6453010E-002, 6.3763466E-003, 4.2097795E-003, 5.0762772E+002
 8.7008465E+001, 6.0649992E-004, 1.6526056E-001, 1.3172066E-001, 1.6425513E-002, 6.3185985E-003, 4.2039390E-003, 5.0390720E+002
 8.8001399E+001, 5.9561500E-004, 1.6541751E-001, 1.3166271E-001, 1.6317736E-002, 6.3368557E-003, 4.1814816E-003, 5.0228197E+002
 8.9010524E+001, 6.0820128E-004, 1.6555080E-001, 1.3167268E-001, 1.6265814E-002, 5.9652363E-003, 4.1709009E-003, 5.0741602E+002
 9.0002009E+001, 6.1486623E-004, 1.6463294E-001, 1.3183879E-001, 1.6780356E-002, 6.9604556E-003, 4.2774195E-003, 5.0812770E+002
 9.1007527E+001, 6.6613426E-004, 1.6504812E-001, 1.3167022E-001, 1.6483665E-002, 6.7489975E-003, 4.2155278E-003, 5.0378948E+002
 9.2003762E+001, 7.1049049E-004, 1.6586461E-001, 1.3135045E-001, 1.5909020E-002, 6.5114604E-003, 4.0957048E-003, 5.0471764E+002
 9.3008701E+001, 6.7041764E-004, 1.6494890E-001, 1.3164251E-001, 1.6508396E-002, 7.0696314E-003, 4.2204200E-003, 5.0377099E+002
 9.4000258E+001, 7.1125866E-004, 1.6455588E-001, 1.3175135E-001, 1.6753565E-002, 7.1480883E-003, 4.2713565E-003, 5.0692840E+002
 9.5009182E+001, 8.3102836E-004, 1.6385184E-001, 1.3190331E-001, 1.7162952E-002, 7.3078529E-003, 4.3562138E-003, 5.0099795E+002
 9.6009827E+001, 8.2207471E-004, 1.6372780E-001, 1.3185055E-001, 1.7181889E-002, 7.8591645E-003, 4.3597611E-003, 5.0094327E+002
 9.7005240E+001, 7.6590693E-004, 1.6414311E-001, 1.3175391E-001, 1.6935429E-002, 7.7391076E-003, 4.3086401E-003, 5.0523757E+002
 9.8000038E+001, 7.6842158E-004, 1.6475868E-001, 1.3152128E-001, 1.6508404E-002, 7.6475751E-003, 4.2196350E-003, 5.0854561E+002
 9.9002061E+001, 7.7011296E-004, 1.6434359E-001, 1.3179188E-001, 1.6873069E-002, 7.1272568E-003, 4.2960990E-003, 5.0703986E+002
 1.0000882E+002, 8.8832679E-004, 1.6393519E-001, 1.3179884E-001, 1.7054955E-002, 7.4208057E-003, 4.3334044E-003, 5.0729533E+002
 1.0100689E+002, 9.5730755E-004, 1.6256857E-001, 1.3203103E-001, 1.7809895E-002, 8.7303701E-003, 4.4896066E-003, 5.0582589E+002
 1.0200991E+002, 1.1581968E-003, 1.6279017E-001, 1.3183910E-001, 1.7579904E-002, 8.3984780E-003, 4.4412132E-003, 5.0000999E+002
 1.0301038E+002, 1.0017788E-003, 1.6247581E-001, 1.3214054E-001, 1.7923774E-002, 8.1842629E-003, 4.5136368E-003, 5.0616111E+002
 1.0400055E+002, 1.0819706E-003, 1.6239211E-001, 1.3187600E-001, 1.7780615E-002, 9.3374542E-003, 4.4825992E-003, 5.0463738E+002
 1.0500221E+002, 1.1125610E-003, 1.6281447E-001, 1.3176820E-001, 1.7522123E-002, 8.8949031E-003, 4.4289268E-003, 5.0588157E+002
 1.0600757E+002, 1.2638755E-003, 1.6256187E-001, 1.3184638E-001, 1.7683218E-002, 8.3795602E-003, 4.4624181E-003, 4.9609890E+002
 1.0700316E+002, 1.2836318E-003, 1.6265413E-001, 1.3175579E-001, 1.7581289E-002, 8.5626873E-003, 4.4409469E-003, 4.9881749E+002
 1.0800875E+002, 1.2458073E-003, 1.6204804E-001, 1.3194559E-001, 1.7975820E-002, 8.9970685E-003, 4.5230252E-003, 4.9952231E+002
 1.0900842E+002, 1.2011292E-003, 1.6335478E-001, 1.3158077E-001, 1.7157218E-002, 8.3685661E-003, 4.3529274E-003, 5.0458747E+002
 1.1000555E+002, 1.0785553E-003, 1.6303134E-001, 1.3190352E-001, 1.7518911E-002, 7.9242679E-003, 4.4291341E-003, 5.1208817E+002
 1.1100719E+002, 1.2575545E-003, 1.6028599E-001, 1.3236847E-001, 1.9033832E-002, 1.0392802E-002, 4.7425685E-003, 5.0131329E+002
 1.1201170E+002, 1.3233486E-003, 1.6146667E-001, 1.3207027E-001, 1.8313687E-002, 9.2226124E-003, 4.5930565E-003, 4.9683551E+002
 1.1300266E+002, 1.2194557E-003, 1.6114878E-001, 1.3234950E-001, 1.8643266E-002, 8.9060390E-003, 4.6624013E-003, 5.0304505E+002
 1.1400827E+002, 1.2426328E-003, 1.6164920E-001, 1.3199104E-001, 1.8181465E-002, 9.5884212E-003, 4.5654651E-003, 5.0881279E+002
 1.1500972E+002, 1.1775543E-003, 1.6199416E-001, 1.3186157E-001, 1.7943845E-002, 9.8116601E-003, 4.5159484E-003, 5.0760295E+002
 1.1600843E+002, 1.3384743E-003, 1.6220700E-001, 1.3183806E-001, 1.7832020E-002, 8.8243271E-003, 4.4928523E-003, 5.0460851E+002
 1.1700178E+002, 1.2985626E-003, 1.6210394E-001, 1.3178159E-001, 1.7839751E-002, 9.4816607E-003, 4.4940845E-003, 5.1296093E+002
 1.1800730E+002, 1.5089713E-003, 1.5965681E-001, 1.3250383E-001, 1.9397046E-002, 9.9320236E-003, 4.8178347E-003, 5.0272478E+002
 1.1900086E+002, 1.8014837E-003, 1.6005816E-001, 1.3215112E-001, 1.8978203E-002, 9.6556621E-003, 4.7296959E-003, 4.9707850E+002
 1.2000879E+002, 1.4843603E-003, 1.6075860E-001, 1.3225475E-001, 1.8746120E-002, 9.0551477E-003, 4.6828371E-003, 5.0418096E+002
 1.2100116E+002, 1.5337291E-003, 1.6011631E-001, 1.3234044E-001, 1.9084834E-002, 9.7165175E-003, 4.7527989E-003, 5.0729310E+002
 1.2200017E+002, 1.5853289E-003, 1.5928683E-001, 1.3247508E-001, 1.9538656E-002, 1.0501903E-002, 4.8466646E-003, 5.0065030E+002
 1.2300762E+002, 1.4316973E-003, 1.6162120E-001, 1.3199414E-001, 1.8192765E-002, 8.8362723E-003, 4.5677700E-003, 5.0643674E+002
 1.2401096E+002, 1.4267506E-003, 1.6036591E-001, 1.3231901E-001, 1.8962651E-002, 9.7685584E-003, 4.7276367E-003, 5.0403974E+002
 1.2500893E+002, 1.4638237E-003, 1.5972846E-001, 1.3222580E-001, 1.9178684E-002, 1.1364921E-002, 4.7713177E-003, 5.0571093E+002
 1.2600295E+002, 1.5435318E-003, 1.5915754E-001, 1.3246005E-001, 1.9585888E-002, 1.1013253E-002, 4.8562569E-003, 5.0790139E+002
 1.2700740E+002, 1.4970082E-003, 1.5933679E-001, 1.3254931E-001, 1.9568283E-002, 1.0401064E-002, 4.8532235E-003, 5.0514935E+002
 1.2800738E+002, 1.5214803E-003, 1.5936463E-001, 1.3247933E-001, 1.9508435E-002, 1.0591579E-002, 4.8405077E-003, 5.0820899E+002
 1.2900551E+002, 1.6356000E-003, 1.5856343E-001, 1.3266433E-001, 1.9982834E-002, 1.0806164E-002, 4.9389011E-003, 5.0206610E+002
 1.3000336E+002, 1.6619868E-003, 1.5844889E-001, 1.3279166E-001, 2.0118581E-002, 1.0290961E-002, 4.9675297E-003, 5.0369099E+002
 1.3100162E+002, 1.7252599E-003, 1.5753731E-001, 1.3301836E-001, 2.0670353E-002, 1.0733513E-002, 5.0820553E-003, 4.9969128E+002
 1.3200285E+002, 1.7075983E-003, 1.5658242E-001, 1.3325235E-001, 2.1247353E-002, 1.1566636E-002, 5.2018113E-003, 4.9764704E+002
 1.3300567E+002, 1.6422528E-003, 1.5734705E-001, 1.3319064E-001, 2.0871428E-002, 1.0605670E-002, 5.1243777E-003, 5.0291602E+002
 1.3400932E+002, 1.5015097E-003, 1.5671250E-001, 1.3345969E-001, 2.1333608E-002, 1.1133570E-002, 5.2208424E-003, 5.0936396E+002
 1.3500048E+002, 1.7313064E-003, 1.5639473E-001, 1.3321678E-001, 2.1305276E-002, 1.2023504E-002, 5.2134536E-003, 5.0192668E+002
 1.3601072E+002, 1.8534901E-003, 1.5622658E-001, 1.3329597E-001, 2.1430485E-002, 1.1454938E-002, 5.2396005E-003, 5.0003888E+002
 1.3700562E+002, 1.6412686E-003, 1.5782438E-001, 1.3311749E-001, 2.0612732E-002, 1.0011627E-002, 5.0708889E-003, 5.0829203E+002
 1.3801178E+002, 1.7990443E-003, 1.5626803E-001, 1.3347969E-001, 2.1537203E-002, 1.0682466E-002, 5.2626511E-003, 5.0323008E+002
 1.3901241E+002, 1.7068876E-003, 1.5694656E-001, 1.3333012E-001, 2.1140165E-002, 1.0446412E-002, 5.1803359E-003, 5.1048485E+002
 1.4001021E+002, 1.9761539E-003, 1.5495987E-001, 1.3370403E-001, 2.2259451E-002, 1.1459601E-002, 5.4120849E-003, 5.0629827E+002
 1.4100076E+002, 1.9075117E-003, 1.5630763E-001, 1.3342244E-001, 2.1479430E-002, 1.0433309E-002, 5.2504278E-003, 5.0607215E+002
 1.4200276E+002, 2.0511913E-003, 1.5463415E-001, 1.3373087E-001, 2.2419198E-002, 1.1668135E-002, 5.4449861E-003, 5.0009986E+002
 1.4300454E+002, 1.7724435E-003, 1.5593770E-001, 1.3364109E-001, 2.1791446E-002, 1.0654992E-002, 5.3157927E-003, 5.0619777E+002
 1.4400556E+002, 1.8524209E-003, 1.5649512E-001, 1.3336584E-001, 2.1359897E-002, 1.0568582E-002, 5.2255768E-003, 5.0485868E+002
 1.4500140E+002, 1.8808891E-003, 1.5496570E-001, 1.3382048E-001, 2.2337045E-002, 1.1266128E-002, 5.4287448E-003, 4.9973746E+002
 1.4601005E+002, 1.9255633E-003, 1.5456398E-001, 1.3405162E-001, 2.2668517E-002, 1.0735542E-002, 5.4981475E-003, 5.0626921E+002
 1.4700315E+002, 1.9287578E-003, 1.5438056E-001, 1.3377510E-001, 2.2562257E-002, 1.2472790E-002, 5.4746094E-003, 5.0455421E+002
 1.4800797E+002, 1.9793782E-003, 1.5433551E-001, 1.3403664E-001, 2.2757727E-002, 1.1045627E-002, 5.5163286E-003, 4.9993421E+002
 1.4901202E+002, 2.1789296E-003, 1.5489429E-001, 1.3376323E-001, 2.2324884E-002, 1.0445623E-002, 5.4258396E-003, 4.9989901E+002
 1.5001075E+002, 1.8615745E-003, 1.5500926E-001, 1.3383917E-001, 2.2330877E-002, 1.1165924E-002, 5.4276026E-003, 5.0699708E+002
 1.5100788E+002, 1.9831653E-003, 1.5440594E-001, 1.3395308E-001, 2.2670377E-002, 1.1304750E-002, 5.4978929E-003, 5.0020860E+002
 1.5200149E+002, 1.9347113E-003, 1.5419058E-001, 1.3409762E-001, 2.2863175E-002, 1.1221118E-002, 5.5383367E-003, 5.0380999E+002
 1.5300120E+002, 1.7116486E-003, 1.5509005E-001, 1.3411573E-001, 2.2484558E-002, 1.0251187E-002, 5.4608847E-003, 5.0734291E+002
 1.5400401E+002, 1.6811258E-003, 1.5459620E-001, 1.3421209E-001, 2.2766669E-002, 1.0894897E-002, 5.5193255E-003, 5.0457665E+002
