s,,,,,,,
Time,"O2 EXHAUST","CO2 EXHAUST","H2O EXHAUST","CO EXHAUST","FUEL EXHAUST","SOOT EXHAUST","TEMP EXHAUST"
 0.0000000E+000, 2.3099739E-001, 5.9146498E-004, 5.9412092E-003, 0.0000000E+000, 0.0000000E+000, 0.0000000E+000, 2.0000000E+001
 1.0051199E+000, 2.3099739E-001, 5.9146498E-004, 5.9412092E-003, 2.4423770E-035, 1.1085349E-033, 9.2204407E-036, 2.0257267E+001
 2.0026688E+000, 2.2494373E-001, 5.3150414E-003, 9.8798995E-003, 4.9310071E-006, 1.8358169E-004, 2.8461139E-005, 8.3267970E+001
 3.0034025E+000, 2.2156296E-001, 7.9640791E-003, 1.2099324E-002, 1.2905776E-005, 1.8427474E-004, 4.5539056E-005, 1.1496254E+002
 4.0026223E+000, 2.1669011E-001, 1.1775245E-002, 1.5282832E-002, 1.9609126E-005, 2.6139078E-004, 6.9086584E-005, 1.6190541E+002
 5.0043813E+000, 2.1338465E-001, 1.4362327E-002, 1.7444988E-002, 2.4711794E-005, 2.9942509E-004, 8.5189407E-005, 1.9251977E+002
 6.0039972E+000, 2.0946866E-001, 1.7435918E-002, 2.0013979E-002, 3.0760685E-005, 2.9691927E-004, 1.0431739E-004, 2.2466364E+002
 7.0015038E+000, 2.0535532E-001, 2.0670400E-002, 2.2711064E-002, 3.3783380E-005, 2.8768070E-004, 1.2372991E-004, 2.5957480E+002
 8.0012833E+000, 2.0145714E-001, 2.3748369E-002, 2.5270757E-002, 3.2960989E-005, 2.3846521E-004, 1.4140989E-004, 2.8750118E+002
 9.0045053E+000, 1.9768091E-001, 2.6730033E-002, 2.7750950E-002, 3.2463894E-005, 1.8852237E-004, 1.5860092E-004, 3.1097977E+002
 1.0003781E+001, 1.9168901E-001, 3.1463441E-002, 3.1686185E-002, 3.0578136E-005, 1.0539400E-004, 1.8565663E-004, 3.4683048E+002
 1.1004751E+001, 1.8692303E-001, 3.5227527E-002, 3.4815424E-002, 2.9027880E-005, 4.4546329E-005, 2.0716094E-004, 3.7009214E+002
 1.2006064E+001, 1.8143196E-001, 3.9554912E-002, 3.8417255E-002, 2.9577300E-005, 7.3680809E-006, 2.3238342E-004, 3.9307431E+002
 1.3002617E+001, 1.7768127E-001, 4.2505340E-002, 4.0875497E-002, 3.1307106E-005, 9.4566835E-007, 2.4987084E-004, 4.0199300E+002
 1.4006602E+001, 1.7341672E-001, 4.5858153E-002, 4.3669856E-002, 3.3737746E-005, 2.8587573E-008, 2.6984293E-004, 4.1427482E+002
 1.5007141E+001, 1.6679713E-001, 5.1062088E-002, 4.8007221E-002, 3.7624771E-005, 1.7809361E-008, 3.0086635E-004, 4.3475740E+002
 1.6003772E+001, 1.6425441E-001, 5.3061030E-002, 4.9673291E-002, 3.9115459E-005, 2.0661267E-008, 3.1278259E-004, 4.3582255E+002
 1.7002459E+001, 1.5909162E-001, 5.7119735E-002, 5.3056110E-002, 4.2135681E-005, 1.3644419E-008, 3.3697624E-004, 4.4147728E+002
 1.8003797E+001, 1.5567155E-001, 5.9808376E-002, 5.5297053E-002, 4.4154114E-005, 2.7959503E-008, 3.5300684E-004, 4.4828301E+002
 1.9000125E+001, 1.5037544E-001, 6.3971903E-002, 5.8767222E-002, 4.7243524E-005, 1.6815565E-008, 3.7782344E-004, 4.5810486E+002
 2.0001592E+001, 1.4682051E-001, 6.6766583E-002, 6.1096528E-002, 4.9332263E-005, 2.3683336E-008, 3.9448428E-004, 4.5881606E+002
 2.1005734E+001, 1.4293097E-001, 6.9824316E-002, 6.3645075E-002, 5.1612203E-005, 1.9557735E-008, 4.1271220E-004, 4.5945857E+002
 2.2005181E+001, 1.4004060E-001, 7.2096576E-002, 6.5538936E-002, 5.3300341E-005, 1.7854750E-008, 4.2625639E-004, 4.5962760E+002
 2.3006720E+001, 1.3682016E-001, 7.4628300E-002, 6.7649069E-002, 5.5189929E-005, 1.9970152E-008, 4.4134903E-004, 4.5834420E+002
 2.4001776E+001, 1.3417026E-001, 7.6711492E-002, 6.9385364E-002, 5.6745964E-005, 2.4536523E-008, 4.5376805E-004, 4.5923223E+002
 2.5003492E+001, 1.3006219E-001, 7.9941014E-002, 7.2077106E-002, 5.9162118E-005, 3.4465508E-008, 4.7302177E-004, 4.6491126E+002
 2.6005298E+001, 1.2781151E-001, 8.1710379E-002, 7.3551824E-002, 6.0478815E-005, 2.5625102E-008, 4.8356885E-004, 4.6078137E+002
 2.7003703E+001, 1.2444789E-001, 8.4354687E-002, 7.5755759E-002, 6.2434612E-005, 1.5148649E-008, 4.9932882E-004, 4.6289252E+002
 2.8003671E+001, 1.2231572E-001, 8.6030870E-002, 7.7152826E-002, 6.3689030E-005, 2.1773786E-008, 5.0932196E-004, 4.6300665E+002
 2.9003440E+001, 1.2078831E-001, 8.7231634E-002, 7.8153633E-002, 6.4584097E-005, 1.7068266E-008, 5.1647996E-004, 4.5674905E+002
 3.0007099E+001, 1.1786120E-001, 8.9532784E-002, 8.0071564E-002, 6.6288828E-005, 1.3703199E-008, 5.3019531E-004, 4.5725970E+002
 3.1006122E+001, 1.1463493E-001, 9.2069071E-002, 8.2185521E-002, 6.8192717E-005, 2.5218435E-008, 5.4531748E-004, 4.5948445E+002
 3.2005770E+001, 1.1092680E-001, 9.4984192E-002, 8.4615205E-002, 7.0367201E-005, 2.1410807E-008, 5.6269544E-004, 4.6300293E+002
 3.3007508E+001, 1.0940283E-001, 9.6182265E-002, 8.5613751E-002, 7.1250988E-005, 2.1796596E-008, 5.6983541E-004, 4.5773583E+002
 3.4001986E+001, 1.0565513E-001, 9.9128475E-002, 8.8069368E-002, 7.3460241E-005, 2.5671274E-008, 5.8740117E-004, 4.6175135E+002
 3.5001319E+001, 1.0329263E-001, 1.0098571E-001, 8.9617366E-002, 7.4866546E-005, 4.9288690E-008, 5.9847720E-004, 4.6335340E+002
 3.6009415E+001, 1.0126643E-001, 1.0257864E-001, 9.0944979E-002, 7.6025703E-005, 2.0148017E-008, 6.0796693E-004, 4.6326456E+002
 3.7003197E+001, 9.9214919E-002, 1.0419141E-001, 9.2289195E-002, 7.7231077E-005, 2.7252383E-008, 6.1758171E-004, 4.5758937E+002
 3.8007257E+001, 9.6220821E-002, 1.0654521E-001, 9.4251019E-002, 7.8981688E-005, 2.5406046E-008, 6.3161233E-004, 4.6074811E+002
 3.9008134E+001, 9.4149602E-002, 1.0817346E-001, 9.5608155E-002, 8.0209240E-005, 3.7849436E-008, 6.4132164E-004, 4.5882764E+002
 4.0006352E+001, 9.1099095E-002, 1.1057158E-001, 9.7606951E-002, 8.2010358E-005, 4.3818041E-008, 6.5562020E-004, 4.6243288E+002
 4.1006317E+001, 8.9639188E-002, 1.1171931E-001, 9.8563513E-002, 8.2843837E-005, 3.0793694E-008, 6.6245733E-004, 4.5743913E+002
 4.2004363E+001, 8.7145860E-002, 1.1367943E-001, 1.0019722E-001, 8.4303844E-005, 3.2910957E-008, 6.7414174E-004, 4.5937683E+002
 4.3007711E+001, 8.4104598E-002, 1.1607024E-001, 1.0218997E-001, 8.6120073E-005, 5.8779162E-008, 6.8840119E-004, 4.6376118E+002
 4.4003123E+001, 8.2675175E-002, 1.1719395E-001, 1.0312658E-001, 8.6976192E-005, 5.8658960E-008, 6.9510379E-004, 4.5956375E+002
 4.5002007E+001, 8.0723659E-002, 1.1872603E-001, 1.0440607E-001, 8.9439965E-005, 1.0979860E-006, 7.0452025E-004, 4.5787574E+002
 4.6002539E+001, 7.9040793E-002, 1.2004384E-001, 1.0551067E-001, 9.3680796E-005, 3.8186460E-006, 7.1307459E-004, 4.5779598E+002
 4.7005921E+001, 7.6297668E-002, 1.2219503E-001, 1.0731016E-001, 9.8687684E-005, 6.0929491E-006, 7.2662799E-004, 4.6185409E+002
 4.8005431E+001, 7.4771075E-002, 1.2338676E-001, 1.0831368E-001, 1.0492146E-004, 1.0032309E-005, 7.3487825E-004, 4.5779778E+002
 4.9003420E+001, 7.2254582E-002, 1.2533635E-001, 1.0997403E-001, 1.2485276E-004, 2.2185373E-005, 7.5046199E-004, 4.5923256E+002
 5.0005197E+001, 7.1064646E-002, 1.2627312E-001, 1.1075292E-001, 1.2457235E-004, 2.2702471E-005, 7.5583644E-004, 4.5684779E+002
 5.1004236E+001, 6.8890954E-002, 1.2795323E-001, 1.1218832E-001, 1.4412669E-004, 3.6187204E-005, 7.6977600E-004, 4.5686223E+002
 5.2004166E+001, 6.6856053E-002, 1.2952211E-001, 1.1353311E-001, 1.6469918E-004, 5.2618002E-005, 7.8328860E-004, 4.5530404E+002
 5.3000610E+001, 6.4418575E-002, 1.3141374E-001, 1.1513998E-001, 1.8188977E-004, 6.3233426E-005, 7.9794843E-004, 4.5980421E+002
 5.4003662E+001, 6.2947300E-002, 1.3255829E-001, 1.1610701E-001, 1.8959224E-004, 7.5610982E-005, 8.0623989E-004, 4.5977658E+002
 5.5004766E+001, 6.1548086E-002, 1.3362929E-001, 1.1703475E-001, 2.0870113E-004, 9.0420847E-005, 8.1655030E-004, 4.5609208E+002
 5.6007436E+001, 6.0177658E-002, 1.3469685E-001, 1.1793612E-001, 2.1554980E-004, 9.6528199E-005, 8.2421200E-004, 4.6217857E+002
 5.7006790E+001, 5.7591411E-002, 1.3670467E-001, 1.1964041E-001, 2.3313303E-004, 1.0887946E-004, 8.3963013E-004, 4.6369775E+002
 5.8007262E+001, 5.6013159E-002, 1.3791456E-001, 1.2068599E-001, 2.5343695E-004, 1.2532098E-004, 8.5100249E-004, 4.5889806E+002
 5.9002548E+001, 5.4772983E-002, 1.3886518E-001, 1.2150712E-001, 2.6919161E-004, 1.4038105E-004, 8.5989533E-004, 4.5566314E+002
 6.0001968E+001, 5.3200434E-002, 1.4009083E-001, 1.2254103E-001, 2.7656532E-004, 1.4763506E-004, 8.6858682E-004, 4.5783563E+002
 6.1002916E+001, 5.1212610E-002, 1.4163545E-001, 1.2384923E-001, 2.8858942E-004, 1.6133592E-004, 8.8012580E-004, 4.5736365E+002
 6.2000665E+001, 4.9877994E-002, 1.4263941E-001, 1.2474233E-001, 3.1871478E-004, 1.7819248E-004, 8.9240928E-004, 4.5880618E+002
 6.3008432E+001, 4.8998458E-002, 1.4333527E-001, 1.2531436E-001, 3.1511827E-004, 1.8640075E-004, 8.9567511E-004, 4.5770402E+002
 6.4001772E+001, 4.7442611E-002, 1.4453440E-001, 1.2634238E-001, 3.3093186E-004, 2.0053511E-004, 9.0602229E-004, 4.5664131E+002
 6.5002555E+001, 4.5382688E-002, 1.4612774E-001, 1.2770276E-001, 3.4900814E-004, 2.1050374E-004, 9.1914155E-004, 4.5927555E+002
 6.6008448E+001, 4.4037769E-002, 1.4717980E-001, 1.2858624E-001, 3.5324011E-004, 2.1207543E-004, 9.2615235E-004, 4.5811033E+002
 6.7006015E+001, 4.1743891E-002, 1.4894397E-001, 1.3010565E-001, 3.8012169E-004, 2.2553712E-004, 9.4215058E-004, 4.5932393E+002
 6.8006286E+001, 4.0791956E-002, 1.4964440E-001, 1.3074701E-001, 4.1069731E-004, 2.5186017E-004, 9.5276970E-004, 4.5791896E+002
 6.9005474E+001, 4.0180564E-002, 1.5014225E-001, 1.3113918E-001, 3.9920525E-004, 2.5088449E-004, 9.5319393E-004, 4.5525359E+002
 7.0004347E+001, 3.7507609E-002, 1.5221276E-001, 1.3290477E-001, 4.2152681E-004, 2.5631764E-004, 9.6999166E-004, 4.6143547E+002
 7.1002277E+001, 3.6496451E-002, 1.5302161E-001, 1.3355984E-001, 4.1219763E-004, 2.5812228E-004, 9.7268384E-004, 4.6083498E+002
 7.2009237E+001, 3.4981382E-002, 1.5416204E-001, 1.3457374E-001, 4.4610387E-004, 2.7557689E-004, 9.8656970E-004, 4.5885802E+002
 7.3005555E+001, 3.4071947E-002, 1.5486081E-001, 1.3517615E-001, 4.5706322E-004, 2.8217647E-004, 9.9297326E-004, 4.5744963E+002
 7.4008490E+001, 3.1842472E-002, 1.5652328E-001, 1.3667882E-001, 5.1929814E-004, 2.9683690E-004, 1.0159615E-003, 4.6299749E+002
 7.5004030E+001, 3.0831030E-002, 1.5725615E-001, 1.3736880E-001, 5.6111213E-004, 3.1354856E-004, 1.0291783E-003, 4.6208568E+002
 7.6002171E+001, 2.9989713E-002, 1.5789139E-001, 1.3793035E-001, 5.7833214E-004, 3.2517527E-004, 1.0365557E-003, 4.5675423E+002
 7.7003100E+001, 2.8942585E-002, 1.5873869E-001, 1.3860406E-001, 5.6204152E-004, 3.2614582E-004, 1.0379784E-003, 4.5572699E+002
 7.8001617E+001, 2.6199733E-002, 1.6079783E-001, 1.4045201E-001, 6.3214900E-004, 3.1910189E-004, 1.0649557E-003, 4.6381271E+002
 7.9002840E+001, 2.5180914E-002, 1.6157162E-001, 1.4112792E-001, 6.4891926E-004, 3.4054265E-004, 1.0730404E-003, 4.6423700E+002
 8.0007051E+001, 2.4737216E-002, 1.6194182E-001, 1.4140571E-001, 6.3320195E-004, 3.4917962E-004, 1.0718182E-003, 4.6419692E+002
 8.1007672E+001, 2.3186112E-002, 1.6303280E-001, 1.4248241E-001, 7.2124378E-004, 3.6682015E-004, 1.0970241E-003, 4.6336078E+002
 8.2007836E+001, 2.2368484E-002, 1.6363152E-001, 1.4303761E-001, 7.5098003E-004, 3.7786544E-004, 1.1068732E-003, 4.6015990E+002
 8.3001982E+001, 2.1839169E-002, 1.6406207E-001, 1.4337243E-001, 7.3883844E-004, 3.9681884E-004, 1.1067678E-003, 4.6016262E+002
 8.4008549E+001, 2.0155357E-002, 1.6528685E-001, 1.4452225E-001, 8.0696787E-004, 4.1036386E-004, 1.1284806E-003, 4.5927434E+002
 8.5005960E+001, 1.8844764E-002, 1.6626610E-001, 1.4540884E-001, 8.4434619E-004, 4.0197101E-004, 1.1421757E-003, 4.6075760E+002
 8.6005581E+001, 1.8151714E-002, 1.6676220E-001, 1.4588503E-001, 8.7739554E-004, 4.1200018E-004, 1.1521397E-003, 4.6111411E+002
 8.7000819E+001, 1.6410178E-002, 1.6798163E-001, 1.4710084E-001, 9.8218197E-004, 4.1519983E-004, 1.1816809E-003, 4.6252746E+002
 8.8000101E+001, 1.6477856E-002, 1.6807518E-001, 1.4698363E-001, 8.8059117E-004, 4.1054206E-004, 1.1604420E-003, 4.5829433E+002
 8.9001705E+001, 1.3742722E-002, 1.6983612E-001, 1.4896259E-001, 1.1482724E-003, 4.4880473E-004, 1.2280503E-003, 4.6646626E+002
 9.0008982E+001, 1.4633634E-002, 1.6907242E-001, 1.4840018E-001, 1.1864232E-003, 4.9130985E-004, 1.2317996E-003, 4.5765833E+002
 9.1002725E+001, 1.3254136E-002, 1.7019744E-001, 1.4929198E-001, 1.1632739E-003, 4.5774260E-004, 1.2333629E-003, 4.6119018E+002
 9.2007997E+001, 1.2209096E-002, 1.7062371E-001, 1.5016568E-001, 1.4336963E-003, 4.9960110E-004, 1.2938159E-003, 4.5768236E+002
 9.3008543E+001, 1.1358929E-002, 1.7135794E-001, 1.5069246E-001, 1.3898443E-003, 4.8773556E-004, 1.2886734E-003, 4.6412833E+002
 9.4001527E+001, 1.1050832E-002, 1.7170671E-001, 1.5083977E-001, 1.3154424E-003, 4.9100993E-004, 1.2747446E-003, 4.5453309E+002
 9.5004720E+001, 9.5679587E-003, 1.7165240E-001, 1.5238691E-001, 2.1451668E-003, 6.5104633E-004, 1.4523274E-003, 4.5783075E+002
 9.6001952E+001, 9.0682248E-003, 1.7224330E-001, 1.5262746E-001, 2.0142435E-003, 5.9890154E-004, 1.4276846E-003, 4.5253748E+002
 9.7004840E+001, 8.5571089E-003, 1.7216744E-001, 1.5318042E-001, 2.3353511E-003, 6.9069569E-004, 1.4960920E-003, 4.5613785E+002
 9.8007664E+001, 8.5355986E-003, 1.7183420E-001, 1.5336623E-001, 2.5765770E-003, 7.1035672E-004, 1.5458789E-003, 4.5177775E+002
 9.9001778E+001, 8.2170404E-003, 1.7237380E-001, 1.5343439E-001, 2.3781917E-003, 6.8914518E-004, 1.5064744E-003, 4.5105611E+002
 1.0000517E+002, 7.7507367E-003, 1.7254724E-001, 1.5383998E-001, 2.5142364E-003, 6.7856616E-004, 1.5366493E-003, 4.5149597E+002
 1.0101070E+002, 7.3753904E-003, 1.7208158E-001, 1.5443937E-001, 3.0285134E-003, 8.0005190E-004, 1.6442120E-003, 4.5088262E+002
 1.0200465E+002, 6.7291162E-003, 1.7226472E-001, 1.5501018E-001, 3.2466167E-003, 8.6643113E-004, 1.6920372E-003, 4.4827605E+002
 1.0300100E+002, 6.9080427E-003, 1.7219556E-001, 1.5484990E-001, 3.1931916E-003, 8.9440269E-004, 1.6801814E-003, 4.5173059E+002
 1.0401055E+002, 6.5830383E-003, 1.7221093E-001, 1.5519590E-001, 3.3665924E-003, 8.4652780E-004, 1.7174485E-003, 4.4673570E+002
 1.0500478E+002, 6.9485425E-003, 1.7190631E-001, 1.5494455E-001, 3.3679222E-003, 9.2909703E-004, 1.7159667E-003, 4.4444857E+002
 1.0600449E+002, 6.6912224E-003, 1.7127254E-001, 1.5549511E-001, 3.9297261E-003, 1.0886480E-003, 1.8327442E-003, 4.4239240E+002
 1.0700646E+002, 6.4637541E-003, 1.7112079E-001, 1.5579982E-001, 4.1542934E-003, 1.1330944E-003, 1.8800125E-003, 4.3596992E+002
 1.0801014E+002, 6.0822458E-003, 1.7027859E-001, 1.5656167E-001, 4.9167332E-003, 1.3907750E-003, 2.0385986E-003, 4.3410729E+002
 1.0900668E+002, 5.7352629E-003, 1.7039441E-001, 1.5687090E-001, 5.0275617E-003, 1.3799075E-003, 2.0630326E-003, 4.4159047E+002
 1.1000262E+002, 5.7935467E-003, 1.6986875E-001, 1.5706489E-001, 5.3564741E-003, 1.4194462E-003, 2.1305039E-003, 4.3458012E+002
 1.1100585E+002, 5.5360205E-003, 1.7059793E-001, 1.5698243E-001, 4.9974028E-003, 1.3613278E-003, 2.0577471E-003, 4.3828998E+002
 1.1200666E+002, 5.6335102E-003, 1.6964573E-001, 1.5732126E-001, 5.5869117E-003, 1.5175095E-003, 2.1786174E-003, 4.3300538E+002
 1.1300332E+002, 5.5444282E-003, 1.6971886E-001, 1.5735030E-001, 5.5706598E-003, 1.6289321E-003, 2.1755576E-003, 4.3029940E+002
 1.1400054E+002, 5.5877871E-003, 1.6885274E-001, 1.5767478E-001, 6.1157137E-003, 1.8969458E-003, 2.2873962E-003, 4.3541361E+002
 1.1500293E+002, 5.4688213E-003, 1.6900206E-001, 1.5770880E-001, 6.0689115E-003, 1.9603065E-003, 2.2782280E-003, 4.2708483E+002
 1.1600678E+002, 5.3393695E-003, 1.6921857E-001, 1.5779204E-001, 6.0177981E-003, 1.7343979E-003, 2.2685244E-003, 4.3253174E+002
 1.1700811E+002, 5.1036098E-003, 1.6810359E-001, 1.5853423E-001, 6.8882425E-003, 2.0079671E-003, 2.4486848E-003, 4.3153275E+002
 1.1800869E+002, 5.0829584E-003, 1.6722954E-001, 1.5893423E-001, 7.4760127E-003, 2.2591304E-003, 2.5696360E-003, 4.2785771E+002
 1.1900147E+002, 5.1222416E-003, 1.6696857E-001, 1.5899094E-001, 7.6190137E-003, 2.3940153E-003, 2.5987827E-003, 4.2560607E+002
 1.2000141E+002, 5.2370361E-003, 1.6729182E-001, 1.5875665E-001, 7.3563610E-003, 2.1953936E-003, 2.5443432E-003, 4.2804956E+002
 1.2100008E+002, 4.9860932E-003, 1.6654924E-001, 1.5935402E-001, 7.9897131E-003, 2.3603961E-003, 2.6758298E-003, 4.2775323E+002
 1.2200475E+002, 5.1192885E-003, 1.6573711E-001, 1.5952399E-001, 8.4312759E-003, 2.7599803E-003, 2.7657931E-003, 4.2168706E+002
 1.2301013E+002, 4.6431296E-003, 1.6611369E-001, 1.5990426E-001, 8.4653453E-003, 2.4814321E-003, 2.7752815E-003, 4.2544417E+002
 1.2400895E+002, 4.9642814E-003, 1.6519654E-001, 1.5993224E-001, 8.8784412E-003, 2.8701194E-003, 2.8585321E-003, 4.2206347E+002
 1.2500716E+002, 5.1380715E-003, 1.6453396E-001, 1.6003246E-001, 9.2183257E-003, 3.0755538E-003, 2.9275620E-003, 4.2094934E+002
 1.2600288E+002, 4.9060645E-003, 1.6427067E-001, 1.6044489E-001, 9.5467975E-003, 2.9326698E-003, 2.9964601E-003, 4.2099918E+002
 1.2700547E+002, 5.0318706E-003, 1.6414424E-001, 1.6032376E-001, 9.5390955E-003, 3.1436978E-003, 2.9940760E-003, 4.1591967E+002
 1.2800299E+002, 4.7525053E-003, 1.6412944E-001, 1.6065647E-001, 9.7184274E-003, 3.0175983E-003, 3.0324394E-003, 4.2198670E+002
 1.2900077E+002, 5.1229136E-003, 1.6378403E-001, 1.6041041E-001, 9.7403049E-003, 3.1408156E-003, 3.0351266E-003, 4.1945504E+002
 1.3000852E+002, 4.7077695E-003, 1.6352510E-001, 1.6090062E-001, 1.0108675E-002, 3.4499378E-003, 3.1126060E-003, 4.2060148E+002
 1.3101018E+002, 4.8073934E-003, 1.6283132E-001, 1.6113976E-001, 1.0533916E-002, 3.4740786E-003, 3.1997552E-003, 4.1525921E+002
 1.3200081E+002, 4.9426533E-003, 1.6292429E-001, 1.6101294E-001, 1.0426871E-002, 3.2239545E-003, 3.1773427E-003, 4.1938114E+002
 1.3300006E+002, 4.7663958E-003, 1.6203401E-001, 1.6151704E-001, 1.1076660E-002, 3.7470016E-003, 3.3114978E-003, 4.1734225E+002
 1.3400575E+002, 4.8186638E-003, 1.6202692E-001, 1.6148864E-001, 1.1064680E-002, 3.6546877E-003, 3.3088878E-003, 4.1601274E+002
 1.3500568E+002, 4.6395351E-003, 1.6149427E-001, 1.6193114E-001, 1.1526102E-002, 3.7131674E-003, 3.4047292E-003, 4.1738832E+002
 1.3600223E+002, 4.8886326E-003, 1.6070790E-001, 1.6188048E-001, 1.1842581E-002, 4.4568197E-003, 3.4680245E-003, 4.1459106E+002
 1.3700283E+002, 4.8361426E-003, 1.6116557E-001, 1.6186047E-001, 1.1632069E-002, 3.8322799E-003, 3.4255427E-003, 4.1564306E+002
 1.3800406E+002, 5.1239449E-003, 1.5983228E-001, 1.6210482E-001, 1.2338493E-002, 4.3357205E-003, 3.5692705E-003, 4.1290192E+002
 1.3900340E+002, 4.8727375E-003, 1.5979542E-001, 1.6236984E-001, 1.2492683E-002, 4.4071054E-003, 3.6021162E-003, 4.1271635E+002
 1.4000359E+002, 4.7508882E-003, 1.5960989E-001, 1.6264519E-001, 1.2715868E-002, 4.1919609E-003, 3.6488911E-003, 4.1389478E+002
 1.4100371E+002, 4.6135566E-003, 1.5944187E-001, 1.6285733E-001, 1.2899351E-002, 4.2603927E-003, 3.6872563E-003, 4.1511483E+002
 1.4200221E+002, 4.7920694E-003, 1.5890204E-001, 1.6281047E-001, 1.3110359E-002, 4.7876611E-003, 3.7293675E-003, 4.1364694E+002
 1.4300712E+002, 4.7473319E-003, 1.5882460E-001, 1.6295466E-001, 1.3218347E-002, 4.5546187E-003, 3.7520707E-003, 4.1849993E+002
 1.4400328E+002, 4.8787224E-003, 1.5803491E-001, 1.6300926E-001, 1.3591313E-002, 5.3794014E-003, 3.8274581E-003, 4.1217172E+002
 1.4500354E+002, 4.7966733E-003, 1.5847021E-001, 1.6296648E-001, 1.3379379E-002, 5.0162673E-003, 3.7845424E-003, 4.1373674E+002
 1.4600520E+002, 4.8922550E-003, 1.5746273E-001, 1.6327479E-001, 1.3977635E-002, 5.4148501E-003, 3.9069683E-003, 4.1259885E+002
 1.4700081E+002, 4.9354256E-003, 1.5783489E-001, 1.6309950E-001, 1.3724423E-002, 5.1827986E-003, 3.8548367E-003, 4.1405770E+002
 1.4800014E+002, 5.1016846E-003, 1.5728864E-001, 1.6309191E-001, 1.3958401E-002, 5.6172174E-003, 3.9018353E-003, 4.1437467E+002
 1.4900727E+002, 4.8318198E-003, 1.5683298E-001, 1.6360643E-001, 1.4423794E-002, 5.6137902E-003, 3.9989746E-003, 4.1217109E+002
 1.5001124E+002, 4.7750809E-003, 1.5689688E-001, 1.6366208E-001, 1.4424766E-002, 5.5006175E-003, 3.9995533E-003, 4.0925299E+002
 1.5100894E+002, 4.8329240E-003, 1.5644542E-001, 1.6383930E-001, 1.4712574E-002, 5.4590841E-003, 4.0586415E-003, 4.1700717E+002
 1.5200436E+002, 4.7887669E-003, 1.5585045E-001, 1.6402434E-001, 1.5068592E-002, 6.1072149E-003, 4.1315243E-003, 4.0738352E+002
 1.5300843E+002, 4.6969639E-003, 1.5600957E-001, 1.6413732E-001, 1.5057379E-002, 5.7192032E-003, 4.1300420E-003, 4.1401691E+002
 1.5400990E+002, 4.8270592E-003, 1.5601710E-001, 1.6395747E-001, 1.4960895E-002, 5.8766319E-003, 4.1093995E-003, 4.1393884E+002
