s,,,,,,,
Time,"O2 EXHAUST","CO2 EXHAUST","H2O EXHAUST","CO EXHAUST","FUEL EXHAUST","SOOT EXHAUST","TEMP EXHAUST"
 0.0000000E+000, 2.3099739E-001, 5.9146498E-004, 5.9412092E-003, 0.0000000E+000, 0.0000000E+000, 0.0000000E+000, 2.0000000E+001
 1.0035417E+000, 2.3099739E-001, 5.9146498E-004, 5.9412092E-003, 1.1108723E-028, 3.2613630E-028, 3.9164366E-029, 2.2490361E+001
 2.0039573E+000, 2.1956412E-001, 9.1460839E-003, 1.0887319E-002, 1.2394039E-004, 1.2981434E-004, 9.4260806E-005, 1.3092154E+002
 3.0017844E+000, 2.1105180E-001, 1.5502546E-002, 1.4580389E-002, 2.2981468E-004, 1.8638860E-004, 1.6725529E-004, 2.0522610E+002
 4.0007193E+000, 2.0137872E-001, 2.2929366E-002, 1.8726030E-002, 2.2104482E-004, 1.5998812E-004, 2.2413836E-004, 2.8503306E+002
 5.0036989E+000, 1.9491706E-001, 2.7888034E-002, 2.1496301E-002, 2.1701741E-004, 1.4130174E-004, 2.6250940E-004, 3.2919000E+002
 6.0066587E+000, 1.8173925E-001, 3.8104406E-002, 2.7118981E-002, 1.4229705E-004, 6.2997322E-005, 3.2732409E-004, 4.1094327E+002
 7.0027834E+000, 1.6717884E-001, 4.9341038E-002, 3.3343460E-002, 9.1670848E-005, 6.0193629E-006, 4.0537738E-004, 4.7670564E+002
 8.0067222E+000, 1.5808533E-001, 5.6299649E-002, 3.7245117E-002, 9.7086041E-005, 2.6258242E-007, 4.6159724E-004, 5.0055169E+002
 9.0044932E+000, 1.4509227E-001, 6.6225817E-002, 4.2823884E-002, 1.1515740E-004, 3.4684296E-007, 5.4401093E-004, 5.4329525E+002
 1.0005348E+001, 1.3004414E-001, 7.7724199E-002, 4.9284333E-002, 1.3457472E-004, 3.1124989E-007, 6.3915309E-004, 5.6252274E+002
 1.1005287E+001, 1.2395415E-001, 8.2377975E-002, 5.1898767E-002, 1.4218055E-004, 2.7307712E-007, 6.7760602E-004, 5.6272538E+002
 1.2007481E+001, 1.1176640E-001, 9.1688700E-002, 5.7131828E-002, 1.5927899E-004, 3.8917179E-007, 7.5494153E-004, 5.7828128E+002
 1.3003708E+001, 1.0397792E-001, 9.7633689E-002, 6.0477479E-002, 1.7354583E-004, 1.0438964E-006, 8.0503912E-004, 5.7860179E+002
 1.4009157E+001, 9.5879627E-002, 1.0382686E-001, 6.3952657E-002, 1.8049194E-004, 3.7323366E-007, 8.5553080E-004, 5.8119356E+002
 1.5007639E+001, 8.6773129E-002, 1.1078207E-001, 6.7863205E-002, 1.9435402E-004, 6.9261817E-007, 9.1353482E-004, 5.8468150E+002
 1.6007267E+001, 8.4772659E-002, 1.1230132E-001, 6.8724905E-002, 2.0324075E-004, 1.6143062E-006, 9.2746099E-004, 5.8093754E+002
 1.7005305E+001, 7.9270359E-002, 1.1649984E-001, 7.1088902E-002, 2.1425856E-004, 2.3956992E-006, 9.6304330E-004, 5.7880574E+002
 1.8002050E+001, 7.3626681E-002, 1.2079081E-001, 7.3518379E-002, 2.3599389E-004, 4.6838651E-006, 1.0016551E-003, 5.8045028E+002
 1.9000154E+001, 6.6041480E-002, 1.2659550E-001, 7.6772168E-002, 2.3984942E-004, 3.7147208E-006, 1.0484103E-003, 5.8919206E+002
 2.0006269E+001, 6.2674375E-002, 1.2915193E-001, 7.8222786E-002, 2.5530557E-004, 5.1944074E-006, 1.0719515E-003, 5.8536112E+002
 2.1002944E+001, 5.6884136E-002, 1.3356762E-001, 8.0711338E-002, 2.6866568E-004, 5.8584415E-006, 1.1097543E-003, 5.7954836E+002
 2.2007327E+001, 5.2263384E-002, 1.3709840E-001, 8.2695083E-002, 2.7458974E-004, 5.9808120E-006, 1.1389612E-003, 5.8496267E+002
 2.3001326E+001, 5.0294985E-002, 1.3859925E-001, 8.3541400E-002, 2.7949905E-004, 4.6963801E-006, 1.1518890E-003, 5.8207827E+002
 2.4000183E+001, 4.5975956E-002, 1.4189354E-001, 8.5397274E-002, 2.8893386E-004, 6.3920062E-006, 1.1799774E-003, 5.8052653E+002
 2.5000254E+001, 4.4266479E-002, 1.4321398E-001, 8.6126786E-002, 2.8149705E-004, 5.2024720E-006, 1.1888306E-003, 5.7922890E+002
 2.6007576E+001, 3.8400378E-002, 1.4769417E-001, 8.8645927E-002, 2.9055426E-004, 5.0625024E-006, 1.2262213E-003, 5.8754619E+002
 2.7001932E+001, 3.4324973E-002, 1.5079894E-001, 9.0398542E-002, 3.0217617E-004, 5.2373257E-006, 1.2532790E-003, 5.8471822E+002
 2.8008897E+001, 2.9551702E-002, 1.5437772E-001, 9.2469502E-002, 3.5519123E-004, 7.8462763E-006, 1.2929621E-003, 5.9405607E+002
 2.9002796E+001, 2.6755116E-002, 1.5654986E-001, 9.3658735E-002, 3.3452068E-004, 7.8945909E-006, 1.3057170E-003, 5.8791881E+002
 3.0000502E+001, 2.8375244E-002, 1.5533350E-001, 9.2956542E-002, 3.1781108E-004, 5.8393964E-006, 1.2925102E-003, 5.8596105E+002
 3.1008314E+001, 1.7148901E-002, 1.6387504E-001, 9.7788102E-002, 3.5753751E-004, 5.4639484E-006, 1.3686111E-003, 6.0193724E+002
 3.2008023E+001, 1.5010553E-002, 1.6545491E-001, 9.8723251E-002, 3.9725686E-004, 7.5652493E-006, 1.3896276E-003, 5.9729064E+002
 3.3006369E+001, 1.3763486E-002, 1.6635348E-001, 9.9275786E-002, 4.3596830E-004, 1.0020494E-005, 1.4050372E-003, 5.9397630E+002
 3.4001325E+001, 9.9309593E-003, 1.6881061E-001, 1.0107277E-001, 7.6497904E-004, 1.3857664E-005, 1.4950198E-003, 5.9978514E+002
 3.5008413E+001, 1.1487069E-002, 1.6780284E-001, 1.0034606E-001, 6.3808451E-004, 1.4472848E-005, 1.4598394E-003, 5.8421764E+002
 3.6008335E+001, 3.8585342E-003, 1.7267656E-001, 1.0392305E-001, 1.3007133E-003, 5.5239947E-005, 1.6404718E-003, 5.9384211E+002
 3.7000788E+001, 3.7001794E-003, 1.7088444E-001, 1.0459121E-001, 2.6048506E-003, 1.6442188E-004, 1.9059036E-003, 5.8287554E+002
 3.8005116E+001, 3.7520940E-003, 1.7128566E-001, 1.0443182E-001, 2.3051984E-003, 1.3181240E-004, 1.8448316E-003, 5.7443043E+002
 3.9002730E+001, 2.5357566E-003, 1.7064245E-001, 1.0545238E-001, 3.3823981E-003, 1.9069135E-004, 2.0706976E-003, 5.7584679E+002
 4.0005218E+001, 1.7002729E-003, 1.6979112E-001, 1.0627900E-001, 4.3992769E-003, 2.7210641E-004, 2.2819839E-003, 5.6674419E+002
 4.1009329E+001, 1.7519252E-003, 1.7118474E-001, 1.0581165E-001, 3.4257742E-003, 1.6314932E-004, 2.0842882E-003, 5.6111965E+002
 4.2008245E+001, 1.8386035E-003, 1.6793088E-001, 1.0670137E-001, 5.5432306E-003, 7.9526953E-004, 2.5125349E-003, 5.5407622E+002
 4.3003969E+001, 2.2846296E-003, 1.6672410E-001, 1.0677090E-001, 6.1248579E-003, 9.1032625E-004, 2.6276896E-003, 5.4738814E+002
 4.4006897E+001, 1.2287726E-003, 1.6688413E-001, 1.0745776E-001, 6.5901216E-003, 7.5831601E-004, 2.7287092E-003, 5.4521566E+002
 4.5007765E+001, 9.7712747E-004, 1.6802829E-001, 1.0729963E-001, 5.9661182E-003, 5.0401620E-004, 2.6039727E-003, 5.5910385E+002
 4.6000212E+001, 7.7317210E-004, 1.6362512E-001, 1.0867852E-001, 8.9690768E-003, 1.6199671E-003, 3.2129823E-003, 5.3597239E+002
 4.7004966E+001, 9.4551886E-004, 1.6514128E-001, 1.0811654E-001, 7.8675370E-003, 1.3474620E-003, 2.9888038E-003, 5.4001322E+002
 4.8005489E+001, 7.7332982E-004, 1.6497805E-001, 1.0830042E-001, 8.0818462E-003, 1.2566545E-003, 3.0334604E-003, 5.2592095E+002
 4.9003712E+001, 5.8442692E-004, 1.6247521E-001, 1.0917809E-001, 9.8608188E-003, 1.6164840E-003, 3.3950760E-003, 5.3179252E+002
 5.0008828E+001, 5.6282955E-004, 1.6181184E-001, 1.0936685E-001, 1.0298777E-002, 1.8635293E-003, 3.4837280E-003, 5.2191597E+002
 5.1001092E+001, 5.6144770E-004, 1.5980856E-001, 1.0989604E-001, 1.1589428E-002, 2.5951782E-003, 3.7446004E-003, 5.1364119E+002
 5.2000650E+001, 6.2752911E-004, 1.6112970E-001, 1.0957024E-001, 1.0754540E-002, 1.6982987E-003, 3.5760469E-003, 5.3087372E+002
 5.3004775E+001, 5.6145450E-004, 1.5964979E-001, 1.0995449E-001, 1.1704148E-002, 2.5509826E-003, 3.7679402E-003, 5.1695432E+002
 5.4007478E+001, 5.9494189E-004, 1.5909700E-001, 1.1011868E-001, 1.2073351E-002, 2.4999098E-003, 3.8427245E-003, 5.1864362E+002
 5.5000737E+001, 5.2051175E-004, 1.5756391E-001, 1.1058627E-001, 1.3109561E-002, 2.9797487E-003, 4.0527631E-003, 5.1510340E+002
 5.6003792E+001, 5.1938566E-004, 1.5622847E-001, 1.1097580E-001, 1.3997628E-002, 3.2419022E-003, 4.2326021E-003, 5.0817034E+002
 5.7002698E+001, 5.8179747E-004, 1.5692934E-001, 1.1074093E-001, 1.3507500E-002, 3.0343257E-003, 4.1330619E-003, 5.1366425E+002
 5.8001230E+001, 5.1521793E-004, 1.5499655E-001, 1.1126619E-001, 1.4764987E-002, 3.9214802E-003, 4.3873822E-003, 5.0392291E+002
 5.9005700E+001, 5.0659807E-004, 1.5565162E-001, 1.1110914E-001, 1.4355159E-002, 3.6214738E-003, 4.3046956E-003, 5.0173601E+002
 6.0000859E+001, 5.3416754E-004, 1.5502885E-001, 1.1127980E-001, 1.4760508E-002, 3.6944251E-003, 4.3866765E-003, 5.0054877E+002
 6.1003523E+001, 4.8334223E-004, 1.5376364E-001, 1.1168512E-001, 1.5630099E-002, 3.9265611E-003, 4.5631097E-003, 5.0331945E+002
 6.2001404E+001, 5.4039054E-004, 1.5330784E-001, 1.1172881E-001, 1.5864938E-002, 4.3267215E-003, 4.6098553E-003, 4.9987546E+002
 6.3003004E+001, 5.1631948E-004, 1.5150535E-001, 1.1221449E-001, 1.7033818E-002, 5.0214271E-003, 4.8462083E-003, 4.9647702E+002
 6.4009340E+001, 5.9740433E-004, 1.5227780E-001, 1.1192715E-001, 1.6471955E-002, 4.9169430E-003, 4.7318544E-003, 4.9796654E+002
 6.5003801E+001, 5.8505289E-004, 1.5097984E-001, 1.1234909E-001, 1.7367949E-002, 4.9515237E-003, 4.9136887E-003, 4.9676915E+002
 6.6008944E+001, 6.1356324E-004, 1.5086410E-001, 1.1239930E-001, 1.7456778E-002, 4.7537632E-003, 4.9318171E-003, 5.0058616E+002
 6.7001014E+001, 6.0222955E-004, 1.5065691E-001, 1.1240351E-001, 1.7552419E-002, 5.1873369E-003, 4.9506857E-003, 4.9588851E+002
 6.8004695E+001, 6.3691168E-004, 1.4931370E-001, 1.1273824E-001, 1.8402023E-002, 5.6533986E-003, 5.1222177E-003, 4.9678861E+002
 6.9003192E+001, 6.2965670E-004, 1.4933363E-001, 1.1271970E-001, 1.8379326E-002, 5.7581427E-003, 5.1175094E-003, 4.9495162E+002
 7.0004700E+001, 6.0268067E-004, 1.4820160E-001, 1.1308474E-001, 1.9158829E-002, 5.8741178E-003, 5.2756810E-003, 4.9678616E+002
 7.1008663E+001, 6.4285473E-004, 1.4761754E-001, 1.1313731E-001, 1.9457786E-002, 6.5450599E-003, 5.3351600E-003, 4.9475620E+002
 7.2003507E+001, 6.3806848E-004, 1.4732021E-001, 1.1320468E-001, 1.9641009E-002, 6.7415922E-003, 5.3720920E-003, 4.9260899E+002
 7.3001370E+001, 5.8992628E-004, 1.4729053E-001, 1.1334634E-001, 1.9761789E-002, 6.1284098E-003, 5.3977500E-003, 4.9745614E+002
 7.4007036E+001, 6.2715542E-004, 1.4619414E-001, 1.1354377E-001, 2.0398035E-002, 6.9386045E-003, 5.5254919E-003, 4.9039586E+002
 7.5007888E+001, 6.4193740E-004, 1.4565673E-001, 1.1366885E-001, 2.0731278E-002, 7.1758381E-003, 5.5926891E-003, 4.9043124E+002
 7.6005335E+001, 6.5253551E-004, 1.4576293E-001, 1.1362510E-001, 2.0650846E-002, 7.1898738E-003, 5.5762846E-003, 4.9283446E+002
 7.7008222E+001, 6.8991566E-004, 1.4500652E-001, 1.1382681E-001, 2.1138915E-002, 7.2965936E-003, 5.6749437E-003, 4.9056566E+002
 7.8007087E+001, 7.0308942E-004, 1.4415196E-001, 1.1402094E-001, 2.1665422E-002, 7.7461098E-003, 5.7810689E-003, 4.8899208E+002
 7.9008446E+001, 6.4300993E-004, 1.4562446E-001, 1.1370783E-001, 2.0774986E-002, 6.9954232E-003, 5.6018041E-003, 4.9356264E+002
 8.0008811E+001, 6.6437576E-004, 1.4403523E-001, 1.1404940E-001, 2.1739537E-002, 7.9643595E-003, 5.7960370E-003, 4.9168110E+002
 8.1003911E+001, 6.8574204E-004, 1.4390888E-001, 1.1410042E-001, 2.1833837E-002, 7.8124290E-003, 5.8152547E-003, 4.8981670E+002
 8.2006048E+001, 6.4934311E-004, 1.4306625E-001, 1.1432021E-001, 2.2375266E-002, 8.2866247E-003, 5.9246738E-003, 4.9205046E+002
 8.3001226E+001, 6.9550852E-004, 1.4290134E-001, 1.1430041E-001, 2.2432947E-002, 8.5444405E-003, 5.9357372E-003, 4.8872404E+002
 8.4006462E+001, 6.7478855E-004, 1.4271177E-001, 1.1436496E-001, 2.2566352E-002, 8.6102909E-003, 5.9628400E-003, 4.9042573E+002
 8.5007994E+001, 7.1818550E-004, 1.4255677E-001, 1.1442016E-001, 2.2676157E-002, 8.3978733E-003, 5.9851551E-003, 4.8892504E+002
 8.6003332E+001, 7.1855484E-004, 1.4197117E-001, 1.1449064E-001, 2.2990004E-002, 9.1273651E-003, 6.0478148E-003, 4.8918129E+002
 8.7003963E+001, 7.0304228E-004, 1.4177071E-001, 1.1454962E-001, 2.3123973E-002, 9.2275081E-003, 6.0749525E-003, 4.8947039E+002
 8.8004068E+001, 6.7234928E-004, 1.4179754E-001, 1.1462218E-001, 2.3167228E-002, 8.8549279E-003, 6.0844372E-003, 4.9157306E+002
 8.9009111E+001, 6.8723981E-004, 1.4069763E-001, 1.1484030E-001, 2.3821032E-002, 9.6376824E-003, 6.2159157E-003, 4.8816682E+002
 9.0006329E+001, 7.3753079E-004, 1.4032149E-001, 1.1491571E-001, 2.4044402E-002, 9.7121186E-003, 6.2608309E-003, 4.8792622E+002
 9.1003029E+001, 7.1660924E-004, 1.4008222E-001, 1.1505862E-001, 2.4258963E-002, 9.3949232E-003, 6.3049388E-003, 4.8899187E+002
 9.2002231E+001, 7.1559318E-004, 1.4058724E-001, 1.1487115E-001, 2.3892906E-002, 9.5492180E-003, 6.2304517E-003, 4.8849120E+002
 9.3006442E+001, 7.8641483E-004, 1.3982177E-001, 1.1501231E-001, 2.4338794E-002, 9.9077155E-003, 6.3199966E-003, 4.8714511E+002
 9.4008265E+001, 7.7288360E-004, 1.3971393E-001, 1.1501750E-001, 2.4390977E-002, 1.0146660E-002, 6.3303325E-003, 4.8739126E+002
 9.5002558E+001, 7.2423669E-004, 1.4033350E-001, 1.1491208E-001, 2.4036571E-002, 9.7659332E-003, 6.2592472E-003, 4.9054638E+002
 9.6003311E+001, 7.6796494E-004, 1.3955499E-001, 1.1511878E-001, 2.4538118E-002, 9.8594110E-003, 6.3606211E-003, 4.8946499E+002
 9.7004149E+001, 8.2757085E-004, 1.3840130E-001, 1.1528038E-001, 2.5172487E-002, 1.0911204E-002, 6.4875083E-003, 4.8675477E+002
 9.8007310E+001, 7.6282658E-004, 1.3818349E-001, 1.1540848E-001, 2.5367136E-002, 1.0825059E-002, 6.5275179E-003, 4.9020249E+002
 9.9006121E+001, 8.0010599E-004, 1.3886088E-001, 1.1523279E-001, 2.4932493E-002, 1.0404299E-002, 6.4396868E-003, 4.8600933E+002
 1.0000772E+002, 7.9839291E-004, 1.3827528E-001, 1.1542143E-001, 2.5335362E-002, 1.0414484E-002, 6.5214298E-003, 4.8867415E+002
 1.0100514E+002, 8.4494951E-004, 1.3773037E-001, 1.1547715E-001, 2.5619136E-002, 1.0961554E-002, 6.5779629E-003, 4.8738728E+002
 1.0200597E+002, 8.0789210E-004, 1.3772832E-001, 1.1551471E-001, 2.5649008E-002, 1.0888583E-002, 6.5843511E-003, 4.8793840E+002
 1.0301090E+002, 8.4450344E-004, 1.3772150E-001, 1.1546315E-001, 2.5612547E-002, 1.1067311E-002, 6.5764805E-003, 4.8851300E+002
 1.0400142E+002, 8.1551947E-004, 1.3766898E-001, 1.1549040E-001, 2.5656985E-002, 1.1124701E-002, 6.5855930E-003, 4.8889928E+002
 1.0500722E+002, 8.2965561E-004, 1.3723771E-001, 1.1554555E-001, 2.5890310E-002, 1.1584211E-002, 6.6322082E-003, 4.8659447E+002
 1.0600932E+002, 8.7424560E-004, 1.3631457E-001, 1.1580375E-001, 2.6495035E-002, 1.1644590E-002, 6.7545594E-003, 4.8726403E+002
 1.0700069E+002, 8.7095130E-004, 1.3624146E-001, 1.1579738E-001, 2.6522858E-002, 1.1843020E-002, 6.7599471E-003, 4.8783233E+002
 1.0801048E+002, 8.6097234E-004, 1.3649812E-001, 1.1575182E-001, 2.6374432E-002, 1.1654581E-002, 6.7301540E-003, 4.8597222E+002
 1.0900057E+002, 9.1371215E-004, 1.3624758E-001, 1.1574499E-001, 2.6479896E-002, 1.1975527E-002, 6.7507851E-003, 4.8748990E+002
 1.1000935E+002, 8.3295166E-004, 1.3652820E-001, 1.1573979E-001, 2.6352487E-002, 1.1785565E-002, 6.7256877E-003, 4.8739240E+002
 1.1100503E+002, 7.9545011E-004, 1.3619214E-001, 1.1579272E-001, 2.6542683E-002, 1.2284394E-002, 6.7638096E-003, 4.8676931E+002
 1.1200523E+002, 8.3789788E-004, 1.3585233E-001, 1.1589733E-001, 2.6772013E-002, 1.2139260E-002, 6.8102893E-003, 4.8682637E+002
 1.1300749E+002, 8.4945055E-004, 1.3522767E-001, 1.1608977E-001, 2.7194897E-002, 1.2148517E-002, 6.8960145E-003, 4.8833471E+002
 1.1400521E+002, 7.6150642E-004, 1.3581242E-001, 1.1586712E-001, 2.6768431E-002, 1.2722989E-002, 6.8092082E-003, 4.8728914E+002
 1.1500388E+002, 7.9402392E-004, 1.3566557E-001, 1.1592967E-001, 2.6880337E-002, 1.2494375E-002, 6.8320382E-003, 4.8795685E+002
 1.1600126E+002, 7.5365254E-004, 1.3613084E-001, 1.1582787E-001, 2.6597217E-002, 1.2363899E-002, 6.7750172E-003, 4.8870676E+002
 1.1700133E+002, 7.6382331E-004, 1.3595417E-001, 1.1578903E-001, 2.6646457E-002, 1.2912405E-002, 6.7841789E-003, 4.8814089E+002
 1.1800019E+002, 7.9498992E-004, 1.3557028E-001, 1.1583225E-001, 2.6849385E-002, 1.3280184E-002, 6.8246518E-003, 4.8763981E+002
 1.1901095E+002, 7.8613042E-004, 1.3582894E-001, 1.1583465E-001, 2.6736168E-002, 1.2787639E-002, 6.8024218E-003, 4.8894338E+002
 1.2000549E+002, 7.6098348E-004, 1.3583395E-001, 1.1583725E-001, 2.6736356E-002, 1.2866347E-002, 6.8025023E-003, 4.8680972E+002
 1.2101090E+002, 7.9146538E-004, 1.3553636E-001, 1.1586763E-001, 2.6891203E-002, 1.3144362E-002, 6.8333487E-003, 4.8657316E+002
 1.2200264E+002, 7.5887231E-004, 1.3575565E-001, 1.1586552E-001, 2.6792547E-002, 1.2856817E-002, 6.8139302E-003, 4.8941034E+002
 1.2300800E+002, 7.5751813E-004, 1.3545933E-001, 1.1590226E-001, 2.6952203E-002, 1.3225711E-002, 6.8458180E-003, 4.8956377E+002
 1.2400366E+002, 7.5072966E-004, 1.3545003E-001, 1.1588356E-001, 2.6942386E-002, 1.3387688E-002, 6.8436404E-003, 4.9000711E+002
 1.2500506E+002, 7.6508932E-004, 1.3565530E-001, 1.1581368E-001, 2.6798086E-002, 1.3349941E-002, 6.8143261E-003, 4.8689778E+002
 1.2601093E+002, 7.9615817E-004, 1.3552531E-001, 1.1579841E-001, 2.6843900E-002, 1.3573310E-002, 6.8231212E-003, 4.8737236E+002
 1.2700035E+002, 7.5004450E-004, 1.3550970E-001, 1.1583380E-001, 2.6878350E-002, 1.3578401E-002, 6.8303840E-003, 4.8986597E+002
 1.2800561E+002, 7.4847732E-004, 1.3541498E-001, 1.1579749E-001, 2.6893208E-002, 1.3997135E-002, 6.8328220E-003, 4.8712334E+002
 1.2900993E+002, 7.5496873E-004, 1.3541811E-001, 1.1576423E-001, 2.6866651E-002, 1.4168765E-002, 6.8271537E-003, 4.8697968E+002
 1.3000803E+002, 7.5938174E-004, 1.3513418E-001, 1.1586181E-001, 2.7066494E-002, 1.4114179E-002, 6.8677539E-003, 4.8758026E+002
 1.3100731E+002, 7.4401401E-004, 1.3532418E-001, 1.1584826E-001, 2.6971966E-002, 1.3883594E-002, 6.8489889E-003, 4.9086623E+002
 1.3200996E+002, 7.7338556E-004, 1.3531333E-001, 1.1578363E-001, 2.6927580E-002, 1.4181048E-002, 6.8393881E-003, 4.8870762E+002
 1.3300152E+002, 7.4879496E-004, 1.3510312E-001, 1.1588340E-001, 2.7096781E-002, 1.4087080E-002, 6.8740016E-003, 4.8780072E+002
 1.3400646E+002, 7.6326527E-004, 1.3542036E-001, 1.1570317E-001, 2.6819512E-002, 1.4505902E-002, 6.8170664E-003, 4.8781937E+002
 1.3500608E+002, 7.4215293E-004, 1.3560130E-001, 1.1574595E-001, 2.6771541E-002, 1.3970235E-002, 6.8082104E-003, 4.8831141E+002
 1.3600195E+002, 7.6262944E-004, 1.3531133E-001, 1.1579649E-001, 2.6938357E-002, 1.4150584E-002, 6.8416828E-003, 4.8793682E+002
 1.3700136E+002, 7.6671811E-004, 1.3499395E-001, 1.1585502E-001, 2.7123698E-002, 1.4404480E-002, 6.8789104E-003, 4.8686483E+002
 1.3800040E+002, 7.5912684E-004, 1.3530749E-001, 1.1576959E-001, 2.6919874E-002, 1.4338504E-002, 6.8376904E-003, 4.8747030E+002
 1.3900453E+002, 7.4117245E-004, 1.3543555E-001, 1.1573794E-001, 2.6839339E-002, 1.4353513E-002, 6.8214367E-003, 4.8833556E+002
 1.4000695E+002, 7.5674461E-004, 1.3536960E-001, 1.1574895E-001, 2.6876717E-002, 1.4352029E-002, 6.8289289E-003, 4.8746673E+002
 1.4100108E+002, 7.3592421E-004, 1.3517337E-001, 1.1583332E-001, 2.7028015E-002, 1.4309449E-002, 6.8598148E-003, 4.8901644E+002
 1.4200466E+002, 7.4435959E-004, 1.3540902E-001, 1.1566720E-001, 2.6797817E-002, 1.4828850E-002, 6.8123267E-003, 4.8728377E+002
 1.4300031E+002, 7.2508834E-004, 1.3544140E-001, 1.1572428E-001, 2.6826742E-002, 1.4492998E-002, 6.8187828E-003, 4.8862035E+002
 1.4400903E+002, 7.7348135E-004, 1.3522688E-001, 1.1572159E-001, 2.6919360E-002, 1.4734864E-002, 6.8369443E-003, 4.8790873E+002
 1.4500970E+002, 8.0227506E-004, 1.3523346E-001, 1.1569609E-001, 2.6896697E-002, 1.4758975E-002, 6.8321375E-003, 4.8721776E+002
 1.4600330E+002, 7.7908544E-004, 1.3535743E-001, 1.1569275E-001, 2.6839402E-002, 1.4629443E-002, 6.8208335E-003, 4.8922478E+002
 1.4700597E+002, 7.1516842E-004, 1.3534430E-001, 1.1575012E-001, 2.6889617E-002, 1.4568374E-002, 6.8314955E-003, 4.9122773E+002
 1.4800038E+002, 7.3159086E-004, 1.3522479E-001, 1.1576765E-001, 2.6955739E-002, 1.4629794E-002, 6.8447269E-003, 4.8922660E+002
 1.4901085E+002, 7.2503970E-004, 1.3530352E-001, 1.1561898E-001, 2.6808836E-002, 1.5416323E-002, 6.8138571E-003, 4.8996298E+002
 1.5000651E+002, 7.3521344E-004, 1.3523705E-001, 1.1571867E-001, 2.6913329E-002, 1.4892046E-002, 6.8357324E-003, 4.8871068E+002
 1.5100160E+002, 7.5468189E-004, 1.3503189E-001, 1.1576989E-001, 2.7042909E-002, 1.4903584E-002, 6.8618915E-003, 4.8779522E+002
 1.5200568E+002, 7.7849771E-004, 1.3506999E-001, 1.1577221E-001, 2.7027252E-002, 1.4714329E-002, 6.8588351E-003, 4.8955036E+002
 1.5300615E+002, 7.3593069E-004, 1.3527534E-001, 1.1574205E-001, 2.6913873E-002, 1.4668805E-002, 6.8361508E-003, 4.8963493E+002
 1.5400661E+002, 7.7993919E-004, 1.3534637E-001, 1.1559482E-001, 2.6770561E-002, 1.5251222E-002, 6.8059891E-003, 4.8991172E+002
