s,,,,,,,
Time,O2 EXHAUST,CO2 EXHAUST,H2O EXHAUST,CO EXHAUST,FUEL EXHAUST,SOOT EXHAUST,TEMP EXHAUST
 0.0000000E+000, 2.3099739E-001, 5.9146498E-004, 5.9412092E-003, 0.0000000E+000, 0.0000000E+000, 0.0000000E+000, 2.0000000E+001
 1.0026105E+000, 2.3099739E-001, 5.9146498E-004, 5.9412092E-003, 2.1188205E-032, 1.3725737E-031, 2.8340473E-032, 2.0496304E+001
 2.0026974E+000, 2.2501547E-001, 6.1126621E-003, 7.5447480E-003, 2.3849573E-005, 1.7091470E-004, 3.6900359E-004, 7.9062666E+001
 3.0010798E+000, 2.2081742E-001, 9.9915924E-003, 8.6784683E-003, 5.2785268E-005, 2.0693088E-004, 6.3085641E-004, 1.1473752E+002
 4.0029795E+000, 2.1768477E-001, 1.2887614E-002, 9.5212247E-003, 6.7943398E-005, 2.6081826E-004, 8.2497557E-004, 1.4387933E+002
 5.0047651E+000, 2.1324181E-001, 1.6970057E-002, 1.0721751E-002, 1.1213734E-004, 3.3254501E-004, 1.1035144E-003, 1.8070009E+002
 6.0051655E+000, 2.1115908E-001, 1.8891486E-002, 1.1282576E-002, 1.2528864E-004, 3.7053685E-004, 1.2329706E-003, 1.9858774E+002
 7.0000723E+000, 2.0727852E-001, 2.2485027E-002, 1.2327527E-002, 1.4245202E-004, 4.1763778E-004, 1.4734905E-003, 2.2818683E+002
 8.0076231E+000, 2.0215551E-001, 2.7238290E-002, 1.3712541E-002, 1.6962743E-004, 4.1357130E-004, 1.7925885E-003, 2.6128715E+002
 9.0030760E+000, 2.0019684E-001, 2.9045233E-002, 1.4242733E-002, 1.8681380E-004, 4.2399266E-004, 1.9153635E-003, 2.7261903E+002
 1.0005130E+001, 1.9554161E-001, 3.3375556E-002, 1.5499224E-002, 2.0190811E-004, 4.1976582E-004, 2.2039965E-003, 3.0134909E+002
 1.1001173E+001, 1.9173674E-001, 3.6923983E-002, 1.6527297E-002, 2.1118378E-004, 3.9036518E-004, 2.4398488E-003, 3.1783713E+002
 1.2003996E+001, 1.8716756E-001, 4.1192525E-002, 1.7761074E-002, 2.1692925E-004, 3.4972063E-004, 2.7224040E-003, 3.3721180E+002
 1.3000912E+001, 1.8246296E-001, 4.5596641E-002, 1.9030086E-002, 2.1559939E-004, 3.0428652E-004, 3.0123770E-003, 3.5625691E+002
 1.4003689E+001, 1.7899808E-001, 4.8843378E-002, 1.9964533E-002, 2.1261174E-004, 2.6676802E-004, 3.2257162E-003, 3.6700838E+002
 1.5004206E+001, 1.7606682E-001, 5.1592169E-002, 2.0754763E-002, 2.0842347E-004, 2.3423574E-004, 3.4059801E-003, 3.7262395E+002
 1.6000104E+001, 1.7212288E-001, 5.5286197E-002, 2.1818282E-002, 2.0568165E-004, 1.9551874E-004, 3.6488512E-003, 3.8497190E+002
 1.7008532E+001, 1.6869963E-001, 5.8492908E-002, 2.2740941E-002, 2.0231479E-004, 1.6541160E-004, 3.8594713E-003, 3.8914562E+002
 1.8008227E+001, 1.6507044E-001, 6.1895707E-002, 2.3718964E-002, 1.9676714E-004, 1.2920255E-004, 4.0825469E-003, 4.0014472E+002
 1.9009202E+001, 1.6305095E-001, 6.3787504E-002, 2.4263084E-002, 1.9442749E-004, 1.1306642E-004, 4.2067264E-003, 4.0143732E+002
 2.0005855E+001, 1.6149379E-001, 6.5246488E-002, 2.4682665E-002, 1.9251943E-004, 9.9880131E-005, 4.3024733E-003, 4.0136129E+002
 2.1000039E+001, 1.5908894E-001, 6.7497657E-002, 2.5330791E-002, 1.9092382E-004, 8.1852342E-005, 4.4504972E-003, 4.0538631E+002
 2.2007331E+001, 1.5831857E-001, 6.8221924E-002, 2.5538071E-002, 1.8811799E-004, 7.3750832E-005, 4.4976292E-003, 4.0433148E+002
 2.3002943E+001, 1.5691663E-001, 6.9535044E-002, 2.5915735E-002, 1.8647411E-004, 6.3425230E-005, 4.5838195E-003, 4.0471160E+002
 2.4004134E+001, 1.5576521E-001, 7.0611777E-002, 2.6226021E-002, 1.8626039E-004, 5.7008744E-005, 4.6547371E-003, 4.0442962E+002
 2.5007175E+001, 1.5411725E-001, 7.2154544E-002, 2.6669953E-002, 1.8474479E-004, 4.6352126E-005, 4.7560901E-003, 4.1058468E+002
 2.6006026E+001, 1.5257055E-001, 7.3596101E-002, 2.7087068E-002, 1.8761609E-004, 4.3286274E-005, 4.8517137E-003, 4.0820570E+002
 2.7003896E+001, 1.5141558E-001, 7.4674999E-002, 2.7398302E-002, 1.8801602E-004, 3.8970964E-005, 4.9229057E-003, 4.0931704E+002
 2.8004210E+001, 1.5102726E-001, 7.5036379E-002, 2.7502993E-002, 1.8897899E-004, 3.9426169E-005, 4.9469295E-003, 4.0776264E+002
 2.9006479E+001, 1.5079707E-001, 7.5253371E-002, 2.7564877E-002, 1.8773550E-004, 3.6462577E-005, 4.9609639E-003, 4.0582948E+002
 3.0002427E+001, 1.4954875E-001, 7.6418968E-002, 2.7901322E-002, 1.8853743E-004, 3.2154604E-005, 5.0379562E-003, 4.0801832E+002
 3.1000123E+001, 1.4828870E-001, 7.7593821E-002, 2.8241054E-002, 1.9048941E-004, 2.9552510E-005, 5.1158051E-003, 4.0865756E+002
 3.2001916E+001, 1.4780240E-001, 7.8047614E-002, 2.8372084E-002, 1.9089225E-004, 2.8705993E-005, 5.1457994E-003, 4.0959301E+002
 3.3003926E+001, 1.4605127E-001, 7.9679551E-002, 2.8844213E-002, 1.9402380E-004, 2.6575642E-005, 5.2540261E-003, 4.0925835E+002
 3.4004313E+001, 1.4659329E-001, 7.9172977E-002, 2.8698079E-002, 1.9384680E-004, 2.9764622E-005, 5.2206017E-003, 4.0705942E+002
 3.5003484E+001, 1.4434190E-001, 8.1271662E-002, 2.9305137E-002, 1.9767107E-004, 2.5610066E-005, 5.3597387E-003, 4.0968493E+002
 3.6006364E+001, 1.4400867E-001, 8.1583401E-002, 2.9394804E-002, 1.9731195E-004, 2.4729720E-005, 5.3802072E-003, 4.0968143E+002
 3.7008076E+001, 1.4386495E-001, 8.1714112E-002, 2.9433741E-002, 1.9965349E-004, 2.8464002E-005, 5.3893242E-003, 4.0645966E+002
 3.8001880E+001, 1.4167969E-001, 8.3752352E-002, 3.0022827E-002, 2.0246689E-004, 2.3645491E-005, 5.5242606E-003, 4.0740942E+002
 3.9002283E+001, 1.4114212E-001, 8.4252538E-002, 3.0167823E-002, 2.0396534E-004, 2.3835460E-005, 5.5575474E-003, 4.1014021E+002
 4.0005134E+001, 1.4147534E-001, 8.3940964E-002, 3.0078062E-002, 2.0407151E-004, 2.5329343E-005, 5.5370355E-003, 4.0744683E+002
 4.1006438E+001, 1.4055902E-001, 8.4796108E-002, 3.0324945E-002, 2.0476559E-004, 2.3667364E-005, 5.5935438E-003, 4.1071294E+002
 4.2000985E+001, 1.3908626E-001, 8.6167787E-002, 3.0722107E-002, 2.0800325E-004, 2.2584248E-005, 5.6846406E-003, 4.1025410E+002
 4.3003524E+001, 1.3818284E-001, 8.7008322E-002, 3.0965848E-002, 2.1066651E-004, 2.2398329E-005, 5.7406085E-003, 4.0945414E+002
 4.4002423E+001, 1.3836414E-001, 8.6840087E-002, 3.0916776E-002, 2.0961727E-004, 2.3107411E-005, 5.7292957E-003, 4.0994909E+002
 4.5003708E+001, 1.3786060E-001, 8.7309619E-002, 3.1052452E-002, 2.1022440E-004, 2.2794710E-005, 5.7603711E-003, 4.0839678E+002
 4.6003613E+001, 1.3655249E-001, 8.8526658E-002, 3.1405315E-002, 2.1398150E-004, 2.3105686E-005, 5.8413875E-003, 4.0792203E+002
 4.7002195E+001, 1.3573479E-001, 8.9289202E-002, 3.1625704E-002, 2.1504308E-004, 2.1933505E-005, 5.8918717E-003, 4.0958409E+002
 4.8002384E+001, 1.3530583E-001, 8.9689756E-002, 3.1741306E-002, 2.1528898E-004, 2.0513699E-005, 5.9183236E-003, 4.0927862E+002
 4.9005319E+001, 1.3422423E-001, 9.0697025E-002, 3.2032989E-002, 2.1773002E-004, 1.9803061E-005, 5.9852326E-003, 4.1054210E+002
 5.0003354E+001, 1.3466423E-001, 9.0287490E-002, 3.1914216E-002, 2.1641368E-004, 2.0768448E-005, 5.9579593E-003, 4.0854106E+002
 5.1005096E+001, 1.3317306E-001, 9.1676777E-002, 3.2316341E-002, 2.1943823E-004, 1.8849924E-005, 6.0501708E-003, 4.1327843E+002
 5.2006544E+001, 1.3345128E-001, 9.1416854E-002, 3.2241315E-002, 2.1926453E-004, 2.0424274E-005, 6.0330031E-003, 4.1089699E+002
 5.3005068E+001, 1.3239302E-001, 9.2402650E-002, 3.2526688E-002, 2.2148160E-004, 1.9432705E-005, 6.0984488E-003, 4.0890374E+002
 5.4006102E+001, 1.3330443E-001, 9.1554074E-002, 3.2280779E-002, 2.1910564E-004, 2.0784508E-005, 6.0420126E-003, 4.0990999E+002
 5.5003741E+001, 1.3224381E-001, 9.2541011E-002, 3.2566917E-002, 2.2212620E-004, 2.0463151E-005, 6.1077060E-003, 4.0791326E+002
 5.6001111E+001, 1.3159897E-001, 9.3142644E-002, 3.2740678E-002, 2.2274017E-004, 1.9366274E-005, 6.1474891E-003, 4.0941878E+002
 5.7005898E+001, 1.3056803E-001, 9.4102240E-002, 3.3018744E-002, 2.2541315E-004, 1.9153941E-005, 6.2113059E-003, 4.1221015E+002
 5.8003046E+001, 1.3123539E-001, 9.3480877E-002, 3.2838752E-002, 2.2379932E-004, 1.9520845E-005, 6.1700080E-003, 4.0748736E+002
 5.9002238E+001, 1.3014227E-001, 9.4500022E-002, 3.3133352E-002, 2.2531217E-004, 1.8576519E-005, 6.2375006E-003, 4.0904169E+002
 6.0002360E+001, 1.2936278E-001, 9.5225329E-002, 3.3343624E-002, 2.2751263E-004, 1.8581490E-005, 6.2857749E-003, 4.1173820E+002
 6.1004568E+001, 1.2949932E-001, 9.5098935E-002, 3.3306710E-002, 2.2662838E-004, 1.8178744E-005, 6.2772551E-003, 4.1145999E+002
 6.2000132E+001, 1.2803876E-001, 9.6458900E-002, 3.3700579E-002, 2.3002619E-004, 1.7709385E-005, 6.3676143E-003, 4.1193686E+002
 6.3006051E+001, 1.2974537E-001, 9.4868757E-002, 3.3240318E-002, 2.2657307E-004, 2.0478816E-005, 6.2620731E-003, 4.0947378E+002
 6.4000895E+001, 1.2905698E-001, 9.5510012E-002, 3.3425963E-002, 2.2803456E-004, 1.9714031E-005, 6.3046494E-003, 4.0843966E+002
 6.5000850E+001, 1.2726173E-001, 9.7183010E-002, 3.3910015E-002, 2.3132565E-004, 1.7401694E-005, 6.4156165E-003, 4.1098092E+002
 6.6002301E+001, 1.2745219E-001, 9.7004856E-002, 3.3858797E-002, 2.3157282E-004, 1.7572902E-005, 6.4039280E-003, 4.1329288E+002
 6.7006537E+001, 1.2794855E-001, 9.6542294E-002, 3.3724887E-002, 2.3053107E-004, 1.8915872E-005, 6.3732188E-003, 4.1038154E+002
 6.8002555E+001, 1.2757411E-001, 9.6892673E-002, 3.3825677E-002, 2.3014043E-004, 1.7480948E-005, 6.3962272E-003, 4.0960887E+002
 6.9004338E+001, 1.2662302E-001, 9.7778078E-002, 3.4082158E-002, 2.3245057E-004, 1.7479132E-005, 6.4550765E-003, 4.1232181E+002
 7.0000492E+001, 1.2678852E-001, 9.7624175E-002, 3.4037487E-002, 2.3188821E-004, 1.7559499E-005, 6.4448127E-003, 4.0902948E+002
 7.1002752E+001, 1.2611755E-001, 9.8248539E-002, 3.4218463E-002, 2.3372486E-004, 1.7698428E-005, 6.4863563E-003, 4.1128507E+002
 7.2001327E+001, 1.2594675E-001, 9.8405251E-002, 3.4264778E-002, 2.3583150E-004, 1.9378390E-005, 6.4971364E-003, 4.1210116E+002
 7.3009846E+001, 1.2580584E-001, 9.8537501E-002, 3.4302632E-002, 2.3533795E-004, 1.8819196E-005, 6.5057467E-003, 4.1068004E+002
 7.4004486E+001, 1.2542763E-001, 9.8891457E-002, 3.4404424E-002, 2.3489297E-004, 1.7432162E-005, 6.5289792E-003, 4.1179271E+002
 7.5000214E+001, 1.2517816E-001, 9.9122679E-002, 3.4471799E-002, 2.3622885E-004, 1.8289213E-005, 6.5445047E-003, 4.1115002E+002
 7.6007997E+001, 1.2463493E-001, 9.9627867E-002, 3.4618369E-002, 2.3796801E-004, 1.8468660E-005, 6.5781729E-003, 4.1133587E+002
 7.7001070E+001, 1.2459286E-001, 9.9666827E-002, 3.4629658E-002, 2.3808528E-004, 1.9377129E-005, 6.5807657E-003, 4.1140339E+002
 7.8008669E+001, 1.2521912E-001, 9.9084017E-002, 3.4460723E-002, 2.3636616E-004, 1.9470617E-005, 6.5419861E-003, 4.1216706E+002
 7.9006663E+001, 1.2394009E-001, 1.0027593E-001, 3.4805581E-002, 2.3871121E-004, 1.7907312E-005, 6.6210435E-003, 4.1516378E+002
 8.0003696E+001, 1.2394071E-001, 1.0027388E-001, 3.4805513E-002, 2.3968089E-004, 1.9541747E-005, 6.6211169E-003, 4.1126385E+002
 8.1002601E+001, 1.2526757E-001, 9.9037439E-002, 3.4447746E-002, 2.3720423E-004, 2.1219433E-005, 6.5390961E-003, 4.1046432E+002
 8.2008107E+001, 1.2370808E-001, 1.0049067E-001, 3.4868210E-002, 2.4006120E-004, 1.9504319E-005, 6.6354862E-003, 4.0977734E+002
 8.3006209E+001, 1.2343942E-001, 1.0074162E-001, 3.4940635E-002, 2.4021027E-004, 1.8276207E-005, 6.6520573E-003, 4.0999030E+002
 8.4001808E+001, 1.2427681E-001, 9.9960602E-002, 3.4714839E-002, 2.3901246E-004, 2.0586151E-005, 6.6003263E-003, 4.1298259E+002
 8.5008644E+001, 1.2369181E-001, 1.0050740E-001, 3.4872380E-002, 2.3885959E-004, 1.8747780E-005, 6.6363311E-003, 4.1113372E+002
 8.6008677E+001, 1.2318735E-001, 1.0097783E-001, 3.5008391E-002, 2.3959928E-004, 1.7576257E-005, 6.6674941E-003, 4.0903230E+002
 8.7007570E+001, 1.2281567E-001, 1.0132423E-001, 3.5108615E-002, 2.4028060E-004, 1.6952637E-005, 6.6904698E-003, 4.1161889E+002
 8.8004708E+001, 1.2274938E-001, 1.0138495E-001, 3.5126603E-002, 2.4117377E-004, 1.7686034E-005, 6.6946633E-003, 4.1266560E+002
 8.9006692E+001, 1.2295102E-001, 1.0119878E-001, 3.5072081E-002, 2.3958708E-004, 1.6291338E-005, 6.6820536E-003, 4.1085739E+002
 9.0007582E+001, 1.2177716E-001, 1.0229145E-001, 3.5388640E-002, 2.4251319E-004, 1.6494882E-005, 6.7546947E-003, 4.1150283E+002
 9.1002037E+001, 1.2182961E-001, 1.0224205E-001, 3.5374565E-002, 2.4281876E-004, 1.6875002E-005, 6.7515045E-003, 4.1195790E+002
 9.2002626E+001, 1.2236956E-001, 1.0174024E-001, 3.5228845E-002, 2.4084647E-004, 1.6406592E-005, 6.7180094E-003, 4.1367270E+002
 9.3006348E+001, 1.2256027E-001, 1.0156114E-001, 3.5177527E-002, 2.4142888E-004, 1.8098874E-005, 6.7063303E-003, 4.1101168E+002
 9.4004712E+001, 1.2287532E-001, 1.0126866E-001, 3.5092483E-002, 2.4007263E-004, 1.7432754E-005, 6.6867634E-003, 4.1306144E+002
 9.5000375E+001, 1.2179818E-001, 1.0226998E-001, 3.5383157E-002, 2.4381757E-004, 1.8129415E-005, 6.7535599E-003, 4.1148227E+002
 9.6002018E+001, 1.2247940E-001, 1.0163647E-001, 3.5199327E-002, 2.4158773E-004, 1.8110429E-005, 6.7113289E-003, 4.1133234E+002
 9.7005749E+001, 1.2211965E-001, 1.0197235E-001, 3.5296241E-002, 2.4175448E-004, 1.7312603E-005, 6.7335017E-003, 4.1067786E+002
 9.8008296E+001, 1.2153130E-001, 1.0251888E-001, 3.5455097E-002, 2.4416819E-004, 1.7608600E-005, 6.7700392E-003, 4.1168078E+002
 9.9002477E+001, 1.2133685E-001, 1.0269908E-001, 3.5507641E-002, 2.4527571E-004, 1.8065154E-005, 6.7821527E-003, 4.1273754E+002
 1.0000649E+002, 1.2085487E-001, 1.0314957E-001, 3.5637359E-002, 2.4501817E-004, 1.7306275E-005, 6.8117880E-003, 4.1315176E+002
 1.0100412E+002, 1.2150203E-001, 1.0254726E-001, 3.5462774E-002, 2.4324993E-004, 1.7593076E-005, 6.7717125E-003, 4.1284585E+002
 1.0200531E+002, 1.2101460E-001, 1.0300089E-001, 3.5594349E-002, 2.4473111E-004, 1.6672210E-005, 6.8019275E-003, 4.1487286E+002
 1.0300529E+002, 1.2073158E-001, 1.0326423E-001, 3.5670572E-002, 2.4532584E-004, 1.7827192E-005, 6.8194103E-003, 4.1243082E+002
 1.0400102E+002, 1.2100310E-001, 1.0301101E-001, 3.5597436E-002, 2.4505705E-004, 1.7839274E-005, 6.8026640E-003, 4.1295984E+002
 1.0500366E+002, 1.2145668E-001, 1.0259050E-001, 3.5474868E-002, 2.4256968E-004, 1.7060076E-005, 6.7744164E-003, 4.1318396E+002
 1.0600387E+002, 1.2067082E-001, 1.0332052E-001, 3.5687015E-002, 2.4572033E-004, 1.7756214E-005, 6.8232051E-003, 4.1439759E+002
 1.0700626E+002, 1.2109961E-001, 1.0292056E-001, 3.5571344E-002, 2.4503904E-004, 1.9498586E-005, 6.7966988E-003, 4.1179389E+002
 1.0800436E+002, 1.2059568E-001, 1.0339018E-001, 3.5707251E-002, 2.4601632E-004, 1.8527889E-005, 6.8278594E-003, 4.1064167E+002
 1.0900659E+002, 1.2057438E-001, 1.0341119E-001, 3.5712839E-002, 2.4515287E-004, 1.7881071E-005, 6.8290591E-003, 4.1221479E+002
 1.1000831E+002, 1.2037560E-001, 1.0359511E-001, 3.5766598E-002, 2.4651681E-004, 1.8454199E-005, 6.8414732E-003, 4.1469375E+002
 1.1100470E+002, 1.2082771E-001, 1.0317387E-001, 3.5644626E-002, 2.4552466E-004, 1.9547511E-005, 6.8134980E-003, 4.1053510E+002
 1.1200479E+002, 1.2022356E-001, 1.0373730E-001, 3.5807551E-002, 2.4645199E-004, 1.7767228E-005, 6.8508303E-003, 4.1387258E+002
 1.1300479E+002, 1.2066394E-001, 1.0332703E-001, 3.5688712E-002, 2.4540247E-004, 1.9026176E-005, 6.8235662E-003, 4.1242579E+002
 1.1400810E+002, 1.2003910E-001, 1.0390910E-001, 3.5857200E-002, 2.4669251E-004, 1.8491115E-005, 6.8622049E-003, 4.1251090E+002
 1.1500304E+002, 1.1993759E-001, 1.0400372E-001, 3.5884631E-002, 2.4697361E-004, 1.7751779E-005, 6.8685009E-003, 4.1340656E+002
 1.1600476E+002, 1.2033889E-001, 1.0363034E-001, 3.5776298E-002, 2.4568715E-004, 1.8414357E-005, 6.8436171E-003, 4.1144030E+002
 1.1700610E+002, 1.1985924E-001, 1.0407745E-001, 3.5905653E-002, 2.4654814E-004, 1.7365208E-005, 6.8732690E-003, 4.1282086E+002
 1.1800643E+002, 1.1895529E-001, 1.0491880E-001, 3.6149456E-002, 2.4889483E-004, 1.7330244E-005, 6.9292228E-003, 4.1259650E+002
 1.1900820E+002, 1.2045248E-001, 1.0352578E-001, 3.5745561E-002, 2.4458055E-004, 1.7316048E-005, 6.8364889E-003, 4.1342867E+002
 1.2000750E+002, 1.1958393E-001, 1.0433348E-001, 3.5979962E-002, 2.4747660E-004, 1.7220363E-005, 6.8903421E-003, 4.1341692E+002
 1.2100059E+002, 1.2008602E-001, 1.0386606E-001, 3.5844493E-002, 2.4613589E-004, 1.7856336E-005, 6.8592487E-003, 4.1023996E+002
 1.2200261E+002, 1.1894728E-001, 1.0492701E-001, 3.6151605E-002, 2.4848548E-004, 1.6121544E-005, 6.9296759E-003, 4.1422860E+002
 1.2300761E+002, 1.2009183E-001, 1.0386100E-001, 3.5842935E-002, 2.4594983E-004, 1.7197145E-005, 6.8588751E-003, 4.1275528E+002
 1.2400237E+002, 1.1996408E-001, 1.0397935E-001, 3.5877420E-002, 2.4663332E-004, 1.7865180E-005, 6.8668218E-003, 4.1290800E+002
 1.2500363E+002, 1.2006761E-001, 1.0388204E-001, 3.5849615E-002, 2.4708180E-004, 1.8440833E-005, 6.8605052E-003, 4.1215927E+002
 1.2600784E+002, 1.2031187E-001, 1.0365565E-001, 3.5783568E-002, 2.4563814E-004, 1.8334811E-005, 6.8452748E-003, 4.1380388E+002
 1.2700310E+002, 1.1959393E-001, 1.0432297E-001, 3.5977363E-002, 2.4827401E-004, 1.8410616E-005, 6.8898206E-003, 4.1246611E+002
 1.2800721E+002, 1.2018005E-001, 1.0377611E-001, 3.5819340E-002, 2.4757589E-004, 2.0206837E-005, 6.8536295E-003, 4.1000773E+002
 1.2900483E+002, 1.1925056E-001, 1.0464239E-001, 3.6070017E-002, 2.4933246E-004, 1.8294982E-005, 6.9110998E-003, 4.1273189E+002
 1.3000100E+002, 1.1906489E-001, 1.0481570E-001, 3.6119993E-002, 2.4937061E-004, 1.8334638E-005, 6.9225301E-003, 4.1132649E+002
 1.3100794E+002, 1.1952155E-001, 1.0439081E-001, 3.5996878E-002, 2.4819398E-004, 1.7635711E-005, 6.8942745E-003, 4.1030750E+002
 1.3200584E+002, 1.1988944E-001, 1.0404847E-001, 3.5897595E-002, 2.4709302E-004, 1.8057311E-005, 6.8714761E-003, 4.1047430E+002
 1.3300382E+002, 1.1971920E-001, 1.0420767E-001, 3.5943475E-002, 2.4706736E-004, 1.7102448E-005, 6.8819627E-003, 4.1284553E+002
 1.3400157E+002, 1.1883553E-001, 1.0502996E-001, 3.6181877E-002, 2.4958384E-004, 1.6790849E-005, 6.9366965E-003, 4.1247811E+002
 1.3500750E+002, 1.1943149E-001, 1.0447348E-001, 3.6021296E-002, 2.4927823E-004, 1.8494755E-005, 6.8999554E-003, 4.1092829E+002
 1.3600392E+002, 1.1913058E-001, 1.0475539E-001, 3.6102200E-002, 2.4861772E-004, 1.7605561E-005, 6.9183936E-003, 4.1413381E+002
 1.3700113E+002, 1.1892413E-001, 1.0494711E-001, 3.6157975E-002, 2.4955469E-004, 1.7486133E-005, 6.9312298E-003, 4.1331935E+002
 1.3800610E+002, 1.1902598E-001, 1.0485315E-001, 3.6130376E-002, 2.4860827E-004, 1.7208987E-005, 6.9248345E-003, 4.1212228E+002
 1.3900710E+002, 1.1837325E-001, 1.0546163E-001, 3.6306358E-002, 2.4967316E-004, 1.6136942E-005, 6.9651657E-003, 4.1413942E+002
 1.4000160E+002, 1.1899906E-001, 1.0487651E-001, 3.6137905E-002, 2.5006813E-004, 1.7735870E-005, 6.9266871E-003, 4.1435753E+002
 1.4100228E+002, 1.1916710E-001, 1.0472129E-001, 3.6092368E-002, 2.4861057E-004, 1.7601933E-005, 6.9161450E-003, 4.1351392E+002
 1.4200247E+002, 1.1939965E-001, 1.0450401E-001, 3.6029697E-002, 2.4855261E-004, 1.8630473E-005, 6.9018118E-003, 4.1001569E+002
 1.4300691E+002, 1.1893978E-001, 1.0493343E-001, 3.6153658E-002, 2.4886004E-004, 1.6820877E-005, 6.9301797E-003, 4.1171017E+002
 1.4400421E+002, 1.1898864E-001, 1.0488814E-001, 3.6140388E-002, 2.4847584E-004, 1.7350751E-005, 6.9271121E-003, 4.1155283E+002
 1.4500721E+002, 1.1910991E-001, 1.0477583E-001, 3.6107623E-002, 2.4775544E-004, 1.6888124E-005, 6.9195556E-003, 4.1053893E+002
 1.4600456E+002, 1.1896371E-001, 1.0491107E-001, 3.6147203E-002, 2.4884484E-004, 1.7003712E-005, 6.9287028E-003, 4.1307491E+002
 1.4700481E+002, 1.1890518E-001, 1.0496550E-001, 3.6162992E-002, 2.4902749E-004, 1.7050546E-005, 6.9323293E-003, 4.1305314E+002
 1.4800876E+002, 1.1851725E-001, 1.0532754E-001, 3.6267484E-002, 2.4927117E-004, 1.6593352E-005, 6.9562421E-003, 4.1082588E+002
 1.4900733E+002, 1.1916059E-001, 1.0472877E-001, 3.6093907E-002, 2.4748140E-004, 1.7163764E-005, 6.9163953E-003, 4.1303563E+002
 1.5000213E+002, 1.1888339E-001, 1.0498698E-001, 3.6168684E-002, 2.4811397E-004, 1.6658790E-005, 6.9335486E-003, 4.1073966E+002
 1.5100117E+002, 1.1915553E-001, 1.0473337E-001, 3.6095332E-002, 2.4765629E-004, 1.6766794E-005, 6.9167362E-003, 4.1111632E+002
 1.5200948E+002, 1.1941339E-001, 1.0449111E-001, 3.6026001E-002, 2.4859045E-004, 1.8748843E-005, 6.9009701E-003, 4.0977100E+002
 1.5300314E+002, 1.1964885E-001, 1.0427342E-001, 3.5962320E-002, 2.4687759E-004, 1.7785344E-005, 6.8862555E-003, 4.1315204E+002
 1.5400517E+002, 1.1938279E-001, 1.0451878E-001, 3.6034356E-002, 2.4929002E-004, 1.9209346E-005, 6.9029435E-003, 4.1118504E+002
