s,,,,,,,
Time,"O2 EXHAUST","CO2 EXHAUST","H2O EXHAUST","CO EXHAUST","FUEL EXHAUST","SOOT EXHAUST","TEMP EXHAUST"
 0.0000000E+000, 2.3099739E-001, 5.9146498E-004, 5.9412092E-003, 0.0000000E+000, 0.0000000E+000, 0.0000000E+000, 2.0000000E+001
 1.0050866E+000, 2.3099739E-001, 5.9146498E-004, 5.9412092E-003, 2.2050202E-032, 4.6263068E-031, 5.1796126E-032, 2.0503223E+001
 2.0008957E+000, 2.2476390E-001, 6.3267731E-003, 7.6033486E-003, 1.9415036E-005, 2.9043412E-004, 3.8216867E-004, 8.1029815E+001
 3.0067144E+000, 2.2149396E-001, 9.3310217E-003, 8.4902524E-003, 5.7913490E-005, 3.1332310E-004, 5.8842426E-004, 1.0790150E+002
 4.0030168E+000, 2.1763423E-001, 1.2882451E-002, 9.5224724E-003, 7.5097172E-005, 4.6508841E-004, 8.2617721E-004, 1.4493187E+002
 5.0054588E+000, 2.1472345E-001, 1.5565867E-002, 1.0308677E-002, 9.8696610E-005, 4.9956245E-004, 1.0080935E-003, 1.6871304E+002
 6.0056849E+000, 2.0934718E-001, 2.0520976E-002, 1.1756658E-002, 1.3575596E-004, 6.0335964E-004, 1.3426181E-003, 2.1144913E+002
 7.0041253E+000, 2.0646551E-001, 2.3196624E-002, 1.2532227E-002, 1.4392591E-004, 6.2958864E-004, 1.5207137E-003, 2.3254626E+002
 8.0018154E+000, 2.0238563E-001, 2.6961571E-002, 1.3634694E-002, 1.7580312E-004, 6.6690348E-004, 1.7756850E-003, 2.6103285E+002
 9.0057139E+000, 1.9786788E-001, 3.1183056E-002, 1.4854667E-002, 1.8108691E-004, 6.2423326E-004, 2.0550398E-003, 2.8557198E+002
 1.0002672E+001, 1.9265202E-001, 3.6052231E-002, 1.6263923E-002, 1.9104367E-004, 5.7606699E-004, 2.3780833E-003, 3.1343416E+002
 1.1006008E+001, 1.8852376E-001, 3.9899327E-002, 1.7380420E-002, 2.0450963E-004, 5.3970918E-004, 2.6345181E-003, 3.3311305E+002
 1.2006185E+001, 1.8415619E-001, 4.3983229E-002, 1.8560920E-002, 2.0999365E-004, 4.8377382E-004, 2.9048477E-003, 3.4763768E+002
 1.3006119E+001, 1.7920897E-001, 4.8611546E-002, 1.9897747E-002, 2.1429288E-004, 4.1936502E-004, 3.2108033E-003, 3.6450643E+002
 1.4005161E+001, 1.7413018E-001, 5.3377525E-002, 2.1269415E-002, 2.0952921E-004, 3.3436782E-004, 3.5238877E-003, 3.8023358E+002
 1.5007368E+001, 1.6938267E-001, 5.7825332E-002, 2.2551171E-002, 2.0829188E-004, 2.7163614E-004, 3.8167594E-003, 3.9212215E+002
 1.6003535E+001, 1.6527753E-001, 6.1673849E-002, 2.3658812E-002, 2.0465698E-004, 2.1927204E-004, 4.0696203E-003, 4.0089140E+002
 1.7004295E+001, 1.6180893E-001, 6.4920778E-002, 2.4595012E-002, 2.0476030E-004, 1.8065082E-004, 4.2836348E-003, 4.0669378E+002
 1.8004454E+001, 1.5907464E-001, 6.7485383E-002, 2.5332476E-002, 2.0114761E-004, 1.4630777E-004, 4.4518830E-003, 4.1263391E+002
 1.9010917E+001, 1.5486967E-001, 7.1416161E-002, 2.6466775E-002, 2.0311969E-004, 1.1493606E-004, 4.7113686E-003, 4.1800628E+002
 2.0002229E+001, 1.5115421E-001, 7.4888761E-002, 2.7469044E-002, 2.0521119E-004, 8.8087389E-005, 4.9406830E-003, 4.2317517E+002
 2.1004405E+001, 1.4912743E-001, 7.6785229E-002, 2.8015171E-002, 2.0411344E-004, 7.5259784E-005, 5.0654368E-003, 4.2313353E+002
 2.2005409E+001, 1.4693945E-001, 7.8826836E-002, 2.8605223E-002, 2.0688273E-004, 6.6871639E-005, 5.2005855E-003, 4.2185569E+002
 2.3005777E+001, 1.4393535E-001, 8.1636708E-002, 2.9414909E-002, 2.0621610E-004, 4.7747537E-005, 5.3856307E-003, 4.2733387E+002
 2.4008724E+001, 1.4037947E-001, 8.4953848E-002, 3.0373593E-002, 2.1072684E-004, 3.7989467E-005, 5.6052187E-003, 4.2924960E+002
 2.5008794E+001, 1.3998622E-001, 8.5320898E-002, 3.0479684E-002, 2.1123426E-004, 3.5937191E-005, 5.6295184E-003, 4.2658548E+002
 2.6008858E+001, 1.3710476E-001, 8.8006483E-002, 3.1256774E-002, 2.1661065E-004, 3.0107325E-005, 5.8076686E-003, 4.2772445E+002
 2.7003042E+001, 1.3527717E-001, 8.9712162E-002, 3.1749321E-002, 2.1818434E-004, 2.5351115E-005, 5.9204213E-003, 4.2902787E+002
 2.8004290E+001, 1.3328206E-001, 9.1571074E-002, 3.2287318E-002, 2.2212144E-004, 2.2843163E-005, 6.0437798E-003, 4.2577268E+002
 2.9005485E+001, 1.3115938E-001, 9.3551422E-002, 3.2859330E-002, 2.2423984E-004, 1.9168533E-005, 6.1747518E-003, 4.2813197E+002
 3.0000345E+001, 1.2974543E-001, 9.4869101E-002, 3.3240491E-002, 2.2668253E-004, 1.8072575E-005, 6.2621191E-003, 4.2636431E+002
 3.1006512E+001, 1.2768714E-001, 9.6786999E-002, 3.3795449E-002, 2.3054846E-004, 1.5926006E-005, 6.3893501E-003, 4.2558983E+002
 3.2001489E+001, 1.2637315E-001, 9.8012485E-002, 3.4149524E-002, 2.3205247E-004, 1.4517909E-005, 6.4704400E-003, 4.2484763E+002
 3.3003776E+001, 1.2490010E-001, 9.9385947E-002, 3.4546527E-002, 2.3405542E-004, 1.2916209E-005, 6.5613896E-003, 4.2566516E+002
 3.4009896E+001, 1.2168536E-001, 1.0238012E-001, 3.5413377E-002, 2.4095125E-004, 1.1051207E-005, 6.7602040E-003, 4.2911208E+002
 3.5009537E+001, 1.2064407E-001, 1.0334882E-001, 3.5694315E-002, 2.4407988E-004, 1.1018822E-005, 6.8247185E-003, 4.2761166E+002
 3.6000887E+001, 1.1912217E-001, 1.0476568E-001, 3.6104746E-002, 2.4777729E-004, 1.0788099E-005, 6.9188914E-003, 4.2687549E+002
 3.7006039E+001, 1.1790758E-001, 1.0589645E-001, 3.6432268E-002, 2.5066843E-004, 1.0817176E-005, 6.9940361E-003, 4.2803506E+002
 3.8006340E+001, 1.1630962E-001, 1.0738645E-001, 3.6862818E-002, 2.5259701E-004, 1.0075170E-005, 7.0926504E-003, 4.2817900E+002
 3.9002791E+001, 1.1471897E-001, 1.0886743E-001, 3.7291767E-002, 2.5635602E-004, 9.7715556E-006, 7.1910629E-003, 4.2835453E+002
 4.0007763E+001, 1.1298811E-001, 1.1047693E-001, 3.7758836E-002, 2.6208639E-004, 1.0155145E-005, 7.2983683E-003, 4.2977251E+002
 4.1000221E+001, 1.1140740E-001, 1.1194643E-001, 3.8185491E-002, 2.6770789E-004, 1.0238471E-005, 7.3964230E-003, 4.3005987E+002
 4.2004363E+001, 1.1159487E-001, 1.1177189E-001, 3.8134892E-002, 2.6718151E-004, 1.0639041E-005, 7.3848074E-003, 4.2759009E+002
 4.3001843E+001, 1.0986301E-001, 1.1338269E-001, 3.8602141E-002, 2.7256155E-004, 1.1211470E-005, 7.4921228E-003, 4.2678253E+002
 4.4002511E+001, 1.0863149E-001, 1.1453258E-001, 3.8933708E-002, 2.7275732E-004, 1.0190070E-005, 7.5679501E-003, 4.2835430E+002
 4.5006760E+001, 1.0640941E-001, 1.1658968E-001, 3.9534817E-002, 2.8769047E-004, 1.3094875E-005, 7.7067284E-003, 4.2951002E+002
 4.6002421E+001, 1.0594925E-001, 1.1701064E-001, 3.9660030E-002, 2.9479154E-004, 1.5771146E-005, 7.7359955E-003, 4.2916651E+002
 4.7000351E+001, 1.0399324E-001, 1.1882309E-001, 4.0188917E-002, 3.0660153E-004, 1.7639972E-005, 7.8579802E-003, 4.3054812E+002
 4.8008588E+001, 1.0318759E-001, 1.1957197E-001, 4.0406239E-002, 3.0928349E-004, 1.9074717E-005, 7.9079114E-003, 4.3044158E+002
 4.9004438E+001, 1.0155823E-001, 1.2105660E-001, 4.0850834E-002, 3.3980502E-004, 2.7573629E-005, 8.0123034E-003, 4.3022319E+002
 5.0005841E+001, 1.0033480E-001, 1.2218478E-001, 4.1182326E-002, 3.5135822E-004, 3.1999039E-005, 8.0891352E-003, 4.3067319E+002
 5.1001474E+001, 9.9289979E-002, 1.2314019E-001, 4.1466999E-002, 3.6835102E-004, 3.5416110E-005, 8.1557464E-003, 4.3166219E+002
 5.2009709E+001, 9.8637310E-002, 1.2376439E-001, 4.1640009E-002, 3.5569818E-004, 3.3875702E-005, 8.1941722E-003, 4.3019049E+002
 5.3002659E+001, 9.7119315E-002, 1.2515317E-001, 4.2053068E-002, 3.7908000E-004, 4.2511600E-005, 8.2907162E-003, 4.2983095E+002
 5.4002545E+001, 9.6655059E-002, 1.2557408E-001, 4.2180282E-002, 3.8985242E-004, 4.3736857E-005, 8.3207667E-003, 4.3080686E+002
 5.5007182E+001, 9.5289317E-002, 1.2681150E-001, 4.2553977E-002, 4.2104479E-004, 5.3654827E-005, 8.4090096E-003, 4.3177399E+002
 5.6002184E+001, 9.4758721E-002, 1.2729600E-001, 4.2698470E-002, 4.2992258E-004, 5.7264548E-005, 8.4428450E-003, 4.3222529E+002
 5.7005446E+001, 9.3824361E-002, 1.2816289E-001, 4.2950786E-002, 4.3439656E-004, 5.9236059E-005, 8.5009380E-003, 4.3259490E+002
 5.8004164E+001, 9.3182687E-002, 1.2875498E-001, 4.3124443E-002, 4.3989100E-004, 6.2763823E-005, 8.5411394E-003, 4.3189276E+002
 5.9006438E+001, 9.2024038E-002, 1.2981227E-001, 4.3440186E-002, 4.6003516E-004, 6.9880849E-005, 8.6151412E-003, 4.3128655E+002
 6.0007394E+001, 9.1426835E-002, 1.3036781E-001, 4.3600974E-002, 4.6126284E-004, 7.2999288E-005, 8.6520184E-003, 4.3211482E+002
 6.1005891E+001, 9.1261706E-002, 1.3051837E-001, 4.3645723E-002, 4.6376807E-004, 7.6518504E-005, 8.6624786E-003, 4.3090681E+002
 6.2007517E+001, 8.9665627E-002, 1.3197696E-001, 4.4080325E-002, 4.8975147E-004, 8.5739619E-005, 8.7641813E-003, 4.3042662E+002
 6.3008541E+001, 8.8383612E-002, 1.3312444E-001, 4.4433662E-002, 5.3112305E-004, 9.6256188E-005, 8.8486792E-003, 4.3206940E+002
 6.4005755E+001, 8.7885434E-002, 1.3356918E-001, 4.4570862E-002, 5.4765296E-004, 1.0331464E-004, 8.8815351E-003, 4.3029830E+002
 6.5007540E+001, 8.7541853E-002, 1.3390071E-001, 4.4661157E-002, 5.3804198E-004, 1.0453895E-004, 8.9013241E-003, 4.3282193E+002
 6.6000335E+001, 8.6969699E-002, 1.3441625E-001, 4.4817970E-002, 5.5311242E-004, 1.1128364E-004, 8.9385337E-003, 4.3154232E+002
 6.7008452E+001, 8.5474641E-002, 1.3577820E-001, 4.5225647E-002, 5.8081615E-004, 1.2213340E-004, 9.0342359E-003, 4.3280916E+002
 6.8002540E+001, 8.5878084E-002, 1.3540211E-001, 4.5117020E-002, 5.8041186E-004, 1.2148222E-004, 9.0093619E-003, 4.3283436E+002
 6.9009144E+001, 8.4721270E-002, 1.3647428E-001, 4.5429303E-002, 5.8637123E-004, 1.2679911E-004, 9.0813033E-003, 4.3178453E+002
 7.0007852E+001, 8.3595899E-002, 1.3748621E-001, 4.5738346E-002, 6.1820712E-004, 1.3816610E-004, 9.1548231E-003, 4.3440129E+002
 7.1007720E+001, 8.3707696E-002, 1.3739155E-001, 4.5706484E-002, 6.0983835E-004, 1.3743983E-004, 9.1467896E-003, 4.3269140E+002
 7.2008856E+001, 8.3102003E-002, 1.3794205E-001, 4.5872171E-002, 6.2265892E-004, 1.3923765E-004, 9.1858206E-003, 4.3284814E+002
 7.3001502E+001, 8.2263111E-002, 1.3871116E-001, 4.6099724E-002, 6.3345676E-004, 1.4774742E-004, 9.2388253E-003, 4.3268039E+002
 7.4007148E+001, 8.1518029E-002, 1.3937534E-001, 4.6305238E-002, 6.5925619E-004, 1.5710179E-004, 9.2881319E-003, 4.3176623E+002
 7.5008094E+001, 8.0793336E-002, 1.4006021E-001, 4.6498916E-002, 6.5241212E-004, 1.5529383E-004, 9.3318017E-003, 4.3229799E+002
 7.6005814E+001, 8.0741246E-002, 1.4008723E-001, 4.6515615E-002, 6.6883602E-004, 1.6846581E-004, 9.3371046E-003, 4.3421573E+002
 7.7006041E+001, 8.0145948E-002, 1.4063597E-001, 4.6677131E-002, 6.7495104E-004, 1.6898400E-004, 9.3745812E-003, 4.3353568E+002
 7.8002026E+001, 7.8836435E-002, 1.4183051E-001, 4.7034421E-002, 6.9869533E-004, 1.7375751E-004, 9.4584011E-003, 4.3459492E+002
 7.9010093E+001, 7.8347477E-002, 1.4229095E-001, 4.7165242E-002, 6.9522784E-004, 1.7410453E-004, 9.4880033E-003, 4.3415359E+002
 8.0001022E+001, 7.8373301E-002, 1.4224367E-001, 4.7161784E-002, 7.1390134E-004, 1.8253523E-004, 9.4888918E-003, 4.3419168E+002
 8.1006537E+001, 7.7912904E-002, 1.4267115E-001, 4.7285991E-002, 7.1572131E-004, 1.8401790E-004, 9.5174558E-003, 4.3394016E+002
 8.2008137E+001, 7.7039093E-002, 1.4346062E-001, 4.7525386E-002, 7.3741938E-004, 1.9149938E-004, 9.5741402E-003, 4.3479636E+002
 8.3000841E+001, 7.7137869E-002, 1.4337056E-001, 4.7498073E-002, 7.3497889E-004, 1.9438634E-004, 9.5676812E-003, 4.3273044E+002
 8.4009741E+001, 7.6363223E-002, 1.4408931E-001, 4.7707171E-002, 7.3850912E-004, 1.9674309E-004, 9.6158089E-003, 4.3300399E+002
 8.5001599E+001, 7.5481475E-002, 1.4486800E-001, 4.7951967E-002, 7.7577849E-004, 2.0606794E-004, 9.6751216E-003, 4.3528900E+002
 8.6008663E+001, 7.5386870E-002, 1.4496521E-001, 4.7975508E-002, 7.6761641E-004, 2.0818675E-004, 9.6797779E-003, 4.3518771E+002
 8.7000429E+001, 7.4942246E-002, 1.4534802E-001, 4.8100529E-002, 7.9451613E-004, 2.1557817E-004, 9.7107759E-003, 4.3462245E+002
 8.8001769E+001, 7.4266327E-002, 1.4598215E-001, 4.8281529E-002, 7.9128139E-004, 2.1872450E-004, 9.7518759E-003, 4.3537559E+002
 8.9005459E+001, 7.3530305E-002, 1.4662873E-001, 4.8486814E-002, 8.2589411E-004, 2.2381583E-004, 9.8019114E-003, 4.3499695E+002
 9.0004911E+001, 7.3695278E-002, 1.4646849E-001, 4.8442819E-002, 8.2997394E-004, 2.3089701E-004, 9.7922262E-003, 4.3545180E+002
 9.1007683E+001, 7.3965475E-002, 1.4622939E-001, 4.8367563E-002, 8.1840096E-004, 2.3110467E-004, 9.7739861E-003, 4.3553426E+002
 9.2006241E+001, 7.2759808E-002, 1.4732533E-001, 4.8696965E-002, 8.4314516E-004, 2.3818780E-004, 9.8515217E-003, 4.3633973E+002
 9.3001030E+001, 7.3289667E-002, 1.4683809E-001, 4.8553039E-002, 8.3677611E-004, 2.3717778E-004, 9.8180436E-003, 4.3555452E+002
 9.4006164E+001, 7.2534632E-002, 1.4754059E-001, 4.8757063E-002, 8.3953669E-004, 2.3408673E-004, 9.8649349E-003, 4.3659533E+002
 9.5004174E+001, 7.1406215E-002, 1.4856209E-001, 4.9066152E-002, 8.6636930E-004, 2.4082091E-004, 9.9380121E-003, 4.3471613E+002
 9.6003194E+001, 7.2020205E-002, 1.4801357E-001, 4.8896338E-002, 8.4496456E-004, 2.3938582E-004, 9.8972714E-003, 4.3592209E+002
 9.7009254E+001, 7.1098267E-002, 1.4884668E-001, 4.9148664E-002, 8.6733158E-004, 2.4931956E-004, 9.9569757E-003, 4.3629364E+002
 9.8003928E+001, 7.0665450E-002, 1.4924139E-001, 4.9266548E-002, 8.7488340E-004, 2.5298813E-004, 9.9846087E-003, 4.3563762E+002
 9.9008827E+001, 7.0814071E-002, 1.4909830E-001, 4.9227503E-002, 8.7889120E-004, 2.5177092E-004, 9.9760376E-003, 4.3674033E+002
 1.0000951E+002, 7.0854297E-002, 1.4908045E-001, 4.9213254E-002, 8.6222319E-004, 2.4873887E-004, 9.9712867E-003, 4.3651946E+002
 1.0100414E+002, 6.9947594E-002, 1.4990162E-001, 4.9461583E-002, 8.8352726E-004, 2.5375288E-004, 1.0029976E-002, 4.3686455E+002
 1.0200704E+002, 6.9453769E-002, 1.5035430E-001, 4.9595759E-002, 8.9030394E-004, 2.5681811E-004, 1.0061264E-002, 4.3697063E+002
 1.0300266E+002, 7.0173650E-002, 1.4970189E-001, 4.9398301E-002, 8.7311905E-004, 2.5631545E-004, 1.0014580E-002, 4.3515498E+002
 1.0400720E+002, 6.9176664E-002, 1.5061922E-001, 4.9669057E-002, 8.8471381E-004, 2.5777357E-004, 1.0077525E-002, 4.3660370E+002
 1.0500512E+002, 6.9028177E-002, 1.5074426E-001, 4.9711313E-002, 8.9609572E-004, 2.6052136E-004, 1.0088207E-002, 4.3656914E+002
 1.0600662E+002, 6.9344618E-002, 1.5045223E-001, 4.9625049E-002, 8.9232626E-004, 2.6456709E-004, 1.0068152E-002, 4.3605994E+002
 1.0700185E+002, 6.8100409E-002, 1.5162056E-001, 4.9959605E-002, 8.8819100E-004, 2.5593317E-004, 1.0144265E-002, 4.3655696E+002
 1.0800561E+002, 6.8254573E-002, 1.5145660E-001, 4.9920985E-002, 9.0407446E-004, 2.6455175E-004, 1.0136865E-002, 4.3623351E+002
 1.0900954E+002, 6.8575833E-002, 1.5117596E-001, 4.9830610E-002, 8.8677150E-004, 2.6665009E-004, 1.0114659E-002, 4.3638486E+002
 1.1000898E+002, 6.8091527E-002, 1.5162318E-001, 4.9961811E-002, 8.9096621E-004, 2.6751798E-004, 1.0145033E-002, 4.3574792E+002
 1.1100611E+002, 6.6986395E-002, 1.5262046E-001, 5.0265877E-002, 9.2129841E-004, 2.6717963E-004, 1.0217265E-002, 4.3735601E+002
 1.1200837E+002, 6.7602935E-002, 1.5208025E-001, 5.0093252E-002, 8.9039139E-004, 2.6655684E-004, 1.0175034E-002, 4.3474006E+002
 1.1301093E+002, 6.7197576E-002, 1.5244956E-001, 5.0203698E-002, 8.9772518E-004, 2.7023110E-004, 1.0200947E-002, 4.3557234E+002
 1.1400840E+002, 6.6687100E-002, 1.5291598E-001, 5.0343210E-002, 9.0696732E-004, 2.6863210E-004, 1.0233669E-002, 4.3581552E+002
 1.1500511E+002, 6.6832752E-002, 1.5277113E-001, 5.0304973E-002, 9.1346271E-004, 2.7524573E-004, 1.0225515E-002, 4.3802451E+002
 1.1600399E+002, 6.6231615E-002, 1.5329766E-001, 5.0472738E-002, 9.4275200E-004, 2.8118880E-004, 1.0266498E-002, 4.3740980E+002
 1.1700521E+002, 6.6110804E-002, 1.5343606E-001, 5.0500979E-002, 9.2140252E-004, 2.7567637E-004, 1.0271041E-002, 4.3738980E+002
 1.1800691E+002, 6.6294323E-002, 1.5327445E-001, 5.0449320E-002, 9.1216842E-004, 2.7942692E-004, 1.0258410E-002, 4.3701080E+002
 1.1900444E+002, 6.5163444E-002, 1.5430842E-001, 5.0757654E-002, 9.3099971E-004, 2.8139398E-004, 1.0330593E-002, 4.3732649E+002
 1.2000804E+002, 6.5327178E-002, 1.5414660E-001, 5.0715216E-002, 9.3869367E-004, 2.8206167E-004, 1.0321578E-002, 4.3751672E+002
 1.2100299E+002, 6.5243694E-002, 1.5422010E-001, 5.0738234E-002, 9.4207214E-004, 2.8480763E-004, 1.0327146E-002, 4.3681138E+002
 1.2200013E+002, 6.5567580E-002, 1.5393211E-001, 5.0648202E-002, 9.2925063E-004, 2.8582197E-004, 1.0305417E-002, 4.3725916E+002
 1.2300822E+002, 6.5599693E-002, 1.5392231E-001, 5.0636284E-002, 9.1258275E-004, 2.8060405E-004, 1.0301197E-002, 4.3666949E+002
 1.2400885E+002, 6.4659337E-002, 1.5476566E-001, 5.0895714E-002, 9.4246142E-004, 2.8304839E-004, 1.0363186E-002, 4.3658776E+002
 1.2500481E+002, 6.5388739E-002, 1.5409349E-001, 5.0697797E-002, 9.3483777E-004, 2.8222201E-004, 1.0317251E-002, 4.3659019E+002
 1.2600861E+002, 6.4323761E-002, 1.5506266E-001, 5.0988590E-002, 9.5578889E-004, 2.8809555E-004, 1.0385618E-002, 4.3705233E+002
 1.2700293E+002, 6.5047236E-002, 1.5441420E-001, 5.0789172E-002, 9.3290187E-004, 2.8392890E-004, 1.0337973E-002, 4.3606415E+002
 1.2800317E+002, 6.4714911E-002, 1.5471163E-001, 5.0880905E-002, 9.4388395E-004, 2.8542402E-004, 1.0359930E-002, 4.3588415E+002
 1.2900182E+002, 6.4445649E-002, 1.5495391E-001, 5.0954809E-002, 9.5134520E-004, 2.8820982E-004, 1.0377498E-002, 4.3507484E+002
 1.3000042E+002, 6.4056620E-002, 1.5531453E-001, 5.1059489E-002, 9.5273174E-004, 2.9299136E-004, 1.0401563E-002, 4.3760904E+002
 1.3100975E+002, 6.4206619E-002, 1.5518430E-001, 5.1017899E-002, 9.4526618E-004, 2.8703027E-004, 1.0391379E-002, 4.3779849E+002
 1.3200497E+002, 6.4023888E-002, 1.5534615E-001, 5.1068346E-002, 9.5224033E-004, 2.9073104E-004, 1.0403541E-002, 4.3437830E+002
 1.3300295E+002, 6.3411847E-002, 1.5590669E-001, 5.1234781E-002, 9.6115682E-004, 2.9414410E-004, 1.0442397E-002, 4.3746900E+002
 1.3400106E+002, 6.4129514E-002, 1.5526586E-001, 5.1036370E-002, 9.3610337E-004, 2.9122700E-004, 1.0394789E-002, 4.3803082E+002
 1.3500788E+002, 6.3760589E-002, 1.5560014E-001, 5.1137680E-002, 9.4515022E-004, 2.9052820E-004, 1.0418760E-002, 4.3731667E+002
 1.3600065E+002, 6.2744011E-002, 1.5650860E-001, 5.1418483E-002, 9.7981482E-004, 2.9566866E-004, 1.0486067E-002, 4.3860933E+002
 1.3701075E+002, 6.3734959E-002, 1.5560171E-001, 5.1148131E-002, 9.6348851E-004, 2.9700392E-004, 1.0422797E-002, 4.3883237E+002
 1.3800774E+002, 6.3270167E-002, 1.5604013E-001, 5.1271891E-002, 9.5875905E-004, 3.0148907E-004, 1.0450677E-002, 4.3843871E+002
 1.3900362E+002, 6.3074236E-002, 1.5621240E-001, 5.1326786E-002, 9.6832083E-004, 3.0032100E-004, 1.0464081E-002, 4.3770122E+002
 1.4000088E+002, 6.3256037E-002, 1.5604757E-001, 5.1277244E-002, 9.6457848E-004, 2.9734177E-004, 1.0452415E-002, 4.3828580E+002
 1.4100867E+002, 6.3465206E-002, 1.5585494E-001, 5.1220648E-002, 9.6260450E-004, 2.9542827E-004, 1.0439296E-002, 4.3886206E+002
 1.4200825E+002, 6.2408708E-002, 1.5682928E-001, 5.1506578E-002, 9.7195293E-004, 3.0209324E-004, 1.0505516E-002, 4.3875965E+002
 1.4300574E+002, 6.2665769E-002, 1.5658956E-001, 5.1436873E-002, 9.7089094E-004, 3.0631090E-004, 1.0489490E-002, 4.3819582E+002
 1.4400771E+002, 6.3053473E-002, 1.5623848E-001, 5.1330832E-002, 9.6200262E-004, 3.0275344E-004, 1.0464445E-002, 4.3771146E+002
 1.4500932E+002, 6.2333731E-002, 1.5691122E-001, 5.1525056E-002, 9.6250538E-004, 2.9685262E-004, 1.0508891E-002, 4.3869733E+002
 1.4600293E+002, 6.2027971E-002, 1.5717227E-001, 5.1611382E-002, 9.8280590E-004, 3.0255775E-004, 1.0530449E-002, 4.3894373E+002
 1.4700648E+002, 6.2326931E-002, 1.5689801E-001, 5.1530022E-002, 9.7859439E-004, 3.0226875E-004, 1.0511470E-002, 4.3773475E+002
 1.4800511E+002, 6.2574135E-002, 1.5666116E-001, 5.1464202E-002, 9.8311475E-004, 3.0624657E-004, 1.0496830E-002, 4.3882532E+002
 1.4900808E+002, 6.1838227E-002, 1.5735354E-001, 5.1661718E-002, 9.7930630E-004, 3.0210926E-004, 1.0541645E-002, 4.3837482E+002
 1.5000534E+002, 6.2217572E-002, 1.5703004E-001, 5.1554287E-002, 9.5333540E-004, 2.9738052E-004, 1.0514756E-002, 4.3796102E+002
 1.5101000E+002, 6.1884705E-002, 1.5733630E-001, 5.1645079E-002, 9.5789977E-004, 2.9430192E-004, 1.0535919E-002, 4.3717477E+002
 1.5200656E+002, 6.1991375E-002, 1.5722059E-001, 5.1619194E-002, 9.7156698E-004, 2.9652974E-004, 1.0531224E-002, 4.3763276E+002
 1.5300060E+002, 6.2244823E-002, 1.5699314E-001, 5.1548905E-002, 9.6296201E-004, 2.9949699E-004, 1.0514388E-002, 4.3748444E+002
 1.5400642E+002, 6.1159324E-002, 1.5798783E-001, 5.1844298E-002, 9.7884719E-004, 3.0271881E-004, 1.0583351E-002, 4.3748852E+002
