s,,,,,,,
Time,"O2 EXHAUST","CO2 EXHAUST","H2O EXHAUST","CO EXHAUST","FUEL EXHAUST","SOOT EXHAUST","TEMP EXHAUST"
 0.0000000E+000, 2.3099739E-001, 5.9146498E-004, 5.9412091E-003, 0.0000000E+000, 0.0000000E+000, 0.0000000E+000, 2.0000000E+001
 1.0046869E+000, 2.3099739E-001, 5.9146498E-004, 5.9412091E-003, 4.2591349E-029, 2.2500323E-028, 1.5213688E-029, 2.2178704E+001
 2.0029507E+000, 2.1982011E-001, 8.9427460E-003, 1.0774793E-002, 1.3209828E-004, 1.3970112E-004, 9.4617817E-005, 1.2905964E+002
 3.0036640E+000, 2.1096083E-001, 1.5678919E-002, 1.4586053E-002, 1.6892362E-004, 1.4340453E-004, 1.5584759E-004, 2.0503089E+002
 4.0038118E+000, 2.0365583E-001, 2.1220284E-002, 1.7730393E-002, 2.0647461E-004, 1.6138561E-004, 2.0778752E-004, 2.6546984E+002
 5.0053988E+000, 1.9334437E-001, 2.9147283E-002, 2.2145056E-002, 1.9398065E-004, 1.2692459E-004, 2.6775977E-004, 3.3911655E+002
 6.0047504E+000, 1.8114443E-001, 3.8581828E-002, 2.7353617E-002, 1.4288946E-004, 6.6699740E-005, 3.3129905E-004, 4.1135753E+002
 7.0064997E+000, 1.6582608E-001, 5.0398537E-002, 3.3899997E-002, 9.6926990E-005, 9.0489590E-006, 4.1478317E-004, 4.7890417E+002
 8.0059252E+000, 1.5998074E-001, 5.4884317E-002, 3.6403347E-002, 9.3979784E-005, 2.0666060E-007, 4.4961291E-004, 4.9214483E+002
 9.0022887E+000, 1.4694982E-001, 6.4843962E-002, 4.1993670E-002, 1.1300569E-004, 4.5775331E-007, 5.3247774E-004, 5.2900995E+002
 1.0006235E+001, 1.3417313E-001, 7.4614283E-002, 4.7473429E-002, 1.2826843E-004, 1.4007699E-007, 6.1303130E-004, 5.5023250E+002
 1.1004785E+001, 1.2281587E-001, 8.3283375E-002, 5.2349135E-002, 1.5256221E-004, 1.7808534E-006, 6.8683216E-004, 5.6302740E+002
 1.2006302E+001, 1.1479080E-001, 8.9426067E-002, 5.5789192E-002, 1.5810553E-004, 1.0008579E-006, 7.3659997E-004, 5.6754895E+002
 1.3008609E+001, 1.0240860E-001, 9.8896896E-002, 6.1099114E-002, 1.7142374E-004, 4.0554573E-007, 8.1436474E-004, 5.8131925E+002
 1.4000049E+001, 9.4982500E-002, 1.0455861E-001, 6.4289254E-002, 1.9192479E-004, 1.7259936E-006, 8.6356647E-004, 5.8443577E+002
 1.5006292E+001, 8.7871588E-002, 1.1000893E-001, 6.7335178E-002, 1.9178721E-004, 5.6348288E-007, 9.0663057E-004, 5.9144247E+002
 1.6007013E+001, 8.3370703E-002, 1.1344360E-001, 6.9267696E-002, 2.0202708E-004, 1.2670092E-006, 9.3600330E-004, 5.8313931E+002
 1.7004283E+001, 7.8076791E-002, 1.1748508E-001, 7.1540209E-002, 2.1294702E-004, 1.9733519E-006, 9.7032103E-004, 5.7727494E+002
 1.8002630E+001, 7.1465469E-002, 1.2252005E-001, 7.4382007E-002, 2.3497970E-004, 3.7034608E-006, 1.0148988E-003, 5.8054204E+002
 1.9004927E+001, 6.6544344E-002, 1.2627874E-001, 7.6493878E-002, 2.4384330E-004, 4.5978282E-006, 1.0465356E-003, 5.8649049E+002
 2.0002020E+001, 6.4264141E-002, 1.2801966E-001, 7.7472693E-002, 2.4847057E-004, 4.6205117E-006, 1.0613018E-003, 5.7608390E+002
 2.1000979E+001, 6.0281676E-002, 1.3105921E-001, 7.9182391E-002, 2.5713144E-004, 5.6760805E-006, 1.0872088E-003, 5.7624896E+002
 2.2007071E+001, 5.6792465E-002, 1.3371510E-001, 8.0682625E-002, 2.6971788E-004, 6.6072972E-006, 1.1109318E-003, 5.7126570E+002
 2.3005017E+001, 5.2752996E-002, 1.3682249E-001, 8.2409576E-002, 2.6202098E-004, 4.4260701E-006, 1.1338352E-003, 5.8250317E+002
 2.4008792E+001, 4.7073545E-002, 1.4113556E-001, 8.4854704E-002, 2.8942317E-004, 5.9525338E-006, 1.1738671E-003, 5.7741076E+002
 2.5005709E+001, 4.3870172E-002, 1.4357968E-001, 8.6230172E-002, 2.9693470E-004, 6.9070888E-006, 1.1948175E-003, 5.7875792E+002
 2.6008605E+001, 3.9577070E-002, 1.4685478E-001, 8.8073981E-002, 3.0754478E-004, 6.4442258E-006, 1.2230086E-003, 5.7981392E+002
 2.7001862E+001, 3.5947835E-002, 1.4964680E-001, 8.9625232E-002, 3.0029339E-004, 6.0417882E-006, 1.2435150E-003, 5.8197625E+002
 2.8008564E+001, 2.9574184E-002, 1.5444359E-001, 9.2382901E-002, 3.6108157E-004, 8.7561661E-006, 1.2945964E-003, 5.9308845E+002
 2.9003864E+001, 2.9574104E-002, 1.5447698E-001, 9.2372389E-002, 3.3800184E-004, 8.3664567E-006, 1.2898658E-003, 5.8503588E+002
 3.0008835E+001, 2.4283186E-002, 1.5852500E-001, 9.4640959E-002, 3.4290850E-004, 8.1416997E-006, 1.3229340E-003, 5.8692860E+002
 3.1007386E+001, 2.1757815E-002, 1.6037105E-001, 9.5750678E-002, 4.0461790E-004, 1.0972062E-005, 1.3508842E-003, 5.8373683E+002
 3.2008372E+001, 1.8962378E-002, 1.6254888E-001, 9.6937047E-002, 3.8026048E-004, 9.5075967E-006, 1.3628325E-003, 5.8496945E+002
 3.3001554E+001, 1.3931228E-002, 1.6636061E-001, 9.9106247E-002, 4.1102248E-004, 8.9218110E-006, 1.3996276E-003, 5.8960059E+002
 3.4009347E+001, 1.2943179E-002, 1.6710772E-001, 9.9532624E-002, 4.1801059E-004, 9.3569678E-006, 1.4070470E-003, 5.8992250E+002
 3.5010355E+001, 6.3339747E-003, 1.7201961E-001, 1.0241243E-001, 5.2451942E-004, 9.5377748E-006, 1.4689324E-003, 6.0247127E+002
 3.6001881E+001, 6.6324310E-003, 1.7073182E-001, 1.0261313E-001, 1.2529035E-003, 6.2748183E-005, 1.6163745E-003, 5.8549251E+002
 3.7005823E+001, 3.7042319E-003, 1.7140962E-001, 1.0436145E-001, 2.3364540E-003, 9.1082284E-005, 1.8562166E-003, 5.9326835E+002
 3.8001211E+001, 2.8509854E-003, 1.7300174E-001, 1.0442622E-001, 1.6838237E-003, 1.0379425E-004, 1.7275743E-003, 5.8110021E+002
 3.9001305E+001, 3.0190829E-003, 1.7094772E-001, 1.0494398E-001, 3.0022068E-003, 2.4680454E-004, 1.9966357E-003, 5.6441389E+002
 4.0006396E+001, 2.9385619E-003, 1.7159297E-001, 1.0479402E-001, 2.5982546E-003, 2.3870317E-004, 1.9143212E-003, 5.6855915E+002
 4.1008468E+001, 2.3646733E-003, 1.6924978E-001, 1.0588089E-001, 4.4953157E-003, 5.1665320E-004, 2.3063241E-003, 5.5020195E+002
 4.2008962E+001, 1.4970491E-003, 1.6926248E-001, 1.0647373E-001, 4.9583192E-003, 4.3264471E-004, 2.4066191E-003, 5.4883256E+002
 4.3004125E+001, 1.1695180E-003, 1.6715818E-001, 1.0730189E-001, 6.5455648E-003, 8.1607263E-004, 2.7334665E-003, 5.4342908E+002
 4.4001124E+001, 2.2407805E-003, 1.6750168E-001, 1.0649873E-001, 5.7575837E-003, 6.5253847E-004, 2.5656607E-003, 5.4368682E+002
 4.5005582E+001, 1.1083291E-003, 1.6574757E-001, 1.0773882E-001, 7.5163642E-003, 1.1459525E-003, 2.9323980E-003, 5.3229318E+002
 4.6007633E+001, 9.0899091E-004, 1.6415603E-001, 1.0833351E-001, 8.6917563E-003, 1.4307014E-003, 3.1741731E-003, 5.3338529E+002
 4.7009790E+001, 1.2584898E-003, 1.6642323E-001, 1.0746472E-001, 6.9996414E-003, 8.8614635E-004, 2.8259190E-003, 5.4456635E+002
 4.8003992E+001, 8.6945913E-004, 1.6484255E-001, 1.0819198E-001, 8.2748747E-003, 1.1182628E-003, 3.0893856E-003, 5.3411705E+002
 4.9001512E+001, 9.2751521E-004, 1.6348859E-001, 1.0852479E-001, 9.1384149E-003, 1.4847960E-003, 3.2655541E-003, 5.1825139E+002
 5.0009444E+001, 7.0691422E-004, 1.6307716E-001, 1.0881574E-001, 9.5501726E-003, 1.4125396E-003, 3.3514060E-003, 5.2287533E+002
 5.1006776E+001, 6.4830708E-004, 1.6186764E-001, 1.0918611E-001, 1.0379434E-002, 1.7473731E-003, 3.5212984E-003, 5.1812072E+002
 5.2008587E+001, 6.3949468E-004, 1.5996354E-001, 1.0967387E-001, 1.1610585E-002, 2.5173460E-003, 3.7726708E-003, 5.1489881E+002
 5.3005220E+001, 6.2606513E-004, 1.5932946E-001, 1.0988951E-001, 1.2061392E-002, 2.4878863E-003, 3.8652128E-003, 5.1589421E+002
 5.4005341E+001, 5.7699742E-004, 1.5864770E-001, 1.1012023E-001, 1.2545877E-002, 2.6073707E-003, 3.9646667E-003, 5.1031092E+002
 5.5003069E+001, 6.1572234E-004, 1.5818975E-001, 1.1020991E-001, 1.2820124E-002, 2.7936350E-003, 4.0203942E-003, 5.0998098E+002
 5.6001970E+001, 6.9035373E-004, 1.5809625E-001, 1.1021272E-001, 1.2863049E-002, 2.6497670E-003, 4.0289435E-003, 5.0994011E+002
 5.7007737E+001, 6.2397777E-004, 1.5645029E-001, 1.1064030E-001, 1.3932920E-002, 3.5232200E-003, 4.2474559E-003, 5.0349092E+002
 5.8008063E+001, 6.2103328E-004, 1.5537540E-001, 1.1098811E-001, 1.4683211E-002, 3.5005929E-003, 4.4013219E-003, 5.0554855E+002
 5.9000107E+001, 6.3632851E-004, 1.5608233E-001, 1.1077784E-001, 1.4203626E-002, 3.3453992E-003, 4.3031272E-003, 5.0547968E+002
 6.0000204E+001, 6.5747514E-004, 1.5323341E-001, 1.1148869E-001, 1.6030577E-002, 4.4717836E-003, 4.6759633E-003, 4.9667828E+002
 6.1006109E+001, 6.1727391E-004, 1.5439974E-001, 1.1124564E-001, 1.5319851E-002, 3.8448693E-003, 4.5313794E-003, 4.9574035E+002
 6.2007874E+001, 6.1218439E-004, 1.5371669E-001, 1.1144717E-001, 1.5781810E-002, 3.9645973E-003, 4.6259483E-003, 5.0185432E+002
 6.3000166E+001, 6.6503353E-004, 1.5159063E-001, 1.1193897E-001, 1.7114988E-002, 4.8904344E-003, 4.8976454E-003, 4.9468395E+002
 6.4010551E+001, 6.6276200E-004, 1.5099146E-001, 1.1211912E-001, 1.7522748E-002, 4.9654823E-003, 4.9811486E-003, 4.9570212E+002
 6.5001760E+001, 6.8155267E-004, 1.5224067E-001, 1.1179141E-001, 1.6708911E-002, 4.4538573E-003, 4.8149070E-003, 4.9876591E+002
 6.6003672E+001, 7.0963236E-004, 1.5070321E-001, 1.1218929E-001, 1.7705432E-002, 4.9039778E-003, 5.0184024E-003, 4.9589186E+002
 6.7006780E+001, 6.9501843E-004, 1.5017320E-001, 1.1231097E-001, 1.8037591E-002, 5.2562683E-003, 5.0860935E-003, 4.9342831E+002
 6.8008802E+001, 8.3312584E-004, 1.4919894E-001, 1.1244568E-001, 1.8577186E-002, 5.7677394E-003, 5.1951624E-003, 4.9375182E+002
 6.9006790E+001, 7.2650643E-004, 1.4917406E-001, 1.1261437E-001, 1.8719184E-002, 5.2159353E-003, 5.2256917E-003, 4.9708523E+002
 7.0008108E+001, 8.9155852E-004, 1.4870885E-001, 1.1258568E-001, 1.8903988E-002, 5.6235823E-003, 5.2620073E-003, 4.8903064E+002
 7.1008805E+001, 6.8773335E-004, 1.4834738E-001, 1.1278969E-001, 1.9226520E-002, 5.9214822E-003, 5.3289474E-003, 4.9451930E+002
 7.2008981E+001, 7.0599062E-004, 1.4774108E-001, 1.1296215E-001, 1.9631239E-002, 5.9727473E-003, 5.4117359E-003, 4.9317512E+002
 7.3006225E+001, 7.5254208E-004, 1.4697199E-001, 1.1310118E-001, 2.0083316E-002, 6.4342254E-003, 5.5034877E-003, 4.8760937E+002
 7.4010615E+001, 7.2827012E-004, 1.4675079E-001, 1.1317914E-001, 2.0243032E-002, 6.4885392E-003, 5.5363020E-003, 4.9223206E+002
 7.5008526E+001, 7.3991056E-004, 1.4697919E-001, 1.1310972E-001, 2.0086828E-002, 6.4196941E-003, 5.5043045E-003, 4.8956714E+002
 7.6003458E+001, 7.7678739E-004, 1.4585920E-001, 1.1333337E-001, 2.0761915E-002, 7.0892600E-003, 5.6415426E-003, 4.8665948E+002
 7.7005695E+001, 7.5083939E-004, 1.4560000E-001, 1.1343622E-001, 2.0957801E-002, 7.0712990E-003, 5.6818833E-003, 4.8936882E+002
 7.8010612E+001, 7.7435120E-004, 1.4514383E-001, 1.1350379E-001, 2.1214640E-002, 7.4543897E-003, 5.7338589E-003, 4.8877566E+002
 7.9000654E+001, 7.6146570E-004, 1.4442414E-001, 1.1375558E-001, 2.1731644E-002, 7.3675123E-003, 5.8400489E-003, 4.9418713E+002
 8.0007269E+001, 7.5107687E-004, 1.4355813E-001, 1.1393149E-001, 2.2256638E-002, 8.0287447E-003, 5.9468148E-003, 4.8770896E+002
 8.1002428E+001, 7.8179922E-004, 1.4457556E-001, 1.1367472E-001, 2.1601252E-002, 7.4851322E-003, 5.8130296E-003, 4.8933146E+002
 8.2006148E+001, 7.7748397E-004, 1.4345120E-001, 1.1394893E-001, 2.2317682E-002, 8.0216121E-003, 5.9591792E-003, 4.8945086E+002
 8.3004653E+001, 8.0238449E-004, 1.4286984E-001, 1.1412368E-001, 2.2712790E-002, 7.9818008E-003, 6.0400847E-003, 4.8729692E+002
 8.4002197E+001, 7.6241573E-004, 1.4281606E-001, 1.1411635E-001, 2.2732179E-002, 8.2997228E-003, 6.0438567E-003, 4.8691939E+002
 8.5008879E+001, 7.9934779E-004, 1.4273115E-001, 1.1411818E-001, 2.2771177E-002, 8.3019879E-003, 6.0516248E-003, 4.8824686E+002
 8.6009041E+001, 8.1125506E-004, 1.4149910E-001, 1.1440741E-001, 2.3547327E-002, 8.8902851E-003, 6.2098468E-003, 4.8398927E+002
 8.7006678E+001, 8.0716748E-004, 1.4195183E-001, 1.1430252E-001, 2.3263177E-002, 8.6643189E-003, 6.1519346E-003, 4.8811943E+002
 8.8006810E+001, 8.0990068E-004, 1.4113679E-001, 1.1444601E-001, 2.3740186E-002, 9.3712725E-003, 6.2487195E-003, 4.8874152E+002
 8.9009936E+001, 8.8180616E-004, 1.4102344E-001, 1.1441742E-001, 2.3768134E-002, 9.4724271E-003, 6.2538718E-003, 4.8640816E+002
 9.0002492E+001, 8.4024703E-004, 1.4078377E-001, 1.1451420E-001, 2.3950871E-002, 9.5186082E-003, 6.2915217E-003, 4.8656093E+002
 9.1001221E+001, 8.2593273E-004, 1.4086868E-001, 1.1452467E-001, 2.3920839E-002, 9.3459459E-003, 6.2856932E-003, 4.8701445E+002
 9.2003319E+001, 9.0486288E-004, 1.4000817E-001, 1.1465746E-001, 2.4408775E-002, 9.8915123E-003, 6.3844824E-003, 4.8504722E+002
 9.3000539E+001, 8.7726340E-004, 1.3943976E-001, 1.1479434E-001, 2.4770099E-002, 1.0279378E-002, 6.4581813E-003, 4.8627138E+002
 9.4009921E+001, 8.4190411E-004, 1.3979852E-001, 1.1481108E-001, 2.4621769E-002, 9.6155169E-003, 6.4289160E-003, 4.8708196E+002
 9.5006725E+001, 8.3226030E-004, 1.3932669E-001, 1.1487758E-001, 2.4885469E-002, 1.0174157E-002, 6.4822532E-003, 4.8569216E+002
 9.6008019E+001, 8.6130044E-004, 1.3899667E-001, 1.1496595E-001, 2.5101222E-002, 1.0156542E-002, 6.5263331E-003, 4.8576992E+002
 9.7001015E+001, 8.6085348E-004, 1.3923313E-001, 1.1490414E-001, 2.4947414E-002, 1.0075009E-002, 6.4949181E-003, 4.8703547E+002
 9.8001738E+001, 9.0039747E-004, 1.3870914E-001, 1.1496000E-001, 2.5225594E-002, 1.0597574E-002, 6.5509763E-003, 4.8188600E+002
 9.9003866E+001, 8.4889370E-004, 1.3875656E-001, 1.1508986E-001, 2.5304329E-002, 9.9140954E-003, 6.5683865E-003, 4.8751739E+002
 1.0000611E+002, 8.0344890E-004, 1.3865036E-001, 1.1500924E-001, 2.5291487E-002, 1.0812255E-002, 6.5647719E-003, 4.8598789E+002
 1.0100794E+002, 8.7760473E-004, 1.3788904E-001, 1.1521000E-001, 2.5786687E-002, 1.0761030E-002, 6.6659146E-003, 4.8580383E+002
 1.0200857E+002, 9.0681245E-004, 1.3768268E-001, 1.1518430E-001, 2.5859570E-002, 1.1205518E-002, 6.6800570E-003, 4.8683329E+002
 1.0300951E+002, 8.6332079E-004, 1.3764963E-001, 1.1525130E-001, 2.5926438E-002, 1.1036801E-002, 6.6942653E-003, 4.8553293E+002
 1.0400821E+002, 8.3911284E-004, 1.3763580E-001, 1.1529106E-001, 2.5963478E-002, 1.0918600E-002, 6.7021709E-003, 4.8679340E+002
 1.0500233E+002, 9.1397031E-004, 1.3711292E-001, 1.1535807E-001, 2.6249024E-002, 1.1222809E-002, 6.7598311E-003, 4.8624979E+002
 1.0600004E+002, 9.7385016E-004, 1.3656019E-001, 1.1543537E-001, 2.6556165E-002, 1.1584504E-002, 6.8219284E-003, 4.8591848E+002
 1.0700548E+002, 9.8603801E-004, 1.3619504E-001, 1.1554712E-001, 2.6805918E-002, 1.1561544E-002, 6.8730883E-003, 4.8556822E+002
 1.0800320E+002, 9.5274965E-004, 1.3621297E-001, 1.1553815E-001, 2.6791593E-002, 1.1720404E-002, 6.8701310E-003, 4.8570890E+002
 1.0900002E+002, 9.3497086E-004, 1.3670200E-001, 1.1540711E-001, 2.6471365E-002, 1.1641845E-002, 6.8046989E-003, 4.8490112E+002
 1.1000346E+002, 1.0177928E-003, 1.3640961E-001, 1.1541267E-001, 2.6605912E-002, 1.1839076E-002, 6.8315043E-003, 4.8452518E+002
 1.1100347E+002, 1.0137207E-003, 1.3632478E-001, 1.1540250E-001, 2.6636468E-002, 1.2086331E-002, 6.8374472E-003, 4.8475909E+002
 1.1200782E+002, 9.8861641E-004, 1.3620618E-001, 1.1549275E-001, 2.6759329E-002, 1.1865643E-002, 6.8630959E-003, 4.8535399E+002
 1.1300742E+002, 9.9687744E-004, 1.3595342E-001, 1.1549597E-001, 2.6875593E-002, 1.2309756E-002, 6.8862593E-003, 4.8561547E+002
 1.1400745E+002, 9.5810010E-004, 1.3586171E-001, 1.1554643E-001, 2.6956196E-002, 1.2339495E-002, 6.9029770E-003, 4.8548316E+002
 1.1500129E+002, 9.3454954E-004, 1.3682274E-001, 1.1531572E-001, 2.6347144E-002, 1.1971663E-002, 6.7787736E-003, 4.8590413E+002
 1.1600822E+002, 1.0078662E-003, 1.3659865E-001, 1.1528853E-001, 2.6426064E-002, 1.2276665E-002, 6.7940817E-003, 4.8553546E+002
 1.1700586E+002, 9.8833280E-004, 1.3623822E-001, 1.1538536E-001, 2.6662876E-002, 1.2468915E-002, 6.8424794E-003, 4.8561729E+002
 1.1800007E+002, 9.9001009E-004, 1.3623140E-001, 1.1535737E-001, 2.6644555E-002, 1.2648720E-002, 6.8384615E-003, 4.8420285E+002
 1.1901021E+002, 1.0602717E-003, 1.3601105E-001, 1.1537104E-001, 2.6753037E-002, 1.2705986E-002, 6.8601955E-003, 4.8218098E+002
 1.2000433E+002, 1.0117032E-003, 1.3622480E-001, 1.1531864E-001, 2.6617549E-002, 1.2811336E-002, 6.8325661E-003, 4.8495154E+002
 1.2100983E+002, 1.0185141E-003, 1.3555053E-001, 1.1544017E-001, 2.7014246E-002, 1.3359756E-002, 6.9130834E-003, 4.8515220E+002
 1.2200584E+002, 9.7596288E-004, 1.3605548E-001, 1.1535182E-001, 2.6719898E-002, 1.3088508E-002, 6.8533770E-003, 4.8494218E+002
 1.2300334E+002, 9.5666989E-004, 1.3579387E-001, 1.1541721E-001, 2.6888141E-002, 1.3279686E-002, 6.8877176E-003, 4.8787492E+002
 1.2400791E+002, 8.9308557E-004, 1.3582574E-001, 1.1549809E-001, 2.6936705E-002, 1.2980644E-002, 6.8984776E-003, 4.8799088E+002
 1.2500603E+002, 9.5570927E-004, 1.3559875E-001, 1.1543989E-001, 2.6993448E-002, 1.3527978E-002, 6.9089647E-003, 4.8422526E+002
 1.2600071E+002, 9.1560539E-004, 1.3536616E-001, 1.1550366E-001, 2.7147760E-002, 1.3758576E-002, 6.9405204E-003, 4.8644071E+002
 1.2700318E+002, 9.1628393E-004, 1.3520122E-001, 1.1561431E-001, 2.7306606E-002, 1.3395624E-002, 6.9735890E-003, 4.8655758E+002
 1.2800958E+002, 9.2288850E-004, 1.3554154E-001, 1.1552252E-001, 2.7082951E-002, 1.3265621E-002, 6.9278799E-003, 4.8724836E+002
 1.2900581E+002, 9.3403218E-004, 1.3538789E-001, 1.1552891E-001, 2.7156898E-002, 1.3482612E-002, 6.9426684E-003, 4.8765897E+002
 1.3000595E+002, 9.3372220E-004, 1.3564628E-001, 1.1539504E-001, 2.6938181E-002, 1.3803622E-002, 6.8973820E-003, 4.8371799E+002
 1.3100299E+002, 9.7823352E-004, 1.3496732E-001, 1.1551149E-001, 2.7332410E-002, 1.4235764E-002, 6.9773278E-003, 4.8421085E+002
 1.3200819E+002, 9.1397792E-004, 1.3563209E-001, 1.1548019E-001, 2.7009963E-002, 1.3386373E-002, 6.9128016E-003, 4.8671442E+002
 1.3300813E+002, 9.0286389E-004, 1.3557389E-001, 1.1539422E-001, 2.6970766E-002, 1.4079962E-002, 6.9038624E-003, 4.8517247E+002
 1.3400578E+002, 9.0388453E-004, 1.3570487E-001, 1.1539087E-001, 2.6909132E-002, 1.3838165E-002, 6.8915592E-003, 4.8470939E+002
 1.3500177E+002, 8.5702794E-004, 1.3575343E-001, 1.1542383E-001, 2.6913271E-002, 1.3733371E-002, 6.8928383E-003, 4.8658086E+002
 1.3600481E+002, 9.2393214E-004, 1.3487344E-001, 1.1554931E-001, 2.7404629E-002, 1.4412740E-002, 6.9922146E-003, 4.8450895E+002
 1.3700063E+002, 8.8442256E-004, 1.3511790E-001, 1.1551456E-001, 2.7268598E-002, 1.4310488E-002, 6.9647096E-003, 4.8471601E+002
 1.3800728E+002, 8.5892375E-004, 1.3539308E-001, 1.1545016E-001, 2.7095820E-002, 1.4272969E-002, 6.9294955E-003, 4.8566237E+002
 1.3900342E+002, 8.9507976E-004, 1.3489569E-001, 1.1557039E-001, 2.7411219E-002, 1.4358473E-002, 6.9938164E-003, 4.8430704E+002
 1.4000307E+002, 8.8334779E-004, 1.3527421E-001, 1.1549092E-001, 2.7180086E-002, 1.4153160E-002, 6.9467905E-003, 4.8548322E+002
 1.4100768E+002, 8.5646957E-004, 1.3545877E-001, 1.1542531E-001, 2.7047270E-002, 1.4307593E-002, 6.9195089E-003, 4.8735689E+002
 1.4200918E+002, 8.3076536E-004, 1.3569307E-001, 1.1538418E-001, 2.6910693E-002, 1.4207401E-002, 6.8918053E-003, 4.8767561E+002
 1.4300604E+002, 8.6989777E-004, 1.3538019E-001, 1.1535390E-001, 2.7027917E-002, 1.4849016E-002, 6.9147021E-003, 4.8507955E+002
 1.4401085E+002, 8.7672198E-004, 1.3544844E-001, 1.1535914E-001, 2.7001025E-002, 1.4653536E-002, 6.9094213E-003, 4.8362387E+002
 1.4500827E+002, 8.1786952E-004, 1.3576810E-001, 1.1533369E-001, 2.6838545E-002, 1.4425955E-002, 6.8767865E-003, 4.8638564E+002
 1.4600227E+002, 8.4196002E-004, 1.3540814E-001, 1.1539385E-001, 2.7046342E-002, 1.4662762E-002, 6.9189094E-003, 4.8557628E+002
 1.4700114E+002, 8.0867075E-004, 1.3573609E-001, 1.1527319E-001, 2.6806953E-002, 1.4902144E-002, 6.8696992E-003, 4.8425762E+002
 1.4800023E+002, 8.1499699E-004, 1.3550121E-001, 1.1536103E-001, 2.6979815E-002, 1.4794806E-002, 6.9052493E-003, 4.8600803E+002
 1.4901070E+002, 8.0797786E-004, 1.3584638E-001, 1.1528396E-001, 2.6765458E-002, 1.4620830E-002, 6.8615904E-003, 4.8624235E+002
 1.5001070E+002, 8.0993355E-004, 1.3589504E-001, 1.1527228E-001, 2.6734565E-002, 1.4589083E-002, 6.8552895E-003, 4.8645738E+002
 1.5100841E+002, 8.4396346E-004, 1.3596955E-001, 1.1522327E-001, 2.6662917E-002, 1.4604014E-002, 6.8403740E-003, 4.8876204E+002
 1.5200624E+002, 7.9872132E-004, 1.3575901E-001, 1.1520520E-001, 2.6744887E-002, 1.5319525E-002, 6.8564511E-003, 4.8747459E+002
 1.5300510E+002, 8.2972867E-004, 1.3562345E-001, 1.1524759E-001, 2.6837799E-002, 1.5195143E-002, 6.8754850E-003, 4.8356612E+002
 1.5400440E+002, 8.7149979E-004, 1.3589287E-001, 1.1522976E-001, 2.6701936E-002, 1.4600368E-002, 6.8482115E-003, 4.8557018E+002
