s,,,,,,,
Time,"O2 EXHAUST","CO2 EXHAUST","H2O EXHAUST","CO EXHAUST","FUEL EXHAUST","SOOT EXHAUST","TEMP EXHAUST"
 0.0000000E+000, 2.3099739E-001, 5.9146498E-004, 5.9412091E-003, 0.0000000E+000, 0.0000000E+000, 0.0000000E+000, 2.0000000E+001
 1.0028184E+000, 2.3099739E-001, 5.9146498E-004, 5.9412091E-003, 1.0836410E-027, 4.9630669E-027, 4.1420545E-028, 2.1835231E+001
 2.0037056E+000, 2.2132250E-001, 8.3564885E-003, 9.5972451E-003, 1.4194761E-004, 8.2889061E-005, 2.8714045E-004, 1.1359640E+002
 3.0015076E+000, 2.1358225E-001, 1.4549345E-002, 1.2530058E-002, 2.7308814E-004, 1.3069674E-004, 5.2002414E-004, 1.8255069E+002
 4.0027334E+000, 2.0731862E-001, 1.9645900E-002, 1.4886389E-002, 3.1997781E-004, 1.2872941E-004, 6.9847349E-004, 2.3316190E+002
 5.0040764E+000, 2.0221186E-001, 2.3786852E-002, 1.6809503E-002, 3.6727187E-004, 1.3998111E-004, 8.4545376E-004, 2.7247925E+002
 6.0061610E+000, 1.9366658E-001, 3.0822859E-002, 2.0004988E-002, 3.7084618E-004, 1.1602796E-004, 1.0785765E-003, 3.3171426E+002
 7.0044428E+000, 1.8658685E-001, 3.6654855E-002, 2.2651881E-002, 3.7191700E-004, 9.5032345E-005, 1.2713976E-003, 3.7790564E+002
 8.0001224E+000, 1.8112526E-001, 4.1185975E-002, 2.4687452E-002, 3.5047101E-004, 6.3122059E-005, 1.4163875E-003, 4.0208458E+002
 9.0008412E+000, 1.7287537E-001, 4.7998179E-002, 2.7768677E-002, 3.4048766E-004, 3.0185021E-005, 1.6391858E-003, 4.3665070E+002
 1.0000732E+001, 1.6564183E-001, 5.3961299E-002, 3.0472224E-002, 3.3853677E-004, 6.3979518E-006, 1.8356831E-003, 4.6043473E+002
 1.1003947E+001, 1.6009448E-001, 5.8505719E-002, 3.2551440E-002, 3.5715125E-004, 6.8476027E-007, 1.9897810E-003, 4.7501531E+002
 1.2001859E+001, 1.5704278E-001, 6.0999853E-002, 3.3696459E-002, 3.7149203E-004, 7.1759944E-008, 2.0752478E-003, 4.7853255E+002
 1.3006687E+001, 1.5131199E-001, 6.5681041E-002, 3.5847207E-002, 4.0020330E-004, 3.4263702E-008, 2.2360470E-003, 4.9183016E+002
 1.4002102E+001, 1.4823098E-001, 6.8197741E-002, 3.7003504E-002, 4.1565221E-004, 2.1366415E-008, 2.3224988E-003, 4.9020848E+002
 1.5002846E+001, 1.4344957E-001, 7.2103309E-002, 3.8797983E-002, 4.3969769E-004, 3.4152530E-008, 2.4566752E-003, 4.9863532E+002
 1.6003192E+001, 1.4137780E-001, 7.3795582E-002, 3.9575521E-002, 4.5011141E-004, 4.5097906E-008, 2.5148124E-003, 4.9766994E+002
 1.7000306E+001, 1.3729928E-001, 7.7127024E-002, 4.1106201E-002, 4.7061473E-004, 4.6300610E-008, 2.6292630E-003, 5.0137937E+002
 1.8000005E+001, 1.3540402E-001, 7.8675195E-002, 4.1817479E-002, 4.8008704E-004, 3.5734782E-008, 2.6824378E-003, 4.9682347E+002
 1.9003204E+001, 1.3263644E-001, 8.0935774E-002, 4.2856165E-002, 4.9403192E-004, 6.2207141E-008, 2.7601062E-003, 5.0564868E+002
 2.0003437E+001, 1.3315760E-001, 8.0510112E-002, 4.2660568E-002, 4.9139085E-004, 4.2126050E-008, 2.7454781E-003, 5.0476750E+002
 2.1001224E+001, 1.3205692E-001, 8.1408707E-002, 4.3073764E-002, 4.9726405E-004, 1.5868545E-007, 2.7764233E-003, 5.0488682E+002
 2.2006478E+001, 1.2736998E-001, 8.5237538E-002, 4.4832690E-002, 5.2052343E-004, 6.1368644E-008, 2.9078955E-003, 5.0457456E+002
 2.3001795E+001, 1.2808108E-001, 8.4656899E-002, 4.4565763E-002, 5.1679774E-004, 6.4593946E-009, 2.8879149E-003, 4.9409891E+002
 2.4003984E+001, 1.2925942E-001, 8.3694368E-002, 4.4123538E-002, 5.1089861E-004, 1.2403123E-008, 2.8548528E-003, 4.9518424E+002
 2.5004340E+001, 1.2552098E-001, 8.6747873E-002, 4.5526611E-002, 5.2979274E-004, 7.5194333E-008, 2.9597769E-003, 5.0349122E+002
 2.6004353E+001, 1.2648164E-001, 8.5963367E-002, 4.5166037E-002, 5.2483546E-004, 9.2260494E-009, 2.9327976E-003, 4.9703451E+002
 2.7006008E+001, 1.2310839E-001, 8.8718633E-002, 4.6432041E-002, 5.4185326E-004, 4.8035568E-008, 3.0274669E-003, 5.0265675E+002
 2.8004673E+001, 1.2241416E-001, 8.9285728E-002, 4.6692586E-002, 5.4532723E-004, 2.9174240E-008, 3.0469458E-003, 5.0574420E+002
 2.9003680E+001, 1.2236079E-001, 8.9329401E-002, 4.6712593E-002, 5.4553369E-004, 1.0069869E-008, 3.0484327E-003, 5.0133199E+002
 3.0005458E+001, 1.1873894E-001, 9.2287705E-002, 4.8071908E-002, 5.6382344E-004, 6.4474860E-008, 3.1500822E-003, 5.0369093E+002
 3.1002390E+001, 1.1897193E-001, 9.2097537E-002, 4.7984435E-002, 5.6255005E-004, 1.0584393E-008, 3.1435267E-003, 4.9918405E+002
 3.2001039E+001, 1.1873422E-001, 9.2291669E-002, 4.8073654E-002, 5.6376853E-004, 1.8810176E-008, 3.1502012E-003, 5.0175508E+002
 3.3004887E+001, 1.1742525E-001, 9.3360890E-002, 4.8564910E-002, 5.7033469E-004, 1.7235962E-008, 3.1869309E-003, 5.0140608E+002
 3.4002626E+001, 1.1842005E-001, 9.2548340E-002, 4.8191557E-002, 5.6531692E-004, 8.5501169E-009, 3.1590123E-003, 4.9602612E+002
 3.5004158E+001, 1.1652363E-001, 9.4097235E-002, 4.8903320E-002, 5.7495752E-004, 5.8563939E-008, 3.2122474E-003, 5.0093708E+002
 3.6000384E+001, 1.1511949E-001, 9.5244306E-002, 4.9430267E-002, 5.8191921E-004, 1.8942281E-008, 3.2516335E-003, 4.9993987E+002
 3.7001884E+001, 1.1473189E-001, 9.5560855E-002, 4.9575746E-002, 5.8390505E-004, 3.7457060E-008, 3.2625166E-003, 5.0468412E+002
 3.8006646E+001, 1.1565607E-001, 9.4806042E-002, 4.9228881E-002, 5.7920178E-004, 1.1190170E-008, 3.2365727E-003, 4.9804557E+002
 3.9005839E+001, 1.1221484E-001, 9.7616845E-002, 5.0520396E-002, 5.9655441E-004, 4.3943500E-008, 3.3331486E-003, 4.9926747E+002
 4.0005318E+001, 1.1396803E-001, 9.6184901E-002, 4.9862400E-002, 5.8766804E-004, 5.5910206E-009, 3.2839387E-003, 4.9669650E+002
 4.1006276E+001, 1.1254233E-001, 9.7349447E-002, 5.0397469E-002, 5.9483719E-004, 1.1656241E-008, 3.3239467E-003, 4.9331699E+002
 4.2004367E+001, 1.1122767E-001, 9.8423178E-002, 5.0890890E-002, 6.0152986E-004, 5.0403506E-008, 3.3608526E-003, 5.0300465E+002
 4.3001485E+001, 1.1025116E-001, 9.9220868E-002, 5.1257363E-002, 6.0639907E-004, 3.7398046E-008, 3.3882483E-003, 5.0350880E+002
 4.4002494E+001, 1.1069473E-001, 9.8858579E-002, 5.1090885E-002, 6.0415005E-004, 2.3783098E-008, 3.3757978E-003, 5.0003951E+002
 4.5002360E+001, 1.0824450E-001, 1.0085993E-001, 5.2010479E-002, 6.1651483E-004, 4.7558708E-008, 3.4445638E-003, 5.0762784E+002
 4.6004515E+001, 1.1179421E-001, 9.7960474E-002, 5.0678253E-002, 5.9863899E-004, 3.2483102E-008, 3.3449473E-003, 5.0018201E+002
 4.7002264E+001, 1.0960169E-001, 9.9751459E-002, 5.1501095E-002, 6.0960525E-004, 1.1955745E-008, 3.4064638E-003, 5.0195967E+002
 4.8005622E+001, 1.1009906E-001, 9.9345160E-002, 5.1314435E-002, 6.0712647E-004, 2.0882660E-008, 3.3925102E-003, 5.0345417E+002
 4.9005413E+001, 1.0890094E-001, 1.0032387E-001, 5.1764079E-002, 6.1311082E-004, 6.4200370E-009, 3.4261249E-003, 4.9571211E+002
 5.0002101E+001, 1.0898198E-001, 1.0025759E-001, 5.1733688E-002, 6.1276917E-004, 3.5550961E-008, 3.4238622E-003, 5.0140026E+002
 5.1002781E+001, 1.0813760E-001, 1.0094736E-001, 5.2050570E-002, 6.1696442E-004, 1.4504903E-008, 3.4475485E-003, 4.9557878E+002
 5.2004492E+001, 1.0920447E-001, 1.0007570E-001, 5.1650220E-002, 6.1175578E-004, 7.5611205E-008, 3.4176367E-003, 5.0511419E+002
 5.3001369E+001, 1.0827625E-001, 1.0083402E-001, 5.1998555E-002, 6.1633551E-004, 4.1706583E-008, 3.4436693E-003, 5.0289586E+002
 5.4002412E+001, 1.0813638E-001, 1.0094826E-001, 5.2051045E-002, 6.1703601E-004, 5.8741888E-008, 3.4475937E-003, 5.0364714E+002
 5.5000162E+001, 1.0676905E-001, 1.0206522E-001, 5.2564192E-002, 6.2385138E-004, 1.9421578E-008, 3.4859536E-003, 4.9806621E+002
 5.6002279E+001, 1.0711978E-001, 1.0177872E-001, 5.2432567E-002, 6.2210194E-004, 2.2912803E-008, 3.4761139E-003, 5.0035022E+002
 5.7003601E+001, 1.0610424E-001, 1.0260812E-001, 5.2813725E-002, 6.2728869E-004, 6.9426492E-008, 3.5046255E-003, 5.0937554E+002
 5.8003402E+001, 1.0848262E-001, 1.0066552E-001, 5.1921085E-002, 6.1524416E-004, 2.1764456E-008, 3.4378689E-003, 5.0374093E+002
 5.9002021E+001, 1.0652611E-001, 1.0226371E-001, 5.2655355E-002, 6.2503494E-004, 6.2296484E-009, 3.4927644E-003, 4.9539488E+002
 6.0006261E+001, 1.0486256E-001, 1.0362239E-001, 5.3279726E-002, 6.3350885E-004, 5.1531754E-008, 3.5394657E-003, 5.0968349E+002
 6.1003356E+001, 1.0458589E-001, 1.0384849E-001, 5.3383532E-002, 6.3481608E-004, 2.1444482E-008, 3.5472151E-003, 5.0180929E+002
 6.2005408E+001, 1.0612279E-001, 1.0259306E-001, 5.2806746E-002, 6.2713360E-004, 3.4888768E-008, 3.5040945E-003, 5.0403331E+002
 6.3004452E+001, 1.0482468E-001, 1.0365336E-001, 5.3293932E-002, 6.3367277E-004, 5.0695162E-008, 3.5405240E-003, 5.0242523E+002
 6.4000157E+001, 1.0643525E-001, 1.0233781E-001, 5.2689481E-002, 6.2557349E-004, 3.9879581E-008, 3.4953281E-003, 5.0732909E+002
 6.5003307E+001, 1.0703460E-001, 1.0184824E-001, 5.2464544E-002, 6.2256449E-004, 3.2975200E-008, 3.4785099E-003, 4.9561171E+002
 6.6003427E+001, 1.0515388E-001, 1.0338447E-001, 5.3170381E-002, 6.3201377E-004, 4.8082575E-008, 3.5312853E-003, 5.0201754E+002
 6.7005391E+001, 1.0552321E-001, 1.0308289E-001, 5.3031751E-002, 6.3009029E-004, 1.5588540E-008, 3.5209100E-003, 5.0104354E+002
 6.8001914E+001, 1.0497179E-001, 1.0353316E-001, 5.3238732E-002, 6.3296316E-004, 5.1100511E-008, 3.5364010E-003, 5.0991067E+002
 6.9007064E+001, 1.0463068E-001, 1.0381145E-001, 5.3366813E-002, 6.3490501E-004, 2.4146990E-007, 3.5460112E-003, 5.0465907E+002
 7.0004621E+001, 1.0738548E-001, 1.0156165E-001, 5.2332855E-002, 6.2079039E-004, 3.9964337E-008, 3.4686619E-003, 5.0447877E+002
 7.1004107E+001, 1.0519677E-001, 1.0334950E-001, 5.3154268E-002, 6.3174731E-004, 1.9666820E-008, 3.5300730E-003, 5.0739269E+002
 7.2001332E+001, 1.0375600E-001, 1.0452634E-001, 5.3694997E-002, 6.3900524E-004, 3.4205954E-008, 3.5705062E-003, 5.0395714E+002
 7.3002535E+001, 1.0339552E-001, 1.0481997E-001, 5.3830472E-002, 6.4141118E-004, 2.6509322E-007, 3.5807232E-003, 5.0518341E+002
 7.4001266E+001, 1.0426164E-001, 1.0411331E-001, 5.3505232E-002, 6.3647356E-004, 2.5880526E-008, 3.5563187E-003, 5.0347762E+002
 7.5002302E+001, 1.0503727E-001, 1.0347971E-001, 5.3214147E-002, 6.3260739E-004, 5.5125518E-008, 3.5345588E-003, 5.0769543E+002
 7.6001176E+001, 1.0450578E-001, 1.0391393E-001, 5.3413597E-002, 6.3521606E-004, 2.0287909E-008, 3.5494626E-003, 5.0261894E+002
 7.7005559E+001, 1.0570971E-001, 1.0293055E-001, 5.2961759E-002, 6.2915592E-004, 1.2024833E-008, 3.5156770E-003, 5.0335180E+002
 7.8005183E+001, 1.0340368E-001, 1.0481399E-001, 5.3827255E-002, 6.4087690E-004, 6.4469931E-008, 3.5804100E-003, 5.0952417E+002
 7.9001530E+001, 1.0480245E-001, 1.0367151E-001, 5.3302276E-002, 6.3379141E-004, 5.1791365E-008, 3.5411488E-003, 5.0052051E+002
 8.0004056E+001, 1.0317837E-001, 1.0499809E-001, 5.3911797E-002, 6.4196158E-004, 7.3887506E-008, 3.5867243E-003, 5.0981488E+002
 8.1005167E+001, 1.0405106E-001, 1.0428531E-001, 5.3584264E-002, 6.3753522E-004, 3.5153181E-008, 3.5622285E-003, 5.0376054E+002
 8.2001289E+001, 1.0535380E-001, 1.0322118E-001, 5.3095350E-002, 6.3100330E-004, 3.6964164E-008, 3.5256743E-003, 5.0235839E+002
 8.3003313E+001, 1.0422186E-001, 1.0414587E-001, 5.3520149E-002, 6.3662507E-004, 1.1409655E-008, 3.5574269E-003, 5.0032214E+002
 8.4004473E+001, 1.0357647E-001, 1.0467285E-001, 5.3762406E-002, 6.4000548E-004, 7.3907001E-008, 3.5755608E-003, 5.0996669E+002
 8.5000647E+001, 1.0234388E-001, 1.0567971E-001, 5.4224990E-002, 6.4616923E-004, 5.6926124E-008, 3.6101439E-003, 5.0757572E+002
 8.6003814E+001, 1.0297839E-001, 1.0516154E-001, 5.3986834E-002, 6.4290001E-004, 2.4883400E-008, 3.5923250E-003, 5.0327224E+002
 8.7004297E+001, 1.0270039E-001, 1.0538846E-001, 5.4091202E-002, 6.4440926E-004, 6.6527447E-008, 3.6001452E-003, 5.0326708E+002
 8.8002711E+001, 1.0440885E-001, 1.0399305E-001, 5.3449985E-002, 6.3574324E-004, 5.2810021E-008, 3.5521893E-003, 5.0204623E+002
 8.9006033E+001, 1.0567057E-001, 1.0296246E-001, 5.2976458E-002, 6.2939035E-004, 3.1429517E-008, 3.5167816E-003, 5.0114397E+002
 9.0005063E+001, 1.0528360E-001, 1.0327857E-001, 5.3121682E-002, 6.3131660E-004, 3.2422733E-008, 3.5276374E-003, 5.0228989E+002
 9.1003514E+001, 1.0586663E-001, 1.0280233E-001, 5.2902873E-002, 6.2839271E-004, 2.4255914E-008, 3.5112779E-003, 5.0133755E+002
 9.2005980E+001, 1.0463637E-001, 1.0380699E-001, 5.3364649E-002, 6.3475495E-004, 1.0751637E-007, 3.5458315E-003, 5.0830527E+002
 9.3002281E+001, 1.0413414E-001, 1.0421749E-001, 5.3553074E-002, 6.3708525E-004, 2.4846260E-008, 3.5598916E-003, 5.0309440E+002
 9.4002373E+001, 1.0420574E-001, 1.0415902E-001, 5.3526199E-002, 6.3671515E-004, 2.1694787E-008, 3.5578807E-003, 4.9799991E+002
 9.5004598E+001, 1.0224273E-001, 1.0576226E-001, 5.4262965E-002, 6.4672330E-004, 7.3589486E-008, 3.6129900E-003, 5.1005367E+002
 9.6006085E+001, 1.0368270E-001, 1.0458612E-001, 5.3722529E-002, 6.3944281E-004, 8.0626976E-008, 3.5725749E-003, 5.0297921E+002
 9.7006540E+001, 1.0362957E-001, 1.0462964E-001, 5.3742443E-002, 6.3962588E-004, 2.4705974E-008, 3.5740516E-003, 4.9965415E+002
 9.8000643E+001, 1.0208027E-001, 1.0589506E-001, 5.4323916E-002, 6.4747206E-004, 5.2255238E-008, 3.6175374E-003, 5.0629022E+002
 9.9006068E+001, 1.0420737E-001, 1.0415765E-001, 5.3525600E-002, 6.3673879E-004, 2.9647618E-008, 3.5578405E-003, 5.0190092E+002
 1.0000195E+002, 1.0473419E-001, 1.0372728E-001, 5.3327896E-002, 6.3413083E-004, 3.6884440E-008, 3.5430639E-003, 4.9808059E+002
 1.0100348E+002, 1.0347354E-001, 1.0475710E-001, 5.3800995E-002, 6.4039568E-004, 2.0122165E-008, 3.5784274E-003, 5.0301495E+002
 1.0200048E+002, 1.0384020E-001, 1.0445754E-001, 5.3663406E-002, 6.3860458E-004, 4.4438282E-008, 3.5681474E-003, 5.0259924E+002
 1.0300104E+002, 1.0413766E-001, 1.0421445E-001, 5.3551789E-002, 6.3718505E-004, 9.5963390E-008, 3.5598129E-003, 5.1231085E+002
 1.0400106E+002, 1.0400462E-001, 1.0432330E-001, 5.3601679E-002, 6.3772652E-004, 1.9736465E-008, 3.5635244E-003, 5.0307529E+002
 1.0500084E+002, 1.0547960E-001, 1.0311841E-001, 5.3048137E-002, 6.3037770E-004, 3.8755461E-008, 3.5221452E-003, 5.0565488E+002
 1.0600372E+002, 1.0539439E-001, 1.0318792E-001, 5.3080137E-002, 6.3087403E-004, 9.2414796E-008, 3.5245479E-003, 5.0430889E+002
 1.0700485E+002, 1.0480759E-001, 1.0366741E-001, 5.3300329E-002, 6.3369767E-004, 2.0838936E-008, 3.5409933E-003, 5.0356515E+002
 1.0800523E+002, 1.0319643E-001, 1.0498333E-001, 5.3905027E-002, 6.4187877E-004, 4.9726015E-008, 3.5862192E-003, 5.0982249E+002
 1.0900359E+002, 1.0422504E-001, 1.0414324E-001, 5.3518961E-002, 6.3663009E-004, 2.2500282E-008, 3.5573412E-003, 4.9942817E+002
 1.1000142E+002, 1.0150647E-001, 1.0636335E-001, 5.4539352E-002, 6.5064786E-004, 2.1829049E-007, 3.6336887E-003, 5.1081959E+002
 1.1100502E+002, 1.0509101E-001, 1.0343593E-001, 5.3193953E-002, 6.3225347E-004, 1.0760235E-008, 3.5330366E-003, 4.9530900E+002
 1.1200222E+002, 1.0538060E-001, 1.0319888E-001, 5.3085375E-002, 6.3115573E-004, 2.1326520E-007, 3.5249708E-003, 5.0486321E+002
 1.1300028E+002, 1.0382773E-001, 1.0446747E-001, 5.3668137E-002, 6.3884525E-004, 1.3014351E-007, 3.5685274E-003, 5.0589622E+002
 1.1400217E+002, 1.0369269E-001, 1.0457805E-001, 5.3718763E-002, 6.3933193E-004, 3.7174387E-008, 3.5722844E-003, 5.0064250E+002
 1.1500150E+002, 1.0298561E-001, 1.0515554E-001, 5.3984142E-002, 6.4293296E-004, 5.9668093E-008, 3.5921339E-003, 5.0750027E+002
 1.1600572E+002, 1.0306860E-001, 1.0508782E-001, 5.3952985E-002, 6.4247196E-004, 2.8433520E-008, 3.5897978E-003, 5.0115701E+002
 1.1700029E+002, 1.0393944E-001, 1.0437654E-001, 5.3626146E-002, 6.3805886E-004, 2.1142924E-008, 3.5653545E-003, 5.0095829E+002
 1.1800052E+002, 1.0532289E-001, 1.0324647E-001, 5.3106938E-002, 6.3112580E-004, 2.7184885E-008, 3.5265360E-003, 5.0056362E+002
 1.1900414E+002, 1.0188619E-001, 1.0605363E-001, 5.4396748E-002, 6.4842056E-004, 4.6461759E-008, 3.6229791E-003, 5.0978400E+002
 1.2000367E+002, 1.0242005E-001, 1.0561757E-001, 5.4196382E-002, 6.4572417E-004, 4.1679253E-008, 3.6079957E-003, 5.0209090E+002
 1.2100012E+002, 1.0259487E-001, 1.0547478E-001, 5.4130773E-002, 6.4484264E-004, 3.4606694E-008, 3.6030896E-003, 5.1094519E+002
 1.2200495E+002, 1.0156334E-001, 1.0631736E-001, 5.4517908E-002, 6.5002766E-004, 3.1993903E-008, 3.6320360E-003, 5.0243493E+002
 1.2300247E+002, 1.0425683E-001, 1.0411722E-001, 5.3507043E-002, 6.3651162E-004, 3.6491877E-008, 3.5564562E-003, 5.0373460E+002
 1.2400574E+002, 1.0505338E-001, 1.0346668E-001, 5.3208074E-002, 6.3243456E-004, 8.0153790E-009, 3.5340912E-003, 5.0208860E+002
 1.2500251E+002, 1.0289048E-001, 1.0523327E-001, 5.4019843E-002, 6.4339300E-004, 5.1432570E-008, 3.5948006E-003, 5.0059186E+002
 1.2600235E+002, 1.0456885E-001, 1.0386244E-001, 5.3389922E-002, 6.3487874E-004, 1.2635657E-008, 3.5476894E-003, 5.0056541E+002
 1.2700394E+002, 1.0288700E-001, 1.0523620E-001, 5.4021124E-002, 6.4334336E-004, 2.4399525E-008, 3.5948866E-003, 4.9834751E+002
 1.2800364E+002, 1.0403781E-001, 1.0429622E-001, 5.3589219E-002, 6.3754070E-004, 1.0893715E-008, 3.5625899E-003, 4.9937444E+002
 1.2900423E+002, 1.0461092E-001, 1.0382806E-001, 5.3374138E-002, 6.3468351E-004, 1.8371662E-008, 3.5465117E-003, 5.0427059E+002
 1.3000511E+002, 1.0625951E-001, 1.0248142E-001, 5.2755423E-002, 6.2641476E-004, 2.3726051E-008, 3.5002525E-003, 5.0672992E+002
 1.3100022E+002, 1.0440483E-001, 1.0399624E-001, 5.3451514E-002, 6.3582579E-004, 6.5679428E-008, 3.5523128E-003, 5.0809102E+002
 1.3200234E+002, 1.0399700E-001, 1.0432952E-001, 5.3604545E-002, 6.3777131E-004, 1.9097949E-008, 3.5637397E-003, 5.0547585E+002
 1.3300488E+002, 1.0355554E-001, 1.0469011E-001, 5.3770224E-002, 6.3999180E-004, 2.5144151E-008, 3.5761278E-003, 4.9479437E+002
 1.3400552E+002, 1.0402195E-001, 1.0430913E-001, 5.3595181E-002, 6.3765148E-004, 2.4347905E-008, 3.5630403E-003, 5.0320212E+002
 1.3500636E+002, 1.0383103E-001, 1.0446506E-001, 5.3666840E-002, 6.3862987E-004, 2.7587383E-008, 3.5684011E-003, 5.0310887E+002
 1.3600009E+002, 1.0540543E-001, 1.0317906E-001, 5.3075959E-002, 6.3070132E-004, 2.2451112E-008, 3.5242183E-003, 5.0395002E+002
 1.3700158E+002, 1.0204223E-001, 1.0592595E-001, 5.4338234E-002, 6.4779534E-004, 1.0718007E-007, 3.6186274E-003, 5.0672089E+002
 1.3800226E+002, 1.0378215E-001, 1.0450497E-001, 5.3685190E-002, 6.3888509E-004, 3.1800797E-008, 3.5697745E-003, 5.0708102E+002
 1.3900397E+002, 1.0500753E-001, 1.0350412E-001, 5.3225280E-002, 6.3266631E-004, 9.5985170E-009, 3.5353779E-003, 4.9917531E+002
 1.4000173E+002, 1.0144239E-001, 1.0641601E-001, 5.4563334E-002, 6.5074441E-004, 8.9002596E-008, 3.6354486E-003, 5.0911067E+002
 1.4100175E+002, 1.0374822E-001, 1.0453266E-001, 5.3697926E-002, 6.3906974E-004, 3.9936027E-008, 3.5707289E-003, 5.0424362E+002
 1.4200301E+002, 1.0283437E-001, 1.0527914E-001, 5.4040890E-002, 6.4364804E-004, 4.2519512E-008, 3.5963704E-003, 5.0811143E+002
 1.4300321E+002, 1.0253408E-001, 1.0552436E-001, 5.4153602E-002, 6.4520346E-004, 7.2066009E-008, 3.6048047E-003, 4.9940376E+002
 1.4400138E+002, 1.0561362E-001, 1.0300889E-001, 5.2997855E-002, 6.2974423E-004, 5.3413656E-008, 3.5183915E-003, 5.0507514E+002
 1.4500240E+002, 1.0286204E-001, 1.0525631E-001, 5.4030557E-002, 6.4367438E-004, 9.9989160E-008, 3.5956221E-003, 5.1263578E+002
 1.4600677E+002, 1.0499656E-001, 1.0351307E-001, 5.3229402E-002, 6.3273434E-004, 1.5800324E-008, 3.5356880E-003, 5.0525309E+002
 1.4700166E+002, 1.0222722E-001, 1.0577497E-001, 5.4268781E-002, 6.4677923E-004, 6.1479657E-008, 3.6134217E-003, 5.0159205E+002
 1.4800583E+002, 1.0335183E-001, 1.0485625E-001, 5.3846734E-002, 6.4120261E-004, 1.0735024E-007, 3.5818761E-003, 5.0921585E+002
 1.4900652E+002, 1.0446661E-001, 1.0394586E-001, 5.3428315E-002, 6.3546448E-004, 3.9764822E-008, 3.5505707E-003, 5.0395756E+002
 1.5000008E+002, 1.0333227E-001, 1.0487241E-001, 5.3854039E-002, 6.4117519E-004, 3.8066621E-008, 3.5824038E-003, 5.1084354E+002
 1.5100420E+002, 1.0442596E-001, 1.0397905E-001, 5.3443574E-002, 6.3567609E-004, 4.1314365E-008, 3.5517127E-003, 5.0848319E+002
 1.5200284E+002, 1.0326647E-001, 1.0492608E-001, 5.3878747E-002, 6.4155589E-004, 7.4930654E-008, 3.5842586E-003, 5.0947759E+002
 1.5300030E+002, 1.0477056E-001, 1.0369747E-001, 5.3314268E-002, 6.3402071E-004, 7.7221813E-008, 3.5420557E-003, 5.0887281E+002
 1.5400251E+002, 1.0472316E-001, 1.0373632E-001, 5.3332023E-002, 6.3415694E-004, 3.8144995E-008, 3.5433682E-003, 5.0713128E+002
