s,,,,,,,
Time,"O2 EXHAUST","CO2 EXHAUST","H2O EXHAUST","CO EXHAUST","FUEL EXHAUST","SOOT EXHAUST","TEMP EXHAUST"
 0.0000000E+000, 2.3099739E-001, 5.9146498E-004, 5.9412091E-003, 0.0000000E+000, 0.0000000E+000, 0.0000000E+000, 2.0000000E+001
 1.0043380E+000, 2.3099739E-001, 5.9146498E-004, 5.9412091E-003, 1.7055293E-026, 5.4185321E-026, 5.2170936E-027, 2.2020626E+001
 2.0021402E+000, 2.1898324E-001, 9.5800299E-003, 1.1134684E-002, 1.3504688E-004, 1.3894778E-004, 1.0029081E-004, 1.3645021E+002
 3.0039391E+000, 2.1028079E-001, 1.6178632E-002, 1.4882424E-002, 1.8249918E-004, 1.5426282E-004, 1.6273144E-004, 2.1116792E+002
 4.0038559E+000, 2.0156725E-001, 2.2808816E-002, 1.8629064E-002, 2.1507664E-004, 1.6029529E-004, 2.2220327E-004, 2.8031278E+002
 5.0062630E+000, 1.9322867E-001, 2.9215512E-002, 2.2199376E-002, 2.0684213E-004, 1.3772845E-004, 2.7107743E-004, 3.4207573E+002
 6.0057664E+000, 1.8080165E-001, 3.8842454E-002, 2.7500902E-002, 1.4418500E-004, 6.7988104E-005, 3.3363755E-004, 4.0964554E+002
 7.0019533E+000, 1.6751312E-001, 4.9119326E-002, 3.3173865E-002, 8.8040538E-005, 3.6432616E-006, 4.0274565E-004, 4.7457517E+002
 8.0009223E+000, 1.5502529E-001, 5.8672662E-002, 3.8528993E-002, 1.0062931E-004, 2.4837742E-007, 4.8100505E-004, 5.1146879E+002
 9.0074681E+000, 1.4293140E-001, 6.7918767E-002, 4.3716525E-002, 1.1648554E-004, 2.2364632E-007, 5.5754224E-004, 5.3135608E+002
 1.0003385E+001, 1.3352216E-001, 7.5109997E-002, 4.7753003E-002, 1.3027640E-004, 1.8760316E-006, 6.1738523E-004, 5.4548501E+002
 1.1001296E+001, 1.1815823E-001, 8.6847454E-002, 5.4344717E-002, 1.5550755E-004, 9.4628352E-006, 7.1564934E-004, 5.7082646E+002
 1.2004586E+001, 1.1095776E-001, 9.2361643E-002, 5.7431668E-002, 1.5955620E-004, 1.2132017E-006, 7.6012447E-004, 5.6931799E+002
 1.3006836E+001, 1.0360968E-001, 9.7974401E-002, 6.0584540E-002, 1.7222949E-004, 4.9746836E-006, 8.0724512E-004, 5.7113832E+002
 1.4003886E+001, 9.4883912E-002, 1.0464020E-001, 6.4328609E-002, 1.8700950E-004, 7.6283630E-006, 8.6314771E-004, 5.8303902E+002
 1.5007448E+001, 8.7944201E-002, 1.0914118E-001, 6.7449580E-002, 6.6908070E-004, 7.0056523E-004, 1.0030446E-003, 5.6990985E+002
 1.6001523E+001, 8.5540399E-002, 1.1118860E-001, 6.8446857E-002, 5.5188699E-004, 4.9658041E-004, 9.9387484E-004, 5.6944182E+002
 1.7007580E+001, 7.9867404E-002, 1.1393409E-001, 7.1185201E-002, 1.5099155E-003, 1.7459043E-003, 1.2228770E-003, 5.5715102E+002
 1.8002950E+001, 7.8626070E-002, 1.1525277E-001, 7.1645151E-002, 1.2894952E-003, 1.4661418E-003, 1.1856098E-003, 5.5825270E+002
 1.9005815E+001, 7.8621141E-002, 1.1542659E-001, 7.1630230E-002, 1.1998164E-003, 1.2363581E-003, 1.1675793E-003, 5.5253797E+002
 2.0006903E+001, 7.4773385E-002, 1.1697491E-001, 7.3516030E-002, 2.0128749E-003, 2.5260285E-003, 1.3557488E-003, 5.3978699E+002
 2.1006765E+001, 7.3351725E-002, 1.1803176E-001, 7.4173589E-002, 2.0647573E-003, 2.2894663E-003, 1.3753297E-003, 5.3979030E+002
 2.2003737E+001, 7.1755365E-002, 1.1827841E-001, 7.5047422E-002, 2.6503475E-003, 3.0383222E-003, 1.5039875E-003, 5.3382651E+002
 2.3000938E+001, 7.0408039E-002, 1.1890863E-001, 7.5698443E-002, 2.8882326E-003, 3.3739456E-003, 1.5604431E-003, 5.2795410E+002
 2.4003008E+001, 6.9066823E-002, 1.1913830E-001, 7.6423303E-002, 3.3630017E-003, 4.0165363E-003, 1.6649878E-003, 5.2459726E+002
 2.5004481E+001, 6.8127186E-002, 1.1957445E-001, 7.6822322E-002, 3.4884144E-003, 4.5979842E-003, 1.6955746E-003, 5.2002372E+002
 2.6005804E+001, 6.8354916E-002, 1.1956041E-001, 7.6713917E-002, 3.4077533E-003, 4.3487857E-003, 1.6780098E-003, 5.0945682E+002
 2.7006677E+001, 6.7319330E-002, 1.1995477E-001, 7.7250969E-002, 3.6591945E-003, 4.5571865E-003, 1.7355331E-003, 5.1129170E+002
 2.8006463E+001, 6.6402913E-002, 1.1958662E-001, 7.7803920E-002, 4.2643941E-003, 5.6743670E-003, 1.8635744E-003, 4.9966058E+002
 2.9003720E+001, 6.5756095E-002, 1.2021775E-001, 7.8060815E-002, 4.1879456E-003, 5.5322701E-003, 1.8520228E-003, 5.0605402E+002
 3.0000005E+001, 6.5566466E-002, 1.1989395E-001, 7.8271959E-002, 4.4986948E-003, 5.6525433E-003, 1.9166999E-003, 5.0027947E+002
 3.1004897E+001, 6.5523432E-002, 1.1876977E-001, 7.8468087E-002, 5.1561634E-003, 6.8335597E-003, 2.0500732E-003, 4.9490093E+002
 3.2007115E+001, 6.5413316E-002, 1.1893745E-001, 7.8442980E-002, 5.0634184E-003, 7.1170410E-003, 2.0313331E-003, 4.8214837E+002
 3.3006044E+001, 6.4882542E-002, 1.1866842E-001, 7.8758532E-002, 5.4355088E-003, 7.9033081E-003, 2.1097188E-003, 4.7865133E+002
 3.4004544E+001, 6.4701589E-002, 1.1854569E-001, 7.8862859E-002, 5.5738605E-003, 8.2526453E-003, 2.1386852E-003, 4.7840947E+002
 3.5005237E+001, 6.4674795E-002, 1.1833936E-001, 7.8906062E-002, 5.7003855E-003, 8.5034766E-003, 2.1644311E-003, 4.8026594E+002
 3.6003551E+001, 6.4023230E-002, 1.1768111E-001, 7.9347234E-002, 6.3461378E-003, 9.7821011E-003, 2.2989538E-003, 4.7207121E+002
 3.7003244E+001, 6.3956386E-002, 1.1826895E-001, 7.9318902E-002, 6.0606767E-003, 9.0768520E-003, 2.2418332E-003, 4.7395313E+002
 3.8006753E+001, 6.4529071E-002, 1.1760944E-001, 7.9065363E-002, 6.1538520E-003, 9.5628537E-003, 2.2567813E-003, 4.6769666E+002
 3.9005068E+001, 6.4301953E-002, 1.1708381E-001, 7.9196973E-002, 6.4955655E-003, 1.0729925E-002, 2.3265672E-003, 4.6935818E+002
 4.0005595E+001, 6.4391198E-002, 1.1687882E-001, 7.9227946E-002, 6.6099982E-003, 1.0570590E-002, 2.3497055E-003, 4.6497370E+002
 4.1003980E+001, 6.4398360E-002, 1.1620497E-001, 7.9219631E-002, 6.9073591E-003, 1.1921015E-002, 2.4087238E-003, 4.5887660E+002
 4.2005362E+001, 6.4741986E-002, 1.1599197E-001, 7.9035156E-002, 6.8561817E-003, 1.2052710E-002, 2.3959670E-003, 4.6063110E+002
 4.3002883E+001, 6.4484866E-002, 1.1589203E-001, 7.9203356E-002, 7.0344420E-003, 1.2278654E-002, 2.4337480E-003, 4.5219496E+002
 4.4003036E+001, 6.5232809E-002, 1.1502795E-001, 7.8826932E-002, 7.1227790E-003, 1.3199380E-002, 2.4460338E-003, 4.5387128E+002
 4.5010592E+001, 6.5361479E-002, 1.1489054E-001, 7.8740981E-002, 7.1167255E-003, 1.3466913E-002, 2.4436387E-003, 4.4803942E+002
 4.6003011E+001, 6.6028136E-002, 1.1412817E-001, 7.8479771E-002, 7.2486871E-003, 1.3811899E-002, 2.4661650E-003, 4.4806004E+002
 4.7007710E+001, 6.6171468E-002, 1.1392401E-001, 7.8385731E-002, 7.2662815E-003, 1.4200088E-002, 2.4683595E-003, 4.4214288E+002
 4.8005426E+001, 6.6037481E-002, 1.1372165E-001, 7.8424402E-002, 7.3895350E-003, 1.4917572E-002, 2.4934312E-003, 4.4288073E+002
 4.9004599E+001, 6.6510776E-002, 1.1320995E-001, 7.8218333E-002, 7.4541535E-003, 1.5231997E-002, 2.5033683E-003, 4.4256163E+002
 5.0000871E+001, 6.6732025E-002, 1.1266277E-001, 7.8185864E-002, 7.6719978E-003, 1.5590676E-002, 2.5461785E-003, 4.3640445E+002
 5.1003499E+001, 6.6871474E-002, 1.1255450E-001, 7.8073104E-002, 7.6321305E-003, 1.5921923E-002, 2.5366979E-003, 4.3335833E+002
 5.2008514E+001, 6.7445508E-002, 1.1216250E-001, 7.7766164E-002, 7.5638826E-003, 1.6205619E-002, 2.5188330E-003, 4.3304194E+002
 5.3000319E+001, 6.7067943E-002, 1.1180790E-001, 7.8001979E-002, 7.9108325E-003, 1.7016488E-002, 2.5911025E-003, 4.3207095E+002
 5.4005832E+001, 6.7075388E-002, 1.1161043E-001, 7.8013460E-002, 8.0084997E-003, 1.7303732E-002, 2.6106748E-003, 4.2993781E+002
 5.5003789E+001, 6.7337810E-002, 1.1156369E-001, 7.7812918E-002, 7.8715853E-003, 1.7545302E-002, 2.5806822E-003, 4.2895582E+002
 5.6004235E+001, 6.7405262E-002, 1.1100914E-001, 7.7847748E-002, 8.1469849E-003, 1.8142123E-002, 2.6358885E-003, 4.2849189E+002
 5.7002683E+001, 6.7366407E-002, 1.1068189E-001, 7.7880140E-002, 8.3199990E-003, 1.8748580E-002, 2.6707389E-003, 4.2821432E+002
 5.8009232E+001, 6.7103843E-002, 1.1098799E-001, 7.7938762E-002, 8.2315948E-003, 1.8875332E-002, 2.6540317E-003, 4.3030781E+002
 5.9001631E+001, 6.7867746E-002, 1.1046612E-001, 7.7493131E-002, 8.1124854E-003, 1.9483522E-002, 2.6241366E-003, 4.2819615E+002
 6.0006032E+001, 6.7903751E-002, 1.1012091E-001, 7.7476562E-002, 8.2548242E-003, 2.0116914E-002, 2.6522079E-003, 4.2562175E+002
 6.1006630E+001, 6.8052027E-002, 1.1022185E-001, 7.7366075E-002, 8.1221951E-003, 1.9984785E-002, 2.6243085E-003, 4.2356817E+002
 6.2002202E+001, 6.7790344E-002, 1.1039325E-001, 7.7396553E-002, 8.0730249E-003, 2.0547843E-002, 2.6150273E-003, 4.2299018E+002
 6.3001634E+001, 6.8464123E-002, 1.1007932E-001, 7.6992188E-002, 7.8933315E-003, 2.0865700E-002, 2.5736665E-003, 4.2178455E+002
 6.4001006E+001, 6.8503040E-002, 1.0983833E-001, 7.6897931E-002, 7.9292974E-003, 2.1762713E-002, 2.5795471E-003, 4.2458034E+002
 6.5000918E+001, 6.8362469E-002, 1.0986892E-001, 7.6930015E-002, 7.9426016E-003, 2.2089067E-002, 2.5826692E-003, 4.2173720E+002
 6.6003992E+001, 6.8829542E-002, 1.0953855E-001, 7.6702430E-002, 7.9091420E-003, 2.2205139E-002, 2.5728179E-003, 4.1953583E+002
 6.7009256E+001, 6.8812080E-002, 1.0946376E-001, 7.6681273E-002, 7.9270321E-003, 2.2556398E-002, 2.5760991E-003, 4.2020717E+002
 6.8000793E+001, 6.9028245E-002, 1.0948478E-001, 7.6426480E-002, 7.7189874E-003, 2.3193047E-002, 2.5312537E-003, 4.1992614E+002
 6.9000011E+001, 6.9388992E-002, 1.0933411E-001, 7.6189455E-002, 7.5992542E-003, 2.3456048E-002, 2.5041569E-003, 4.2167967E+002
 7.0004167E+001, 6.9462988E-002, 1.0942196E-001, 7.6088372E-002, 7.4810813E-003, 2.3600814E-002, 2.4792832E-003, 4.1750157E+002
 7.1003728E+001, 7.0065615E-002, 1.0911701E-001, 7.5601034E-002, 7.2352924E-003, 2.4711284E-002, 2.4236959E-003, 4.1644269E+002
 7.2010578E+001, 7.0078065E-002, 1.0911951E-001, 7.5674444E-002, 7.2899918E-003, 2.4199746E-002, 2.4355486E-003, 4.1588462E+002
 7.3008670E+001, 7.0197086E-002, 1.0903391E-001, 7.5505622E-002, 7.1974736E-003, 2.4918662E-002, 2.4148570E-003, 4.1633270E+002
 7.4011098E+001, 7.0668396E-002, 1.0887885E-001, 7.5165105E-002, 6.9986447E-003, 2.5370959E-002, 2.3706125E-003, 4.1604226E+002
 7.5004530E+001, 7.0763203E-002, 1.0868380E-001, 7.5131623E-002, 7.0592708E-003, 2.5568131E-002, 2.3821889E-003, 4.1622598E+002
 7.6009329E+001, 7.1001275E-002, 1.0875354E-001, 7.4910674E-002, 6.8547006E-003, 2.5807836E-002, 2.3384786E-003, 4.1415076E+002
 7.7006866E+001, 7.1291785E-002, 1.0870263E-001, 7.4631671E-002, 6.6592255E-003, 2.6426666E-002, 2.2957840E-003, 4.1355245E+002
 7.8006759E+001, 7.1157347E-002, 1.0889082E-001, 7.4689119E-002, 6.6207244E-003, 2.6259602E-002, 2.2889407E-003, 4.1407938E+002
 7.9000083E+001, 7.1840640E-002, 1.0851298E-001, 7.4191987E-002, 6.3988306E-003, 2.7238514E-002, 2.2379468E-003, 4.1210250E+002
 8.0007130E+001, 7.1740418E-002, 1.0865911E-001, 7.4180970E-002, 6.3263794E-003, 2.7436008E-002, 2.2234268E-003, 4.1280465E+002
 8.1006100E+001, 7.1982931E-002, 1.0863966E-001, 7.3954589E-002, 6.1577923E-003, 2.7866719E-002, 2.1867979E-003, 4.1435608E+002
 8.2002729E+001, 7.2441301E-002, 1.0836797E-001, 7.3659570E-002, 6.0465358E-003, 2.8321035E-002, 2.1605793E-003, 4.1433474E+002
 8.3000712E+001, 7.2683741E-002, 1.0828846E-001, 7.3489494E-002, 5.9480291E-003, 2.8521702E-002, 2.1386377E-003, 4.1083622E+002
 8.4000721E+001, 7.2812052E-002, 1.0842759E-001, 7.3329938E-002, 5.7610781E-003, 2.8701381E-002, 2.0992880E-003, 4.1189638E+002
 8.5002318E+001, 7.2834426E-002, 1.0848552E-001, 7.3209602E-002, 5.6426494E-003, 2.9239407E-002, 2.0741242E-003, 4.1014521E+002
 8.6011575E+001, 7.3166492E-002, 1.0826242E-001, 7.3039860E-002, 5.6074860E-003, 2.9347883E-002, 2.0647524E-003, 4.1181499E+002
 8.7008580E+001, 7.3126061E-002, 1.0836636E-001, 7.2982212E-002, 5.5173451E-003, 2.9668415E-002, 2.0460719E-003, 4.1203184E+002
 8.8001862E+001, 7.3285761E-002, 1.0820252E-001, 7.2829066E-002, 5.4713199E-003, 3.0275082E-002, 2.0348209E-003, 4.0933666E+002
 8.9003633E+001, 7.3332043E-002, 1.0829608E-001, 7.2759208E-002, 5.3749294E-003, 3.0330581E-002, 2.0147049E-003, 4.0913772E+002
 9.0007795E+001, 7.3447216E-002, 1.0819643E-001, 7.2666381E-002, 5.3468476E-003, 3.0622459E-002, 2.0078423E-003, 4.1117300E+002
 9.1001347E+001, 7.3584996E-002, 1.0828988E-001, 7.2513317E-002, 5.1852788E-003, 3.0812564E-002, 1.9736234E-003, 4.0916045E+002
 9.2003009E+001, 7.3857089E-002, 1.0818929E-001, 7.2321436E-002, 5.0790737E-003, 3.1066360E-002, 1.9498498E-003, 4.0957080E+002
 9.3011085E+001, 7.3791348E-002, 1.0828705E-001, 7.2306931E-002, 5.0251322E-003, 3.1237233E-002, 1.9389522E-003, 4.1071637E+002
 9.4000965E+001, 7.3624323E-002, 1.0831512E-001, 7.2306518E-002, 5.0152487E-003, 3.1880049E-002, 1.9370386E-003, 4.1295733E+002
 9.5008267E+001, 7.3834850E-002, 1.0825141E-001, 7.2178642E-002, 4.9424305E-003, 3.1921045E-002, 1.9207794E-003, 4.1063910E+002
 9.6011068E+001, 7.3634617E-002, 1.0848923E-001, 7.2270825E-002, 4.9092922E-003, 3.1714955E-002, 1.9154887E-003, 4.1015739E+002
 9.7007347E+001, 7.3626305E-002, 1.0839485E-001, 7.2187971E-002, 4.8887310E-003, 3.2448926E-002, 1.9102971E-003, 4.1018124E+002
 9.8002534E+001, 7.3757780E-002, 1.0839344E-001, 7.2067442E-002, 4.7948963E-003, 3.2650797E-002, 1.8899839E-003, 4.1279278E+002
 9.9009337E+001, 7.3758577E-002, 1.0844197E-001, 7.2039509E-002, 4.7516686E-003, 3.2724821E-002, 1.8810148E-003, 4.1419963E+002
 1.0000928E+002, 7.3859678E-002, 1.0837120E-001, 7.1981912E-002, 4.7377267E-003, 3.2800110E-002, 1.8774390E-003, 4.1161074E+002
 1.0100400E+002, 7.3790718E-002, 1.0839788E-001, 7.1997099E-002, 4.7385684E-003, 3.2940613E-002, 1.8778327E-003, 4.1039403E+002
 1.0200981E+002, 7.4016580E-002, 1.0818611E-001, 7.1916611E-002, 4.7684201E-003, 3.2916169E-002, 1.8826171E-003, 4.0931584E+002
 1.0300295E+002, 7.4061551E-002, 1.0806878E-001, 7.1865388E-002, 4.7813771E-003, 3.3277540E-002, 1.8844947E-003, 4.1002059E+002
 1.0400874E+002, 7.4062203E-002, 1.0811570E-001, 7.1782194E-002, 4.6966755E-003, 3.3697659E-002, 1.8665408E-003, 4.1429367E+002
 1.0500231E+002, 7.3634506E-002, 1.0860366E-001, 7.1960535E-002, 4.6207478E-003, 3.3411924E-002, 1.8539691E-003, 4.1040555E+002
 1.0600987E+002, 7.3889260E-002, 1.0817121E-001, 7.1808375E-002, 4.6948355E-003, 3.4146265E-002, 1.8665836E-003, 4.1145982E+002
 1.0700386E+002, 7.3801089E-002, 1.0820818E-001, 7.1876927E-002, 4.7321441E-003, 3.4015909E-002, 1.8749478E-003, 4.1091483E+002
 1.0800504E+002, 7.3756790E-002, 1.0817786E-001, 7.1902521E-002, 4.7661817E-003, 3.4101650E-002, 1.8820732E-003, 4.1253993E+002
 1.0901036E+002, 7.3782679E-002, 1.0816539E-001, 7.1813260E-002, 4.7031616E-003, 3.4571365E-002, 1.8683411E-003, 4.1383784E+002
 1.1000145E+002, 7.3790949E-002, 1.0810409E-001, 7.1855800E-002, 4.7631334E-003, 3.4394274E-002, 1.8808317E-003, 4.0675662E+002
 1.1100500E+002, 7.4066272E-002, 1.0792060E-001, 7.1691026E-002, 4.7149533E-003, 3.4630179E-002, 1.8689573E-003, 4.0908764E+002
 1.1200617E+002, 7.3810248E-002, 1.0803138E-001, 7.1773133E-002, 4.7324346E-003, 3.4969366E-002, 1.8736172E-003, 4.0809045E+002
 1.1300135E+002, 7.4060567E-002, 1.0794138E-001, 7.1686491E-002, 4.7022274E-003, 3.4641069E-002, 1.8663681E-003, 4.1108213E+002
 1.1400084E+002, 7.4071865E-002, 1.0779382E-001, 7.1640788E-002, 4.7336523E-003, 3.5168096E-002, 1.8720033E-003, 4.1068751E+002
 1.1500379E+002, 7.3854933E-002, 1.0782310E-001, 7.1756039E-002, 4.8124690E-003, 3.5299856E-002, 1.8892890E-003, 4.1001391E+002
 1.1600567E+002, 7.3809317E-002, 1.0783640E-001, 7.1802316E-002, 4.8426560E-003, 3.5176949E-002, 1.8959251E-003, 4.1071196E+002
 1.1700399E+002, 7.4151374E-002, 1.0764479E-001, 7.1604505E-002, 4.7716732E-003, 3.5355583E-002, 1.8790524E-003, 4.0919132E+002
 1.1800224E+002, 7.4155345E-002, 1.0770916E-001, 7.1552482E-002, 4.7028503E-003, 3.5534398E-002, 1.8646710E-003, 4.0806807E+002
 1.1901099E+002, 7.3961737E-002, 1.0765908E-001, 7.1697379E-002, 4.8396584E-003, 3.5541863E-002, 1.8938762E-003, 4.1212112E+002
 1.2000227E+002, 7.3939087E-002, 1.0770293E-001, 7.1656736E-002, 4.7892705E-003, 3.5801513E-002, 1.8833217E-003, 4.1016548E+002
 1.2101086E+002, 7.3965120E-002, 1.0756508E-001, 7.1599223E-002, 4.8070238E-003, 3.6321169E-002, 1.8860755E-003, 4.1147491E+002
 1.2200685E+002, 7.3768069E-002, 1.0777492E-001, 7.1754880E-002, 4.8349182E-003, 3.5763820E-002, 1.8937675E-003, 4.1152849E+002
 1.2300224E+002, 7.3704577E-002, 1.0776800E-001, 7.1765942E-002, 4.8476593E-003, 3.5973367E-002, 1.8964705E-003, 4.1148732E+002
 1.2400413E+002, 7.3996122E-002, 1.0764170E-001, 7.1612160E-002, 4.7817837E-003, 3.5960840E-002, 1.8812184E-003, 4.0942681E+002
 1.2500204E+002, 7.3695198E-002, 1.0775112E-001, 7.1763445E-002, 4.8535367E-003, 3.6061171E-002, 1.8976092E-003, 4.1169141E+002
 1.2600070E+002, 7.3593023E-002, 1.0765727E-001, 7.1834351E-002, 4.9518889E-003, 3.6232515E-002, 1.9181484E-003, 4.0967011E+002
 1.2700505E+002, 7.3869446E-002, 1.0740037E-001, 7.1720095E-002, 4.9753644E-003, 3.6295645E-002, 1.9211969E-003, 4.1055052E+002
 1.2800499E+002, 7.3916109E-002, 1.0731616E-001, 7.1676323E-002, 4.9790505E-003, 3.6538532E-002, 1.9213297E-003, 4.0638460E+002
 1.2901068E+002, 7.4066446E-002, 1.0721151E-001, 7.1571461E-002, 4.9433781E-003, 3.6768356E-002, 1.9127850E-003, 4.1266635E+002
 1.3000533E+002, 7.3970759E-002, 1.0723839E-001, 7.1611316E-002, 4.9634645E-003, 3.6866973E-002, 1.9173440E-003, 4.0848004E+002
 1.3100875E+002, 7.3830661E-002, 1.0744291E-001, 7.1700522E-002, 4.9419575E-003, 3.6494558E-002, 1.9143058E-003, 4.1049834E+002
 1.3200902E+002, 7.3991313E-002, 1.0715330E-001, 7.1607256E-002, 4.9983523E-003, 3.6974317E-002, 1.9242204E-003, 4.1116525E+002
 1.3301089E+002, 7.3706262E-002, 1.0739918E-001, 7.1804982E-002, 5.0437454E-003, 3.6451776E-002, 1.9359837E-003, 4.0939552E+002
 1.3400830E+002, 7.4004538E-002, 1.0732743E-001, 7.1629226E-002, 4.9363647E-003, 3.6439768E-002, 1.9121825E-003, 4.0547083E+002
 1.3500078E+002, 7.3675407E-002, 1.0735450E-001, 7.1745677E-002, 5.0191716E-003, 3.7035738E-002, 1.9303162E-003, 4.1130825E+002
 1.3600587E+002, 7.3927026E-002, 1.0731174E-001, 7.1636044E-002, 4.9500808E-003, 3.6751285E-002, 1.9150276E-003, 4.0965615E+002
 1.3700463E+002, 7.3790508E-002, 1.0733762E-001, 7.1692793E-002, 4.9842711E-003, 3.6917267E-002, 1.9226308E-003, 4.0850490E+002
 1.3801132E+002, 7.3649880E-002, 1.0729930E-001, 7.1724508E-002, 5.0283684E-003, 3.7382039E-002, 1.9318713E-003, 4.1641256E+002
 1.3900702E+002, 7.3860125E-002, 1.0720796E-001, 7.1629051E-002, 4.9927711E-003, 3.7277860E-002, 1.9234464E-003, 4.0791026E+002
 1.4000585E+002, 7.3539302E-002, 1.0742001E-001, 7.1785881E-002, 5.0228486E-003, 3.7224339E-002, 1.9316307E-003, 4.1174703E+002
 1.4100734E+002, 7.3752432E-002, 1.0731800E-001, 7.1697291E-002, 4.9972550E-003, 3.7086662E-002, 1.9252858E-003, 4.0832185E+002
 1.4200918E+002, 7.3645324E-002, 1.0733449E-001, 7.1751710E-002, 5.0333580E-003, 3.7163116E-002, 1.9332281E-003, 4.1047897E+002
 1.4300524E+002, 7.3540884E-002, 1.0730937E-001, 7.1820073E-002, 5.0988206E-003, 3.7224117E-002, 1.9471939E-003, 4.0890751E+002
 1.4400821E+002, 7.3587724E-002, 1.0712248E-001, 7.1764741E-002, 5.1399693E-003, 3.7740330E-002, 1.9546220E-003, 4.1134157E+002
 1.4500041E+002, 7.3633159E-002, 1.0712434E-001, 7.1790245E-002, 5.1577668E-003, 3.7389450E-002, 1.9584859E-003, 4.0596795E+002
 1.4600934E+002, 7.3351076E-002, 1.0728088E-001, 7.1928821E-002, 5.1982179E-003, 3.7397125E-002, 1.9684760E-003, 4.1405564E+002
 1.4700192E+002, 7.3743859E-002, 1.0691783E-001, 7.1720522E-002, 5.1955938E-003, 3.7767546E-002, 1.9650394E-003, 4.1079199E+002
 1.4801143E+002, 7.3705258E-002, 1.0692157E-001, 7.1683313E-002, 5.1662088E-003, 3.8151435E-002, 1.9587127E-003, 4.1201501E+002
 1.4900162E+002, 7.3397290E-002, 1.0723716E-001, 7.1891463E-002, 5.1885521E-003, 3.7522301E-002, 1.9660395E-003, 4.1495431E+002
 1.5000893E+002, 7.3425938E-002, 1.0714173E-001, 7.1866030E-002, 5.2116305E-003, 3.7748711E-002, 1.9702795E-003, 4.1106626E+002
 1.5100456E+002, 7.3435912E-002, 1.0726798E-001, 7.1926401E-002, 5.2006203E-003, 3.7084239E-002, 1.9688924E-003, 4.0861384E+002
 1.5200510E+002, 7.3428945E-002, 1.0696562E-001, 7.1975695E-002, 5.3747288E-003, 3.7404122E-002, 2.0041750E-003, 4.1158729E+002
 1.5300891E+002, 7.3660745E-002, 1.0684440E-001, 7.1805063E-002, 5.2948029E-003, 3.7734790E-002, 1.9859245E-003, 4.0890808E+002
 1.5400791E+002, 7.3180207E-002, 1.0728986E-001, 7.2025612E-002, 5.2712452E-003, 3.7491457E-002, 1.9843483E-003, 4.1031465E+002
