s,,,,,,,
Time,"O2 EXHAUST","CO2 EXHAUST","H2O EXHAUST","CO EXHAUST","FUEL EXHAUST","SOOT EXHAUST","TEMP EXHAUST"
 0.0000000E+000, 2.3099739E-001, 5.9146498E-004, 5.9412092E-003, 0.0000000E+000, 0.0000000E+000, 0.0000000E+000, 2.0000000E+001
 1.0016773E+000, 2.3099739E-001, 5.9146498E-004, 5.9412092E-003, 6.0347177E-032, 7.7487373E-031, 1.8527180E-032, 2.0459506E+001
 2.0013300E+000, 2.2301253E-001, 7.0955263E-003, 9.6090301E-003, 3.8389400E-005, 2.8445722E-004, 5.1933098E-005, 9.7591148E+001
 3.0031773E+000, 2.1817989E-001, 1.1046252E-002, 1.1845794E-002, 6.8078178E-005, 3.3534015E-004, 8.4843825E-005, 1.4198666E+002
 4.0003598E+000, 2.1316593E-001, 1.5141717E-002, 1.4157585E-002, 9.3695041E-005, 4.4386932E-004, 1.1785426E-004, 1.8667786E+002
 5.0070930E+000, 2.0678196E-001, 2.0377788E-002, 1.7112904E-002, 1.2572239E-004, 4.7395568E-004, 1.5990260E-004, 2.3696682E+002
 6.0055876E+000, 2.0053530E-001, 2.5548276E-002, 1.9996131E-002, 1.2974234E-004, 4.5584175E-004, 1.9550521E-004, 2.8500673E+002
 7.0038343E+000, 1.9424595E-001, 3.0774050E-002, 2.2899910E-002, 1.2558390E-004, 3.9303731E-004, 2.2972563E-004, 3.2810300E+002
 8.0061326E+000, 1.8824321E-001, 3.5769306E-002, 2.5672264E-002, 1.1891626E-004, 3.1288308E-004, 2.6185914E-004, 3.6205915E+002
 9.0021686E+000, 1.8051677E-001, 4.2209607E-002, 2.9238250E-002, 1.0375291E-004, 2.0186393E-004, 3.0188035E-004, 3.9944088E+002
 1.0005846E+001, 1.7239827E-001, 4.8969733E-002, 3.2985377E-002, 9.1059795E-005, 9.8101202E-005, 3.4458014E-004, 4.3136554E+002
 1.1008079E+001, 1.6491236E-001, 5.5188914E-002, 3.6439878E-002, 8.5159666E-005, 3.4398545E-005, 3.8510189E-004, 4.5502417E+002
 1.2000910E+001, 1.5555617E-001, 6.2936148E-002, 4.0757466E-002, 8.9216075E-005, 6.2830930E-006, 4.3802557E-004, 4.7757048E+002
 1.3001569E+001, 1.5050813E-001, 6.7111066E-002, 4.3087060E-002, 9.3696056E-005, 7.5943356E-007, 4.6703757E-004, 4.8342483E+002
 1.4000529E+001, 1.4355427E-001, 7.2858445E-002, 4.6296245E-002, 1.0158186E-004, 1.2465373E-007, 5.0734526E-004, 4.9240838E+002
 1.5002467E+001, 1.3827227E-001, 7.7223624E-002, 4.8733933E-002, 1.0779779E-004, 9.4639661E-008, 5.3800785E-004, 4.9727308E+002
 1.6008006E+001, 1.3152108E-001, 8.2803095E-002, 5.1849616E-002, 1.1565404E-004, 1.1875358E-007, 5.7718102E-004, 5.0492436E+002
 1.7007507E+001, 1.2583031E-001, 8.7506411E-002, 5.4475845E-002, 1.2212644E-004, 4.9093575E-008, 6.1017056E-004, 5.0762565E+002
 1.8001994E+001, 1.2085342E-001, 9.1619415E-002, 5.6772727E-002, 1.2799709E-004, 6.9172623E-008, 6.3906475E-004, 5.0695703E+002
 1.9005553E+001, 1.1710147E-001, 9.4720137E-002, 5.8504267E-002, 1.3239277E-004, 9.8150015E-008, 6.6084112E-004, 5.0463357E+002
 2.0005727E+001, 1.1050692E-001, 1.0017010E-001, 6.1547673E-002, 1.4010068E-004, 1.4586940E-007, 6.9911232E-004, 5.1394685E+002
 2.1005703E+001, 1.0704092E-001, 1.0303456E-001, 6.3147241E-002, 1.4413381E-004, 1.3811464E-007, 7.1922349E-004, 5.1346196E+002
 2.2008556E+001, 1.0235958E-001, 1.0690358E-001, 6.5307640E-002, 1.4947278E-004, 8.1091871E-008, 7.4636437E-004, 5.1093351E+002
 2.3009645E+001, 9.7801599E-002, 1.1067028E-001, 6.7411216E-002, 1.5491834E-004, 1.5556895E-007, 7.7284056E-004, 5.1403108E+002
 2.4007743E+001, 9.4901666E-002, 1.1306107E-001, 6.8751461E-002, 1.6233623E-004, 1.3250299E-006, 7.9049485E-004, 5.1009753E+002
 2.5004572E+001, 9.1244289E-002, 1.1607280E-001, 7.0442945E-002, 1.7414517E-004, 3.4089500E-006, 8.1326270E-004, 5.1267304E+002
 2.6001648E+001, 8.7857549E-002, 1.1885035E-001, 7.2012736E-002, 1.9272683E-004, 8.9777236E-006, 8.3590923E-004, 5.0977224E+002
 2.7009489E+001, 8.3913909E-002, 1.2209513E-001, 7.3837197E-002, 2.0708993E-004, 1.3392032E-005, 8.6079058E-004, 5.1086750E+002
 2.8006812E+001, 8.2094684E-002, 1.2358518E-001, 7.4681052E-002, 2.1840845E-004, 1.6867739E-005, 8.7322902E-004, 5.0422827E+002
 2.9006126E+001, 7.7714675E-002, 1.2717723E-001, 7.6711323E-002, 2.4255445E-004, 2.3794453E-005, 9.0254124E-004, 5.0551870E+002
 3.0000616E+001, 7.4311442E-002, 1.2998047E-001, 7.8284792E-002, 2.5282912E-004, 2.6753598E-005, 9.2357933E-004, 5.0654120E+002
 3.1000052E+001, 7.0334405E-002, 1.3323073E-001, 8.0132072E-002, 2.8265073E-004, 3.4907581E-005, 9.5181185E-004, 5.0735677E+002
 3.2004716E+001, 6.6553303E-002, 1.3635611E-001, 8.1877114E-002, 2.8686498E-004, 3.3558055E-005, 9.7371501E-004, 5.1359291E+002
 3.3003826E+001, 6.5889459E-002, 1.3689727E-001, 8.2185696E-002, 2.9262774E-004, 3.6370154E-005, 9.7858667E-004, 5.0123689E+002
 3.4003886E+001, 6.1027005E-002, 1.4089140E-001, 8.4437573E-002, 3.1505420E-004, 4.2274995E-005, 1.0102318E-003, 5.0955445E+002
 3.5001779E+001, 5.8739316E-002, 1.4277618E-001, 8.5495364E-002, 3.2184665E-004, 4.2966251E-005, 1.0243520E-003, 5.0479416E+002
 3.6006362E+001, 5.4553507E-002, 1.4619965E-001, 8.7439364E-002, 3.5189208E-004, 4.7720193E-005, 1.0537964E-003, 5.0995435E+002
 3.7000661E+001, 5.2228276E-002, 1.4812093E-001, 8.8512613E-002, 3.5488677E-004, 4.7687139E-005, 1.0673476E-003, 5.0930320E+002
 3.8000912E+001, 4.7507552E-002, 1.5199260E-001, 9.0701163E-002, 3.8108607E-004, 5.2855078E-005, 1.0989788E-003, 5.1359142E+002
 3.9007893E+001, 4.6988530E-002, 1.5238793E-001, 9.0951947E-002, 4.0511722E-004, 5.8517009E-005, 1.1067875E-003, 5.0624178E+002
 4.0003303E+001, 4.3640126E-002, 1.5515829E-001, 9.2496921E-002, 4.0740039E-004, 5.4072425E-005, 1.1258912E-003, 5.0736093E+002
 4.1007354E+001, 4.1003454E-002, 1.5730211E-001, 9.3725753E-002, 4.3518327E-004, 5.8884608E-005, 1.1462524E-003, 5.0480716E+002
 4.2006924E+001, 3.8185576E-002, 1.5958682E-001, 9.5041386E-002, 4.6951733E-004, 6.4087208E-005, 1.1689648E-003, 5.0674195E+002
 4.3001650E+001, 3.4235819E-002, 1.6283135E-001, 9.6871685E-002, 4.8852010E-004, 6.2592989E-005, 1.1948393E-003, 5.1096022E+002
 4.4008517E+001, 3.0862582E-002, 1.6557478E-001, 9.8443250E-002, 5.2333173E-004, 7.0297887E-005, 1.2207363E-003, 5.1328829E+002
 4.5010492E+001, 2.9090356E-002, 1.6704737E-001, 9.9258064E-002, 5.1954526E-004, 7.1209629E-005, 1.2298189E-003, 5.1163853E+002
 4.6000718E+001, 2.6391616E-002, 1.6922224E-001, 1.0052324E-001, 5.6221196E-004, 7.4395802E-005, 1.2535799E-003, 5.1178351E+002
 4.7001786E+001, 2.3648886E-002, 1.7148845E-001, 1.0178933E-001, 5.6586187E-004, 7.3681778E-005, 1.2695892E-003, 5.1445304E+002
 4.8003259E+001, 2.2261895E-002, 1.7256300E-001, 1.0245396E-001, 6.1785824E-004, 8.2953053E-005, 1.2879574E-003, 5.1053128E+002
 4.9003709E+001, 1.8164370E-002, 1.7584458E-001, 1.0438296E-001, 6.9786229E-004, 8.4684679E-005, 1.3271597E-003, 5.1300782E+002
 5.0009632E+001, 1.5471307E-002, 1.7771937E-001, 1.0574966E-001, 9.5037418E-004, 1.0897976E-004, 1.3938962E-003, 5.1826310E+002
 5.1000015E+001, 1.4722231E-002, 1.7818554E-001, 1.0615126E-001, 1.0613778E-003, 1.0901893E-004, 1.4208279E-003, 5.0853745E+002
 5.2001782E+001, 1.1957187E-002, 1.8060741E-001, 1.0737860E-001, 9.6706267E-004, 1.0214532E-004, 1.4168791E-003, 5.1727491E+002
 5.3001561E+001, 1.1702551E-002, 1.7991239E-001, 1.0781065E-001, 1.6070737E-003, 1.9259711E-004, 1.5494303E-003, 5.0638600E+002
 5.4005860E+001, 9.6735538E-003, 1.8036969E-001, 1.0917534E-001, 2.4745805E-003, 2.8884159E-004, 1.7385000E-003, 5.0195534E+002
 5.5003588E+001, 7.0814373E-003, 1.8232984E-001, 1.1044603E-001, 2.6147048E-003, 2.4580937E-004, 1.7817133E-003, 5.0734017E+002
 5.6004133E+001, 7.5527827E-003, 1.8237393E-001, 1.1007189E-001, 2.3032645E-003, 2.3527735E-004, 1.7152356E-003, 4.9845454E+002
 5.7011170E+001, 5.4453357E-003, 1.8121821E-001, 1.1204917E-001, 4.3513828E-003, 5.3451773E-004, 2.1465956E-003, 4.9776620E+002
 5.8002501E+001, 5.5864138E-003, 1.8189364E-001, 1.1170291E-001, 3.7870925E-003, 4.8836409E-004, 2.0301477E-003, 4.9201301E+002
 5.9004919E+001, 4.8528124E-003, 1.8257947E-001, 1.1202203E-001, 3.7379475E-003, 4.3556553E-004, 2.0242187E-003, 4.8956173E+002
 6.0000229E+001, 4.0863318E-003, 1.8146505E-001, 1.1298733E-001, 4.9770538E-003, 5.8599910E-004, 2.2824005E-003, 4.8397816E+002
 6.1009829E+001, 3.6297240E-003, 1.8110785E-001, 1.1344190E-001, 5.4879786E-003, 7.2137868E-004, 2.3895452E-003, 4.8745323E+002
 6.2004958E+001, 3.5584910E-003, 1.8079728E-001, 1.1359193E-001, 5.7406086E-003, 8.1953890E-004, 2.4416236E-003, 4.7766081E+002
 6.3000567E+001, 3.5488364E-003, 1.8016455E-001, 1.1382859E-001, 6.2005817E-003, 8.3071224E-004, 2.5359923E-003, 4.8067040E+002
 6.4002826E+001, 3.4619492E-003, 1.7790903E-001, 1.1452986E-001, 7.7334456E-003, 1.8699244E-003, 2.8494932E-003, 4.7190431E+002
 6.5006637E+001, 3.2233912E-003, 1.7946656E-001, 1.1426136E-001, 6.8437503E-003, 1.2193378E-003, 2.6692017E-003, 4.7231804E+002
 6.6009383E+001, 3.3302939E-003, 1.7854888E-001, 1.1444835E-001, 7.3903641E-003, 1.5857457E-003, 2.7802332E-003, 4.6198619E+002
 6.7002094E+001, 3.2323863E-003, 1.7753674E-001, 1.1491399E-001, 8.1935827E-003, 1.4716362E-003, 2.9456452E-003, 4.6197976E+002
 6.8002886E+001, 3.0846695E-003, 1.7601181E-001, 1.1546676E-001, 9.2911029E-003, 2.1156059E-003, 3.1707141E-003, 4.6186414E+002
 6.9009523E+001, 3.1439306E-003, 1.7617778E-001, 1.1541109E-001, 9.1742588E-003, 1.8403035E-003, 3.1467763E-003, 4.5258033E+002
 7.0002538E+001, 3.2284850E-003, 1.7499381E-001, 1.1574275E-001, 9.9489148E-003, 2.0409512E-003, 3.3049111E-003, 4.4998337E+002
 7.1001904E+001, 3.1289252E-003, 1.7408149E-001, 1.1605423E-001, 1.0591183E-002, 2.5783217E-003, 3.4364880E-003, 4.5110350E+002
 7.2009021E+001, 2.9990108E-003, 1.7334316E-001, 1.1638309E-001, 1.1169993E-002, 2.7990331E-003, 3.5556270E-003, 4.4707423E+002
 7.3005188E+001, 3.2868649E-003, 1.7265055E-001, 1.1639244E-001, 1.1478986E-002, 2.9307537E-003, 3.6172231E-003, 4.4564488E+002
 7.4002308E+001, 3.4580409E-003, 1.7153482E-001, 1.1659233E-001, 1.2122023E-002, 3.3542456E-003, 3.7475977E-003, 4.4247662E+002
 7.5000553E+001, 3.3153753E-003, 1.7124943E-001, 1.1684434E-001, 1.2442003E-002, 3.1421469E-003, 3.8142841E-003, 4.4154384E+002
 7.6007487E+001, 3.0132610E-003, 1.7105215E-001, 1.1709454E-001, 1.2724446E-002, 3.4304940E-003, 3.8735167E-003, 4.4312077E+002
 7.7008180E+001, 3.2003337E-003, 1.6950935E-001, 1.1747874E-001, 1.3696153E-002, 3.6331568E-003, 4.0714887E-003, 4.3755926E+002
 7.8002945E+001, 3.3876515E-003, 1.6883993E-001, 1.1752273E-001, 1.4022918E-002, 3.9492796E-003, 4.1370518E-003, 4.3412967E+002
 7.9009344E+001, 3.5628464E-003, 1.6839331E-001, 1.1749574E-001, 1.4197363E-002, 4.2586827E-003, 4.1714539E-003, 4.3129184E+002
 8.0009147E+001, 3.2507324E-003, 1.6777250E-001, 1.1796288E-001, 1.4832074E-002, 4.2487724E-003, 4.3033671E-003, 4.3098737E+002
 8.1011043E+001, 3.2772405E-003, 1.6641444E-001, 1.1834341E-001, 1.5722003E-002, 4.7732053E-003, 4.4850483E-003, 4.2853638E+002
 8.2004170E+001, 3.5178885E-003, 1.6631731E-001, 1.1819307E-001, 1.5646854E-002, 4.7846060E-003, 4.4682835E-003, 4.2953762E+002
 8.3001617E+001, 3.3958780E-003, 1.6528736E-001, 1.1852270E-001, 1.6355443E-002, 5.5520250E-003, 4.6132904E-003, 4.2555217E+002
 8.4010498E+001, 3.4570709E-003, 1.6457321E-001, 1.1872648E-001, 1.6825340E-002, 5.6099816E-003, 4.7092398E-003, 4.2298402E+002
 8.5008642E+001, 3.4258862E-003, 1.6431798E-001, 1.1882643E-001, 1.7014782E-002, 5.7040933E-003, 4.7481423E-003, 4.2590311E+002
 8.6010928E+001, 3.4404763E-003, 1.6387798E-001, 1.1899276E-001, 1.7335580E-002, 5.6131840E-003, 4.8139659E-003, 4.2574289E+002
 8.7009721E+001, 3.4910514E-003, 1.6256082E-001, 1.1927646E-001, 1.8133623E-002, 6.4854236E-003, 4.9762226E-003, 4.1866955E+002
 8.8008235E+001, 3.5034573E-003, 1.6200158E-001, 1.1948318E-001, 1.8537927E-002, 6.4211667E-003, 5.0591492E-003, 4.2091447E+002
 8.9003293E+001, 3.3507804E-003, 1.6178626E-001, 1.1965730E-001, 1.8768043E-002, 6.5372792E-003, 5.1070405E-003, 4.2330641E+002
 9.0000153E+001, 3.5544486E-003, 1.6068460E-001, 1.1981204E-001, 1.9370064E-002, 7.0439991E-003, 5.2287160E-003, 4.2088779E+002
 9.1005288E+001, 3.3336361E-003, 1.6024312E-001, 1.2008803E-001, 1.9778859E-002, 7.3400120E-003, 5.3133980E-003, 4.1587674E+002
 9.2009688E+001, 3.4736240E-003, 1.5966149E-001, 1.2020083E-001, 2.0119657E-002, 7.3013486E-003, 5.3825582E-003, 4.1653249E+002
 9.3008673E+001, 3.3434280E-003, 1.5901711E-001, 1.2041353E-001, 2.0568864E-002, 7.9713797E-003, 5.4745430E-003, 4.1808350E+002
 9.4006841E+001, 3.5045672E-003, 1.5892625E-001, 1.2032031E-001, 2.0535637E-002, 7.9899221E-003, 5.4668085E-003, 4.1313944E+002
 9.5009195E+001, 3.5606894E-003, 1.5804481E-001, 1.2056961E-001, 2.1114286E-002, 8.1547936E-003, 5.5849512E-003, 4.1624681E+002
 9.6005607E+001, 3.4348206E-003, 1.5747933E-001, 1.2074561E-001, 2.1500636E-002, 8.8497086E-003, 5.6639893E-003, 4.1187430E+002
 9.7000247E+001, 3.5134568E-003, 1.5709673E-001, 1.2086785E-001, 2.1761429E-002, 8.6174147E-003, 5.7173327E-003, 4.1308858E+002
 9.8009526E+001, 3.6722569E-003, 1.5551855E-001, 1.2123605E-001, 2.2737225E-002, 9.0968466E-003, 5.9159450E-003, 4.1495412E+002
 9.9001855E+001, 3.4935774E-003, 1.5549376E-001, 1.2143209E-001, 2.2899907E-002, 8.8200851E-003, 5.9506569E-003, 4.2142442E+002
 1.0000826E+002, 3.8477558E-003, 1.5419921E-001, 1.2158907E-001, 2.3586414E-002, 9.0712529E-003, 6.0891494E-003, 4.0763112E+002
 1.0100727E+002, 4.0119728E-003, 1.5306299E-001, 1.2200130E-001, 2.4399422E-002, 8.4017207E-003, 6.2558244E-003, 4.1108099E+002
 1.0200338E+002, 4.1448226E-003, 1.5085753E-001, 1.2273332E-001, 2.5929337E-002, 8.2530803E-003, 6.5690247E-003, 4.1159748E+002
 1.0300001E+002, 4.7464841E-003, 1.4905213E-001, 1.2276086E-001, 2.6739891E-002, 9.2011085E-003, 6.7306837E-003, 4.0849494E+002
 1.0400596E+002, 5.0774723E-003, 1.4897499E-001, 1.2251456E-001, 2.6581580E-002, 9.3201578E-003, 6.6962233E-003, 3.9805496E+002
 1.0500246E+002, 6.5275893E-003, 1.4559780E-001, 1.2260164E-001, 2.8118780E-002, 9.5407140E-003, 7.0031141E-003, 4.1606301E+002
 1.0600177E+002, 5.8092463E-003, 1.4716767E-001, 1.2259075E-001, 2.7427434E-002, 9.4612546E-003, 6.8654347E-003, 3.9919048E+002
 1.0700604E+002, 8.2028270E-003, 1.4435685E-001, 1.2167876E-001, 2.7939805E-002, 1.0073529E-002, 6.9564054E-003, 3.9838658E+002
 1.0800507E+002, 9.2147298E-003, 1.4300353E-001, 1.2121952E-001, 2.8173812E-002, 1.1066553E-002, 6.9974881E-003, 4.0219606E+002
 1.0900454E+002, 8.2755984E-003, 1.4296547E-001, 1.2207430E-001, 2.8855017E-002, 1.0389016E-002, 7.1432826E-003, 3.9607452E+002
 1.1000741E+002, 1.1361468E-002, 1.4178056E-001, 1.1983753E-001, 2.7630647E-002, 1.2105907E-002, 6.8728185E-003, 3.8201861E+002
 1.1100758E+002, 1.2487119E-002, 1.3931493E-001, 1.1992777E-001, 2.8771886E-002, 1.1840821E-002, 7.1009366E-003, 4.0478755E+002
 1.1200671E+002, 1.2224249E-002, 1.3983219E-001, 1.1987276E-001, 2.8505652E-002, 1.2205807E-002, 7.0473320E-003, 3.8945049E+002
 1.1300202E+002, 1.5574699E-002, 1.3755716E-001, 1.1790097E-001, 2.7960523E-002, 1.3547669E-002, 6.9151736E-003, 3.8588068E+002
 1.1400908E+002, 1.9323362E-002, 1.3575574E-001, 1.1522197E-001, 2.6662641E-002, 1.6149158E-002, 6.6248095E-003, 3.7583654E+002
 1.1501147E+002, 1.6044836E-002, 1.3609633E-001, 1.1805936E-001, 2.8719717E-002, 1.3639061E-002, 7.0681326E-003, 3.9231061E+002
 1.1600829E+002, 1.8256446E-002, 1.3598847E-001, 1.1602541E-001, 2.7187219E-002, 1.5745059E-002, 6.7388430E-003, 3.6690318E+002
 1.1700879E+002, 2.1015359E-002, 1.3573881E-001, 1.1405937E-001, 2.5758985E-002, 1.5473710E-002, 6.4309457E-003, 3.7376996E+002
 1.1800825E+002, 2.0637941E-002, 1.3510525E-001, 1.1457547E-001, 2.6437618E-002, 1.5494213E-002, 6.5721904E-003, 3.7508826E+002
 1.1900951E+002, 2.1246517E-002, 1.3479714E-001, 1.1414016E-001, 2.6233563E-002, 1.5950057E-002, 6.5263719E-003, 3.6154279E+002
 1.2000657E+002, 2.1462600E-002, 1.3490346E-001, 1.1398146E-001, 2.6062302E-002, 1.5702587E-002, 6.4903661E-003, 3.5626708E+002
 1.2101110E+002, 2.0246478E-002, 1.3580223E-001, 1.1488933E-001, 2.6373267E-002, 1.4016720E-002, 6.5630705E-003, 3.7511028E+002
 1.2200350E+002, 1.8860662E-002, 1.3715475E-001, 1.1561929E-001, 2.6351411E-002, 1.3106534E-002, 6.5674684E-003, 3.7991549E+002
 1.2300620E+002, 2.0280748E-002, 1.3372947E-001, 1.1567872E-001, 2.7889570E-002, 1.3700426E-002, 6.8742433E-003, 3.6936270E+002
 1.2400101E+002, 2.0743650E-002, 1.3205677E-001, 1.1586641E-001, 2.8765059E-002, 1.4085851E-002, 7.0507138E-003, 3.6387697E+002
 1.2501056E+002, 2.0923317E-002, 1.3146362E-001, 1.1587648E-001, 2.9032459E-002, 1.4467020E-002, 7.1040616E-003, 3.6135273E+002
 1.2600332E+002, 2.0693941E-002, 1.3137774E-001, 1.1616098E-001, 2.9290135E-002, 1.4040102E-002, 7.1587294E-003, 3.6043373E+002
 1.2700232E+002, 2.1481257E-002, 1.2757077E-001, 1.1683294E-001, 3.1472888E-002, 1.4690116E-002, 7.6011432E-003, 3.6625528E+002
 1.2800738E+002, 2.1560769E-002, 1.2727837E-001, 1.1690773E-001, 3.1657739E-002, 1.4533421E-002, 7.6388106E-003, 3.6024322E+002
 1.2900120E+002, 2.2253980E-002, 1.2609259E-001, 1.1673371E-001, 3.2039214E-002, 1.4961622E-002, 7.7126347E-003, 3.5761960E+002
 1.3000416E+002, 2.2317002E-002, 1.2302675E-001, 1.1780983E-001, 3.4212508E-002, 1.4943238E-002, 8.1579974E-003, 3.6023150E+002
 1.3101186E+002, 2.1503418E-002, 1.2473494E-001, 1.1795244E-001, 3.3577757E-002, 1.4144416E-002, 8.0333786E-003, 3.7337588E+002
 1.3201060E+002, 2.2606251E-002, 1.2364153E-001, 1.1741299E-001, 3.3634104E-002, 1.4675906E-002, 8.0381151E-003, 3.6924310E+002
 1.3301346E+002, 2.2586840E-002, 1.2205620E-001, 1.1793451E-001, 3.4732414E-002, 1.5075244E-002, 8.2629464E-003, 3.6618626E+002
 1.3400970E+002, 2.1812377E-002, 1.2318461E-001, 1.1825483E-001, 3.4488623E-002, 1.4300453E-002, 8.2182556E-003, 3.7091457E+002
 1.3500439E+002, 2.1004526E-002, 1.2272083E-001, 1.1916587E-001, 3.5398839E-002, 1.3618142E-002, 8.4102904E-003, 3.7851994E+002
 1.3600357E+002, 2.1493640E-002, 1.2119038E-001, 1.1928737E-001, 3.6160641E-002, 1.3971637E-002, 8.5633418E-003, 3.7786663E+002
 1.3700656E+002, 2.1707710E-002, 1.2043390E-001, 1.1936713E-001, 3.6552620E-002, 1.4154232E-002, 8.6423015E-003, 3.7356340E+002
 1.3801044E+002, 2.1928775E-002, 1.1900864E-001, 1.1964319E-001, 3.7389690E-002, 1.4571720E-002, 8.8121976E-003, 3.7137893E+002
 1.3901224E+002, 2.2033037E-002, 1.1870154E-001, 1.1965854E-001, 3.7535608E-002, 1.4666483E-002, 8.8414200E-003, 3.7041121E+002
 1.4000761E+002, 2.2428679E-002, 1.1773754E-001, 1.1966259E-001, 3.7958979E-002, 1.4919893E-002, 8.9257161E-003, 3.7025927E+002
 1.4101211E+002, 2.3070523E-002, 1.1583557E-001, 1.1978374E-001, 3.8882498E-002, 1.5380452E-002, 9.1109444E-003, 3.6627525E+002
 1.4200434E+002, 2.3082003E-002, 1.1392018E-001, 1.2049710E-001, 4.0271857E-002, 1.5260808E-002, 9.3959580E-003, 3.6864067E+002
 1.4300350E+002, 2.2218115E-002, 1.1520573E-001, 1.2084451E-001, 3.9980528E-002, 1.4396955E-002, 9.3421303E-003, 3.7595565E+002
 1.4400569E+002, 2.2269951E-002, 1.1339415E-001, 1.2145272E-001, 4.1243501E-002, 1.4476569E-002, 9.6007446E-003, 3.7874566E+002
 1.4500477E+002, 2.2233789E-002, 1.1362654E-001, 1.2140304E-001, 4.1103480E-002, 1.4434556E-002, 9.5722848E-003, 3.7829863E+002
 1.4600962E+002, 2.2194658E-002, 1.1286946E-001, 1.2173117E-001, 4.1688390E-002, 1.4317066E-002, 9.6926044E-003, 3.7884267E+002
 1.4701137E+002, 2.2880685E-002, 1.1164669E-001, 1.2155457E-001, 4.2084452E-002, 1.4863517E-002, 9.7693078E-003, 3.7165932E+002
 1.4800405E+002, 2.3104820E-002, 1.1075616E-001, 1.2167287E-001, 4.2564874E-002, 1.5061400E-002, 9.8663293E-003, 3.7099170E+002
 1.4900190E+002, 2.2813018E-002, 1.1089151E-001, 1.2186798E-001, 4.2657896E-002, 1.4942210E-002, 9.8871825E-003, 3.7173189E+002
 1.5001023E+002, 2.2760085E-002, 1.1065030E-001, 1.2201542E-001, 4.2877469E-002, 1.4839078E-002, 9.9326387E-003, 3.7534576E+002
 1.5100330E+002, 2.2785197E-002, 1.0872977E-001, 1.2264152E-001, 4.4202801E-002, 1.5150636E-002, 1.0203892E-002, 3.7572438E+002
 1.5201381E+002, 2.1852547E-002, 1.0823539E-001, 1.2367417E-001, 4.5220931E-002, 1.4385553E-002, 1.0418858E-002, 3.7919184E+002
 1.5300935E+002, 2.2538650E-002, 1.0789612E-001, 1.2319655E-001, 4.4997248E-002, 1.4811258E-002, 1.0368621E-002, 3.7569415E+002
 1.5400971E+002, 2.2508280E-002, 1.0625470E-001, 1.2380136E-001, 4.6183686E-002, 1.4912560E-002, 1.0611970E-002, 3.7432940E+002
