s,,,,,,,
Time,"O2 EXHAUST","CO2 EXHAUST","H2O EXHAUST","CO EXHAUST","FUEL EXHAUST","SOOT EXHAUST","TEMP EXHAUST"
 0.0000000E+000, 2.3099739E-001, 5.9146498E-004, 5.9412092E-003, 0.0000000E+000, 0.0000000E+000, 0.0000000E+000, 2.0000000E+001
 1.0040418E+000, 2.3099739E-001, 5.9146498E-004, 5.9412092E-003, 1.7353149E-033, 2.9797353E-032, 5.4894214E-034, 2.0480151E+001
 2.0003436E+000, 2.2379139E-001, 6.2148890E-003, 1.0640744E-002, 1.1218205E-005, 1.7261416E-004, 3.5029470E-005, 9.3679184E+001
 3.0022613E+000, 2.1939712E-001, 9.6474465E-003, 1.3523390E-002, 2.5162593E-005, 2.0348503E-004, 5.7932907E-005, 1.3582750E+002
 4.0046100E+000, 2.1536703E-001, 1.2799633E-002, 1.6157020E-002, 3.0997509E-005, 2.6408156E-004, 7.7471192E-005, 1.7548764E+002
 5.0024556E+000, 2.1100717E-001, 1.6213583E-002, 1.9015892E-002, 4.0589717E-005, 2.8281528E-004, 9.9333506E-005, 2.1245355E+002
 6.0046329E+000, 2.0500051E-001, 2.0942361E-002, 2.2954963E-002, 4.2867433E-005, 2.5599549E-004, 1.2725522E-004, 2.6156054E+002
 7.0049807E+000, 2.0159366E-001, 2.3632375E-002, 2.5190709E-002, 4.1477510E-005, 2.1830042E-004, 1.4256289E-004, 2.8642039E+002
 8.0011645E+000, 1.9548446E-001, 2.8459476E-002, 2.9199830E-002, 3.7497753E-005, 1.4412044E-004, 1.6971321E-004, 3.2674052E+002
 9.0031088E+000, 1.9013704E-001, 3.2686947E-002, 3.2708715E-002, 3.2848251E-005, 7.5853383E-005, 1.9324128E-004, 3.5769717E+002
 1.0000870E+001, 1.8326041E-001, 3.8114294E-002, 3.7218888E-002, 2.9750069E-005, 1.5076416E-005, 2.2406292E-004, 3.9196524E+002
 1.1004532E+001, 1.7905721E-001, 4.1423618E-002, 3.9973981E-002, 3.0538385E-005, 8.3163052E-007, 2.4343054E-004, 4.0680326E+002
 1.2001902E+001, 1.7168747E-001, 4.7217571E-002, 4.4802923E-002, 3.4764806E-005, 2.6778422E-008, 2.7794964E-004, 4.3215311E+002
 1.3000332E+001, 1.6750734E-001, 5.0503745E-002, 4.7541875E-002, 3.7217851E-005, 2.3336195E-008, 2.9753995E-004, 4.4308412E+002
 1.4004700E+001, 1.6154683E-001, 5.5189526E-002, 5.1447404E-002, 4.0735794E-005, 5.2341131E-008, 3.2547822E-004, 4.5617560E+002
 1.5008742E+001, 1.5665244E-001, 5.9037185E-002, 5.4654369E-002, 4.3623308E-005, 6.7561904E-008, 3.4841906E-004, 4.6402349E+002
 1.6003872E+001, 1.5242973E-001, 6.2356897E-002, 5.7421204E-002, 4.6065572E-005, 4.3147941E-008, 3.6820162E-004, 4.6987344E+002
 1.7000052E+001, 1.4743397E-001, 6.6284279E-002, 6.0694582E-002, 4.8994311E-005, 3.5834377E-008, 3.9161380E-004, 4.7478210E+002
 1.8004037E+001, 1.4362413E-001, 6.9279389E-002, 6.3190901E-002, 5.1211254E-005, 2.6240563E-008, 4.0946490E-004, 4.7459516E+002
 1.9007276E+001, 1.3949596E-001, 7.2524672E-002, 6.5895828E-002, 5.3664237E-005, 5.2142961E-008, 4.2881796E-004, 4.7738555E+002
 2.0004615E+001, 1.3536124E-001, 7.5775153E-002, 6.8605017E-002, 5.6083951E-005, 5.1191230E-008, 4.4819405E-004, 4.8108600E+002
 2.1006599E+001, 1.3168737E-001, 7.8663326E-002, 7.1012262E-002, 5.8249672E-005, 6.2335559E-008, 4.6541379E-004, 4.8406024E+002
 2.2002856E+001, 1.2851189E-001, 8.1159747E-002, 7.3092919E-002, 6.0085831E-005, 4.4225830E-008, 4.8029016E-004, 4.8289996E+002
 2.3003317E+001, 1.2554114E-001, 8.3495217E-002, 7.5039434E-002, 6.1805014E-005, 2.7131516E-008, 4.9420772E-004, 4.8460329E+002
 2.4005408E+001, 1.2343297E-001, 8.5152529E-002, 7.6420777E-002, 6.3047866E-005, 3.6580347E-008, 5.0408890E-004, 4.8054994E+002
 2.5003185E+001, 1.1823730E-001, 8.9237028E-002, 7.9825158E-002, 6.6120762E-005, 5.0923512E-008, 5.2844348E-004, 4.8902742E+002
 2.6005374E+001, 1.1626673E-001, 9.0786183E-002, 8.1116343E-002, 6.7276341E-005, 4.8560162E-008, 5.3767849E-004, 4.8350682E+002
 2.7003718E+001, 1.1444549E-001, 9.2217948E-002, 8.2309674E-002, 6.8339009E-005, 4.7641615E-008, 5.4621254E-004, 4.8571645E+002
 2.8003463E+001, 1.1118234E-001, 9.4783201E-002, 8.4447805E-002, 7.0280762E-005, 6.9242152E-008, 5.6151088E-004, 4.8199415E+002
 2.9008494E+001, 1.0889480E-001, 9.6581645E-002, 8.5946633E-002, 7.1553268E-005, 2.6581236E-008, 5.7221717E-004, 4.7873968E+002
 3.0002383E+001, 1.0635232E-001, 9.8580329E-002, 8.7612571E-002, 7.3087351E-005, 5.2421740E-008, 5.8414122E-004, 4.8138987E+002
 3.1006907E+001, 1.0434109E-001, 1.0016147E-001, 8.8930379E-002, 7.4247079E-005, 3.8452491E-008, 5.9356269E-004, 4.7982162E+002
 3.2008194E+001, 1.0152537E-001, 1.0237504E-001, 9.0775327E-002, 7.5895644E-005, 3.2016917E-008, 6.0675789E-004, 4.7700485E+002
 3.3003365E+001, 9.8228685E-002, 1.0496663E-001, 9.2935450E-002, 7.7877371E-005, 6.5600922E-008, 6.2221760E-004, 4.8123404E+002
 3.4000851E+001, 9.6342107E-002, 1.0644981E-001, 9.4171569E-002, 7.8944896E-005, 5.5383873E-008, 6.3105097E-004, 4.7932684E+002
 3.5001441E+001, 9.3207482E-002, 1.0891405E-001, 9.6225484E-002, 8.0797155E-005, 5.5112114E-008, 6.4574412E-004, 4.7891885E+002
 3.6007066E+001, 9.0792246E-002, 1.1081274E-001, 9.7808035E-002, 8.2233035E-005, 6.9977623E-008, 6.5706701E-004, 4.8163664E+002
 3.7002711E+001, 8.8598282E-002, 1.1253745E-001, 9.9245607E-002, 8.3554520E-005, 1.2121542E-007, 6.6735605E-004, 4.8509567E+002
 3.8008686E+001, 8.6687065E-002, 1.1404002E-001, 1.0049787E-001, 8.4630418E-005, 5.6097194E-008, 6.7630369E-004, 4.7915534E+002
 3.9002192E+001, 8.3919670E-002, 1.1621557E-001, 1.0231116E-001, 8.6260731E-005, 6.8632138E-008, 6.8927447E-004, 4.7874013E+002
 4.0007137E+001, 8.2579038E-002, 1.1726960E-001, 1.0318955E-001, 8.6986428E-005, 3.0968212E-008, 6.9554485E-004, 4.7983231E+002
 4.1005841E+001, 7.9898923E-002, 1.1937595E-001, 1.0494590E-001, 8.8952214E-005, 2.1978354E-007, 7.0818608E-004, 4.7949132E+002
 4.2005675E+001, 7.7902021E-002, 1.2094238E-001, 1.0625578E-001, 9.2361731E-005, 1.3383565E-006, 7.1800457E-004, 4.7769035E+002
 4.3000672E+001, 7.5781507E-002, 1.2260107E-001, 1.0764847E-001, 9.8927408E-005, 5.1113605E-006, 7.2903501E-004, 4.7493261E+002
 4.4003500E+001, 7.3108379E-002, 1.2469190E-001, 1.0940404E-001, 1.0722993E-004, 1.0378925E-005, 7.4294480E-004, 4.8254729E+002
 4.5003436E+001, 7.1710365E-002, 1.2577442E-001, 1.1032647E-001, 1.1856467E-004, 1.8077802E-005, 7.5165522E-004, 4.7692961E+002
 4.6000325E+001, 7.0387822E-002, 1.2680518E-001, 1.1119665E-001, 1.2510961E-004, 2.1727693E-005, 7.5903829E-004, 4.7673856E+002
 4.7002179E+001, 6.7390949E-002, 1.2912452E-001, 1.1317588E-001, 1.5088737E-004, 3.3311590E-005, 7.7802064E-004, 4.7734304E+002
 4.8004853E+001, 6.5816431E-002, 1.3036663E-001, 1.1420493E-001, 1.4857548E-004, 3.5145078E-005, 7.8473092E-004, 4.7778159E+002
 4.9002639E+001, 6.3745838E-002, 1.3198117E-001, 1.1556665E-001, 1.5815592E-004, 4.1878315E-005, 7.9615157E-004, 4.7883282E+002
 5.0004208E+001, 6.2118722E-002, 1.3325243E-001, 1.1663514E-001, 1.6377187E-004, 4.8360621E-005, 8.0473078E-004, 4.8066541E+002
 5.1004569E+001, 5.9793201E-002, 1.3503509E-001, 1.1817763E-001, 1.9466787E-004, 6.5388407E-005, 8.2169698E-004, 4.8152241E+002
 5.2008832E+001, 5.8541351E-002, 1.3601631E-001, 1.1899834E-001, 1.9691843E-004, 6.9426873E-005, 8.2787194E-004, 4.7594459E+002
 5.3005465E+001, 5.7030399E-002, 1.3719742E-001, 1.1999031E-001, 2.0174300E-004, 7.5207242E-005, 8.3575846E-004, 4.7789011E+002
 5.4003150E+001, 5.5409441E-002, 1.3843082E-001, 1.2106935E-001, 2.2927994E-004, 9.0033835E-005, 8.4881801E-004, 4.7574713E+002
 5.5006102E+001, 5.4413830E-002, 1.3921034E-001, 1.2172146E-001, 2.3113080E-004, 9.7460582E-005, 8.5373715E-004, 4.7288426E+002
 5.6006634E+001, 5.2079502E-002, 1.4105121E-001, 1.2324838E-001, 2.2864888E-004, 9.6232423E-005, 8.6388462E-004, 4.7866652E+002
 5.7010405E+001, 4.9159256E-002, 1.4331107E-001, 1.2517765E-001, 2.5417919E-004, 1.0531633E-004, 8.8246876E-004, 4.8554375E+002
 5.8000518E+001, 4.8640924E-002, 1.4371401E-001, 1.2551927E-001, 2.5748755E-004, 1.0653517E-004, 8.8551573E-004, 4.8137223E+002
 5.9001660E+001, 4.8065978E-002, 1.4417180E-001, 1.2589268E-001, 2.5359131E-004, 1.0806655E-004, 8.8733619E-004, 4.7534175E+002
 6.0002043E+001, 4.6408084E-002, 1.4543902E-001, 1.2699476E-001, 2.7845932E-004, 1.1788428E-004, 9.0001968E-004, 4.7849671E+002
 6.1009338E+001, 4.4514212E-002, 1.4692743E-001, 1.2823498E-001, 2.7940991E-004, 1.2160059E-004, 9.0885832E-004, 4.8006345E+002
 6.2005095E+001, 4.4045929E-002, 1.4727944E-001, 1.2854745E-001, 2.8963807E-004, 1.3162446E-004, 9.1309346E-004, 4.7531081E+002
 6.3008701E+001, 4.1837843E-002, 1.4900245E-001, 1.2999893E-001, 2.9896038E-004, 1.3890917E-004, 9.2508807E-004, 4.7685926E+002
 6.4003656E+001, 4.0782299E-002, 1.4982922E-001, 1.3069135E-001, 3.0131423E-004, 1.4186138E-004, 9.3038922E-004, 4.7715335E+002
 6.5001397E+001, 3.8692980E-002, 1.5145503E-001, 1.3206893E-001, 3.1424954E-004, 1.4118294E-004, 9.4259452E-004, 4.7787991E+002
 6.6005101E+001, 3.6665749E-002, 1.5303605E-001, 1.3340419E-001, 3.2454461E-004, 1.3893530E-004, 9.5397393E-004, 4.8260649E+002
 6.7005174E+001, 3.6152692E-002, 1.5342108E-001, 1.3374686E-001, 3.3618778E-004, 1.4990795E-004, 9.5870408E-004, 4.7756566E+002
 6.8004371E+001, 3.4664361E-002, 1.5456326E-001, 1.3473465E-001, 3.5570728E-004, 1.5578962E-004, 9.6951539E-004, 4.8326769E+002
 6.9008531E+001, 3.3698835E-002, 1.5532730E-001, 1.3536532E-001, 3.5307748E-004, 1.5357567E-004, 9.7338402E-004, 4.7929081E+002
 7.0001027E+001, 3.2025913E-002, 1.5658009E-001, 1.3648725E-001, 3.9457323E-004, 1.7634990E-004, 9.8954893E-004, 4.8192214E+002
 7.1005998E+001, 3.2434399E-002, 1.5628567E-001, 1.3620621E-001, 3.7578649E-004, 1.7604009E-004, 9.8381289E-004, 4.7569556E+002
 7.2005525E+001, 3.1444200E-002, 1.5704432E-001, 1.3686358E-001, 3.8941797E-004, 1.8173732E-004, 9.9113678E-004, 4.7436683E+002
 7.3001928E+001, 2.9055851E-002, 1.5894035E-001, 1.3842366E-001, 3.8024973E-004, 1.6382450E-004, 1.0001706E-003, 4.8213015E+002
 7.4001224E+001, 2.9703059E-002, 1.5839279E-001, 1.3801219E-001, 4.0330659E-004, 1.9173239E-004, 1.0019376E-003, 4.7774045E+002
 7.5007469E+001, 2.6848191E-002, 1.6057665E-001, 1.3991467E-001, 4.4777699E-004, 1.8620194E-004, 1.0241417E-003, 4.7836183E+002
 7.6004775E+001, 2.5252093E-002, 1.6180542E-001, 1.4097390E-001, 4.6695666E-004, 1.8494974E-004, 1.0353825E-003, 4.8407383E+002
 7.7005522E+001, 2.4810199E-002, 1.6214335E-001, 1.4126697E-001, 4.7316625E-004, 1.8994829E-004, 1.0386744E-003, 4.8031902E+002
 7.8005094E+001, 2.4381175E-002, 1.6243722E-001, 1.4156651E-001, 5.0186543E-004, 2.0387438E-004, 1.0465325E-003, 4.7865504E+002
 7.9004060E+001, 2.3153920E-002, 1.6341485E-001, 1.4236356E-001, 4.9334125E-004, 2.0630978E-004, 1.0503765E-003, 4.8223020E+002
 8.0003134E+001, 2.2254237E-002, 1.6413178E-001, 1.4295020E-001, 4.8817744E-004, 1.9825494E-004, 1.0534285E-003, 4.7891229E+002
 8.1000028E+001, 2.0527300E-002, 1.6542481E-001, 1.4411470E-001, 5.3433483E-004, 1.9675582E-004, 1.0708262E-003, 4.7871217E+002
 8.2007872E+001, 1.9794668E-002, 1.6602659E-001, 1.4458143E-001, 5.1664365E-004, 1.9789483E-004, 1.0705243E-003, 4.8368933E+002
 8.3005606E+001, 1.9039900E-002, 1.6657062E-001, 1.4509833E-001, 5.5012828E-004, 2.0804671E-004, 1.0808598E-003, 4.8385804E+002
 8.4003253E+001, 1.8279990E-002, 1.6708772E-001, 1.4563357E-001, 6.0484151E-004, 2.2082775E-004, 1.0955905E-003, 4.8364893E+002
 8.5005382E+001, 1.7723815E-002, 1.6748915E-001, 1.4601424E-001, 6.2916250E-004, 2.2809209E-004, 1.1031339E-003, 4.8050177E+002
 8.6001870E+001, 1.6577417E-002, 1.6825895E-001, 1.4682961E-001, 7.2025623E-004, 2.3643407E-004, 1.1271308E-003, 4.7997405E+002
 8.7003697E+001, 1.5643123E-002, 1.6902505E-001, 1.4742535E-001, 6.9854854E-004, 2.3841488E-004, 1.1269210E-003, 4.8437216E+002
 8.8004809E+001, 1.4910412E-002, 1.6957936E-001, 1.4791789E-001, 7.1484677E-004, 2.3242232E-004, 1.1336312E-003, 4.8022221E+002
 8.9004959E+001, 1.4374334E-002, 1.6990967E-001, 1.4831137E-001, 7.7667909E-004, 2.4741368E-004, 1.1488047E-003, 4.8013384E+002
 9.0001107E+001, 1.3623761E-002, 1.7057443E-001, 1.4876906E-001, 7.2694876E-004, 2.3305773E-004, 1.1419987E-003, 4.8457788E+002
 9.1005037E+001, 1.3174576E-002, 1.7093424E-001, 1.4906168E-001, 7.2340993E-004, 2.2637462E-004, 1.1433273E-003, 4.8430796E+002
 9.2010034E+001, 1.2293894E-002, 1.7145940E-001, 1.4971808E-001, 8.3774850E-004, 2.4633361E-004, 1.1708889E-003, 4.8104101E+002
 9.3005891E+001, 1.0783314E-002, 1.7247792E-001, 1.5078902E-001, 9.5418651E-004, 2.6273477E-004, 1.2017627E-003, 4.8247828E+002
 9.4005857E+001, 1.0167634E-002, 1.7283693E-001, 1.5125554E-001, 1.0415768E-003, 2.6253558E-004, 1.2225824E-003, 4.8502096E+002
 9.5003779E+001, 1.0102006E-002, 1.7297704E-001, 1.5125413E-001, 9.8012825E-004, 2.6157039E-004, 1.2102203E-003, 4.8341394E+002
 9.6007179E+001, 1.0082595E-002, 1.7267398E-001, 1.5141424E-001, 1.1949858E-003, 3.1441450E-004, 1.2545289E-003, 4.7477790E+002
 9.7008324E+001, 8.5553019E-003, 1.7355986E-001, 1.5257539E-001, 1.4158081E-003, 3.0784897E-004, 1.3070137E-003, 4.8276047E+002
 9.8005437E+001, 8.8105506E-003, 1.7361752E-001, 1.5227997E-001, 1.2369526E-003, 2.9931679E-004, 1.2690006E-003, 4.7830863E+002
 9.9005398E+001, 7.5465491E-003, 1.7451090E-001, 1.5316008E-001, 1.3081671E-003, 2.9410503E-004, 1.2894522E-003, 4.8331478E+002
 1.0000120E+002, 7.0894826E-003, 1.7442721E-001, 1.5367401E-001, 1.6121815E-003, 3.3025176E-004, 1.3541492E-003, 4.8141396E+002
 1.0100433E+002, 7.2868727E-003, 1.7442571E-001, 1.5346746E-001, 1.5052602E-003, 3.2904880E-004, 1.3312159E-003, 4.8266031E+002
 1.0200453E+002, 6.5161240E-003, 1.7461074E-001, 1.5417665E-001, 1.7945132E-003, 3.6163148E-004, 1.3943069E-003, 4.7912321E+002
 1.0300931E+002, 6.4823642E-003, 1.7474980E-001, 1.5414155E-001, 1.7159829E-003, 3.6352714E-004, 1.3782763E-003, 4.8120137E+002
 1.0400911E+002, 5.7730122E-003, 1.7450594E-001, 1.5499323E-001, 2.2653993E-003, 4.3329222E-004, 1.4946596E-003, 4.7342912E+002
 1.0500130E+002, 6.0029136E-003, 1.7448516E-001, 1.5476190E-001, 2.1539258E-003, 4.3336859E-004, 1.4706385E-003, 4.8126832E+002
 1.0600351E+002, 5.5419215E-003, 1.7455313E-001, 1.5520889E-001, 2.3573067E-003, 4.4770134E-004, 1.5146388E-003, 4.7173253E+002
 1.0700971E+002, 6.3647124E-003, 1.7428265E-001, 1.5448554E-001, 2.0977334E-003, 4.2522413E-004, 1.4574157E-003, 4.6956263E+002
 1.0800294E+002, 5.5942112E-003, 1.7395505E-001, 1.5542793E-001, 2.7308495E-003, 5.5862713E-004, 1.5912591E-003, 4.6688127E+002
 1.0900122E+002, 5.2349119E-003, 1.7413853E-001, 1.5571558E-001, 2.8011238E-003, 5.4939787E-004, 1.6073907E-003, 4.7421253E+002
 1.1000456E+002, 5.0622846E-003, 1.7375083E-001, 1.5609509E-001, 3.1667419E-003, 5.3978578E-004, 1.6835319E-003, 4.7335462E+002
 1.1100983E+002, 5.0698330E-003, 1.7393199E-001, 1.5597984E-001, 3.0283988E-003, 6.0370498E-004, 1.6549217E-003, 4.6837939E+002
 1.1200538E+002, 4.5718237E-003, 1.7387073E-001, 1.5653399E-001, 3.3435454E-003, 6.0587319E-004, 1.7221354E-003, 4.7131661E+002
 1.1300438E+002, 4.1206566E-003, 1.7397472E-001, 1.5694494E-001, 3.5126289E-003, 6.5048296E-004, 1.7589913E-003, 4.6987602E+002
 1.1400698E+002, 4.4525342E-003, 1.7302454E-001, 1.5705129E-001, 3.9800225E-003, 7.4625677E-004, 1.8536909E-003, 4.6964798E+002
 1.1500850E+002, 4.5769890E-003, 1.7332833E-001, 1.5677383E-001, 3.7038077E-003, 7.1949609E-004, 1.7962313E-003, 4.6541718E+002
 1.1600861E+002, 4.2613174E-003, 1.7336571E-001, 1.5708821E-001, 3.8513192E-003, 7.1459041E-004, 1.8280754E-003, 4.6445096E+002
 1.1700231E+002, 3.9094360E-003, 1.7331206E-001, 1.5747982E-001, 4.0785780E-003, 7.3686677E-004, 1.8764897E-003, 4.6613886E+002
 1.1800804E+002, 3.9181585E-003, 1.7238698E-001, 1.5788128E-001, 4.6891439E-003, 9.6147370E-004, 2.0020323E-003, 4.6617605E+002
 1.1900296E+002, 3.8053797E-003, 1.7183931E-001, 1.5823378E-001, 5.1105233E-003, 1.1314593E-003, 2.0892016E-003, 4.6274606E+002
 1.2000133E+002, 3.9353617E-003, 1.7187930E-001, 1.5808643E-001, 5.0163507E-003, 1.0932117E-003, 2.0692424E-003, 4.6451597E+002
 1.2100257E+002, 3.8828616E-003, 1.7223333E-001, 1.5800139E-001, 4.8182181E-003, 9.3947490E-004, 2.0288150E-003, 4.6304656E+002
 1.2200192E+002, 4.0160312E-003, 1.7246343E-001, 1.5776445E-001, 4.5948941E-003, 8.6245625E-004, 1.9822679E-003, 4.6462426E+002
 1.2300308E+002, 3.7006854E-003, 1.7082863E-001, 1.5879113E-001, 5.8394446E-003, 1.3824724E-003, 2.2396238E-003, 4.6045799E+002
 1.2400776E+002, 3.4269839E-003, 1.7110650E-001, 1.5897100E-001, 5.8123495E-003, 1.2534305E-003, 2.2354260E-003, 4.5961489E+002
 1.2500019E+002, 3.5868022E-003, 1.7141734E-001, 1.5868910E-001, 5.5303571E-003, 1.0809501E-003, 2.1767680E-003, 4.6267908E+002
 1.2600231E+002, 3.6294479E-003, 1.7090748E-001, 1.5884164E-001, 5.8314082E-003, 1.3208645E-003, 2.2383579E-003, 4.5593549E+002
 1.2700524E+002, 3.5505617E-003, 1.7083151E-001, 1.5898036E-001, 5.9363706E-003, 1.2509061E-003, 2.2604215E-003, 4.5995203E+002
 1.2800695E+002, 3.3599633E-003, 1.7049765E-001, 1.5933688E-001, 6.2668523E-003, 1.3004547E-003, 2.3293418E-003, 4.6072081E+002
 1.2900503E+002, 3.2681151E-003, 1.7053433E-001, 1.5942202E-001, 6.2952189E-003, 1.2722022E-003, 2.3356365E-003, 4.5832263E+002
 1.3000092E+002, 3.3641600E-003, 1.7049487E-001, 1.5936396E-001, 6.2818220E-003, 1.1796703E-003, 2.3325349E-003, 4.5871894E+002
 1.3100489E+002, 3.0888407E-003, 1.6934463E-001, 1.6012941E-001, 7.1800667E-003, 1.5982268E-003, 2.5184518E-003, 4.5789428E+002
 1.3200506E+002, 3.3238513E-003, 1.7024571E-001, 1.5949577E-001, 6.4588420E-003, 1.3251697E-003, 2.3690440E-003, 4.5667010E+002
 1.3300429E+002, 3.1072476E-003, 1.6851956E-001, 1.6040243E-001, 7.6811813E-003, 2.0949454E-003, 2.6211086E-003, 4.5132447E+002
 1.3400121E+002, 3.2898342E-003, 1.7047847E-001, 1.5941563E-001, 6.3162312E-003, 1.3192137E-003, 2.3398177E-003, 4.6471867E+002
 1.3500761E+002, 3.1846957E-003, 1.6825631E-001, 1.6050964E-001, 7.8504497E-003, 1.8707200E-003, 2.6558727E-003, 4.5510584E+002
 1.3600374E+002, 3.1990703E-003, 1.6896897E-001, 1.6024255E-001, 7.4013192E-003, 1.4393242E-003, 2.5637096E-003, 4.5725949E+002
 1.3701003E+002, 3.1457085E-003, 1.6784874E-001, 1.6074559E-001, 8.1500613E-003, 1.9133776E-003, 2.7177467E-003, 4.5684378E+002
 1.3800919E+002, 3.0111567E-003, 1.6785621E-001, 1.6090034E-001, 8.2272203E-003, 1.8451798E-003, 2.7343330E-003, 4.5854854E+002
 1.3900283E+002, 3.2012149E-003, 1.6727348E-001, 1.6092725E-001, 8.4945057E-003, 2.1145425E-003, 2.7882607E-003, 4.4907574E+002
 1.4000912E+002, 3.2466803E-003, 1.6738688E-001, 1.6082092E-001, 8.3900096E-003, 2.1197597E-003, 2.7665142E-003, 4.4917197E+002
 1.4100189E+002, 2.9592944E-003, 1.6792526E-001, 1.6094058E-001, 8.2180241E-003, 1.7627842E-003, 2.7327617E-003, 4.5589479E+002
 1.4200912E+002, 3.1087162E-003, 1.6795126E-001, 1.6074548E-001, 8.1054330E-003, 1.8624488E-003, 2.7087727E-003, 4.5182984E+002
 1.4300576E+002, 3.0479725E-003, 1.6623756E-001, 1.6153020E-001, 9.2583210E-003, 2.4385459E-003, 2.9460182E-003, 4.5055987E+002
 1.4400656E+002, 2.9475359E-003, 1.6726862E-001, 1.6120355E-001, 8.6404276E-003, 2.0862597E-003, 2.8195189E-003, 4.5323115E+002
 1.4501043E+002, 2.9688864E-003, 1.6638745E-001, 1.6154242E-001, 9.1996832E-003, 2.4198941E-003, 2.9343154E-003, 4.5196656E+002
 1.4600760E+002, 3.2873225E-003, 1.6618083E-001, 1.6131202E-001, 9.1692194E-003, 2.4186755E-003, 2.9265852E-003, 4.4805161E+002
 1.4700733E+002, 3.2280969E-003, 1.6598884E-001, 1.6145951E-001, 9.3293578E-003, 2.4653821E-003, 2.9598061E-003, 4.5181025E+002
 1.4800032E+002, 3.2701544E-003, 1.6520164E-001, 1.6181316E-001, 9.8546330E-003, 2.4621314E-003, 3.0678610E-003, 4.4952205E+002
 1.4900310E+002, 2.9749411E-003, 1.6601010E-001, 1.6173570E-001, 9.4637473E-003, 2.3825151E-003, 2.9887429E-003, 4.5713342E+002
 1.5000119E+002, 3.2365739E-003, 1.6535902E-001, 1.6175317E-001, 9.7553795E-003, 2.5260107E-003, 3.0474937E-003, 4.5131658E+002
 1.5100616E+002, 3.0655187E-003, 1.6482492E-001, 1.6214588E-001, 1.0191978E-002, 2.7531386E-003, 3.1380050E-003, 4.4781892E+002
 1.5200677E+002, 3.0851614E-003, 1.6450712E-001, 1.6224469E-001, 1.0381614E-002, 2.9169865E-003, 3.1768209E-003, 4.5107814E+002
 1.5300714E+002, 2.9994796E-003, 1.6464791E-001, 1.6227481E-001, 1.0336165E-002, 2.8727950E-003, 3.1678930E-003, 4.5325068E+002
 1.5400405E+002, 3.0511483E-003, 1.6440124E-001, 1.6234283E-001, 1.0478501E-002, 2.8810369E-003, 3.1969796E-003, 4.5090485E+002
