s,,,,,,,
Time,"O2 EXHAUST","CO2 EXHAUST","H2O EXHAUST","CO EXHAUST","FUEL EXHAUST","SOOT EXHAUST","TEMP EXHAUST"
 0.0000000E+000, 2.3099739E-001, 5.9146498E-004, 5.9412091E-003, 0.0000000E+000, 0.0000000E+000, 0.0000000E+000, 2.0000000E+001
 1.0058264E+000, 2.3099739E-001, 5.9146498E-004, 5.9412091E-003, 1.0692681E-029, 1.3034844E-028, 3.1610640E-030, 2.0423800E+001
 2.0019348E+000, 2.2288645E-001, 7.1993090E-003, 9.6643370E-003, 4.0611372E-005, 2.9166759E-004, 5.3157927E-005, 9.7613520E+001
 3.0023721E+000, 2.1798239E-001, 1.1197627E-002, 1.1936590E-002, 8.0037224E-005, 3.4550092E-004, 8.8536222E-005, 1.4071034E+002
 4.0008905E+000, 2.1238957E-001, 1.5796314E-002, 1.4511944E-002, 9.5256902E-005, 4.1780770E-004, 1.2270839E-004, 1.9056910E+002
 5.0003150E+000, 2.0669128E-001, 2.0480187E-002, 1.7142535E-002, 1.1657463E-004, 4.5783435E-004, 1.5877186E-004, 2.3536249E+002
 6.0011675E+000, 2.0022424E-001, 2.5818452E-002, 2.0127149E-002, 1.2999666E-004, 4.6331784E-004, 1.9752084E-004, 2.8187851E+002
 7.0035229E+000, 1.9396805E-001, 3.1007808E-002, 2.3013770E-002, 1.3116380E-004, 4.2233504E-004, 2.3261817E-004, 3.2515506E+002
 8.0000497E+000, 1.8866233E-001, 3.5429093E-002, 2.5461938E-002, 1.2309878E-004, 3.4660220E-004, 2.6056043E-004, 3.5342375E+002
 9.0028244E+000, 1.8070999E-001, 4.2055317E-002, 2.9131064E-002, 1.1104850E-004, 2.3549238E-004, 3.0244574E-004, 3.8976513E+002
 1.0005452E+001, 1.7268181E-001, 4.8753054E-002, 3.2833645E-002, 9.3964744E-005, 1.1516905E-004, 3.4372212E-004, 4.2337000E+002
 1.1005394E+001, 1.6434308E-001, 5.5684536E-002, 3.6679241E-002, 8.7443456E-005, 4.1811498E-005, 3.8885361E-004, 4.4868889E+002
 1.2005161E+001, 1.5774869E-001, 6.1151028E-002, 3.9720125E-002, 8.8828652E-005, 1.5179858E-005, 4.2585906E-004, 4.6318987E+002
 1.3007702E+001, 1.5137452E-001, 6.6428894E-002, 4.2659416E-002, 9.2862730E-005, 1.7724041E-006, 4.6217114E-004, 4.7246174E+002
 1.4004359E+001, 1.4480540E-001, 7.1861482E-002, 4.5688774E-002, 1.0016056E-004, 3.2240897E-007, 5.0022834E-004, 4.7982204E+002
 1.5006318E+001, 1.3869310E-001, 7.6915695E-002, 4.8507463E-002, 1.0721045E-004, 1.6413688E-007, 5.3569124E-004, 4.9160662E+002
 1.6006337E+001, 1.3342746E-001, 8.1269803E-002, 5.0935712E-002, 1.1328723E-004, 7.9963891E-008, 5.6624259E-004, 4.9255964E+002
 1.7006312E+001, 1.2745386E-001, 8.6209204E-002, 5.3690450E-002, 1.2024022E-004, 1.0236291E-007, 6.0091359E-004, 4.9374042E+002
 1.8004712E+001, 1.2204736E-001, 9.0679656E-002, 5.6183675E-002, 1.2655198E-004, 1.5836949E-007, 6.3229700E-004, 5.0243370E+002
 1.9000056E+001, 1.1694482E-001, 9.4898793E-002, 5.8536723E-002, 1.3249692E-004, 1.9813129E-007, 6.6191354E-004, 5.0356171E+002
 2.0006823E+001, 1.1307080E-001, 9.8102028E-002, 6.0323239E-002, 1.3704598E-004, 3.7218477E-007, 6.8440657E-004, 5.0426596E+002
 2.1002623E+001, 1.0991798E-001, 1.0070839E-001, 6.1777290E-002, 1.4108385E-004, 9.6344211E-007, 7.0278121E-004, 5.0221974E+002
 2.2001783E+001, 1.0772318E-001, 1.0252365E-001, 6.2789322E-002, 1.4336030E-004, 6.9036109E-007, 7.1546268E-004, 4.9603293E+002
 2.3002435E+001, 1.0402977E-001, 1.0557804E-001, 6.4492492E-002, 1.4743543E-004, 1.8203359E-007, 7.3685369E-004, 4.9612754E+002
 2.4001039E+001, 1.0040531E-001, 1.0857119E-001, 6.6164387E-002, 1.5372825E-004, 5.2288668E-006, 7.5831336E-004, 4.9718546E+002
 2.5003856E+001, 9.7007873E-002, 1.1136691E-001, 6.7732622E-002, 1.6490639E-004, 2.3884607E-005, 7.7950452E-004, 5.0032884E+002
 2.6005244E+001, 9.4291818E-002, 1.1358516E-001, 6.8987824E-002, 1.8252331E-004, 6.4010961E-005, 7.9821129E-004, 5.0239821E+002
 2.7002292E+001, 9.2666392E-002, 1.1490799E-001, 6.9741776E-002, 1.9729800E-004, 8.2057931E-005, 8.1029058E-004, 5.0098637E+002
 2.8003066E+001, 9.0478030E-002, 1.1661175E-001, 7.0761553E-002, 2.5548748E-004, 2.3407701E-004, 8.3432191E-004, 4.9775290E+002
 2.9000239E+001, 8.7866148E-002, 1.1859849E-001, 7.1974565E-002, 3.4277786E-004, 5.3125145E-004, 8.6655048E-004, 4.9470414E+002
 3.0000315E+001, 8.6748105E-002, 1.1938651E-001, 7.2509206E-002, 4.2000336E-004, 6.9793332E-004, 8.8855181E-004, 4.9231214E+002
 3.1004135E+001, 8.4644134E-002, 1.2111725E-001, 7.3485129E-002, 4.3083976E-004, 6.8459812E-004, 9.0251781E-004, 4.9121651E+002
 3.2000749E+001, 8.3333296E-002, 1.2204109E-001, 7.4105840E-002, 5.1671590E-004, 9.1385694E-004, 9.2730306E-004, 4.8529189E+002
 3.3007501E+001, 8.1599380E-002, 1.2333421E-001, 7.4918408E-002, 5.9185052E-004, 1.1222667E-003, 9.5224375E-004, 4.8535922E+002
 3.4005847E+001, 8.0686370E-002, 1.2391881E-001, 7.5358872E-002, 6.8434899E-004, 1.3543108E-003, 9.7618402E-004, 4.8208774E+002
 3.5002510E+001, 7.9829547E-002, 1.2456297E-001, 7.5754757E-002, 7.1482492E-004, 1.4781255E-003, 9.8710394E-004, 4.7372814E+002
 3.6004843E+001, 7.8087360E-002, 1.2578159E-001, 7.6567689E-002, 8.2386370E-004, 1.8673732E-003, 1.0188809E-003, 4.7943295E+002
 3.7008568E+001, 7.6816619E-002, 1.2664718E-001, 7.7163205E-002, 9.1581832E-004, 2.1834447E-003, 1.0445906E-003, 4.7650713E+002
 3.8001078E+001, 7.6679978E-002, 1.2655131E-001, 7.7236155E-002, 1.0174305E-003, 2.5443323E-003, 1.0659341E-003, 4.7223665E+002
 3.9002550E+001, 7.5310100E-002, 1.2751958E-001, 7.7876440E-002, 1.0994689E-003, 2.8244127E-003, 1.0901876E-003, 4.6832945E+002
 4.0003984E+001, 7.4747673E-002, 1.2767123E-001, 7.8153505E-002, 1.2545037E-003, 3.3506266E-003, 1.1247529E-003, 4.6564369E+002
 4.1005573E+001, 7.4183550E-002, 1.2801414E-001, 7.8399935E-002, 1.3001278E-003, 3.6719053E-003, 1.1369284E-003, 4.5858929E+002
 4.2007181E+001, 7.3923748E-002, 1.2807679E-001, 7.8537151E-002, 1.3821545E-003, 3.8789133E-003, 1.1550981E-003, 4.5967673E+002
 4.3008101E+001, 7.3432887E-002, 1.2826887E-001, 7.8760450E-002, 1.4764199E-003, 4.3211720E-003, 1.1767858E-003, 4.5514548E+002
 4.4000335E+001, 7.2539149E-002, 1.2855608E-001, 7.9180227E-002, 1.6862704E-003, 5.1781297E-003, 1.2241232E-003, 4.5411526E+002
 4.5007726E+001, 7.1989696E-002, 1.2887015E-001, 7.9429656E-002, 1.7468822E-003, 5.4789514E-003, 1.2393479E-003, 4.5131842E+002
 4.6005205E+001, 7.1760648E-002, 1.2903001E-001, 7.9551518E-002, 1.7728809E-003, 5.4483900E-003, 1.2460465E-003, 4.4733190E+002
 4.7004546E+001, 7.1590728E-002, 1.2896423E-001, 7.9599356E-002, 1.8423162E-003, 6.0267564E-003, 1.2606309E-003, 4.4560460E+002
 4.8005316E+001, 7.0908531E-002, 1.2919771E-001, 7.9926567E-002, 2.0013126E-003, 6.6151797E-003, 1.2966030E-003, 4.4521759E+002
 4.9001372E+001, 7.0912647E-002, 1.2914512E-001, 7.9927156E-002, 2.0253130E-003, 6.6993574E-003, 1.3014432E-003, 4.4572259E+002
 5.0003297E+001, 7.0754287E-002, 1.2907529E-001, 7.9969915E-002, 2.0924504E-003, 7.2653710E-003, 1.3155032E-003, 4.3754867E+002
 5.1005141E+001, 7.0195260E-002, 1.2917923E-001, 8.0252368E-002, 2.2729890E-003, 7.8426335E-003, 1.3552666E-003, 4.3932185E+002
 5.2006892E+001, 7.0664155E-002, 1.2879323E-001, 8.0039721E-002, 2.2744240E-003, 7.8194934E-003, 1.3529851E-003, 4.3226932E+002
 5.3007377E+001, 7.0349251E-002, 1.2903289E-001, 8.0152848E-002, 2.2594625E-003, 8.0372922E-003, 1.3513580E-003, 4.2859952E+002
 5.4003225E+001, 7.0170465E-002, 1.2894999E-001, 8.0190925E-002, 2.3292597E-003, 8.7405069E-003, 1.3659062E-003, 4.3267034E+002
 5.5003110E+001, 7.0049258E-002, 1.2891083E-001, 8.0254975E-002, 2.3982762E-003, 8.9729678E-003, 1.3805773E-003, 4.3398012E+002
 5.6007403E+001, 6.9382340E-002, 1.2930805E-001, 8.0528090E-002, 2.4419025E-003, 9.4693114E-003, 1.3926859E-003, 4.3076411E+002
 5.7000259E+001, 6.9383324E-002, 1.2914200E-001, 8.0515832E-002, 2.5070669E-003, 9.8630318E-003, 1.4056722E-003, 4.2623918E+002
 5.8002032E+001, 6.9316373E-002, 1.2911612E-001, 8.0531308E-002, 2.5318223E-003, 1.0109409E-002, 1.4108557E-003, 4.2508927E+002
 5.9001959E+001, 6.8900692E-002, 1.2923645E-001, 8.0724337E-002, 2.6336776E-003, 1.0546507E-002, 1.4337039E-003, 4.2426378E+002
 6.0008081E+001, 6.8830945E-002, 1.2899831E-001, 8.0728483E-002, 2.7451361E-003, 1.1289242E-002, 1.4562241E-003, 4.2232915E+002
 6.1005287E+001, 6.9035377E-002, 1.2882759E-001, 8.0630831E-002, 2.7430615E-003, 1.1311176E-002, 1.4546290E-003, 4.1862030E+002
 6.2002348E+001, 6.8762146E-002, 1.2896513E-001, 8.0713235E-002, 2.7496170E-003, 1.1726914E-002, 1.4569726E-003, 4.2114748E+002
 6.3002589E+001, 6.8836963E-002, 1.2874236E-001, 8.0662216E-002, 2.8091336E-003, 1.2137946E-002, 1.4683560E-003, 4.1898072E+002
 6.4003308E+001, 6.8800597E-002, 1.2867310E-001, 8.0643285E-002, 2.8263894E-003, 1.2531999E-002, 1.4716262E-003, 4.1928493E+002
 6.5003224E+001, 6.8263519E-002, 1.2880197E-001, 8.0855663E-002, 2.9415212E-003, 1.3353393E-002, 1.4974059E-003, 4.2073189E+002
 6.6006666E+001, 6.8370400E-002, 1.2875344E-001, 8.0812324E-002, 2.9280658E-003, 1.3241381E-002, 1.4941682E-003, 4.1365626E+002
 6.7002055E+001, 6.8686713E-002, 1.2840988E-001, 8.0661385E-002, 2.9606477E-003, 1.3432460E-002, 1.4989118E-003, 4.1444621E+002
 6.8001278E+001, 6.8411570E-002, 1.2850326E-001, 8.0742153E-002, 2.9858165E-003, 1.3953043E-002, 1.5049867E-003, 4.1482618E+002
 6.9010606E+001, 6.8565367E-002, 1.2831634E-001, 8.0638447E-002, 2.9873112E-003, 1.4252290E-002, 1.5040562E-003, 4.1157603E+002
 7.0000660E+001, 6.8673647E-002, 1.2804317E-001, 8.0555700E-002, 3.0444913E-003, 1.4798215E-002, 1.5145962E-003, 4.1251290E+002
 7.1010282E+001, 6.8382184E-002, 1.2814731E-001, 8.0652975E-002, 3.0778025E-003, 1.5274831E-002, 1.5225049E-003, 4.0886790E+002
 7.2004162E+001, 6.8529111E-002, 1.2786895E-001, 8.0590196E-002, 3.1519252E-003, 1.5559587E-002, 1.5366749E-003, 4.0791234E+002
 7.3000783E+001, 6.8157422E-002, 1.2815409E-001, 8.0729475E-002, 3.1376646E-003, 1.5780498E-002, 1.5355048E-003, 4.0832520E+002
 7.4001298E+001, 6.8464132E-002, 1.2781114E-001, 8.0543217E-002, 3.1430347E-003, 1.6204845E-002, 1.5343657E-003, 4.0824845E+002
 7.5003843E+001, 6.8612713E-002, 1.2769855E-001, 8.0411670E-002, 3.0898675E-003, 1.6531203E-002, 1.5221071E-003, 4.0328206E+002
 7.6003318E+001, 6.8844431E-002, 1.2738116E-001, 8.0271024E-002, 3.1201635E-003, 1.6967378E-002, 1.5265328E-003, 4.0151155E+002
 7.7008433E+001, 6.8893429E-002, 1.2725269E-001, 8.0218962E-002, 3.1369951E-003, 1.7304496E-002, 1.5293134E-003, 4.0520931E+002
 7.8008117E+001, 6.9144653E-002, 1.2697748E-001, 8.0050100E-002, 3.1263228E-003, 1.7730422E-002, 1.5251580E-003, 4.0238732E+002
 7.9007624E+001, 6.9247355E-002, 1.2675174E-001, 7.9966372E-002, 3.1615435E-003, 1.8210689E-002, 1.5312648E-003, 4.0190438E+002
 8.0002013E+001, 6.9073361E-002, 1.2680655E-001, 8.0044614E-002, 3.2002223E-003, 1.8398876E-002, 1.5400025E-003, 4.0365474E+002
 8.1007491E+001, 6.9331241E-002, 1.2647802E-001, 7.9859262E-002, 3.2007181E-003, 1.8993766E-002, 1.5379062E-003, 3.9744530E+002
 8.2005044E+001, 6.9514766E-002, 1.2633047E-001, 7.9783148E-002, 3.2051577E-003, 1.8938540E-002, 1.5378758E-003, 3.9721160E+002
 8.3010247E+001, 6.9831192E-002, 1.2603181E-001, 7.9591549E-002, 3.1863507E-003, 1.9263506E-002, 1.5318024E-003, 3.9580382E+002
 8.4003783E+001, 6.9941238E-002, 1.2567231E-001, 7.9468983E-002, 3.2517085E-003, 2.0192886E-002, 1.5435337E-003, 3.9715788E+002
 8.5006833E+001, 6.9799815E-002, 1.2577417E-001, 7.9528510E-002, 3.2542801E-003, 2.0254213E-002, 1.5447743E-003, 3.9681854E+002
 8.6000707E+001, 7.0283783E-002, 1.2543776E-001, 7.9280590E-002, 3.2060773E-003, 2.0263413E-002, 1.5320858E-003, 3.9012104E+002
 8.7003645E+001, 7.0742705E-002, 1.2479615E-001, 7.8949619E-002, 3.2316905E-003, 2.1441589E-002, 1.5333242E-003, 3.8801050E+002
 8.8003789E+001, 7.0473414E-002, 1.2492237E-001, 7.9106350E-002, 3.3003180E-003, 2.1454433E-002, 1.5490207E-003, 3.9298572E+002
 8.9011785E+001, 7.0798342E-002, 1.2473288E-001, 7.8912033E-002, 3.2302254E-003, 2.1541578E-002, 1.5325827E-003, 3.9344925E+002
 9.0005401E+001, 7.0974139E-002, 1.2452257E-001, 7.8794318E-002, 3.2310621E-003, 2.1872423E-002, 1.5313529E-003, 3.8959311E+002
 9.1005699E+001, 7.1704686E-002, 1.2379266E-001, 7.8324698E-002, 3.1848499E-003, 2.2853045E-002, 1.5164568E-003, 3.8871587E+002
 9.2004077E+001, 7.1466679E-002, 1.2396942E-001, 7.8488110E-002, 3.2353207E-003, 2.2597731E-002, 1.5285630E-003, 3.8775163E+002
 9.3007718E+001, 7.1752970E-002, 1.2370331E-001, 7.8289850E-002, 3.1973412E-003, 2.3020624E-002, 1.5185601E-003, 3.8463915E+002
 9.4004017E+001, 7.2576471E-002, 1.2277594E-001, 7.7776278E-002, 3.2043605E-003, 2.4247181E-002, 1.5138568E-003, 3.8426508E+002
 9.5006402E+001, 7.2275219E-002, 1.2313191E-001, 7.7970026E-002, 3.1987902E-003, 2.3732900E-002, 1.5150397E-003, 3.8753570E+002
 9.6006688E+001, 7.2132480E-002, 1.2319544E-001, 7.8044006E-002, 3.2296992E-003, 2.3796462E-002, 1.5221544E-003, 3.8585205E+002
 9.7002192E+001, 7.3656435E-002, 1.2183657E-001, 7.7185422E-002, 3.1526742E-003, 2.4850180E-002, 1.4963682E-003, 3.7688831E+002
 9.8000964E+001, 7.3420907E-002, 1.2198463E-001, 7.7292130E-002, 3.1724625E-003, 2.4953585E-002, 1.5016444E-003, 3.8270031E+002
 9.9004816E+001, 7.3409597E-002, 1.2190777E-001, 7.7261320E-002, 3.1835463E-003, 2.5323323E-002, 1.5035280E-003, 3.8273718E+002
 1.0001016E+002, 7.3954729E-002, 1.2131575E-001, 7.6909771E-002, 3.1694814E-003, 2.6155480E-002, 1.4965128E-003, 3.7873067E+002
 1.0100049E+002, 7.3949409E-002, 1.2137814E-001, 7.6952265E-002, 3.1741754E-003, 2.5819788E-002, 1.4979461E-003, 3.8212117E+002
 1.0200004E+002, 7.4144891E-002, 1.2115409E-001, 7.6844770E-002, 3.1886644E-003, 2.6039407E-002, 1.4995775E-003, 3.7831859E+002
 1.0301009E+002, 7.4745566E-002, 1.2056246E-001, 7.6437045E-002, 3.1302655E-003, 2.6947552E-002, 1.4829727E-003, 3.7774785E+002
 1.0400541E+002, 7.4737902E-002, 1.2038372E-001, 7.6393238E-002, 3.1770714E-003, 2.7576264E-002, 1.4919025E-003, 3.7719132E+002
 1.0500687E+002, 7.4804116E-002, 1.2042042E-001, 7.6386449E-002, 3.1541409E-003, 2.7263654E-002, 1.4871862E-003, 3.8105737E+002
 1.0600554E+002, 7.4886262E-002, 1.2030885E-001, 7.6338330E-002, 3.1657921E-003, 2.7406811E-002, 1.4889586E-003, 3.7838935E+002
 1.0700355E+002, 7.5064001E-002, 1.2017311E-001, 7.6234663E-002, 3.1438842E-003, 2.7503886E-002, 1.4833072E-003, 3.7502203E+002
 1.0800775E+002, 7.5511008E-002, 1.1967147E-001, 7.5889072E-002, 3.0956128E-003, 2.8533819E-002, 1.4694985E-003, 3.7855414E+002
 1.0900742E+002, 7.5305582E-002, 1.1980832E-001, 7.5960442E-002, 3.0927498E-003, 2.8728058E-002, 1.4697987E-003, 3.8146303E+002
 1.1000907E+002, 7.5603764E-002, 1.1958374E-001, 7.5819589E-002, 3.0799596E-003, 2.8702728E-002, 1.4655232E-003, 3.7601416E+002
 1.1100477E+002, 7.5798223E-002, 1.1945975E-001, 7.5696893E-002, 3.0378497E-003, 2.8811173E-002, 1.4555797E-003, 3.7086813E+002
 1.1200211E+002, 7.5797803E-002, 1.1922943E-001, 7.5622719E-002, 3.0843819E-003, 2.9679296E-002, 1.4641048E-003, 3.7754341E+002
 1.1301129E+002, 7.6162082E-002, 1.1905776E-001, 7.5467120E-002, 3.0352766E-003, 2.9353390E-002, 1.4523259E-003, 3.7352228E+002
 1.1400052E+002, 7.6655818E-002, 1.1869349E-001, 7.5158589E-002, 2.9528792E-003, 2.9710652E-002, 1.4320530E-003, 3.7238642E+002
 1.1500940E+002, 7.6267701E-002, 1.1893292E-001, 7.5339933E-002, 2.9917524E-003, 2.9859801E-002, 1.4420723E-003, 3.7332015E+002
 1.1601015E+002, 7.6378367E-002, 1.1883257E-001, 7.5279294E-002, 2.9882222E-003, 2.9930240E-002, 1.4406349E-003, 3.7358016E+002
 1.1700191E+002, 7.6133552E-002, 1.1895623E-001, 7.5318086E-002, 2.9670027E-003, 3.0494688E-002, 1.4368762E-003, 3.8088301E+002
 1.1800445E+002, 7.6213425E-002, 1.1877977E-001, 7.5265206E-002, 3.0041945E-003, 3.0802671E-002, 1.4437398E-003, 3.7545609E+002
 1.1900182E+002, 7.6625575E-002, 1.1848109E-001, 7.5056538E-002, 2.9705118E-003, 3.0821225E-002, 1.4344464E-003, 3.7262440E+002
 1.2000575E+002, 7.6471726E-002, 1.1854284E-001, 7.5074740E-002, 2.9596064E-003, 3.1241683E-002, 1.4325031E-003, 3.7943961E+002
 1.2100944E+002, 7.6499806E-002, 1.1853712E-001, 7.5026530E-002, 2.9246453E-003, 3.1400875E-002, 1.4249007E-003, 3.8133579E+002
 1.2200688E+002, 7.6864947E-002, 1.1815894E-001, 7.4833102E-002, 2.9392525E-003, 3.1690379E-002, 1.4255231E-003, 3.7445053E+002
 1.2301216E+002, 7.6432281E-002, 1.1865247E-001, 7.5093905E-002, 2.9258060E-003, 3.1083097E-002, 1.4259251E-003, 3.7568932E+002
 1.2400637E+002, 7.7048427E-002, 1.1809908E-001, 7.4704564E-002, 2.8640518E-003, 3.1749284E-002, 1.4088502E-003, 3.7517085E+002
 1.2500400E+002, 7.6443178E-002, 1.1839015E-001, 7.4878635E-002, 2.8781844E-003, 3.2743847E-002, 1.4138664E-003, 3.8604080E+002
 1.2600015E+002, 7.6341114E-002, 1.1842843E-001, 7.5009829E-002, 2.9636008E-003, 3.2372747E-002, 1.4326036E-003, 3.8037065E+002
 1.2700892E+002, 7.6641008E-002, 1.1807784E-001, 7.4839705E-002, 2.9849148E-003, 3.2752022E-002, 1.4348627E-003, 3.7416605E+002
 1.2800125E+002, 7.6918516E-002, 1.1798112E-001, 7.4716685E-002, 2.9287651E-003, 3.2460660E-002, 1.4220630E-003, 3.7589515E+002
 1.2900816E+002, 7.6907962E-002, 1.1782719E-001, 7.4619369E-002, 2.9233989E-003, 3.3346482E-002, 1.4198718E-003, 3.7488295E+002
 1.3000216E+002, 7.6629707E-002, 1.1807339E-001, 7.4821931E-002, 2.9734786E-003, 3.2905930E-002, 1.4323590E-003, 3.7322260E+002
 1.3100341E+002, 7.7386286E-002, 1.1732977E-001, 7.4348867E-002, 2.9302971E-003, 3.3823915E-002, 1.4180263E-003, 3.7257403E+002
 1.3200695E+002, 7.7129245E-002, 1.1750372E-001, 7.4471841E-002, 2.9513426E-003, 3.3876281E-002, 1.4237481E-003, 3.8160650E+002
 1.3300186E+002, 7.6691036E-002, 1.1784016E-001, 7.4680235E-002, 2.9683338E-003, 3.3893090E-002, 1.4296837E-003, 3.7897614E+002
 1.3400341E+002, 7.7092352E-002, 1.1752746E-001, 7.4459387E-002, 2.9318019E-003, 3.4051863E-002, 1.4196802E-003, 3.7359482E+002
 1.3500047E+002, 7.6706036E-002, 1.1784082E-001, 7.4678462E-002, 2.9663989E-003, 3.3838797E-002, 1.4292692E-003, 3.7707742E+002
 1.3600906E+002, 7.6807511E-002, 1.1767354E-001, 7.4631104E-002, 3.0033019E-003, 3.4007783E-002, 1.4361313E-003, 3.7368396E+002
 1.3701163E+002, 7.7467979E-002, 1.1713915E-001, 7.4209209E-002, 2.9071988E-003, 3.4629909E-002, 1.4117517E-003, 3.7387344E+002
 1.3800866E+002, 7.7186804E-002, 1.1740997E-001, 7.4396427E-002, 2.9344914E-003, 3.4236999E-002, 1.4194739E-003, 3.6983541E+002
 1.3900922E+002, 7.6543851E-002, 1.1786030E-001, 7.4677469E-002, 2.9598992E-003, 3.4483828E-002, 1.4279962E-003, 3.7971024E+002
 1.4001053E+002, 7.6987667E-002, 1.1741413E-001, 7.4395801E-002, 2.9358440E-003, 3.5065043E-002, 1.4197978E-003, 3.7329390E+002
 1.4100694E+002, 7.7357278E-002, 1.1701921E-001, 7.4200848E-002, 2.9567176E-003, 3.5377552E-002, 1.4216637E-003, 3.7264294E+002
 1.4201075E+002, 7.6834941E-002, 1.1741728E-001, 7.4477938E-002, 3.0003261E-003, 3.5245641E-002, 1.4337717E-003, 3.7799518E+002
 1.4300276E+002, 7.7009996E-002, 1.1726535E-001, 7.4334329E-002, 2.9550743E-003, 3.5605893E-002, 1.4229618E-003, 3.7868882E+002
 1.4400773E+002, 7.6967783E-002, 1.1724569E-001, 7.4346257E-002, 2.9738490E-003, 3.5755941E-002, 1.4268927E-003, 3.7886687E+002
 1.4500957E+002, 7.6802679E-002, 1.1732625E-001, 7.4437201E-002, 3.0105445E-003, 3.5785826E-002, 1.4353736E-003, 3.7393279E+002
 1.4600448E+002, 7.6950983E-002, 1.1721851E-001, 7.4347609E-002, 2.9874078E-003, 3.5872846E-002, 1.4296444E-003, 3.7666909E+002
 1.4700546E+002, 7.6932104E-002, 1.1721680E-001, 7.4339691E-002, 2.9824478E-003, 3.5998769E-002, 1.4285602E-003, 3.7853807E+002
 1.4800674E+002, 7.7102302E-002, 1.1710744E-001, 7.4261252E-002, 2.9681938E-003, 3.5936082E-002, 1.4247415E-003, 3.6983632E+002
 1.4900515E+002, 7.6842582E-002, 1.1728076E-001, 7.4410779E-002, 3.0099545E-003, 3.5854821E-002, 1.4349407E-003, 3.7428581E+002
 1.5000152E+002, 7.6812924E-002, 1.1740256E-001, 7.4373582E-002, 2.9272357E-003, 3.5941168E-002, 1.4178610E-003, 3.7941702E+002
 1.5100755E+002, 7.6805958E-002, 1.1737020E-001, 7.4392658E-002, 2.9565450E-003, 3.5929732E-002, 1.4239854E-003, 3.7570163E+002
 1.5201243E+002, 7.6990354E-002, 1.1702519E-001, 7.4245603E-002, 2.9952131E-003, 3.6654061E-002, 1.4300382E-003, 3.7617102E+002
 1.5300494E+002, 7.7060175E-002, 1.1706532E-001, 7.4215034E-002, 2.9524197E-003, 3.6450378E-002, 1.4210476E-003, 3.7887321E+002
 1.5400570E+002, 7.6951666E-002, 1.1704334E-001, 7.4237712E-002, 2.9817198E-003, 3.6823177E-002, 1.4272412E-003, 3.7565378E+002
