s,,,,,,,
Time,"O2 EXHAUST","CO2 EXHAUST","H2O EXHAUST","CO EXHAUST","FUEL EXHAUST","SOOT EXHAUST","TEMP EXHAUST"
 0.0000000E+000, 2.3099739E-001, 5.9146498E-004, 5.9412091E-003, 0.0000000E+000, 0.0000000E+000, 0.0000000E+000, 2.0000000E+001
 1.0044845E+000, 2.3099739E-001, 5.9146498E-004, 5.9412091E-003, 2.0868687E-024, 7.7806368E-024, 6.1073284E-025, 2.1583016E+001
 2.0045377E+000, 2.1868105E-001, 1.0517323E-002, 1.2245602E-002, 1.0667567E-004, 1.5805148E-004, 6.4193267E-005, 1.3514804E+002
 3.0027691E+000, 2.0963828E-001, 1.7831124E-002, 1.6873567E-002, 1.7286501E-004, 2.2549766E-004, 1.0880713E-004, 2.1379561E+002
 4.0008883E+000, 2.0185760E-001, 2.4221422E-002, 2.0829969E-002, 1.6912736E-004, 2.1649318E-004, 1.3446379E-004, 2.7922166E+002
 5.0056880E+000, 1.9013078E-001, 3.3913893E-002, 2.6778627E-002, 1.2655512E-004, 1.5175133E-004, 1.6539244E-004, 3.6617379E+002
 6.0031584E+000, 1.7803517E-001, 4.3940698E-002, 3.2908206E-002, 6.5339233E-005, 5.6479765E-005, 1.9367115E-004, 4.3338127E+002
 7.0066144E+000, 1.6588667E-001, 5.3963669E-002, 3.9075011E-002, 3.2133831E-005, 4.3515940E-006, 2.2799561E-004, 4.9474563E+002
 8.0053182E+000, 1.5948427E-001, 5.9217628E-002, 4.2331615E-002, 3.1703914E-005, 4.7444295E-007, 2.4966191E-004, 5.0536988E+002
 9.0027091E+000, 1.4901261E-001, 6.7801913E-002, 4.7660442E-002, 3.6622427E-005, 3.0623198E-007, 2.8627823E-004, 5.3591324E+002
 1.0000472E+001, 1.4302111E-001, 7.2714049E-002, 5.0709162E-002, 3.9040689E-005, 3.8127540E-007, 3.0714523E-004, 5.5189846E+002
 1.1004792E+001, 1.3466023E-001, 7.9567788E-002, 5.4963900E-002, 4.3089566E-005, 3.9940807E-007, 3.3640628E-004, 5.6209777E+002
 1.2006031E+001, 1.3032734E-001, 8.3120166E-002, 5.7168650E-002, 4.4813588E-005, 3.2331293E-007, 3.5149159E-004, 5.6665268E+002
 1.3005312E+001, 1.2638536E-001, 8.6351985E-002, 5.9174507E-002, 4.6422907E-005, 3.2465802E-007, 3.6522447E-004, 5.6972996E+002
 1.4000137E+001, 1.2298500E-001, 8.9139263E-002, 6.0904925E-002, 4.8142213E-005, 5.1623525E-007, 3.7714009E-004, 5.7317953E+002
 1.5005309E+001, 1.2114960E-001, 9.0644215E-002, 6.1838800E-002, 4.8759505E-005, 3.7161316E-007, 3.8350645E-004, 5.7211664E+002
 1.6002086E+001, 1.2006100E-001, 9.1537171E-002, 6.2392576E-002, 4.8890628E-005, 2.0611082E-007, 3.8723302E-004, 5.6460612E+002
 1.7006148E+001, 1.1879704E-001, 9.2573556E-002, 6.3035686E-002, 4.9314500E-005, 1.9382857E-007, 3.9161695E-004, 5.6656245E+002
 1.8004808E+001, 1.1558035E-001, 9.5210167E-002, 6.4672684E-002, 5.1023160E-005, 3.0681295E-007, 4.0290627E-004, 5.6545485E+002
 1.9003277E+001, 1.1699071E-001, 9.4053605E-002, 6.3955132E-002, 5.0642864E-005, 3.7430792E-007, 3.9803405E-004, 5.6465678E+002
 2.0004115E+001, 1.1369220E-001, 9.6758505E-002, 6.5633352E-002, 5.1567831E-005, 1.8062087E-007, 4.0943660E-004, 5.6092572E+002
 2.1001911E+001, 1.1194051E-001, 9.8192550E-002, 6.6525446E-002, 5.3718314E-005, 5.5308111E-007, 4.1584109E-004, 5.6754353E+002
 2.2000417E+001, 1.1126388E-001, 9.8749211E-002, 6.6869034E-002, 5.2653147E-005, 2.4102625E-007, 4.1791600E-004, 5.6688235E+002
 2.3001523E+001, 1.1255651E-001, 9.7689669E-002, 6.6211220E-002, 5.1984157E-005, 1.4197111E-007, 4.1338312E-004, 5.6054364E+002
 2.4004575E+001, 1.0976778E-001, 9.9975580E-002, 6.7630394E-002, 5.3407092E-005, 2.4774755E-007, 4.2315818E-004, 5.6541904E+002
 2.5006278E+001, 1.0916288E-001, 1.0047147E-001, 6.7938208E-002, 5.3679612E-005, 2.3878599E-007, 4.2527088E-004, 5.6084409E+002
 2.6002472E+001, 1.0768011E-001, 1.0168620E-001, 6.8693045E-002, 5.4920349E-005, 3.7193239E-007, 4.3057021E-004, 5.6220840E+002
 2.7002578E+001, 1.0772466E-001, 1.0165085E-001, 6.8669960E-002, 5.4095740E-005, 1.2325940E-007, 4.3024537E-004, 5.5750435E+002
 2.8003137E+001, 1.0670513E-001, 1.0248660E-001, 6.9188769E-002, 5.4577014E-005, 1.7376879E-007, 4.3381080E-004, 5.5579920E+002
 2.9006709E+001, 1.0755411E-001, 1.0179078E-001, 6.8756703E-002, 5.4092909E-005, 1.1895063E-007, 4.3082426E-004, 5.5374542E+002
 3.0000411E+001, 1.0438336E-001, 1.0438947E-001, 7.0370409E-002, 5.5953169E-005, 3.6014858E-007, 4.4198936E-004, 5.6180297E+002
 3.1006468E+001, 1.0583337E-001, 1.0320137E-001, 6.9632347E-002, 5.4898662E-005, 1.4756842E-007, 4.3684063E-004, 5.5574194E+002
 3.2006325E+001, 1.0748431E-001, 1.0184662E-001, 6.8792729E-002, 5.5081849E-005, 3.1971870E-007, 4.3126955E-004, 5.6054761E+002
 3.3003390E+001, 1.0495898E-001, 1.0391708E-001, 7.0077689E-002, 5.6049308E-005, 3.8656011E-007, 4.4005376E-004, 5.5981066E+002
 3.4001762E+001, 1.0820568E-001, 1.0125661E-001, 6.8425137E-002, 5.3803884E-005, 1.6674194E-007, 4.2854947E-004, 5.5628284E+002
 3.5000283E+001, 1.0641955E-001, 1.0272085E-001, 6.9334049E-002, 5.4617567E-005, 1.5196186E-007, 4.3478971E-004, 5.5193061E+002
 3.6007167E+001, 1.0439213E-001, 1.0438267E-001, 7.0365810E-002, 5.5683950E-005, 2.3701157E-007, 4.4190293E-004, 5.5709697E+002
 3.7006618E+001, 1.0449312E-001, 1.0429979E-001, 7.0314462E-002, 5.5705303E-005, 2.2466978E-007, 4.4156432E-004, 5.5854163E+002
 3.8004947E+001, 1.0242293E-001, 1.0599641E-001, 7.1368085E-002, 5.6973996E-005, 3.6018554E-007, 4.4886544E-004, 5.6422014E+002
 3.9005589E+001, 1.0318221E-001, 1.0537362E-001, 7.0981858E-002, 5.6885255E-005, 3.2004242E-007, 4.4626693E-004, 5.6071849E+002
 4.0002869E+001, 1.0327323E-001, 1.0529955E-001, 7.0935312E-002, 5.6445426E-005, 3.6157832E-007, 4.4586498E-004, 5.5980755E+002
 4.1005208E+001, 1.0250961E-001, 1.0592553E-001, 7.1323925E-002, 5.6821909E-005, 2.4001969E-007, 4.4853896E-004, 5.6099637E+002
 4.2001070E+001, 1.0291203E-001, 1.0559632E-001, 7.1118888E-002, 5.6158065E-005, 1.4727904E-007, 4.4703188E-004, 5.5376861E+002
 4.3002026E+001, 1.0032800E-001, 1.0771435E-001, 7.2433940E-002, 5.7550376E-005, 1.9639015E-007, 4.5610502E-004, 5.5850551E+002
 4.4004430E+001, 1.0252275E-001, 1.0591557E-001, 7.1316943E-002, 5.6253318E-005, 9.9188035E-008, 4.4837467E-004, 5.5492047E+002
 4.5003303E+001, 1.0212918E-001, 1.0623808E-001, 7.1517261E-002, 5.6518468E-005, 1.6939917E-007, 4.4976774E-004, 5.5540217E+002
 4.6006570E+001, 1.0064368E-001, 1.0745539E-001, 7.2273342E-002, 5.7509234E-005, 3.3575886E-007, 4.5502365E-004, 5.7009385E+002
 4.7005012E+001, 1.0155431E-001, 1.0670893E-001, 7.1809936E-002, 5.7060285E-005, 3.0049504E-007, 4.5183503E-004, 5.6106869E+002
 4.8001227E+001, 1.0258992E-001, 1.0586031E-001, 7.1282837E-002, 5.6360567E-005, 1.2691366E-007, 4.4816902E-004, 5.5751014E+002
 4.9004289E+001, 1.0140970E-001, 1.0682750E-001, 7.1883526E-002, 5.7119134E-005, 2.5012084E-007, 4.5233881E-004, 5.5757560E+002
 5.0002807E+001, 1.0171938E-001, 1.0657414E-001, 7.1725761E-002, 5.6632353E-005, 1.2574742E-007, 4.5118416E-004, 5.5261720E+002
 5.1006080E+001, 1.0006844E-001, 1.0792702E-001, 7.2566057E-002, 5.7742023E-005, 2.8483136E-007, 4.5702727E-004, 5.5908616E+002
 5.2002649E+001, 1.0129376E-001, 1.0692195E-001, 7.1942710E-002, 5.7564163E-005, 5.2805547E-007, 4.5282627E-004, 5.6402733E+002
 5.3002667E+001, 9.8767313E-002, 1.0899397E-001, 7.3228053E-002, 5.8119637E-005, 1.8470834E-007, 4.6152779E-004, 5.5444134E+002
 5.4000819E+001, 9.9921838E-002, 1.0804792E-001, 7.2640409E-002, 5.7319917E-005, 8.0843847E-008, 4.5743662E-004, 5.5185305E+002
 5.5000358E+001, 9.8934838E-002, 1.0885653E-001, 7.3142836E-002, 5.8111625E-005, 2.3328988E-007, 4.6095685E-004, 5.6125631E+002
 5.6005818E+001, 9.7461916E-002, 1.1006329E-001, 7.3892618E-002, 5.9274094E-005, 3.9780766E-007, 4.6620621E-004, 5.6464852E+002
 5.7004548E+001, 9.8445772E-002, 1.0925766E-001, 7.3391625E-002, 5.8186893E-005, 2.3659266E-007, 4.6263443E-004, 5.5918939E+002
 5.8001689E+001, 9.9125383E-002, 1.0870050E-001, 7.3045812E-002, 5.7908204E-005, 2.0066887E-007, 4.6026660E-004, 5.6396577E+002
 5.9004302E+001, 9.9468671E-002, 1.0841854E-001, 7.2871314E-002, 5.8120927E-005, 3.2588419E-007, 4.5914490E-004, 5.5029702E+002
 6.0004191E+001, 1.0076939E-001, 1.0735147E-001, 7.2209701E-002, 5.8061687E-005, 4.4542408E-007, 4.5471281E-004, 5.6229137E+002
 6.1001870E+001, 9.7820567E-002, 1.0977021E-001, 7.3709781E-002, 5.8469688E-005, 1.7137695E-007, 4.6481835E-004, 5.5702854E+002
 6.2002399E+001, 9.9601775E-002, 1.0830995E-001, 7.2803397E-002, 5.7699672E-005, 1.9104868E-007, 4.5860402E-004, 5.6428238E+002
 6.3002872E+001, 1.0108234E-001, 1.0709658E-001, 7.2049860E-002, 5.6778957E-005, 5.0650836E-008, 4.5337960E-004, 5.4612842E+002
 6.4003671E+001, 9.7764505E-002, 1.0981625E-001, 7.3738282E-002, 5.8440822E-005, 1.4337293E-007, 4.6500277E-004, 5.5428175E+002
 6.5002435E+001, 1.0139423E-001, 1.0684030E-001, 7.1891340E-002, 5.7034087E-005, 2.7484059E-007, 4.5237342E-004, 5.6031122E+002
 6.6001992E+001, 9.9186411E-002, 1.0865045E-001, 7.3014765E-002, 5.7893235E-005, 1.9810267E-007, 4.6005610E-004, 5.6297058E+002
 6.7005147E+001, 9.9318539E-002, 1.0853994E-001, 7.2948340E-002, 5.9359279E-005, 5.3187441E-007, 4.5991569E-004, 5.6354918E+002
 6.8005091E+001, 9.9071649E-002, 1.0874460E-001, 7.3073141E-002, 5.7897424E-005, 1.6210995E-007, 4.6044694E-004, 5.5739820E+002
 6.9006282E+001, 9.7095729E-002, 1.1036338E-001, 7.4079002E-002, 5.9515858E-005, 4.0039441E-007, 4.6750135E-004, 5.6131275E+002
 7.0005283E+001, 9.9433795E-002, 1.0844776E-001, 7.2888840E-002, 5.7706233E-005, 1.7094945E-007, 4.5917618E-004, 5.5490143E+002
 7.1000213E+001, 1.0052034E-001, 1.0755704E-001, 7.2335929E-002, 5.7205809E-005, 1.4441015E-007, 4.5537897E-004, 5.5329343E+002
 7.2002463E+001, 9.9568982E-002, 1.0833699E-001, 7.2820031E-002, 5.7610513E-005, 1.4599498E-007, 4.5869670E-004, 5.6085113E+002
 7.3001142E+001, 9.6150565E-002, 1.1113865E-001, 7.4559803E-002, 5.9634005E-005, 3.1961925E-007, 4.7073774E-004, 5.6586743E+002
 7.4001266E+001, 9.8739109E-002, 1.0901704E-001, 7.3242423E-002, 5.8166889E-005, 1.9451181E-007, 4.6163356E-004, 5.5546444E+002
 7.5003003E+001, 9.7757420E-002, 1.0982196E-001, 7.3741923E-002, 5.8511588E-005, 1.5906055E-007, 4.6504174E-004, 5.6118669E+002
 7.6000379E+001, 9.6860220E-002, 1.1055627E-001, 7.4198906E-002, 5.9743198E-005, 4.5106161E-007, 4.6834940E-004, 5.6275601E+002
 7.7005694E+001, 9.9535167E-002, 1.0836474E-001, 7.2837229E-002, 5.7606388E-005, 1.3856955E-007, 4.5881073E-004, 5.5669954E+002
 7.8006896E+001, 9.7468187E-002, 1.1005892E-001, 7.3889148E-002, 5.8738802E-005, 2.4905098E-007, 4.6607227E-004, 5.5739700E+002
 7.9005036E+001, 9.7810540E-002, 1.0977803E-001, 7.3715020E-002, 5.8744294E-005, 2.8857648E-007, 4.6491016E-004, 5.6532081E+002
 8.0003603E+001, 9.8953161E-002, 1.0884109E-001, 7.3133662E-002, 5.8393277E-005, 3.3545302E-007, 4.6095384E-004, 5.6128466E+002
 8.1006460E+001, 9.7238971E-002, 1.1024668E-001, 7.4005835E-002, 5.8937454E-005, 3.0264138E-007, 4.6689289E-004, 5.6659394E+002
 8.2004298E+001, 9.8306282E-002, 1.0937217E-001, 7.3462567E-002, 5.8155617E-005, 1.3780524E-007, 4.6310188E-004, 5.6080354E+002
 8.3002865E+001, 9.8224580E-002, 1.0943894E-001, 7.3504210E-002, 5.8327850E-005, 2.0563284E-007, 4.6341570E-004, 5.6184097E+002
 8.4004980E+001, 9.7543727E-002, 1.0999684E-001, 7.3850752E-002, 5.8803740E-005, 3.3987843E-007, 4.6582921E-004, 5.6748809E+002
 8.5006005E+001, 9.7549229E-002, 1.0999259E-001, 7.3847879E-002, 5.8633954E-005, 1.7303541E-007, 4.6577488E-004, 5.5534504E+002
 8.6000005E+001, 9.7876074E-002, 1.0972477E-001, 7.3681516E-002, 5.8404840E-005, 1.4054753E-007, 4.6461611E-004, 5.5490315E+002
 8.7002966E+001, 9.9484883E-002, 1.0840608E-001, 7.2862776E-002, 5.7545385E-005, 9.1964427E-008, 4.5896877E-004, 5.5640490E+002
 8.8002024E+001, 9.5419396E-002, 1.1173833E-001, 7.4931775E-002, 5.9775018E-005, 2.5647834E-007, 4.7325183E-004, 5.6268422E+002
 8.9006601E+001, 9.6323375E-002, 1.1099755E-001, 7.4471662E-002, 5.9167645E-005, 2.1153483E-007, 4.7005243E-004, 5.6195799E+002
 9.0004098E+001, 9.6553104E-002, 1.1080912E-001, 7.4354794E-002, 5.9130761E-005, 2.3731768E-007, 4.6926407E-004, 5.6312223E+002
 9.1001619E+001, 9.8121694E-002, 1.0952322E-001, 7.3556584E-002, 5.8415139E-005, 2.3705147E-007, 4.6378365E-004, 5.6473194E+002
 9.2006265E+001, 9.8148545E-002, 1.0950109E-001, 7.3542971E-002, 5.8490753E-005, 2.2146834E-007, 4.6370835E-004, 5.5606669E+002
 9.3004237E+001, 9.7386782E-002, 1.1012540E-001, 7.3930670E-002, 5.8955190E-005, 2.6460165E-007, 4.6639443E-004, 5.6054625E+002
 9.4006862E+001, 9.9909166E-002, 1.0805816E-001, 7.2646908E-002, 5.7424251E-005, 1.1645445E-007, 4.5750163E-004, 5.5611218E+002
 9.5006288E+001, 9.9477053E-002, 1.0841241E-001, 7.2866786E-002, 5.7607372E-005, 1.4556852E-007, 4.5900839E-004, 5.5693108E+002
 9.6006271E+001, 9.7038583E-002, 1.1041038E-001, 7.4108030E-002, 5.9436170E-005, 3.3993771E-007, 4.6767878E-004, 5.6383542E+002
 9.7002588E+001, 1.0039519E-001, 1.0765958E-001, 7.2399633E-002, 5.7302933E-005, 1.7914882E-007, 4.5582464E-004, 5.5790234E+002
 9.8005203E+001, 1.0124330E-001, 1.0696428E-001, 7.1968073E-002, 5.6942674E-005, 1.4706587E-007, 4.5286711E-004, 5.6191708E+002
 9.9006110E+001, 9.7599595E-002, 1.0994942E-001, 7.3822928E-002, 5.9907025E-005, 5.4768286E-007, 4.6587161E-004, 5.6154672E+002
 1.0000352E+002, 9.8339470E-002, 1.0934459E-001, 7.3445800E-002, 5.8388692E-005, 2.7108298E-007, 4.6303810E-004, 5.5873389E+002
 1.0100065E+002, 9.9440919E-002, 1.0844140E-001, 7.2885396E-002, 5.8058267E-005, 3.0993577E-007, 4.5922601E-004, 5.6308988E+002
 1.0200372E+002, 9.7440512E-002, 1.1008083E-001, 7.3903520E-002, 5.9294505E-005, 3.6147041E-007, 4.6628326E-004, 5.6034522E+002
 1.0300571E+002, 9.9011374E-002, 1.0879395E-001, 7.3103842E-002, 5.7974548E-005, 1.5496124E-007, 4.6066799E-004, 5.6082278E+002
 1.0400332E+002, 1.0140308E-001, 1.0683317E-001, 7.1886798E-002, 5.6948638E-005, 2.2256041E-007, 4.5232539E-004, 5.5663561E+002
 1.0500380E+002, 9.9709282E-002, 1.0822188E-001, 7.2748667E-002, 5.7608887E-005, 1.8213896E-007, 4.5821963E-004, 5.6175330E+002
 1.0600281E+002, 9.9370780E-002, 1.0849940E-001, 7.2920908E-002, 5.7744758E-005, 2.0511833E-007, 4.5939837E-004, 5.5453453E+002
 1.0700398E+002, 9.8860386E-002, 1.0891720E-001, 7.3180866E-002, 5.8404138E-005, 2.4982732E-007, 4.6127142E-004, 5.5425630E+002
 1.0800010E+002, 9.6536027E-002, 1.1082265E-001, 7.4363662E-002, 5.9467390E-005, 2.9182132E-007, 4.6939296E-004, 5.5964748E+002
 1.0900297E+002, 9.7987919E-002, 1.0963244E-001, 7.3624834E-002, 5.8798357E-005, 2.7045767E-007, 4.6431887E-004, 5.6024184E+002
 1.1000574E+002, 9.6471884E-002, 1.1087597E-001, 7.4396034E-002, 5.8985492E-005, 1.5021101E-007, 4.6950951E-004, 5.6285480E+002
 1.1100575E+002, 1.0293628E-001, 1.0557660E-001, 7.1106500E-002, 5.6045359E-005, 1.1283328E-007, 4.4692580E-004, 5.6511803E+002
 1.1200464E+002, 9.9086868E-002, 1.0873152E-001, 7.3065591E-002, 5.8292866E-005, 4.0762114E-007, 4.6047833E-004, 5.6048386E+002
 1.1300464E+002, 9.6963046E-002, 1.1047279E-001, 7.4146297E-002, 5.9139760E-005, 2.2754238E-007, 4.6787309E-004, 5.5183850E+002
 1.1400496E+002, 9.8025489E-002, 1.0960219E-001, 7.3605519E-002, 5.8401965E-005, 1.5158305E-007, 4.6410782E-004, 5.5788113E+002
 1.1500447E+002, 9.8462099E-002, 1.0924414E-001, 7.3383383E-002, 5.8284607E-005, 1.7801013E-007, 4.6259959E-004, 5.6204792E+002
 1.1600641E+002, 9.7381355E-002, 1.1012991E-001, 7.3933413E-002, 5.8916267E-005, 2.3578060E-007, 4.6640470E-004, 5.6074875E+002
 1.1700553E+002, 9.8430661E-002, 1.0926998E-001, 7.3399356E-002, 5.8253616E-005, 1.7517153E-007, 4.6269988E-004, 5.5228013E+002
 1.1800254E+002, 9.8422582E-002, 1.0927632E-001, 7.3403569E-002, 5.8454030E-005, 2.3334980E-007, 4.6276950E-004, 5.5988675E+002
 1.1900013E+002, 9.8530832E-002, 1.0918761E-001, 7.3348466E-002, 5.8378174E-005, 2.6108072E-007, 4.6238569E-004, 5.6106236E+002
 1.2000296E+002, 9.6642391E-002, 1.1073403E-001, 7.4310060E-002, 6.0410138E-005, 5.3144562E-007, 4.6922994E-004, 5.6573042E+002
 1.2100062E+002, 9.9528668E-002, 1.0837020E-001, 7.2840491E-002, 5.7518284E-005, 8.9240903E-008, 4.5881429E-004, 5.5739736E+002
 1.2200395E+002, 9.7927951E-002, 1.0968178E-001, 7.3655280E-002, 5.8697557E-005, 2.5703519E-007, 4.6450141E-004, 5.6340097E+002
 1.2300019E+002, 1.0134743E-001, 1.0687815E-001, 7.1915367E-002, 5.7431292E-005, 2.9829462E-007, 4.5261611E-004, 5.5648605E+002
 1.2400488E+002, 9.9270136E-002, 1.0858202E-001, 7.2972090E-002, 5.7713725E-005, 1.2264883E-007, 4.5973387E-004, 5.5897523E+002
 1.2500303E+002, 1.0034847E-001, 1.0769783E-001, 7.2423430E-002, 5.7361946E-005, 1.6440651E-007, 4.5599582E-004, 5.6043703E+002
 1.2600517E+002, 9.9179881E-002, 1.0865594E-001, 7.3018034E-002, 5.7797924E-005, 1.8866407E-007, 4.6005821E-004, 5.5859836E+002
 1.2700655E+002, 9.8435515E-002, 1.0926508E-001, 7.3397224E-002, 5.8890256E-005, 3.2972459E-007, 4.6281736E-004, 5.5569676E+002
 1.2800283E+002, 9.8888336E-002, 1.0889485E-001, 7.3166424E-002, 5.7993771E-005, 2.2220301E-007, 4.6109004E-004, 5.6061026E+002
 1.2900406E+002, 9.8808577E-002, 1.0895906E-001, 7.3207443E-002, 5.8848975E-005, 4.2397045E-007, 4.6154102E-004, 5.6200325E+002
 1.3000501E+002, 1.0083541E-001, 1.0729860E-001, 7.2175656E-002, 5.7168325E-005, 1.7474812E-007, 4.5430053E-004, 5.5845489E+002
 1.3100157E+002, 9.8030357E-002, 1.0959786E-001, 7.3603144E-002, 5.8620215E-005, 3.2224699E-007, 4.6413712E-004, 5.6176649E+002
 1.3200134E+002, 9.7054502E-002, 1.1039733E-001, 7.4099929E-002, 5.9431308E-005, 3.5243263E-007, 4.6762365E-004, 5.6132624E+002
 1.3300414E+002, 9.7528873E-002, 1.1000890E-001, 7.3858361E-002, 5.8897439E-005, 3.2480780E-007, 4.6589943E-004, 5.6766252E+002
 1.3400044E+002, 9.8285563E-002, 1.0938858E-001, 7.3473315E-002, 5.8560140E-005, 2.6444001E-007, 4.6325738E-004, 5.5918228E+002
 1.3500132E+002, 9.9726076E-002, 1.0820672E-001, 7.2740641E-002, 5.8574008E-005, 3.7571446E-007, 4.5836570E-004, 5.5696891E+002
 1.3600228E+002, 9.7922716E-002, 1.0968595E-001, 7.3657987E-002, 5.8782064E-005, 2.7957619E-007, 4.6453698E-004, 5.6304395E+002
 1.3700429E+002, 9.8919152E-002, 1.0886936E-001, 7.3150826E-002, 5.8138027E-005, 2.5730718E-007, 4.6101569E-004, 5.6449256E+002
 1.3800387E+002, 9.7419056E-002, 1.1009910E-001, 7.3914190E-002, 5.8829858E-005, 2.2590550E-007, 4.6625840E-004, 5.6260898E+002
 1.3900543E+002, 1.0046233E-001, 1.0760461E-001, 7.2365440E-002, 5.7222143E-005, 1.4825970E-007, 4.5557950E-004, 5.5833197E+002
 1.4000297E+002, 9.9858991E-002, 1.0809910E-001, 7.2672503E-002, 5.7576871E-005, 1.9465279E-007, 4.5770420E-004, 5.5183536E+002
 1.4100003E+002, 9.8418944E-002, 1.0927994E-001, 7.3405190E-002, 5.8011911E-005, 9.9418466E-008, 4.6268884E-004, 5.5260784E+002
 1.4200672E+002, 9.9375580E-002, 1.0849537E-001, 7.2918504E-002, 5.7811195E-005, 1.9882500E-007, 4.5939606E-004, 5.6173831E+002
 1.4300729E+002, 9.7539369E-002, 1.1000096E-001, 7.3852794E-002, 5.8440828E-005, 1.0930531E-007, 4.6576776E-004, 5.5786246E+002
 1.4400615E+002, 9.8550588E-002, 1.0917097E-001, 7.3338565E-002, 5.8667473E-005, 3.7978571E-007, 4.6237940E-004, 5.7045171E+002
 1.4500468E+002, 9.7608769E-002, 1.0994357E-001, 7.3817652E-002, 5.8747173E-005, 2.3198453E-007, 4.6559638E-004, 5.6147036E+002
 1.4600037E+002, 9.7438764E-002, 1.1008281E-001, 7.3904208E-002, 5.8914414E-005, 2.7063397E-007, 4.6620922E-004, 5.6287320E+002
 1.4700081E+002, 9.6818080E-002, 1.1059176E-001, 7.4220014E-002, 5.9112181E-005, 2.2809531E-007, 4.6835984E-004, 5.5882533E+002
 1.4800417E+002, 9.6629523E-002, 1.1074597E-001, 7.4316092E-002, 5.9445003E-005, 3.1789500E-007, 4.6907055E-004, 5.6868146E+002
 1.4900746E+002, 9.8499330E-002, 1.0921392E-001, 7.3364332E-002, 5.8064025E-005, 1.1068408E-007, 4.6242667E-004, 5.5706859E+002
 1.5000600E+002, 9.7958580E-002, 1.0965719E-001, 7.3639511E-002, 5.8326239E-005, 1.2212138E-007, 4.6431924E-004, 5.5785858E+002
 1.5100212E+002, 1.0042140E-001, 1.0763818E-001, 7.2386259E-002, 5.7226718E-005, 1.7003472E-007, 4.5571953E-004, 5.4647619E+002
 1.5200108E+002, 9.9871436E-002, 1.0808884E-001, 7.2666189E-002, 5.7609669E-005, 2.1582082E-007, 4.5766880E-004, 5.6328556E+002
 1.5300650E+002, 9.8690887E-002, 1.0905678E-001, 7.3266883E-002, 5.8044369E-005, 1.7659810E-007, 4.6177162E-004, 5.5337042E+002
 1.5400011E+002, 9.8894708E-002, 1.0888864E-001, 7.3163544E-002, 5.8677576E-005, 3.9132951E-007, 4.6121229E-004, 5.5915525E+002
