s,,,,,,,
Time,"O2 EXHAUST","CO2 EXHAUST","H2O EXHAUST","CO EXHAUST","FUEL EXHAUST","SOOT EXHAUST","TEMP EXHAUST"
 0.0000000E+000, 2.3099739E-001, 5.9146498E-004, 5.9412091E-003, 0.0000000E+000, 0.0000000E+000, 0.0000000E+000, 2.0000000E+001
 1.0038620E+000, 2.3099739E-001, 5.9146498E-004, 5.9412091E-003, 1.6498624E-029, 2.2054278E-028, 4.8300825E-030, 2.0348331E+001
 2.0018676E+000, 2.2347790E-001, 7.4486554E-003, 8.8222300E-003, 3.7668596E-005, 3.1520065E-004, 4.9443563E-005, 9.3452911E+001
 3.0011808E+000, 2.1774582E-001, 1.2705114E-002, 1.1041605E-002, 7.6913896E-005, 3.5718340E-004, 8.9588144E-005, 1.4340262E+002
 4.0005570E+000, 2.1389755E-001, 1.6243717E-002, 1.2524287E-002, 9.1389740E-005, 4.1051338E-004, 1.1402895E-004, 1.7896425E+002
 5.0007527E+000, 2.0910807E-001, 2.0631973E-002, 1.4370091E-002, 1.1707609E-004, 5.0527344E-004, 1.4601189E-004, 2.1999420E+002
 6.0048499E+000, 2.0161374E-001, 2.7554313E-002, 1.7261580E-002, 1.3531893E-004, 5.2317458E-004, 1.9164357E-004, 2.7562058E+002
 7.0021042E+000, 1.9516715E-001, 3.3542112E-002, 1.9749367E-002, 1.3650257E-004, 4.6943704E-004, 2.2795634E-004, 3.2073231E+002
 8.0054349E+000, 1.9056586E-001, 3.7830284E-002, 2.1524984E-002, 1.3078806E-004, 4.0300069E-004, 2.5254183E-004, 3.4576603E+002
 9.0051442E+000, 1.8371491E-001, 4.4228676E-002, 2.4168480E-002, 1.1583021E-004, 2.7855402E-004, 2.8783430E-004, 3.8145581E+002
 1.0006290E+001, 1.7586778E-001, 5.1546112E-002, 2.7195764E-002, 1.0322219E-004, 1.6207176E-004, 3.2916945E-004, 4.1335284E+002
 1.1002810E+001, 1.6969382E-001, 5.7296488E-002, 2.9576930E-002, 9.5744007E-005, 8.7843057E-005, 3.6217830E-004, 4.3107921E+002
 1.2007364E+001, 1.6174653E-001, 6.4680224E-002, 3.2641469E-002, 9.3837990E-005, 3.1941215E-005, 4.0622849E-004, 4.5114047E+002
 1.3008865E+001, 1.5489735E-001, 7.1033705E-002, 3.5282316E-002, 9.6474987E-005, 5.1453924E-006, 4.4505786E-004, 4.7076382E+002
 1.4003449E+001, 1.4898427E-001, 7.6509339E-002, 3.7562179E-002, 1.0300544E-004, 1.1553148E-006, 4.7944358E-004, 4.7506011E+002
 1.5007260E+001, 1.4380697E-001, 8.1302254E-002, 3.9558341E-002, 1.0933208E-004, 4.0044662E-007, 5.0967407E-004, 4.8175338E+002
 1.6008122E+001, 1.3773317E-001, 8.6924668E-002, 4.1900179E-002, 1.1697498E-004, 3.1359963E-007, 5.4518438E-004, 4.8754297E+002
 1.7000489E+001, 1.3281588E-001, 9.1476529E-002, 4.3796091E-002, 1.2314194E-004, 3.1737076E-007, 5.7392877E-004, 4.9349327E+002
 1.8001074E+001, 1.2786255E-001, 9.6061913E-002, 4.5705876E-002, 1.2925741E-004, 1.2834475E-007, 6.0286387E-004, 4.9547926E+002
 1.9004187E+001, 1.2372879E-001, 9.9888476E-002, 4.7299686E-002, 1.3443511E-004, 1.4660658E-007, 6.2702667E-004, 5.0081797E+002
 2.0006329E+001, 1.2183736E-001, 1.0163929E-001, 4.8028955E-002, 1.3684004E-004, 2.1176725E-007, 6.3808994E-004, 4.9337062E+002
 2.1001196E+001, 1.1892274E-001, 1.0433737E-001, 4.9152709E-002, 1.4045920E-004, 1.2596951E-007, 6.5512012E-004, 4.9395814E+002
 2.2002525E+001, 1.1453322E-001, 1.0840063E-001, 5.0845142E-002, 1.4599770E-004, 2.0504393E-007, 6.8078627E-004, 4.9617850E+002
 2.3003868E+001, 1.1262605E-001, 1.1016605E-001, 5.1580470E-002, 1.4839667E-004, 2.4759798E-007, 6.9193621E-004, 4.9959102E+002
 2.4000325E+001, 1.1141630E-001, 1.1128606E-001, 5.2046879E-002, 1.4981514E-004, 5.2531350E-008, 6.9898753E-004, 4.9088655E+002
 2.5001599E+001, 1.0788167E-001, 1.1455783E-001, 5.3409711E-002, 1.5435161E-004, 2.8232073E-007, 7.1967076E-004, 4.9352755E+002
 2.6004547E+001, 1.0608833E-001, 1.1621804E-001, 5.4101137E-002, 1.5651940E-004, 1.2062336E-007, 7.3013714E-004, 4.9183616E+002
 2.7006378E+001, 1.0321657E-001, 1.1887639E-001, 5.5208368E-002, 1.6011134E-004, 1.1924406E-007, 7.4692218E-004, 4.8997641E+002
 2.8000170E+001, 1.0158697E-001, 1.2038456E-001, 5.5836719E-002, 1.6234914E-004, 5.3567918E-007, 7.5648812E-004, 4.9402197E+002
 2.9005668E+001, 9.9428529E-002, 1.2237944E-001, 5.6669291E-002, 1.6685571E-004, 4.5788967E-006, 7.6947587E-004, 4.9150593E+002
 3.0000876E+001, 9.6646321E-002, 1.2491364E-001, 5.7747054E-002, 1.9422864E-004, 5.5712464E-005, 7.9065896E-004, 4.9230393E+002
 3.1009503E+001, 9.4958751E-002, 1.2647126E-001, 5.8397597E-002, 1.9828455E-004, 6.5415056E-005, 8.0091610E-004, 4.9211039E+002
 3.2002932E+001, 9.2742216E-002, 1.2850683E-001, 5.9255268E-002, 2.1156711E-004, 7.9043655E-005, 8.1604777E-004, 4.9346207E+002
 3.3002940E+001, 9.2161451E-002, 1.2899973E-001, 5.9484736E-002, 2.3825270E-004, 1.3402786E-004, 8.2479004E-004, 4.8514024E+002
 3.4007384E+001, 8.9966501E-002, 1.3101756E-001, 6.0331063E-002, 2.4739532E-004, 1.6153285E-004, 8.3891911E-004, 4.9289900E+002
 3.5000544E+001, 8.7103920E-002, 1.3341480E-001, 6.1458671E-002, 3.9002814E-004, 5.1726653E-004, 8.8421731E-004, 4.8904530E+002
 3.6006307E+001, 8.6286707E-002, 1.3410954E-001, 6.1777523E-002, 4.2290516E-004, 6.1678931E-004, 8.9551480E-004, 4.8270795E+002
 3.7003661E+001, 8.6019135E-002, 1.3433788E-001, 6.1883394E-002, 4.3478521E-004, 6.3873712E-004, 8.9946038E-004, 4.8521314E+002
 3.8004750E+001, 8.4297930E-002, 1.3580956E-001, 6.2555451E-002, 5.0072077E-004, 8.2866251E-004, 9.2258956E-004, 4.7704986E+002
 3.9004304E+001, 8.3747181E-002, 1.3626240E-001, 6.2776870E-002, 5.3655032E-004, 8.8663967E-004, 9.3306906E-004, 4.7444310E+002
 4.0007281E+001, 8.1846146E-002, 1.3776750E-001, 6.3522323E-002, 6.6718551E-004, 1.3155833E-003, 9.7039940E-004, 4.7575475E+002
 4.1003438E+001, 8.0672090E-002, 1.3875866E-001, 6.3983308E-002, 7.2054356E-004, 1.4547355E-003, 9.8791349E-004, 4.7626494E+002
 4.2006351E+001, 8.0145670E-002, 1.3916788E-001, 6.4199479E-002, 7.7014955E-004, 1.5294986E-003, 1.0011112E-003, 4.7430020E+002
 4.3003436E+001, 7.8767351E-002, 1.4015933E-001, 6.4743483E-002, 9.1371577E-004, 2.0168893E-003, 1.0381466E-003, 4.7186119E+002
 4.4005239E+001, 7.8493704E-002, 1.4036480E-001, 6.4858863E-002, 9.4587560E-004, 2.0519094E-003, 1.0463424E-003, 4.7255671E+002
 4.5003905E+001, 7.8001646E-002, 1.4069168E-001, 6.5063778E-002, 1.0203864E-003, 2.2147214E-003, 1.0644332E-003, 4.6643759E+002
 4.6007156E+001, 7.6957355E-002, 1.4146577E-001, 6.5492281E-002, 1.1355395E-003, 2.4397077E-003, 1.0940111E-003, 4.7313331E+002
 4.7004840E+001, 7.6803459E-002, 1.4163056E-001, 6.5545264E-002, 1.1190928E-003, 2.4339369E-003, 1.0914448E-003, 4.6482725E+002
 4.8004557E+001, 7.6131513E-002, 1.4188763E-001, 6.5801307E-002, 1.2822465E-003, 3.1753395E-003, 1.1282970E-003, 4.6287768E+002
 4.9002478E+001, 7.5845693E-002, 1.4216591E-001, 6.5918770E-002, 1.2838481E-003, 3.1042378E-003, 1.1303190E-003, 4.6310542E+002
 5.0005965E+001, 7.5022124E-002, 1.4279140E-001, 6.6215972E-002, 1.3260599E-003, 3.4985299E-003, 1.1432203E-003, 4.6312493E+002
 5.1010203E+001, 7.5185588E-002, 1.4271062E-001, 6.6165457E-002, 1.3067205E-003, 3.2830440E-003, 1.1385486E-003, 4.5744142E+002
 5.2003987E+001, 7.3915684E-002, 1.4345790E-001, 6.6700358E-002, 1.5488954E-003, 3.8574220E-003, 1.1954499E-003, 4.5387132E+002
 5.3005977E+001, 7.4158945E-002, 1.4314374E-001, 6.6585148E-002, 1.5669444E-003, 4.1633686E-003, 1.1974645E-003, 4.5525504E+002
 5.4002005E+001, 7.3900874E-002, 1.4325738E-001, 6.6693438E-002, 1.6330643E-003, 4.3583407E-003, 1.2124558E-003, 4.5299706E+002
 5.5001542E+001, 7.3191287E-002, 1.4371773E-001, 6.6977946E-002, 1.7342308E-003, 4.6815597E-003, 1.2371184E-003, 4.5360397E+002
 5.6000838E+001, 7.3375108E-002, 1.4361343E-001, 6.6896936E-002, 1.6937445E-003, 4.6124301E-003, 1.2277301E-003, 4.5104251E+002
 5.7000461E+001, 7.2951685E-002, 1.4365430E-001, 6.7058881E-002, 1.8520788E-003, 5.3159691E-003, 1.2622375E-003, 4.5017095E+002
 5.8006527E+001, 7.2648149E-002, 1.4373464E-001, 6.7200044E-002, 1.9681681E-003, 5.5673954E-003, 1.2878404E-003, 4.5160400E+002
 5.9005193E+001, 7.2404173E-002, 1.4390913E-001, 6.7283545E-002, 1.9809100E-003, 5.7331044E-003, 1.2916487E-003, 4.4504282E+002
 6.0006683E+001, 7.2029433E-002, 1.4422911E-001, 6.7411557E-002, 1.9766778E-003, 5.8861643E-003, 1.2926603E-003, 4.4725620E+002
 6.1000511E+001, 7.1740804E-002, 1.4414682E-001, 6.7527149E-002, 2.1398722E-003, 6.5524822E-003, 1.3274775E-003, 4.4558589E+002
 6.2003408E+001, 7.1852217E-002, 1.4422772E-001, 6.7485326E-002, 2.0574724E-003, 6.1809913E-003, 1.3101346E-003, 4.4722611E+002
 6.3009979E+001, 7.1577022E-002, 1.4408388E-001, 6.7589150E-002, 2.2361541E-003, 6.9844988E-003, 1.3479326E-003, 4.3801575E+002
 6.4008642E+001, 7.1365873E-002, 1.4433377E-001, 6.7645367E-002, 2.1858941E-003, 7.0291829E-003, 1.3385628E-003, 4.4288704E+002
 6.5005487E+001, 7.1308109E-002, 1.4421246E-001, 6.7702560E-002, 2.3010306E-003, 7.1640675E-003, 1.3627448E-003, 4.3966690E+002
 6.6005274E+001, 7.0676572E-002, 1.4455888E-001, 6.7939486E-002, 2.4030481E-003, 7.6757544E-003, 1.3869062E-003, 4.4328454E+002
 6.7009336E+001, 7.1038996E-002, 1.4432587E-001, 6.7770674E-002, 2.3263022E-003, 7.6487240E-003, 1.3688975E-003, 4.3802149E+002
 6.8008891E+001, 7.0934594E-002, 1.4414761E-001, 6.7804588E-002, 2.4445394E-003, 8.2317629E-003, 1.3934091E-003, 4.3901695E+002
 6.9007344E+001, 7.0377030E-002, 1.4458943E-001, 6.8033012E-002, 2.4927256E-003, 8.2975709E-003, 1.4064959E-003, 4.3877213E+002
 7.0005141E+001, 7.0042141E-002, 1.4476078E-001, 6.8157643E-002, 2.5513869E-003, 8.5994468E-003, 1.4202213E-003, 4.3986187E+002
 7.1006496E+001, 7.0178253E-002, 1.4472505E-001, 6.8084370E-002, 2.4889621E-003, 8.5464899E-003, 1.4064991E-003, 4.3764017E+002
 7.2002817E+001, 7.0101394E-002, 1.4467945E-001, 6.8114618E-002, 2.5426134E-003, 8.7741013E-003, 1.4178338E-003, 4.3644015E+002
 7.3004485E+001, 6.9602463E-002, 1.4491773E-001, 6.8288960E-002, 2.6260824E-003, 9.3261776E-003, 1.4373309E-003, 4.3685694E+002
 7.4000752E+001, 6.9623787E-002, 1.4473512E-001, 6.8288870E-002, 2.7082310E-003, 9.5996474E-003, 1.4540067E-003, 4.3211818E+002
 7.5005644E+001, 6.9184184E-002, 1.4512304E-001, 6.8437615E-002, 2.6961108E-003, 9.7629343E-003, 1.4537208E-003, 4.3453888E+002
 7.6003452E+001, 6.9320099E-002, 1.4504276E-001, 6.8373434E-002, 2.6632121E-003, 9.7440088E-003, 1.4461190E-003, 4.3455624E+002
 7.7003527E+001, 6.9275595E-002, 1.4488212E-001, 6.8379592E-002, 2.7434715E-003, 1.0210512E-002, 1.4625190E-003, 4.3067785E+002
 7.8007387E+001, 6.9215297E-002, 1.4491265E-001, 6.8393364E-002, 2.7452875E-003, 1.0317987E-002, 1.4630962E-003, 4.3298556E+002
 7.9009649E+001, 6.8814310E-002, 1.4508328E-001, 6.8528466E-002, 2.8166911E-003, 1.0833424E-002, 1.4795751E-003, 4.3220462E+002
 8.0009989E+001, 6.8906637E-002, 1.4509134E-001, 6.8488225E-002, 2.7694143E-003, 1.0676238E-002, 1.4693938E-003, 4.3245330E+002
 8.1005696E+001, 6.8776170E-002, 1.4508830E-001, 6.8529131E-002, 2.8160566E-003, 1.0978422E-002, 1.4794686E-003, 4.3151334E+002
 8.2001041E+001, 6.8793238E-002, 1.4495142E-001, 6.8550010E-002, 2.8990995E-003, 1.1052074E-002, 1.4966125E-003, 4.2960725E+002
 8.3000428E+001, 6.8833311E-002, 1.4486795E-001, 6.8502573E-002, 2.8872471E-003, 1.1337601E-002, 1.4935464E-003, 4.3002723E+002
 8.4000317E+001, 6.8745211E-002, 1.4501046E-001, 6.8529693E-002, 2.8526994E-003, 1.1258283E-002, 1.4869292E-003, 4.2762857E+002
 8.5003449E+001, 6.8449576E-002, 1.4513102E-001, 6.8620223E-002, 2.8984066E-003, 1.1703641E-002, 1.4975464E-003, 4.3064775E+002
 8.6002806E+001, 6.8363075E-002, 1.4512223E-001, 6.8635470E-002, 2.9202170E-003, 1.1989302E-002, 1.5022137E-003, 4.2912464E+002
 8.7004519E+001, 6.8331662E-002, 1.4507282E-001, 6.8624363E-002, 2.9320093E-003, 1.2285381E-002, 1.5044687E-003, 4.3152187E+002
 8.8007755E+001, 6.8406585E-002, 1.4484230E-001, 6.8624786E-002, 3.0350494E-003, 1.2427259E-002, 1.5253758E-003, 4.2809597E+002
 8.9009860E+001, 6.8528068E-002, 1.4471692E-001, 6.8523336E-002, 2.9847156E-003, 1.2783470E-002, 1.5137314E-003, 4.2720678E+002
 9.0007723E+001, 6.8257148E-002, 1.4495603E-001, 6.8657083E-002, 3.0204063E-003, 1.2629284E-002, 1.5228930E-003, 4.2550841E+002
 9.1008988E+001, 6.8085731E-002, 1.4495960E-001, 6.8688095E-002, 3.0549357E-003, 1.3148976E-002, 1.5303875E-003, 4.3052481E+002
 9.2000992E+001, 6.8281569E-002, 1.4485919E-001, 6.8605038E-002, 3.0102797E-003, 1.3034433E-002, 1.5201203E-003, 4.2644180E+002
 9.3001892E+001, 6.8306855E-002, 1.4475379E-001, 6.8583554E-002, 3.0353759E-003, 1.3267936E-002, 1.5249165E-003, 4.2611625E+002
 9.4003371E+001, 6.8123159E-002, 1.4481189E-001, 6.8636052E-002, 3.0675464E-003, 1.3600699E-002, 1.5322282E-003, 4.2589170E+002
 9.5007362E+001, 6.8049768E-002, 1.4480642E-001, 6.8679893E-002, 3.1168604E-003, 1.3652018E-002, 1.5428656E-003, 4.2816364E+002
 9.6006960E+001, 6.7928113E-002, 1.4485650E-001, 6.8689474E-002, 3.1070586E-003, 1.4001880E-002, 1.5410476E-003, 4.2593088E+002
 9.7005709E+001, 6.7862008E-002, 1.4485753E-001, 6.8695302E-002, 3.1142431E-003, 1.4240108E-002, 1.5426091E-003, 4.2510651E+002
 9.8010699E+001, 6.8032616E-002, 1.4467459E-001, 6.8628028E-002, 3.1238326E-003, 1.4298707E-002, 1.5435826E-003, 4.2756681E+002
 9.9004357E+001, 6.8094270E-002, 1.4459050E-001, 6.8574065E-002, 3.1050227E-003, 1.4535020E-002, 1.5390071E-003, 4.2528281E+002
 1.0000783E+002, 6.8035443E-002, 1.4465799E-001, 6.8603525E-002, 3.1061438E-003, 1.4468164E-002, 1.5396559E-003, 4.2110050E+002
 1.0100008E+002, 6.8121467E-002, 1.4440169E-001, 6.8539721E-002, 3.1546799E-003, 1.5003660E-002, 1.5486162E-003, 4.2355726E+002
 1.0200511E+002, 6.8253749E-002, 1.4439463E-001, 6.8487263E-002, 3.1007145E-003, 1.4783842E-002, 1.5368964E-003, 4.2378634E+002
 1.0300496E+002, 6.8310101E-002, 1.4436399E-001, 6.8440935E-002, 3.0656440E-003, 1.4890143E-002, 1.5291241E-003, 4.2496521E+002
 1.0400612E+002, 6.8299160E-002, 1.4428761E-001, 6.8426764E-002, 3.0860022E-003, 1.5172869E-002, 1.5330700E-003, 4.2284712E+002
 1.0500951E+002, 6.8013265E-002, 1.4450707E-001, 6.8531201E-002, 3.1009017E-003, 1.5297475E-002, 1.5376158E-003, 4.2600875E+002
 1.0600154E+002, 6.7839495E-002, 1.4452676E-001, 6.8573508E-002, 3.1397716E-003, 1.5726647E-002, 1.5461462E-003, 4.2219604E+002
 1.0700906E+002, 6.8106228E-002, 1.4434689E-001, 6.8441127E-002, 3.0787375E-003, 1.5772665E-002, 1.5318573E-003, 4.2438529E+002
 1.0800686E+002, 6.8236213E-002, 1.4414391E-001, 6.8398642E-002, 3.1238713E-003, 1.5890210E-002, 1.5404010E-003, 4.2439973E+002
 1.0900830E+002, 6.8353687E-002, 1.4409811E-001, 6.8336851E-002, 3.0782636E-003, 1.5865377E-002, 1.5302570E-003, 4.2194401E+002
 1.1000428E+002, 6.8227342E-002, 1.4404587E-001, 6.8359225E-002, 3.1280899E-003, 1.6360066E-002, 1.5407251E-003, 4.2229038E+002
 1.1100344E+002, 6.8153619E-002, 1.4403367E-001, 6.8352037E-002, 3.1281051E-003, 1.6735062E-002, 1.5406563E-003, 4.1788821E+002
 1.1200919E+002, 6.8337309E-002, 1.4389876E-001, 6.8298473E-002, 3.1296617E-003, 1.6560971E-002, 1.5401800E-003, 4.1936602E+002
 1.1300610E+002, 6.8465346E-002, 1.4367165E-001, 6.8222724E-002, 3.1516500E-003, 1.6935835E-002, 1.5435714E-003, 4.2277413E+002
 1.1400577E+002, 6.8573486E-002, 1.4352489E-001, 6.8174318E-002, 3.1657761E-003, 1.7068893E-002, 1.5457446E-003, 4.2263540E+002
 1.1501024E+002, 6.8432685E-002, 1.4363971E-001, 6.8231041E-002, 3.1754884E-003, 1.7084914E-002, 1.5485375E-003, 4.1999755E+002
 1.1600811E+002, 6.8486614E-002, 1.4354450E-001, 6.8171138E-002, 3.1558176E-003, 1.7411409E-002, 1.5437092E-003, 4.1831260E+002
 1.1701083E+002, 6.8610544E-002, 1.4348366E-001, 6.8117540E-002, 3.1252724E-003, 1.7339873E-002, 1.5367335E-003, 4.2041860E+002
 1.1800623E+002, 6.8701917E-002, 1.4329049E-001, 6.8052627E-002, 3.1439214E-003, 1.7734719E-002, 1.5396067E-003, 4.1896776E+002
 1.1900238E+002, 6.8580126E-002, 1.4341073E-001, 6.8111260E-002, 3.1526512E-003, 1.7649167E-002, 1.5422194E-003, 4.2029569E+002
 1.2000321E+002, 6.8590176E-002, 1.4329002E-001, 6.8052576E-002, 3.1468986E-003, 1.8201718E-002, 1.5402498E-003, 4.2065572E+002
 1.2100104E+002, 6.8615474E-002, 1.4321510E-001, 6.8050907E-002, 3.1785108E-003, 1.8254822E-002, 1.5466387E-003, 4.1719650E+002
 1.2200942E+002, 6.8710671E-002, 1.4315949E-001, 6.8033263E-002, 3.1832100E-003, 1.8075003E-002, 1.5473200E-003, 4.2253067E+002
 1.2300577E+002, 6.8852481E-002, 1.4300996E-001, 6.7969241E-002, 3.1817199E-003, 1.8167763E-002, 1.5460975E-003, 4.1498787E+002
 1.2401002E+002, 6.8992662E-002, 1.4281910E-001, 6.7890360E-002, 3.1837594E-003, 1.8439155E-002, 1.5453904E-003, 4.1924418E+002
 1.2500057E+002, 6.8889709E-002, 1.4278047E-001, 6.7893263E-002, 3.2068451E-003, 1.8927249E-002, 1.5501546E-003, 4.1862570E+002
 1.2600967E+002, 6.8905197E-002, 1.4280086E-001, 6.7879370E-002, 3.1829548E-003, 1.8906401E-002, 1.5451082E-003, 4.1745975E+002
 1.2700691E+002, 6.8907415E-002, 1.4277985E-001, 6.7864379E-002, 3.1770416E-003, 1.9029541E-002, 1.5437026E-003, 4.1753344E+002
 1.2800373E+002, 6.8965103E-002, 1.4275580E-001, 6.7847123E-002, 3.1687783E-003, 1.8941188E-002, 1.5417696E-003, 4.1624340E+002
 1.2900547E+002, 6.9118682E-002, 1.4263901E-001, 6.7781687E-002, 3.1507016E-003, 1.8928602E-002, 1.5371550E-003, 4.1360159E+002
 1.3000603E+002, 6.9080295E-002, 1.4246524E-001, 6.7782995E-002, 3.2317813E-003, 1.9424979E-002, 1.5536536E-003, 4.1829231E+002
 1.3100604E+002, 6.8697122E-002, 1.4286094E-001, 6.7914951E-002, 3.1974828E-003, 1.9439279E-002, 1.5486153E-003, 4.2156209E+002
 1.3200956E+002, 6.8925365E-002, 1.4264348E-001, 6.7828855E-002, 3.2019522E-003, 1.9439979E-002, 1.5482728E-003, 4.1648702E+002
 1.3300892E+002, 6.8933101E-002, 1.4260758E-001, 6.7833580E-002, 3.2228768E-003, 1.9450247E-002, 1.5525842E-003, 4.1879864E+002
 1.3400107E+002, 6.8977392E-002, 1.4255266E-001, 6.7757586E-002, 3.1686746E-003, 1.9834515E-002, 1.5405271E-003, 4.2005401E+002
 1.3500873E+002, 6.9199993E-002, 1.4228947E-001, 6.7673462E-002, 3.1960408E-003, 1.9937406E-002, 1.5448638E-003, 4.1759293E+002
 1.3600465E+002, 6.9107215E-002, 1.4227813E-001, 6.7689026E-002, 3.2194954E-003, 2.0252385E-002, 1.5498715E-003, 4.1725817E+002
 1.3700666E+002, 6.9484718E-002, 1.4197842E-001, 6.7546788E-002, 3.1998715E-003, 2.0133775E-002, 1.5438203E-003, 4.1653946E+002
 1.3800432E+002, 6.9461974E-002, 1.4188811E-001, 6.7547529E-002, 3.2421430E-003, 2.0403026E-002, 1.5524237E-003, 4.1536438E+002
 1.3900356E+002, 6.9577265E-002, 1.4188307E-001, 6.7511344E-002, 3.2043886E-003, 2.0151508E-002, 1.5442236E-003, 4.1169821E+002
 1.4000148E+002, 6.9463951E-002, 1.4192588E-001, 6.7524652E-002, 3.2014967E-003, 2.0458451E-002, 1.5438567E-003, 4.1477761E+002
 1.4100463E+002, 6.9260236E-002, 1.4197192E-001, 6.7610101E-002, 3.2734508E-003, 2.0699062E-002, 1.5597035E-003, 4.1711784E+002
 1.4200714E+002, 6.9407975E-002, 1.4193868E-001, 6.7562478E-002, 3.2359241E-003, 2.0437413E-002, 1.5513827E-003, 4.1632916E+002
 1.4300620E+002, 6.9545733E-002, 1.4173124E-001, 6.7468514E-002, 3.2300583E-003, 2.0843063E-002, 1.5488659E-003, 4.1475158E+002
 1.4400421E+002, 6.9608533E-002, 1.4162237E-001, 6.7420544E-002, 3.2286018E-003, 2.1087414E-002, 1.5478960E-003, 4.1271543E+002
 1.4500608E+002, 6.9579122E-002, 1.4165429E-001, 6.7452715E-002, 3.2478841E-003, 2.0951990E-002, 1.5522599E-003, 4.1288023E+002
 1.4600485E+002, 6.9751252E-002, 1.4143071E-001, 6.7369034E-002, 3.2590256E-003, 2.1184113E-002, 1.5533250E-003, 4.1558967E+002
 1.4700501E+002, 6.9785238E-002, 1.4157636E-001, 6.7368235E-002, 3.1913258E-003, 2.0758705E-002, 1.5395524E-003, 4.1551389E+002
 1.4800220E+002, 6.9818081E-002, 1.4145303E-001, 6.7354109E-002, 3.2319069E-003, 2.0951679E-002, 1.5475909E-003, 4.1584891E+002
 1.4900582E+002, 6.9845315E-002, 1.4130592E-001, 6.7301926E-002, 3.2443591E-003, 2.1445552E-002, 1.5494011E-003, 4.1675415E+002
 1.5000487E+002, 6.9834539E-002, 1.4132134E-001, 6.7312521E-002, 3.2485097E-003, 2.1395770E-002, 1.5503919E-003, 4.1267810E+002
 1.5100625E+002, 6.9900490E-002, 1.4133989E-001, 6.7296331E-002, 3.2218233E-003, 2.1182121E-002, 1.5447287E-003, 4.1554537E+002
 1.5200590E+002, 7.0298383E-002, 1.4088752E-001, 6.7110865E-002, 3.2265320E-003, 2.1542709E-002, 1.5430247E-003, 4.1365676E+002
 1.5300647E+002, 7.0192120E-002, 1.4087951E-001, 6.7133843E-002, 3.2564245E-003, 2.1862406E-002, 1.5494455E-003, 4.0947503E+002
 1.5401014E+002, 7.0158589E-002, 1.4088186E-001, 6.7152662E-002, 3.2755122E-003, 2.1883573E-002, 1.5535897E-003, 4.1117071E+002
