s,kW/m2,,
Time,"flux","d43","w"
 0.0000000E+000, 1.6137854E+000, 0.0000000E+000, 0.0000000E+000
 1.0000000E-001, 1.6137895E+000, 0.0000000E+000, 0.0000000E+000
 2.0000000E-001, 1.6138063E+000, 0.0000000E+000, 0.0000000E+000
 3.5000000E-001, 1.6138375E+000, 0.0000000E+000, 0.0000000E+000
 4.5000000E-001, 1.6138863E+000, 0.0000000E+000, 0.0000000E+000
 5.5000000E-001, 1.6139355E+000, 0.0000000E+000, 0.0000000E+000
 6.0000000E-001, 1.6139869E+000, 0.0000000E+000, 0.0000000E+000
 7.0000000E-001, 1.6140188E+000, 0.0000000E+000, 0.0000000E+000
 8.0000000E-001, 1.6140762E+000, 0.0000000E+000, 0.0000000E+000
 9.0000000E-001, 1.6141344E+000, 0.0000000E+000, 0.0000000E+000
 1.0000000E+000, 1.6141923E+000, 0.0000000E+000, 0.0000000E+000
 1.1000000E+000, 1.6142499E+000, 0.0000000E+000, 0.0000000E+000
 1.2000000E+000, 1.6143090E+000, 0.0000000E+000, 0.0000000E+000
 1.3000000E+000, 1.6143694E+000, 0.0000000E+000, 0.0000000E+000
 1.4000000E+000, 1.6144303E+000, 0.0000000E+000, 0.0000000E+000
 1.5000000E+000, 1.6144910E+000, 0.0000000E+000, 0.0000000E+000
 1.6000000E+000, 1.6145505E+000, 0.0000000E+000, 0.0000000E+000
 1.7000000E+000, 1.6146107E+000, 0.0000000E+000, 0.0000000E+000
 1.8000000E+000, 1.6146721E+000, 0.0000000E+000, 0.0000000E+000
 1.9000000E+000, 1.6147338E+000, 0.0000000E+000, 0.0000000E+000
 2.0000000E+000, 1.6147957E+000, 0.0000000E+000, 0.0000000E+000
 2.1000000E+000, 1.6148562E+000, 0.0000000E+000, 0.0000000E+000
 2.2500000E+000, 1.6149280E+000, 0.0000000E+000, 0.0000000E+000
 2.3500000E+000, 1.6150083E+000, 0.0000000E+000, 0.0000000E+000
 2.4500000E+000, 1.6150702E+000, 0.0000000E+000, 0.0000000E+000
 2.5500000E+000, 1.6151740E+000, 0.0000000E+000, 0.0000000E+000
 2.6500000E+000, 1.6152454E+000, 0.0000000E+000, 0.0000000E+000
 2.7500000E+000, 1.6153195E+000, 0.0000000E+000, 0.0000000E+000
 2.8500000E+000, 1.6153806E+000, 0.0000000E+000, 0.0000000E+000
 2.9500000E+000, 1.6154520E+000, 0.0000000E+000, 0.0000000E+000
 3.0500000E+000, 1.6155839E+000, 0.0000000E+000, 0.0000000E+000
 3.1500000E+000, 1.6156598E+000, 0.0000000E+000, 0.0000000E+000
 3.2500000E+000, 1.6157771E+000, 0.0000000E+000, 0.0000000E+000
 3.3500000E+000, 1.6158639E+000, 0.0000000E+000, 0.0000000E+000
 3.4500000E+000, 1.6159301E+000, 0.0000000E+000, 0.0000000E+000
 3.5500000E+000, 1.6158972E+000, 0.0000000E+000, 0.0000000E+000
 3.6500000E+000, 1.6159381E+000, 0.0000000E+000, 0.0000000E+000
 3.7500000E+000, 1.6159201E+000, 0.0000000E+000, 0.0000000E+000
 3.8500000E+000, 1.6159504E+000, 0.0000000E+000, 0.0000000E+000
 3.9500000E+000, 1.6159926E+000, 0.0000000E+000, 0.0000000E+000
 4.0500000E+000, 1.6128484E+000, 0.0000000E+000, 0.0000000E+000
 4.1500000E+000, 1.3202526E+000, 0.0000000E+000, 0.0000000E+000
 4.2500000E+000, 9.7137441E-001, 1.7745359E-004,-1.4090447E+000
 4.3500000E+000, 6.6933083E-001, 3.8702715E-004,-3.1007703E+000
 4.4500000E+000, 2.9609004E-001, 3.3845229E-004,-2.0084282E+000
 4.5500000E+000, 4.4757347E-003, 3.2568681E-004,-1.8545419E+000
 4.6432769E+000, 4.4240521E-003, 3.0606047E-004,-1.5896664E+000
 4.7044925E+000, 3.9385256E-003, 2.9375169E-004,-1.4457073E+000
 4.8168072E+000, 2.8437536E-003, 2.8255779E-004,-1.3457820E+000
 4.9100202E+000, 1.9038395E-003, 2.6089197E-004,-1.4247886E+000
 5.0032332E+000, 1.7295677E-003, 2.3558800E-004,-1.8922652E+000
 5.1099023E+000, 1.6174583E-003, 2.2649020E-004,-2.5037803E+000
 5.2141097E+000, 1.5473195E-003, 2.2387239E-004,-2.6947904E+000
 5.3183171E+000, 1.4896888E-003, 2.2076972E-004,-2.8767128E+000
 5.4016830E+000, 1.4500341E-003, 2.1868893E-004,-3.0083878E+000
 5.5058904E+000, 1.4130934E-003, 2.1701248E-004,-3.0982376E+000
 5.6100977E+000, 1.3869582E-003, 2.1879231E-004,-3.1727268E+000
 5.7143051E+000, 1.3655791E-003, 2.1639884E-004,-3.2279076E+000
 5.8226808E+000, 1.3553866E-003, 2.1453443E-004,-3.2866912E+000
 5.9143833E+000, 1.3427951E-003, 2.1455809E-004,-3.3036485E+000
 6.0060858E+000, 1.3346275E-003, 2.1378389E-004,-3.3304966E+000
 6.1207139E+000, 1.3249151E-003, 2.1184234E-004,-3.3575776E+000
 6.2124164E+000, 1.3202660E-003, 2.1048349E-004,-3.3682761E+000
 6.3041188E+000, 1.3124197E-003, 2.0856198E-004,-3.3656328E+000
 6.4187469E+000, 1.3070449E-003, 2.0720492E-004,-3.3708266E+000
 6.5173271E+000, 1.3007324E-003, 2.0793723E-004,-3.3771615E+000
 6.6181999E+000, 1.2921378E-003, 2.0765240E-004,-3.3812021E+000
 6.7190726E+000, 1.2838034E-003, 2.0836131E-004,-3.3909112E+000
 6.8199453E+000, 1.2737846E-003, 2.0729240E-004,-3.3993377E+000
 6.9208181E+000, 1.2599687E-003, 2.0578895E-004,-3.4035170E+000
 7.0216908E+000, 1.2414472E-003, 2.0542809E-004,-3.4094106E+000
 7.1225635E+000, 1.2218139E-003, 2.0580192E-004,-3.4131679E+000
 7.2234363E+000, 1.2010169E-003, 2.0577870E-004,-3.4189321E+000
 7.3243090E+000, 1.1865772E-003, 2.0473912E-004,-3.4246356E+000
 7.4251818E+000, 1.1716093E-003, 2.0351343E-004,-3.4295551E+000
 7.5147540E+000, 1.1569402E-003, 2.0272743E-004,-3.4327923E+000
 7.6043261E+000, 1.1405770E-003, 2.0176782E-004,-3.4339564E+000
 7.7162914E+000, 1.1256620E-003, 2.0054061E-004,-3.4276388E+000
 7.8058636E+000, 1.1075688E-003, 1.9952489E-004,-3.4230362E+000
 7.9245468E+000, 1.0850205E-003, 1.9842228E-004,-3.4249811E+000
 8.0230762E+000, 1.0658162E-003, 1.9793792E-004,-3.4282328E+000
 8.1216056E+000, 1.0459671E-003, 1.9720584E-004,-3.4342343E+000
 8.2201350E+000, 1.0239838E-003, 1.9680117E-004,-3.4414663E+000
 8.3186644E+000, 9.9951243E-004, 1.9660047E-004,-3.4474112E+000
 8.4171939E+000, 9.7616558E-004, 1.9679837E-004,-3.4483988E+000
 8.5157233E+000, 9.4963813E-004, 1.9744019E-004,-3.4445246E+000
 8.6142527E+000, 9.1893492E-004, 1.9732512E-004,-3.4443965E+000
 8.7127821E+000, 8.9501875E-004, 1.9769079E-004,-3.4470458E+000
 8.8113115E+000, 8.7532982E-004, 1.9893402E-004,-3.4531930E+000
 8.9098409E+000, 8.5386179E-004, 1.9948246E-004,-3.4590688E+000
 9.0083704E+000, 1.2382443E-003, 1.9914433E-004,-3.4589266E+000
 9.1068998E+000, 8.8281909E-002, 1.9877180E-004,-3.4576970E+000
 9.2054292E+000, 5.1088844E-001, 1.9847372E-004,-3.4588755E+000
 9.3039586E+000, 9.8285524E-001, 1.9765557E-004,-3.4600612E+000
 9.4024880E+000, 1.1770937E+000, 1.9737455E-004,-3.4643259E+000
 9.5010175E+000, 1.1913527E+000, 1.9709082E-004,-3.4695320E+000
 9.6241792E+000, 1.1996837E+000, 1.9670746E-004,-3.4706016E+000
 9.7227086E+000, 1.2006359E+000, 1.9630838E-004,-3.4715786E+000
 9.8212381E+000, 1.1962655E+000, 1.9608808E-004,-3.4729974E+000
 9.9197675E+000, 1.1932261E+000, 1.9629213E-004,-3.4728006E+000
 1.0018297E+001, 1.1835795E+000, 1.9567041E-004,-3.4735192E+000
 1.0116826E+001, 1.1793590E+000, 1.9491397E-004,-3.4760531E+000
 1.0215356E+001, 1.1748314E+000, 1.9513781E-004,-3.4790375E+000
 1.0313885E+001, 1.1745812E+000, 1.9530326E-004,-3.4809262E+000
 1.0412415E+001, 1.1824452E+000, 1.9502912E-004,-3.4809259E+000
 1.0510944E+001, 1.1928265E+000, 1.9501460E-004,-3.4821590E+000
 1.0609473E+001, 1.1993816E+000, 1.9520287E-004,-3.4819640E+000
 1.0708003E+001, 1.1925984E+000, 1.9502578E-004,-3.4779490E+000
 1.0806532E+001, 1.1854202E+000, 1.9448353E-004,-3.4756234E+000
 1.0905062E+001, 1.1830615E+000, 1.9430995E-004,-3.4781631E+000
 1.1003591E+001, 1.1839374E+000, 1.9420461E-004,-3.4825167E+000
 1.1102121E+001, 1.1891850E+000, 1.9403476E-004,-3.4860700E+000
 1.1200650E+001, 1.1871721E+000, 1.9404787E-004,-3.4855459E+000
 1.1323812E+001, 1.1849276E+000, 1.9365184E-004,-3.4855779E+000
 1.1422341E+001, 1.1871509E+000, 1.9347293E-004,-3.4870446E+000
 1.1520871E+001, 1.1909142E+000, 1.9320067E-004,-3.4889995E+000
 1.1619400E+001, 1.1976484E+000, 1.9346089E-004,-3.4883560E+000
 1.1717929E+001, 1.2065147E+000, 1.9389859E-004,-3.4879827E+000
 1.1816459E+001, 1.2084872E+000, 1.9379138E-004,-3.4882874E+000
 1.1914988E+001, 1.2002136E+000, 1.9389865E-004,-3.4885928E+000
 1.2013518E+001, 1.1974834E+000, 1.9370891E-004,-3.4889666E+000
 1.2112047E+001, 1.1930464E+000, 1.9353974E-004,-3.4911546E+000
 1.2210576E+001, 1.1900437E+000, 1.9359353E-004,-3.4922745E+000
 1.2309106E+001, 1.1874131E+000, 1.9364821E-004,-3.4931257E+000
 1.2407635E+001, 1.1956285E+000, 1.9359618E-004,-3.4949625E+000
 1.2506165E+001, 1.2013430E+000, 1.9356619E-004,-3.4954375E+000
 1.2604694E+001, 1.1967590E+000, 1.9327234E-004,-3.4960323E+000
 1.2703224E+001, 1.1914849E+000, 1.9293399E-004,-3.4975294E+000
 1.2801753E+001, 1.1943232E+000, 1.9274404E-004,-3.4984844E+000
 1.2900282E+001, 1.1947374E+000, 1.9275668E-004,-3.4985767E+000
 1.3023444E+001, 1.1965589E+000, 1.9271497E-004,-3.4984742E+000
 1.3121974E+001, 1.1951481E+000, 1.9258948E-004,-3.4977453E+000
 1.3220503E+001, 1.1867024E+000, 1.9242351E-004,-3.4971163E+000
 1.3319032E+001, 1.1853116E+000, 1.9202270E-004,-3.4957765E+000
 1.3417562E+001, 1.1876884E+000, 1.9201999E-004,-3.4949434E+000
 1.3516091E+001, 1.1912967E+000, 1.9214707E-004,-3.4941685E+000
 1.3614621E+001, 1.1863697E+000, 1.9219757E-004,-3.4943532E+000
 1.3713150E+001, 1.1854382E+000, 1.9197671E-004,-3.4951435E+000
 1.3811680E+001, 1.1878351E+000, 1.9192927E-004,-3.4956953E+000
 1.3910209E+001, 1.1928056E+000, 1.9234495E-004,-3.4959695E+000
 1.4008738E+001, 1.1911208E+000, 1.9240093E-004,-3.4960484E+000
 1.4107268E+001, 1.2001375E+000, 1.9194335E-004,-3.4956065E+000
 1.4205797E+001, 1.1963380E+000, 1.9183548E-004,-3.4942250E+000
 1.4304327E+001, 1.1933194E+000, 1.9180216E-004,-3.4941481E+000
 1.4402856E+001, 1.1904527E+000, 1.9205381E-004,-3.4945840E+000
 1.4501385E+001, 1.1953102E+000, 1.9241206E-004,-3.4947685E+000
 1.4624547E+001, 1.2064823E+000, 1.9260705E-004,-3.4952794E+000
 1.4723077E+001, 1.1993891E+000, 1.9254330E-004,-3.4961253E+000
 1.4821606E+001, 1.1944130E+000, 1.9274398E-004,-3.4969565E+000
 1.4920135E+001, 1.1897351E+000, 1.9274591E-004,-3.4978631E+000
 1.5000000E+001, 1.1881236E+000, 1.9255454E-004,-3.4979697E+000
