s,kW/m2,,
Time,"flux","d43","w"
 0.0000000E+000, 1.6137854E+000, 0.0000000E+000, 0.0000000E+000
 1.0000000E-001, 1.6137895E+000, 0.0000000E+000, 0.0000000E+000
 2.0000000E-001, 1.6138063E+000, 0.0000000E+000, 0.0000000E+000
 3.5000000E-001, 1.6138375E+000, 0.0000000E+000, 0.0000000E+000
 4.5000000E-001, 1.6138863E+000, 0.0000000E+000, 0.0000000E+000
 5.5000000E-001, 1.6139355E+000, 0.0000000E+000, 0.0000000E+000
 6.0000000E-001, 1.6139869E+000, 0.0000000E+000, 0.0000000E+000
 7.0000000E-001, 1.6140188E+000, 0.0000000E+000, 0.0000000E+000
 8.0000000E-001, 1.6140762E+000, 0.0000000E+000, 0.0000000E+000
 9.0000000E-001, 1.6141344E+000, 0.0000000E+000, 0.0000000E+000
 1.0000000E+000, 1.6141923E+000, 0.0000000E+000, 0.0000000E+000
 1.1000000E+000, 1.6142499E+000, 0.0000000E+000, 0.0000000E+000
 1.2000000E+000, 1.6143090E+000, 0.0000000E+000, 0.0000000E+000
 1.3000000E+000, 1.6143694E+000, 0.0000000E+000, 0.0000000E+000
 1.4000000E+000, 1.6144303E+000, 0.0000000E+000, 0.0000000E+000
 1.5000000E+000, 1.6144910E+000, 0.0000000E+000, 0.0000000E+000
 1.6000000E+000, 1.6145505E+000, 0.0000000E+000, 0.0000000E+000
 1.7000000E+000, 1.6146107E+000, 0.0000000E+000, 0.0000000E+000
 1.8000000E+000, 1.6146721E+000, 0.0000000E+000, 0.0000000E+000
 1.9000000E+000, 1.6147338E+000, 0.0000000E+000, 0.0000000E+000
 2.0000000E+000, 1.6147957E+000, 0.0000000E+000, 0.0000000E+000
 2.1000000E+000, 1.6148562E+000, 0.0000000E+000, 0.0000000E+000
 2.2500000E+000, 1.6149280E+000, 0.0000000E+000, 0.0000000E+000
 2.3500000E+000, 1.6150083E+000, 0.0000000E+000, 0.0000000E+000
 2.4500000E+000, 1.6150702E+000, 0.0000000E+000, 0.0000000E+000
 2.5500000E+000, 1.6151740E+000, 0.0000000E+000, 0.0000000E+000
 2.6500000E+000, 1.6152454E+000, 0.0000000E+000, 0.0000000E+000
 2.7500000E+000, 1.6153195E+000, 0.0000000E+000, 0.0000000E+000
 2.8500000E+000, 1.6153806E+000, 0.0000000E+000, 0.0000000E+000
 2.9500000E+000, 1.6154520E+000, 0.0000000E+000, 0.0000000E+000
 3.0500000E+000, 1.6155839E+000, 0.0000000E+000, 0.0000000E+000
 3.1500000E+000, 1.6156598E+000, 0.0000000E+000, 0.0000000E+000
 3.2500000E+000, 1.6157771E+000, 0.0000000E+000, 0.0000000E+000
 3.3500000E+000, 1.6158639E+000, 0.0000000E+000, 0.0000000E+000
 3.4500000E+000, 1.6159301E+000, 0.0000000E+000, 0.0000000E+000
 3.5500000E+000, 1.6158972E+000, 0.0000000E+000, 0.0000000E+000
 3.6500000E+000, 1.6159381E+000, 0.0000000E+000, 0.0000000E+000
 3.7500000E+000, 1.6159201E+000, 0.0000000E+000, 0.0000000E+000
 3.8500000E+000, 1.6159504E+000, 0.0000000E+000, 0.0000000E+000
 3.9500000E+000, 1.6159926E+000, 0.0000000E+000, 0.0000000E+000
 4.0500000E+000, 1.6128484E+000, 0.0000000E+000, 0.0000000E+000
 4.1500000E+000, 1.3202526E+000, 2.7380558E-004,-6.6286587E+000
 4.2500000E+000, 9.7116406E-001, 4.9181145E-004,-1.2418919E+001
 4.3500000E+000, 6.6878316E-001, 4.5164901E-004,-8.5979690E+000
 4.4500000E+000, 2.9522853E-001, 3.5523864E-004,-2.9600589E+000
 4.5500000E+000, 3.4257972E-003, 3.2393380E-004,-2.2244965E+000
 4.6500000E+000, 3.3809611E-003, 3.1287729E-004,-2.1256461E+000
 4.7399477E+000, 3.1129338E-003, 2.7446361E-004,-1.3961932E+000
 4.8169833E+000, 2.7091278E-003, 2.6172895E-004,-1.3564601E+000
 4.9173926E+000, 2.2055088E-003, 2.5040628E-004,-1.3299969E+000
 5.0133066E+000, 1.9782732E-003, 2.2035267E-004,-1.4547779E+000
 5.1002304E+000, 1.8828065E-003, 2.0408994E-004,-1.8762382E+000
 5.2161287E+000, 1.8179117E-003, 1.8965846E-004,-2.3819601E+000
 5.3030524E+000, 1.7706834E-003, 1.8195706E-004,-2.5310070E+000
 5.4189508E+000, 1.7210453E-003, 1.7692450E-004,-2.5840996E+000
 5.5058745E+000, 1.6798118E-003, 1.7434465E-004,-2.6218321E+000
 5.6217728E+000, 1.6470216E-003, 1.7008752E-004,-2.6418820E+000
 5.7055988E+000, 1.6137765E-003, 1.6789685E-004,-2.6720701E+000
 5.8091061E+000, 1.5775879E-003, 1.6568627E-004,-2.6992342E+000
 5.9126133E+000, 1.5501960E-003, 1.6410174E-004,-2.7347628E+000
 6.0161206E+000, 1.5285937E-003, 1.6215995E-004,-2.7534049E+000
 6.1196279E+000, 1.5099020E-003, 1.6166685E-004,-2.7627206E+000
 6.2231351E+000, 1.4987763E-003, 1.6019345E-004,-2.7829068E+000
 6.3007656E+000, 1.4874309E-003, 1.5818038E-004,-2.7933280E+000
 6.4042728E+000, 1.4772906E-003, 1.5684405E-004,-2.7997401E+000
 6.5077801E+000, 1.4646203E-003, 1.5484775E-004,-2.8135618E+000
 6.6112873E+000, 1.4511889E-003, 1.5374604E-004,-2.8264441E+000
 6.7147946E+000, 1.4406481E-003, 1.5394462E-004,-2.8309160E+000
 6.8183019E+000, 1.4318535E-003, 1.5323331E-004,-2.8292656E+000
 6.9218091E+000, 1.4227145E-003, 1.5249393E-004,-2.8421225E+000
 7.0072026E+000, 1.4146237E-003, 1.5173907E-004,-2.8449533E+000
 7.1210606E+000, 1.4001415E-003, 1.5130383E-004,-2.8474791E+000
 7.2064541E+000, 1.3868705E-003, 1.5095562E-004,-2.8536345E+000
 7.3203121E+000, 1.3742462E-003, 1.5011155E-004,-2.8568746E+000
 7.4057056E+000, 1.3611775E-003, 1.5018890E-004,-2.8624949E+000
 7.5195636E+000, 1.3449244E-003, 1.5005206E-004,-2.8640576E+000
 7.6049571E+000, 1.3269426E-003, 1.5055033E-004,-2.8658716E+000
 7.7188151E+000, 1.3092970E-003, 1.5042900E-004,-2.8680869E+000
 7.8042085E+000, 1.2939179E-003, 1.4982453E-004,-2.8706824E+000
 7.9180665E+000, 1.2739139E-003, 1.4949939E-004,-2.8705492E+000
 8.0034600E+000, 1.2516979E-003, 1.4948089E-004,-2.8696264E+000
 8.1173180E+000, 1.2276824E-003, 1.4999715E-004,-2.8710357E+000
 8.2027115E+000, 1.2056080E-003, 1.5017198E-004,-2.8750458E+000
 8.3165695E+000, 1.1786048E-003, 1.4971054E-004,-2.8794310E+000
 8.4019630E+000, 1.1492621E-003, 1.4893894E-004,-2.8794437E+000
 8.5158210E+000, 1.1233801E-003, 1.4832749E-004,-2.8782600E+000
 8.6012145E+000, 1.0939333E-003, 1.4804888E-004,-2.8759985E+000
 8.7150724E+000, 1.0664384E-003, 1.4814394E-004,-2.8753399E+000
 8.8004659E+000, 1.0446719E-003, 1.4824338E-004,-2.8769584E+000
 8.9143239E+000, 1.0224489E-003, 1.4840000E-004,-2.8827145E+000
 9.0281819E+000, 4.3604252E-003, 1.4781208E-004,-2.8855039E+000
 9.1135754E+000, 1.1381536E-001, 1.4773786E-004,-2.8859605E+000
 9.2274334E+000, 5.5147998E-001, 1.4795870E-004,-2.8855004E+000
 9.3128269E+000, 1.0495321E+000, 1.4834445E-004,-2.8857687E+000
 9.4266849E+000, 1.3100186E+000, 1.4853296E-004,-2.8871196E+000
 9.5120784E+000, 1.3318863E+000, 1.4843697E-004,-2.8883811E+000
 9.6259363E+000, 1.3373447E+000, 1.4820775E-004,-2.8894156E+000
 9.7113298E+000, 1.3390428E+000, 1.4804782E-004,-2.8899881E+000
 9.8251878E+000, 1.3427845E+000, 1.4846157E-004,-2.8910203E+000
 9.9105813E+000, 1.3427162E+000, 1.4863024E-004,-2.8918413E+000
 1.0024439E+001, 1.3399843E+000, 1.4861202E-004,-2.8945282E+000
 1.0109833E+001, 1.3390331E+000, 1.4815541E-004,-2.8934060E+000
 1.0223691E+001, 1.3307124E+000, 1.4800637E-004,-2.8900513E+000
 1.0309084E+001, 1.3306852E+000, 1.4786046E-004,-2.8889237E+000
 1.0409789E+001, 1.3400401E+000, 1.4796555E-004,-2.8900791E+000
 1.0510495E+001, 1.3511198E+000, 1.4824785E-004,-2.8925576E+000
 1.0611200E+001, 1.3568544E+000, 1.4831205E-004,-2.8931767E+000
 1.0721975E+001, 1.3557917E+000, 1.4827728E-004,-2.8923478E+000
 1.0805057E+001, 1.3450293E+000, 1.4823264E-004,-2.8917455E+000
 1.0915833E+001, 1.3348699E+000, 1.4836041E-004,-2.8929456E+000
 1.1026609E+001, 1.3329309E+000, 1.4835773E-004,-2.8961800E+000
 1.1109690E+001, 1.3384180E+000, 1.4808750E-004,-2.8993504E+000
 1.1220466E+001, 1.3447609E+000, 1.4794445E-004,-2.9004102E+000
 1.1303548E+001, 1.3501680E+000, 1.4775224E-004,-2.9022471E+000
 1.1414323E+001, 1.3504610E+000, 1.4757313E-004,-2.9041519E+000
 1.1525099E+001, 1.3496779E+000, 1.4768838E-004,-2.9053647E+000
 1.1608181E+001, 1.3490562E+000, 1.4761239E-004,-2.9062371E+000
 1.1718957E+001, 1.3518313E+000, 1.4749211E-004,-2.9085828E+000
 1.1802038E+001, 1.3527831E+000, 1.4743371E-004,-2.9091774E+000
 1.1912814E+001, 1.3509204E+000, 1.4730073E-004,-2.9090061E+000
 1.2023590E+001, 1.3458207E+000, 1.4691456E-004,-2.9083192E+000
 1.2106671E+001, 1.3403460E+000, 1.4661257E-004,-2.9082058E+000
 1.2217447E+001, 1.3416066E+000, 1.4643102E-004,-2.9087191E+000
 1.2300529E+001, 1.3465004E+000, 1.4655419E-004,-2.9080493E+000
 1.2411305E+001, 1.3480181E+000, 1.4633270E-004,-2.9063299E+000
 1.2522080E+001, 1.3449500E+000, 1.4612135E-004,-2.9055654E+000
 1.2605162E+001, 1.3424690E+000, 1.4604223E-004,-2.9076526E+000
 1.2715938E+001, 1.3408173E+000, 1.4594161E-004,-2.9096688E+000
 1.2826713E+001, 1.3416386E+000, 1.4589712E-004,-2.9112240E+000
 1.2909795E+001, 1.3413036E+000, 1.4592669E-004,-2.9116179E+000
 1.3020571E+001, 1.3430807E+000, 1.4577998E-004,-2.9124160E+000
 1.3103653E+001, 1.3425851E+000, 1.4576436E-004,-2.9129524E+000
 1.3214428E+001, 1.3444722E+000, 1.4568193E-004,-2.9148133E+000
 1.3325204E+001, 1.3458023E+000, 1.4547845E-004,-2.9162149E+000
 1.3408286E+001, 1.3416118E+000, 1.4535796E-004,-2.9164284E+000
 1.3519061E+001, 1.3390968E+000, 1.4523719E-004,-2.9164150E+000
 1.3602143E+001, 1.3379093E+000, 1.4498556E-004,-2.9156289E+000
 1.3712919E+001, 1.3408892E+000, 1.4474257E-004,-2.9144071E+000
 1.3823695E+001, 1.3425663E+000, 1.4463778E-004,-2.9135722E+000
 1.3906776E+001, 1.3436815E+000, 1.4461234E-004,-2.9130170E+000
 1.4017552E+001, 1.3458129E+000, 1.4458324E-004,-2.9132639E+000
 1.4100634E+001, 1.3461042E+000, 1.4457838E-004,-2.9144950E+000
 1.4211409E+001, 1.3459893E+000, 1.4438020E-004,-2.9143713E+000
 1.4322185E+001, 1.3467140E+000, 1.4418283E-004,-2.9121203E+000
 1.4405267E+001, 1.3480908E+000, 1.4414883E-004,-2.9095179E+000
 1.4516043E+001, 1.3534196E+000, 1.4417382E-004,-2.9086512E+000
 1.4626818E+001, 1.3528947E+000, 1.4411566E-004,-2.9109638E+000
 1.4709900E+001, 1.3504544E+000, 1.4419043E-004,-2.9111696E+000
 1.4820676E+001, 1.3461346E+000, 1.4420821E-004,-2.9117552E+000
 1.4903757E+001, 1.3424164E+000, 1.4447023E-004,-2.9131541E+000
 1.5000000E+001, 1.3421099E+000, 1.4462902E-004,-2.9127515E+000
