s,kW/m2,,
Time,"flux","d43","w"
 0.0000000E+000, 1.6137854E+000, 0.0000000E+000, 0.0000000E+000
 1.0000000E-001, 1.6137895E+000, 0.0000000E+000, 0.0000000E+000
 2.0000000E-001, 1.6138068E+000, 0.0000000E+000, 0.0000000E+000
 3.5000000E-001, 1.6138427E+000, 0.0000000E+000, 0.0000000E+000
 4.5000000E-001, 1.6138980E+000, 0.0000000E+000, 0.0000000E+000
 5.5000000E-001, 1.6139508E+000, 0.0000000E+000, 0.0000000E+000
 6.5000000E-001, 1.6140091E+000, 0.0000000E+000, 0.0000000E+000
 7.0000000E-001, 1.6140656E+000, 0.0000000E+000, 0.0000000E+000
 8.0000000E-001, 1.6141008E+000, 0.0000000E+000, 0.0000000E+000
 9.0000000E-001, 1.6141627E+000, 0.0000000E+000, 0.0000000E+000
 1.0000000E+000, 1.6142246E+000, 0.0000000E+000, 0.0000000E+000
 1.1000000E+000, 1.6142861E+000, 0.0000000E+000, 0.0000000E+000
 1.2000000E+000, 1.6143491E+000, 0.0000000E+000, 0.0000000E+000
 1.3000000E+000, 1.6144135E+000, 0.0000000E+000, 0.0000000E+000
 1.4000000E+000, 1.6144785E+000, 0.0000000E+000, 0.0000000E+000
 1.5000000E+000, 1.6145432E+000, 0.0000000E+000, 0.0000000E+000
 1.6000000E+000, 1.6146068E+000, 0.0000000E+000, 0.0000000E+000
 1.7000000E+000, 1.6146711E+000, 0.0000000E+000, 0.0000000E+000
 1.8000000E+000, 1.6147366E+000, 0.0000000E+000, 0.0000000E+000
 1.9000000E+000, 1.6148025E+000, 0.0000000E+000, 0.0000000E+000
 2.0000000E+000, 1.6148686E+000, 0.0000000E+000, 0.0000000E+000
 2.1000000E+000, 1.6149332E+000, 0.0000000E+000, 0.0000000E+000
 2.2000000E+000, 1.6149974E+000, 0.0000000E+000, 0.0000000E+000
 2.3500000E+000, 1.6150760E+000, 0.0000000E+000, 0.0000000E+000
 2.4500000E+000, 1.6151620E+000, 0.0000000E+000, 0.0000000E+000
 2.5500000E+000, 1.6152700E+000, 0.0000000E+000, 0.0000000E+000
 2.6500000E+000, 1.6153457E+000, 0.0000000E+000, 0.0000000E+000
 2.7500000E+000, 1.6154238E+000, 0.0000000E+000, 0.0000000E+000
 2.8500000E+000, 1.6154892E+000, 0.0000000E+000, 0.0000000E+000
 2.9500000E+000, 1.6155595E+000, 0.0000000E+000, 0.0000000E+000
 3.0500000E+000, 1.6156349E+000, 0.0000000E+000, 0.0000000E+000
 3.1500000E+000, 1.6157046E+000, 0.0000000E+000, 0.0000000E+000
 3.2500000E+000, 1.6158040E+000, 0.0000000E+000, 0.0000000E+000
 3.3500000E+000, 1.6158927E+000, 0.0000000E+000, 0.0000000E+000
 3.4500000E+000, 1.6159696E+000, 0.0000000E+000, 0.0000000E+000
 3.5500000E+000, 1.6160015E+000, 0.0000000E+000, 0.0000000E+000
 3.6500000E+000, 1.6160530E+000, 0.0000000E+000, 0.0000000E+000
 3.7448213E+000, 1.6160607E+000, 0.0000000E+000, 0.0000000E+000
 3.8389460E+000, 1.6160958E+000, 0.0000000E+000, 0.0000000E+000
 3.9375528E+000, 1.6161416E+000, 0.0000000E+000, 0.0000000E+000
 4.0361596E+000, 1.6161887E+000, 0.0000000E+000, 0.0000000E+000
 4.1347665E+000, 1.3271549E+000, 0.0000000E+000, 0.0000000E+000
 4.2333733E+000, 9.7794292E-001, 1.8219559E-004,-1.3584083E+000
 4.3319801E+000, 6.7538203E-001, 3.4838914E-004,-2.3384247E+000
 4.4305869E+000, 3.0165722E-001, 3.1998073E-004,-1.7302087E+000
 4.5291938E+000, 6.5823956E-003, 2.8610508E-004,-1.2120239E+000
 4.6064902E+000, 3.0095042E-003, 2.7809414E-004,-1.1484374E+000
 4.7068639E+000, 2.7544541E-003, 2.6901869E-004,-1.0804766E+000
 4.8176580E+000, 2.3778071E-003, 2.5176771E-004,-9.9113418E-001
 4.9059639E+000, 2.2659004E-003, 2.3797311E-004,-1.0657048E+000
 5.0119309E+000, 2.2094521E-003, 1.7496125E-004,-2.1047008E+000
 5.1002368E+000, 2.1597926E-003, 1.5731783E-004,-2.4554666E+000
 5.2115022E+000, 2.1201935E-003, 1.5415313E-004,-2.4749715E+000
 5.3105813E+000, 2.0844066E-003, 1.4986615E-004,-2.5117076E+000
 5.4174314E+000, 2.0486590E-003, 1.4737740E-004,-2.5877261E+000
 5.5029115E+000, 2.0173883E-003, 1.4490214E-004,-2.6212709E+000
 5.6097616E+000, 1.9907156E-003, 1.4394088E-004,-2.6713848E+000
 5.7166117E+000, 1.9595422E-003, 1.4267134E-004,-2.7033320E+000
 5.8106398E+000, 1.9400556E-003, 1.4120938E-004,-2.7327736E+000
 5.9046679E+000, 1.9210542E-003, 1.3992115E-004,-2.7595292E+000
 6.0010467E+000, 1.9047659E-003, 1.3892645E-004,-2.7825023E+000
 6.1044776E+000, 1.8945422E-003, 1.3788323E-004,-2.8066804E+000
 6.2079085E+000, 1.8816204E-003, 1.3686904E-004,-2.8319642E+000
 6.3113394E+000, 1.8706405E-003, 1.3637193E-004,-2.8580889E+000
 6.4147703E+000, 1.8602582E-003, 1.3583279E-004,-2.8829872E+000
 6.5182011E+000, 1.8478372E-003, 1.3507610E-004,-2.9110272E+000
 6.6216320E+000, 1.8394830E-003, 1.3441203E-004,-2.9321283E+000
 6.7250629E+000, 1.8295149E-003, 1.3397214E-004,-2.9517784E+000
 6.8026361E+000, 1.8188693E-003, 1.3346058E-004,-2.9658669E+000
 6.9060670E+000, 1.8102154E-003, 1.3324351E-004,-2.9794356E+000
 7.0094979E+000, 1.7958210E-003, 1.3289583E-004,-2.9922952E+000
 7.1129288E+000, 1.7800107E-003, 1.3241408E-004,-3.0068816E+000
 7.2163597E+000, 1.7655798E-003, 1.3215513E-004,-3.0198086E+000
 7.3197906E+000, 1.7486413E-003, 1.3183911E-004,-3.0309862E+000
 7.4232215E+000, 1.7324040E-003, 1.3181928E-004,-3.0412514E+000
 7.5007947E+000, 1.7177187E-003, 1.3155182E-004,-3.0498649E+000
 7.6042255E+000, 1.7029668E-003, 1.3129986E-004,-3.0552008E+000
 7.7076564E+000, 1.6870424E-003, 1.3096577E-004,-3.0624389E+000
 7.8110873E+000, 1.6683524E-003, 1.3076168E-004,-3.0701452E+000
 7.9145182E+000, 1.6488426E-003, 1.3056990E-004,-3.0772518E+000
 8.0179491E+000, 1.6270423E-003, 1.3033443E-004,-3.0845210E+000
 8.1213800E+000, 1.6035815E-003, 1.2999751E-004,-3.0886166E+000
 8.2248109E+000, 1.5799689E-003, 1.2966069E-004,-3.0938141E+000
 8.3023841E+000, 1.5588955E-003, 1.2960174E-004,-3.0969058E+000
 8.4058150E+000, 1.5344027E-003, 1.2936211E-004,-3.0999614E+000
 8.5092459E+000, 1.5056413E-003, 1.2920410E-004,-3.1039353E+000
 8.6126768E+000, 1.4732810E-003, 1.2900839E-004,-3.1068769E+000
 8.7161077E+000, 1.4380412E-003, 1.2876682E-004,-3.1107720E+000
 8.8195386E+000, 1.4025664E-003, 1.2849395E-004,-3.1176873E+000
 8.9229695E+000, 1.3645433E-003, 1.2827697E-004,-3.1239122E+000
 9.0005426E+000, 1.3325842E-003, 1.2820742E-004,-3.1280773E+000
 9.1039735E+000, 9.8772692E-002, 1.2805056E-004,-3.1314182E+000
 9.2074044E+000, 6.0874014E-001, 1.2803670E-004,-3.1353124E+000
 9.3108353E+000, 1.1867885E+000, 1.2790594E-004,-3.1397990E+000
 9.4142662E+000, 1.4258743E+000, 1.2778656E-004,-3.1451472E+000
 9.5176971E+000, 1.4275089E+000, 1.2776430E-004,-3.1487580E+000
 9.6211280E+000, 1.4295591E+000, 1.2758425E-004,-3.1515580E+000
 9.7245589E+000, 1.4288752E+000, 1.2750078E-004,-3.1542066E+000
 9.8021321E+000, 1.4271289E+000, 1.2730495E-004,-3.1571991E+000
 9.9055630E+000, 1.4269056E+000, 1.2722602E-004,-3.1607929E+000
 1.0008994E+001, 1.4299989E+000, 1.2706911E-004,-3.1639423E+000
 1.0112425E+001, 1.4329954E+000, 1.2703724E-004,-3.1665650E+000
 1.0215856E+001, 1.4351699E+000, 1.2686064E-004,-3.1697983E+000
 1.0319287E+001, 1.4327557E+000, 1.2673285E-004,-3.1726359E+000
 1.0422717E+001, 1.4333528E+000, 1.2658709E-004,-3.1758114E+000
 1.0500291E+001, 1.4360079E+000, 1.2653541E-004,-3.1781636E+000
 1.0603721E+001, 1.4377931E+000, 1.2640705E-004,-3.1795563E+000
 1.0707152E+001, 1.4360709E+000, 1.2628328E-004,-3.1807810E+000
 1.0800158E+001, 1.4315927E+000, 1.2615282E-004,-3.1823555E+000
 1.0916414E+001, 1.4270733E+000, 1.2601072E-004,-3.1843966E+000
 1.1018720E+001, 1.4268477E+000, 1.2593025E-004,-3.1860703E+000
 1.1121026E+001, 1.4252926E+000, 1.2585199E-004,-3.1854534E+000
 1.1223332E+001, 1.4249959E+000, 1.2564964E-004,-3.1851266E+000
 1.1300061E+001, 1.4268612E+000, 1.2564714E-004,-3.1872062E+000
 1.1402367E+001, 1.4321292E+000, 1.2553705E-004,-3.1885203E+000
 1.1504672E+001, 1.4336439E+000, 1.2548167E-004,-3.1906582E+000
 1.1606978E+001, 1.4320282E+000, 1.2547455E-004,-3.1925946E+000
 1.1709284E+001, 1.4319795E+000, 1.2539161E-004,-3.1951981E+000
 1.1811590E+001, 1.4324868E+000, 1.2527343E-004,-3.1968156E+000
 1.1913895E+001, 1.4313265E+000, 1.2517361E-004,-3.1974835E+000
 1.2016201E+001, 1.4298010E+000, 1.2508578E-004,-3.1986215E+000
 1.2118507E+001, 1.4292476E+000, 1.2502446E-004,-3.2003864E+000
 1.2220813E+001, 1.4294253E+000, 1.2497421E-004,-3.2022145E+000
 1.2323119E+001, 1.4306810E+000, 1.2492964E-004,-3.2035152E+000
 1.2425424E+001, 1.4308382E+000, 1.2484600E-004,-3.2047968E+000
 1.2502154E+001, 1.4302579E+000, 1.2488172E-004,-3.2055562E+000
 1.2604459E+001, 1.4267694E+000, 1.2480346E-004,-3.2078720E+000
 1.2706765E+001, 1.4265446E+000, 1.2473411E-004,-3.2096752E+000
 1.2809071E+001, 1.4286073E+000, 1.2472674E-004,-3.2113032E+000
 1.2911377E+001, 1.4299530E+000, 1.2467488E-004,-3.2118210E+000
 1.3013683E+001, 1.4298778E+000, 1.2461838E-004,-3.2123257E+000
 1.3115988E+001, 1.4300012E+000, 1.2464004E-004,-3.2133230E+000
 1.3218294E+001, 1.4292518E+000, 1.2462298E-004,-3.2146237E+000
 1.3320600E+001, 1.4293646E+000, 1.2463151E-004,-3.2165114E+000
 1.3422906E+001, 1.4303663E+000, 1.2455893E-004,-3.2170560E+000
 1.3525211E+001, 1.4292054E+000, 1.2442322E-004,-3.2170891E+000
 1.3601941E+001, 1.4281158E+000, 1.2428034E-004,-3.2182371E+000
 1.3704246E+001, 1.4287511E+000, 1.2421904E-004,-3.2190249E+000
 1.3806552E+001, 1.4273111E+000, 1.2425256E-004,-3.2194309E+000
 1.3908858E+001, 1.4267447E+000, 1.2416006E-004,-3.2197970E+000
 1.4011164E+001, 1.4263463E+000, 1.2413879E-004,-3.2203105E+000
 1.4113470E+001, 1.4291010E+000, 1.2415278E-004,-3.2210111E+000
 1.4215775E+001, 1.4322594E+000, 1.2408288E-004,-3.2220037E+000
 1.4318081E+001, 1.4318603E+000, 1.2409414E-004,-3.2224353E+000
 1.4420387E+001, 1.4293858E+000, 1.2400072E-004,-3.2223445E+000
 1.4522693E+001, 1.4302512E+000, 1.2396963E-004,-3.2231094E+000
 1.4624998E+001, 1.4313424E+000, 1.2390181E-004,-3.2238792E+000
 1.4701728E+001, 1.4308805E+000, 1.2387968E-004,-3.2240637E+000
 1.4804034E+001, 1.4289517E+000, 1.2386075E-004,-3.2251195E+000
 1.4906339E+001, 1.4296519E+000, 1.2383175E-004,-3.2264597E+000
 1.5000000E+001, 1.4296630E+000, 1.2386015E-004,-3.2276478E+000
