s,C,C,C,C,C,C,C
Time,Air Temp,VTT_1,IRSN_1,TRAC_2,TRAC_4,GRS_2,NRC_2
 0.0000000E+000, 2.5000000E+001, 2.5000000E+001, 2.5000000E+001, 2.5000000E+001, 2.5000000E+001, 2.5000000E+001, 2.5000000E+001
 1.0200000E+001, 2.5421647E+001, 2.5000022E+001, 2.5000018E+001, 2.5000026E+001, 2.5000026E+001, 2.5000028E+001, 2.5000209E+001
 2.0200000E+001, 2.6216000E+001, 2.5000614E+001, 2.5000513E+001, 2.5000715E+001, 2.5000725E+001, 2.5000682E+001, 2.5003173E+001
 3.0200000E+001, 2.9182381E+001, 2.5003226E+001, 2.5002708E+001, 2.5003691E+001, 2.5003745E+001, 2.5003274E+001, 2.5011487E+001
 4.0022597E+001, 4.4039391E+001, 2.5012033E+001, 2.5010075E+001, 2.5013758E+001, 2.5013954E+001, 2.5012152E+001, 2.5047478E+001
 5.0029971E+001, 6.0787456E+001, 2.5056885E+001, 2.5047023E+001, 2.5065050E+001, 2.5065933E+001, 2.5056432E+001, 2.5219267E+001
 6.0065752E+001, 7.7638747E+001, 2.5193493E+001, 2.5158768E+001, 2.5219202E+001, 2.5222045E+001, 2.5180101E+001, 2.5599154E+001
 7.0031420E+001, 9.4447704E+001, 2.5458159E+001, 2.5375676E+001, 2.5514455E+001, 2.5520994E+001, 2.5405883E+001, 2.6184550E+001
 8.0043138E+001, 1.1124072E+002, 2.5884724E+001, 2.5724627E+001, 2.5986827E+001, 2.5999154E+001, 2.5754187E+001, 2.7019852E+001
 9.0001533E+001, 1.2803737E+002, 2.6501544E+001, 2.6228163E+001, 2.6665894E+001, 2.6686411E+001, 2.6240566E+001, 2.8106119E+001
 1.0002921E+002, 1.4482579E+002, 2.7338150E+001, 2.6907885E+001, 2.7582988E+001, 2.7614365E+001, 2.6880580E+001, 2.9474582E+001
 1.1003629E+002, 1.6170068E+002, 2.8410638E+001, 2.7777012E+001, 2.8754277E+001, 2.8799407E+001, 2.7683141E+001, 3.1107052E+001
 1.2003382E+002, 1.7309414E+002, 2.9732697E+001, 2.8845787E+001, 3.0193947E+001, 3.0255871E+001, 2.8654702E+001, 3.3017174E+001
 1.3005122E+002, 1.7920573E+002, 3.1298733E+001, 3.0107432E+001, 3.1893215E+001, 3.1974776E+001, 2.9778763E+001, 3.5082084E+001
 1.4003692E+002, 1.8531642E+002, 3.3036041E+001, 3.1501236E+001, 3.3769690E+001, 3.3872757E+001, 3.0989419E+001, 3.7148914E+001
 1.5002727E+002, 1.9142739E+002, 3.4905496E+001, 3.2990367E+001, 3.5782378E+001, 3.5908181E+001, 3.2257990E+001, 3.9271377E+001
 1.6003525E+002, 1.9753329E+002, 3.6893872E+001, 3.4560981E+001, 3.7917691E+001, 3.8067194E+001, 3.3574940E+001, 4.1432313E+001
 1.7000567E+002, 2.0363961E+002, 3.8972723E+001, 3.6190943E+001, 4.0145643E+001, 4.0319679E+001, 3.4927954E+001, 4.3601501E+001
 1.8001416E+002, 2.0974334E+002, 4.1146011E+001, 3.7881698E+001, 4.2472520E+001, 4.2671942E+001, 3.6325897E+001, 4.5872352E+001
 1.9003830E+002, 2.1586053E+002, 4.3434136E+001, 3.9648569E+001, 4.4920278E+001, 4.5145990E+001, 3.7781139E+001, 4.8233426E+001
 2.0003336E+002, 2.2198017E+002, 4.5825625E+001, 4.1483369E+001, 4.7476287E+001, 4.7729109E+001, 3.9286340E+001, 5.0682784E+001
 2.1004311E+002, 2.3103218E+002, 4.8329579E+001, 4.3393147E+001, 5.0150717E+001, 5.0431534E+001, 4.0850846E+001, 5.3238722E+001
 2.2001266E+002, 2.4294495E+002, 5.0966750E+001, 4.5397574E+001, 5.2967052E+001, 5.3277026E+001, 4.2499378E+001, 5.5998343E+001
 2.3004215E+002, 2.5486712E+002, 5.3798617E+001, 4.7548914E+001, 5.5993829E+001, 5.6335115E+001, 4.4286829E+001, 5.9055783E+001
 2.4004476E+002, 2.6681173E+002, 5.6876655E+001, 4.9892178E+001, 5.9286516E+001, 5.9662018E+001, 4.6254443E+001, 6.2443604E+001
 2.5001825E+002, 2.7871225E+002, 6.0220505E+001, 5.2445113E+001, 6.2864892E+001, 6.3277660E+001, 4.8411513E+001, 6.6155678E+001
 2.6003905E+002, 2.9063478E+002, 6.3871557E+001, 5.5241056E+001, 6.6771540E+001, 6.7224752E+001, 5.0780365E+001, 7.0240268E+001
 2.7000337E+002, 3.0255733E+002, 6.7845782E+001, 5.8293752E+001, 7.1021865E+001, 7.1518715E+001, 5.3368815E+001, 7.4671541E+001
 2.8003380E+002, 3.1446624E+002, 7.2158499E+001, 6.1615685E+001, 7.5630947E+001, 7.6174762E+001, 5.6184595E+001, 7.9451202E+001
 2.9000042E+002, 3.2639094E+002, 7.6818751E+001, 6.5214579E+001, 8.0607260E+001, 8.1201238E+001, 5.9233514E+001, 8.4601568E+001
 3.0000147E+002, 3.3829559E+002, 8.1833821E+001, 6.9095762E+001, 8.5958013E+001, 8.6605309E+001, 6.2519124E+001, 9.0110721E+001
 3.1000753E+002, 3.5021918E+002, 8.7235111E+001, 7.3284121E+001, 9.1716019E+001, 9.2419958E+001, 6.6064789E+001, 9.6026862E+001
 3.2002895E+002, 3.6215509E+002, 9.3030517E+001, 7.7789215E+001, 9.7886863E+001, 9.8650231E+001, 6.9878710E+001, 1.0235480E+002
 3.3003334E+002, 3.7409701E+002, 9.9235362E+001, 8.2621273E+001, 1.0448822E+002, 1.0531419E+002, 7.3972489E+001, 1.0911498E+002
 3.4002250E+002, 3.8261180E+002, 1.0584097E+002, 8.7774878E+001, 1.1150713E+002, 1.1239820E+002, 7.8335937E+001, 1.1622370E+002
 3.5003082E+002, 3.8779198E+002, 1.1280275E+002, 9.3215055E+001, 1.1888813E+002, 1.1984536E+002, 8.2920289E+001, 1.2348083E+002
 3.6002735E+002, 3.9296939E+002, 1.1999783E+002, 9.8835517E+001, 1.2649373E+002, 1.2751635E+002, 8.7609167E+001, 1.3066578E+002
 3.7003173E+002, 3.9814812E+002, 1.2733005E+002, 1.0455988E+002, 1.3421876E+002, 1.3530403E+002, 9.2347294E+001, 1.3782877E+002
 3.8000287E+002, 4.0332173E+002, 1.3475005E+002, 1.1034505E+002, 1.4201404E+002, 1.4315887E+002, 9.7108718E+001, 1.4495189E+002
 3.9001797E+002, 4.0849625E+002, 1.4225731E+002, 1.1618942E+002, 1.4988149E+002, 1.5108274E+002, 1.0190889E+002, 1.5212075E+002
 4.0000229E+002, 4.1367237E+002, 1.4984138E+002, 1.2208991E+002, 1.5781018E+002, 1.5906459E+002, 1.0675064E+002, 1.5930777E+002
 4.1002901E+002, 4.1885695E+002, 1.5748931E+002, 1.2803540E+002, 1.6578835E+002, 1.6709293E+002, 1.1162456E+002, 1.6649793E+002
 4.2002138E+002, 4.2403946E+002, 1.6519794E+002, 1.3402559E+002, 1.7381432E+002, 1.7516620E+002, 1.1653520E+002, 1.7375321E+002
 4.3001050E+002, 4.2921434E+002, 1.7295220E+002, 1.4005759E+002, 1.8187054E+002, 1.8326637E+002, 1.2148843E+002, 1.8104979E+002
 4.4000009E+002, 4.3438474E+002, 1.8075401E+002, 1.4614036E+002, 1.8995773E+002, 1.9139413E+002, 1.2649239E+002, 1.8839992E+002
 4.5002668E+002, 4.3956935E+002, 1.8863615E+002, 1.5229693E+002, 1.9811416E+002, 1.9958849E+002, 1.3156353E+002, 1.9584634E+002
 4.6000555E+002, 4.4474900E+002, 1.9655900E+002, 1.5850468E+002, 2.0629495E+002, 2.0780407E+002, 1.3668494E+002, 2.0331218E+002
 4.7000580E+002, 4.4992279E+002, 2.0451121E+002, 1.6475754E+002, 2.1448876E+002, 2.1602941E+002, 1.4185236E+002, 2.1082124E+002
 4.8000413E+002, 4.5510026E+002, 2.1252465E+002, 1.7108154E+002, 2.2273073E+002, 2.2429993E+002, 1.4708748E+002, 2.1845093E+002
 4.9001344E+002, 4.6028070E+002, 2.2058027E+002, 1.7746559E+002, 2.3099858E+002, 2.3259332E+002, 1.5237898E+002, 2.2605857E+002
 5.0001504E+002, 4.6546153E+002, 2.2864041E+002, 1.8389145E+002, 2.3925054E+002, 2.4086748E+002, 1.5772399E+002, 2.3366611E+002
 5.1003101E+002, 4.7064394E+002, 2.3670589E+002, 1.9036263E+002, 2.4748945E+002, 2.4912534E+002, 1.6312857E+002, 2.4134954E+002
 5.2000167E+002, 4.7582046E+002, 2.4478210E+002, 1.9687960E+002, 2.5572344E+002, 2.5737521E+002, 1.6858636E+002, 2.4905117E+002
 5.3002327E+002, 4.8099928E+002, 2.5286249E+002, 2.0344260E+002, 2.6394378E+002, 2.6560840E+002, 1.7409952E+002, 2.5678170E+002
 5.4002221E+002, 4.8617992E+002, 2.6096622E+002, 2.1007141E+002, 2.7217156E+002, 2.7384606E+002, 1.7969311E+002, 2.6460830E+002
 5.5002999E+002, 4.9136283E+002, 2.6906464E+002, 2.1674592E+002, 2.8037528E+002, 2.8205655E+002, 1.8534261E+002, 2.7238868E+002
 5.6000074E+002, 4.9653475E+002, 2.7713652E+002, 2.2345042E+002, 2.8853453E+002, 2.9021953E+002, 1.9103888E+002, 2.8022881E+002
 5.7001835E+002, 5.0170863E+002, 2.8523508E+002, 2.3021894E+002, 2.9670863E+002, 2.9839484E+002, 1.9680367E+002, 2.8812980E+002
 5.8002999E+002, 5.0689673E+002, 2.9335274E+002, 2.3705076E+002, 3.0488802E+002, 3.0657312E+002, 2.0263813E+002, 2.9607801E+002
 5.9002391E+002, 5.1207628E+002, 3.0145305E+002, 2.4391566E+002, 3.1303563E+002, 3.1471763E+002, 2.0851521E+002, 3.0395548E+002
 6.0001631E+002, 5.1725107E+002, 3.0952450E+002, 2.5080803E+002, 3.2113969E+002, 3.2281629E+002, 2.1443778E+002, 3.1190067E+002
 6.1001738E+002, 5.2242888E+002, 3.1759165E+002, 2.5774555E+002, 3.2922637E+002, 3.3089538E+002, 2.2041732E+002, 3.1981584E+002
 6.2002123E+002, 5.2500000E+002, 3.2560362E+002, 2.6469586E+002, 3.3723881E+002, 3.3889784E+002, 2.2642665E+002, 3.2762194E+002
 6.3001962E+002, 5.2500000E+002, 3.3350708E+002, 2.7160213E+002, 3.4512102E+002, 3.4676738E+002, 2.3238687E+002, 3.3509343E+002
 6.4001752E+002, 5.2500000E+002, 3.4115572E+002, 2.7833274E+002, 3.5271457E+002, 3.5434458E+002, 2.3815295E+002, 3.4204306E+002
 6.5002931E+002, 5.2500000E+002, 3.4846581E+002, 2.8481051E+002, 3.5993287E+002, 3.6154237E+002, 2.4366198E+002, 3.4840131E+002
 6.6001300E+002, 5.2500000E+002, 3.5535698E+002, 2.9097473E+002, 3.6669604E+002, 3.6828091E+002, 2.4888645E+002, 3.5429054E+002
 6.7002378E+002, 5.3143515E+002, 3.6190517E+002, 2.9687049E+002, 3.7309919E+002, 3.7465714E+002, 2.5387711E+002, 3.5998521E+002
 6.8001292E+002, 5.4420651E+002, 3.6832365E+002, 3.0268167E+002, 3.7938480E+002, 3.8091625E+002, 2.5887396E+002, 3.6632319E+002
 6.9000665E+002, 5.5697352E+002, 3.7497570E+002, 3.0874512E+002, 3.8594698E+002, 3.8745573E+002, 2.6425512E+002, 3.7373309E+002
 7.0000086E+002, 5.6974883E+002, 3.8216345E+002, 3.1532022E+002, 3.9310246E+002, 3.9459375E+002, 2.7022429E+002, 3.8237439E+002
 7.1001410E+002, 5.8252612E+002, 3.8995558E+002, 3.2248967E+002, 4.0089944E+002, 4.0237705E+002, 2.7681416E+002, 3.9173542E+002
 7.2002495E+002, 5.9532246E+002, 3.9827650E+002, 3.3021950E+002, 4.0924287E+002, 4.1070918E+002, 2.8398779E+002, 4.0173223E+002
 7.3000338E+002, 6.0809275E+002, 4.0711243E+002, 3.3849200E+002, 4.1811688E+002, 4.1957373E+002, 2.9172106E+002, 4.1228868E+002
 7.4001252E+002, 6.2086229E+002, 4.1643034E+002, 3.4727481E+002, 4.2748156E+002, 4.2892982E+002, 2.9997469E+002, 4.2340288E+002
 7.5002340E+002, 6.3365246E+002, 4.2623562E+002, 3.5656108E+002, 4.3734084E+002, 4.3878088E+002, 3.0873956E+002, 4.3499597E+002
 7.6000627E+002, 6.4055870E+002, 4.3644365E+002, 3.6626901E+002, 4.4760306E+002, 4.4903464E+002, 3.1793101E+002, 4.4681700E+002
 7.7000036E+002, 6.4166863E+002, 4.4678182E+002, 3.7615739E+002, 4.5796010E+002, 4.5937993E+002, 3.2724449E+002, 4.5780372E+002
 7.8002332E+002, 6.4278051E+002, 4.5680949E+002, 3.8581953E+002, 4.6793734E+002, 4.6933893E+002, 3.3622713E+002, 4.6754957E+002
 7.9002172E+002, 6.4389279E+002, 4.6631720E+002, 3.9502734E+002, 4.7733605E+002, 4.7871352E+002, 3.4469285E+002, 4.7625691E+002
 8.0002707E+002, 6.4500400E+002, 4.7527801E+002, 4.0372824E+002, 4.8615091E+002, 4.8750002E+002, 3.5263865E+002, 4.8434903E+002
 8.1001728E+002, 6.4611514E+002, 4.8372124E+002, 4.1194053E+002, 4.9442028E+002, 4.9573787E+002, 3.6010032E+002, 4.9170169E+002
 8.2000091E+002, 6.4722465E+002, 4.9163574E+002, 4.1966901E+002, 5.0213869E+002, 5.0342263E+002, 3.6711384E+002, 4.9855732E+002
 8.3002575E+002, 6.4833640E+002, 4.9912154E+002, 4.2700581E+002, 5.0941646E+002, 5.1066563E+002, 3.7377524E+002, 5.0499362E+002
 8.4001318E+002, 6.4944820E+002, 5.0616493E+002, 4.3395320E+002, 5.1623850E+002, 5.1745230E+002, 3.8008453E+002, 5.1098094E+002
 8.5002000E+002, 6.5055926E+002, 5.1282481E+002, 4.4056020E+002, 5.2267255E+002, 5.2385091E+002, 3.8608964E+002, 5.1671474E+002
 8.6001076E+002, 6.5166995E+002, 5.1913056E+002, 4.4686227E+002, 5.2874567E+002, 5.2988867E+002, 3.9181599E+002, 5.2207366E+002
 8.7000936E+002, 6.5278006E+002, 5.2509307E+002, 4.5288186E+002, 5.3447171E+002, 5.3557986E+002, 3.9729399E+002, 5.2723071E+002
 8.8002542E+002, 6.5389234E+002, 5.3078349E+002, 4.5868073E+002, 5.3992592E+002, 5.4099974E+002, 4.0257350E+002, 5.3217638E+002
 8.9000274E+002, 6.5500305E+002, 5.3621969E+002, 4.6427475E+002, 5.4512794E+002, 5.4616794E+002, 4.0766781E+002, 5.3702318E+002
 9.0002367E+002, 6.5611411E+002, 5.4142891E+002, 4.6969429E+002, 5.5010288E+002, 5.5110958E+002, 4.1259899E+002, 5.4163016E+002
 9.1002375E+002, 6.5722642E+002, 5.4640918E+002, 4.7494513E+002, 5.5484819E+002, 5.5582236E+002, 4.1737488E+002, 5.4613767E+002
 9.2001469E+002, 6.5833694E+002, 5.5118289E+002, 4.8003986E+002, 5.5938880E+002, 5.6033122E+002, 4.2200054E+002, 5.5039540E+002
 9.3000542E+002, 6.5944701E+002, 5.5569808E+002, 4.8494936E+002, 5.6366610E+002, 5.6457744E+002, 4.2645291E+002, 5.5434849E+002
 9.4000051E+002, 6.5366324E+002, 5.5995969E+002, 4.8967431E+002, 5.6768756E+002, 5.6856865E+002, 4.3072985E+002, 5.5800726E+002
 9.5000925E+002, 6.4103116E+002, 5.6373823E+002, 4.9401032E+002, 5.7119107E+002, 5.7204015E+002, 4.3454073E+002, 5.6024791E+002
 9.6001602E+002, 6.2838893E+002, 5.6662457E+002, 4.9757224E+002, 5.7373798E+002, 5.7455010E+002, 4.3744861E+002, 5.6086219E+002
 9.7002672E+002, 6.1574585E+002, 5.6849959E+002, 5.0022229E+002, 5.7522161E+002, 5.7599185E+002, 4.3936221E+002, 5.6010003E+002
 9.8001605E+002, 6.0311126E+002, 5.6932935E+002, 5.0193535E+002, 5.7562006E+002, 5.7634486E+002, 4.4032363E+002, 5.5819780E+002
 9.9000626E+002, 5.9049648E+002, 5.6922634E+002, 5.0280976E+002, 5.7506747E+002, 5.7574513E+002, 4.4048014E+002, 5.5560922E+002
 1.0000100E+003, 5.7786806E+002, 5.6829678E+002, 5.0295118E+002, 5.7367674E+002, 5.7430622E+002, 4.3994852E+002, 5.5233742E+002
 1.0100101E+003, 5.6523166E+002, 5.6663185E+002, 5.0245143E+002, 5.7154658E+002, 5.7212734E+002, 4.3883092E+002, 5.4859617E+002
 1.0200222E+003, 5.5259146E+002, 5.6430518E+002, 5.0138872E+002, 5.6875160E+002, 5.6928356E+002, 4.3720243E+002, 5.4430728E+002
 1.0300104E+003, 5.3996289E+002, 5.6137180E+002, 4.9982337E+002, 5.6534977E+002, 5.6583319E+002, 4.3512982E+002, 5.3969002E+002
 1.0400145E+003, 5.2733005E+002, 5.5793190E+002, 4.9784359E+002, 5.6144759E+002, 5.6188296E+002, 4.3269617E+002, 5.3486287E+002
 1.0500186E+003, 5.1469519E+002, 5.5403792E+002, 4.9550540E+002, 5.5709480E+002, 5.5748257E+002, 4.2994829E+002, 5.2962223E+002
 1.0600191E+003, 5.0205853E+002, 5.4969464E+002, 4.9282320E+002, 5.5229596E+002, 5.5263672E+002, 4.2690655E+002, 5.2427603E+002
 1.0700016E+003, 4.8944218E+002, 5.4504457E+002, 4.8990058E+002, 5.4720400E+002, 5.4749844E+002, 4.2366280E+002, 5.1886440E+002
 1.0800106E+003, 4.7681815E+002, 5.4008376E+002, 4.8674888E+002, 5.4180695E+002, 5.4205569E+002, 4.2022273E+002, 5.1318432E+002
 1.0900328E+003, 4.6416103E+002, 5.3475887E+002, 4.8333753E+002, 5.3604407E+002, 5.3624759E+002, 4.1656026E+002, 5.0716367E+002
 1.1000019E+003, 4.5153419E+002, 5.2917486E+002, 4.7973555E+002, 5.3003425E+002, 5.3019338E+002, 4.1275392E+002, 5.0125361E+002
 1.1100223E+003, 4.3890862E+002, 5.2335506E+002, 4.7596587E+002, 5.2379550E+002, 5.2391088E+002, 4.0881431E+002, 4.9504480E+002
 1.1200258E+003, 4.2626470E+002, 5.1723730E+002, 4.7199038E+002, 5.1725943E+002, 5.1733171E+002, 4.0471388E+002, 4.8863040E+002
 1.1300101E+003, 4.1748256E+002, 5.1096385E+002, 4.6790299E+002, 5.1058530E+002, 5.1061565E+002, 4.0054924E+002, 4.8248243E+002
 1.1400086E+003, 4.1248865E+002, 5.0468177E+002, 4.6381748E+002, 5.0393048E+002, 5.0392066E+002, 3.9643256E+002, 4.7669230E+002
 1.1500240E+003, 4.0748350E+002, 4.9846206E+002, 4.5981056E+002, 4.9736663E+002, 4.9731933E+002, 3.9244989E+002, 4.7121147E+002
 1.1600242E+003, 4.0247995E+002, 4.9235691E+002, 4.5593227E+002, 4.9094424E+002, 4.9086258E+002, 3.8864106E+002, 4.6592663E+002
 1.1700121E+003, 3.9748061E+002, 4.8636613E+002, 4.5218307E+002, 4.8465907E+002, 4.8454610E+002, 3.8499932E+002, 4.6086854E+002
 1.1800236E+003, 3.9248191E+002, 4.8050963E+002, 4.4856790E+002, 4.7853107E+002, 4.7838933E+002, 3.8151602E+002, 4.5604763E+002
 1.1900102E+003, 3.8748245E+002, 4.7481332E+002, 4.4509214E+002, 4.7258529E+002, 4.7241683E+002, 3.7818240E+002, 4.5146305E+002
 1.2000028E+003, 3.8248687E+002, 4.6927327E+002, 4.4174366E+002, 4.6681403E+002, 4.6662057E+002, 3.7498333E+002, 4.4700891E+002
 1.2100385E+003, 3.7748303E+002, 4.6381114E+002, 4.3846862E+002, 4.6113086E+002, 4.6091402E+002, 3.7187409E+002, 4.4250986E+002
 1.2200306E+003, 3.7247166E+002, 4.5844432E+002, 4.3526748E+002, 4.5555661E+002, 4.5531804E+002, 3.6885666E+002, 4.3812406E+002
 1.2300387E+003, 3.6747443E+002, 4.5316330E+002, 4.3212543E+002, 4.5007946E+002, 4.4982060E+002, 3.6591766E+002, 4.3378602E+002
 1.2400007E+003, 3.6247891E+002, 4.4794638E+002, 4.2902197E+002, 4.4467571E+002, 4.4439773E+002, 3.6304116E+002, 4.2945777E+002
 1.2500371E+003, 3.5748193E+002, 4.4281420E+002, 4.2596595E+002, 4.3937048E+002, 4.3907449E+002, 3.6023626E+002, 4.2526454E+002
 1.2600373E+003, 3.5247125E+002, 4.3772804E+002, 4.2292770E+002, 4.3411829E+002, 4.3380518E+002, 3.5747200E+002, 4.2099469E+002
 1.2700328E+003, 3.4747265E+002, 4.3269508E+002, 4.1990582E+002, 4.2892770E+002, 4.2859839E+002, 3.5475438E+002, 4.1676601E+002
 1.2800054E+003, 3.4247989E+002, 4.2772891E+002, 4.1690778E+002, 4.2381383E+002, 4.2346921E+002, 3.5208776E+002, 4.1260198E+002
 1.2900123E+003, 3.3748537E+002, 4.2278310E+002, 4.1390049E+002, 4.1872439E+002, 4.1836510E+002, 3.4943961E+002, 4.0831842E+002
 1.3000149E+003, 3.3248308E+002, 4.1787918E+002, 4.1089492E+002, 4.1368673E+002, 4.1331350E+002, 3.4682597E+002, 4.0424074E+002
 1.3100238E+003, 3.2748226E+002, 4.1305873E+002, 4.0791879E+002, 4.0874272E+002, 4.0835620E+002, 3.4426309E+002, 4.0020902E+002
 1.3200151E+003, 3.2248042E+002, 4.0833029E+002, 4.0497907E+002, 4.0390036E+002, 4.0350111E+002, 3.4175562E+002, 3.9625947E+002
 1.3300222E+003, 3.1748168E+002, 4.0365273E+002, 4.0204570E+002, 3.9911305E+002, 3.9870136E+002, 3.3927379E+002, 3.9231230E+002
 1.3400346E+003, 3.1247578E+002, 3.9905693E+002, 3.9913856E+002, 3.9441672E+002, 3.9399298E+002, 3.3683835E+002, 3.8847935E+002
 1.3500280E+003, 3.0747442E+002, 3.9451831E+002, 3.9624301E+002, 3.8978131E+002, 3.8934586E+002, 3.3443309E+002, 3.8461519E+002
 1.3600311E+003, 3.0247588E+002, 3.9006384E+002, 3.9337864E+002, 3.8523862E+002, 3.8479188E+002, 3.3207924E+002, 3.8091944E+002
 1.3700358E+003, 2.9747283E+002, 3.8567260E+002, 3.9053100E+002, 3.8076265E+002, 3.8030484E+002, 3.2975351E+002, 3.7713924E+002
 1.3800237E+003, 2.9247429E+002, 3.8126731E+002, 3.8765162E+002, 3.7626870E+002, 3.7580018E+002, 3.2742336E+002, 3.7312626E+002
 1.3900230E+003, 2.8747713E+002, 3.7681594E+002, 3.8471745E+002, 3.7172697E+002, 3.7124833E+002, 3.2508037E+002, 3.6905801E+002
 1.4000162E+003, 2.8248169E+002, 3.7235445E+002, 3.8174994E+002, 3.6717871E+002, 3.6669045E+002, 3.2274065E+002, 3.6506621E+002
 1.4100302E+003, 2.7747765E+002, 3.6795493E+002, 3.7879750E+002, 3.6270239E+002, 3.6220484E+002, 3.2044023E+002, 3.6125649E+002
 1.4200109E+003, 2.7247910E+002, 3.6361672E+002, 3.7586297E+002, 3.5829237E+002, 3.5778582E+002, 3.1817337E+002, 3.5746764E+002
 1.4300234E+003, 2.6748211E+002, 3.5931821E+002, 3.7293349E+002, 3.5392410E+002, 3.5340873E+002, 3.1592571E+002, 3.5366203E+002
 1.4400013E+003, 2.6248239E+002, 3.5505734E+002, 3.7000922E+002, 3.4959624E+002, 3.4907232E+002, 3.1370099E+002, 3.4987683E+002
 1.4500350E+003, 2.5748140E+002, 3.5080390E+002, 3.6707136E+002, 3.4527596E+002, 3.4474374E+002, 3.1148351E+002, 3.4603962E+002
 1.4600061E+003, 2.5247782E+002, 3.4657030E+002, 3.6412675E+002, 3.4097787E+002, 3.4043766E+002, 3.0928063E+002, 3.4222617E+002
 1.4700012E+003, 2.4749074E+002, 3.4237996E+002, 3.6119327E+002, 3.3672706E+002, 3.3617909E+002, 3.0710730E+002, 3.3851028E+002
 1.4800018E+003, 2.4248937E+002, 3.3825252E+002, 3.5828352E+002, 3.3254573E+002, 3.3199026E+002, 3.0497027E+002, 3.3497275E+002
 1.4900347E+003, 2.3748172E+002, 3.3422637E+002, 3.5541838E+002, 3.2847294E+002, 3.2790992E+002, 3.0287416E+002, 3.3153149E+002
 1.5000060E+003, 2.3247786E+002, 3.3026611E+002, 3.5257707E+002, 3.2446606E+002, 3.2389534E+002, 3.0079711E+002, 3.2806704E+002
 1.5100160E+003, 2.2748356E+002, 3.2634553E+002, 3.4974764E+002, 3.2049847E+002, 3.1992017E+002, 2.9874047E+002, 3.2454799E+002
 1.5200053E+003, 2.2248187E+002, 3.2241348E+002, 3.4689710E+002, 3.1651691E+002, 3.1593130E+002, 2.9668636E+002, 3.2093490E+002
 1.5300288E+003, 2.1747971E+002, 3.1849163E+002, 3.4404423E+002, 3.1254728E+002, 3.1195457E+002, 2.9465159E+002, 3.1739870E+002
 1.5400455E+003, 2.1246978E+002, 3.1458597E+002, 3.4119085E+002, 3.0859521E+002, 3.0799562E+002, 2.9263098E+002, 3.1382859E+002
