s,C,C,C,C,C,C,C
Time,"Air Temp","VTT_1","IRSN_1","TRAC_2","TRAC_4","GRS_2","NRC_2"
 0.0000000E+000, 2.5000000E+001, 2.5000000E+001, 2.5000000E+001, 2.5000000E+001, 2.5000000E+001, 2.5000000E+001, 2.5000000E+001
 1.0200000E+001, 2.5421647E+001, 2.5000022E+001, 2.5000018E+001, 2.5000026E+001, 2.5000026E+001, 2.5000028E+001, 2.5000209E+001
 2.0200000E+001, 2.6216000E+001, 2.5000614E+001, 2.5000513E+001, 2.5000715E+001, 2.5000725E+001, 2.5000682E+001, 2.5003174E+001
 3.0200000E+001, 2.9182381E+001, 2.5003229E+001, 2.5002710E+001, 2.5003695E+001, 2.5003749E+001, 2.5003276E+001, 2.5011513E+001
 4.0120604E+001, 4.4170975E+001, 2.5012210E+001, 2.5010215E+001, 2.5013962E+001, 2.5014161E+001, 2.5012327E+001, 2.5048350E+001
 5.0028735E+001, 6.0875300E+001, 2.5057151E+001, 2.5047259E+001, 2.5065386E+001, 2.5066279E+001, 2.5056854E+001, 2.5218115E+001
 6.0063591E+001, 7.7626870E+001, 2.5192386E+001, 2.5158034E+001, 2.5218102E+001, 2.5220965E+001, 2.5180158E+001, 2.5597159E+001
 7.0065513E+001, 9.4472788E+001, 2.5462894E+001, 2.5379237E+001, 2.5520157E+001, 2.5526787E+001, 2.5410753E+001, 2.6208337E+001
 8.0061608E+001, 1.1128401E+002, 2.5898528E+001, 2.5735206E+001, 2.6002488E+001, 2.6015011E+001, 2.5764982E+001, 2.7048989E+001
 9.0024583E+001, 1.2807226E+002, 2.6523944E+001, 2.6244860E+001, 2.6690913E+001, 2.6711700E+001, 2.6255888E+001, 2.8150116E+001
 1.0004004E+002, 1.4488093E+002, 2.7362351E+001, 2.6926359E+001, 2.7609400E+001, 2.7641081E+001, 2.6896210E+001, 2.9494446E+001
 1.1000438E+002, 1.6167552E+002, 2.8429749E+001, 2.7792871E+001, 2.8774898E+001, 2.8820335E+001, 2.7697484E+001, 3.1123555E+001
 1.2004129E+002, 1.7308387E+002, 2.9750331E+001, 2.8862236E+001, 3.0212890E+001, 3.0275195E+001, 2.8672536E+001, 3.3026654E+001
 1.3000204E+002, 1.7919934E+002, 3.1314117E+001, 3.0124071E+001, 3.1909988E+001, 3.1991998E+001, 2.9800138E+001, 3.5106454E+001
 1.4002113E+002, 1.8530099E+002, 3.3058364E+001, 3.1523553E+001, 3.3794272E+001, 3.3897839E+001, 3.1016408E+001, 3.7183259E+001
 1.5001863E+002, 1.9141756E+002, 3.4928252E+001, 3.3014925E+001, 3.5806785E+001, 3.5933167E+001, 3.2286590E+001, 3.9275492E+001
 1.6000185E+002, 1.9752442E+002, 3.6907203E+001, 3.4580817E+001, 3.7932017E+001, 3.8082164E+001, 3.3603760E+001, 4.1431761E+001
 1.7002736E+002, 2.0363340E+002, 3.8995533E+001, 3.6219120E+001, 4.0171095E+001, 4.0345923E+001, 3.4969166E+001, 4.3653820E+001
 1.8002218E+002, 2.0974998E+002, 4.1197181E+001, 3.7930241E+001, 4.2529015E+001, 4.2729352E+001, 3.6383382E+001, 4.5978886E+001
 1.9002130E+002, 2.1585974E+002, 4.3498663E+001, 3.9706591E+001, 4.4990443E+001, 4.5217061E+001, 3.7843267E+001, 4.8335899E+001
 2.0002107E+002, 2.2197463E+002, 4.5902292E+001, 4.1550884E+001, 4.7558843E+001, 4.7812577E+001, 3.9355282E+001, 5.0792828E+001
 2.1002790E+002, 2.3101977E+002, 4.8409516E+001, 4.3464600E+001, 5.0235781E+001, 5.0517544E+001, 4.0921395E+001, 5.3315461E+001
 2.2000307E+002, 2.4292883E+002, 5.1036458E+001, 4.5463085E+001, 5.3040815E+001, 5.3351872E+001, 4.2565379E+001, 5.6040597E+001
 2.3000357E+002, 2.5483993E+002, 5.3858393E+001, 4.7607517E+001, 5.6057720E+001, 5.6400213E+001, 4.4351161E+001, 5.9103937E+001
 2.4002798E+002, 2.6677513E+002, 5.6940925E+001, 4.9953449E+001, 5.9356194E+001, 5.9732997E+001, 4.6323918E+001, 6.2527096E+001
 2.5001051E+002, 2.7869972E+002, 6.0308514E+001, 5.2523653E+001, 6.2960327E+001, 6.3374460E+001, 4.8497125E+001, 6.6282985E+001
 2.6002948E+002, 2.9062821E+002, 6.3968698E+001, 5.5327747E+001, 6.6876126E+001, 6.7330823E+001, 5.0872672E+001, 7.0333290E+001
 2.7003373E+002, 3.0256378E+002, 6.7942165E+001, 5.8381074E+001, 7.1124900E+001, 7.1623365E+001, 5.3459183E+001, 7.4740195E+001
 2.8003805E+002, 3.1448763E+002, 7.2254530E+001, 6.1703410E+001, 7.5733342E+001, 7.6278639E+001, 5.6275191E+001, 7.9556151E+001
 2.9003004E+002, 3.2641283E+002, 7.6924187E+001, 6.5310455E+001, 8.0719088E+001, 8.1314277E+001, 5.9330573E+001, 8.4736967E+001
 3.0001482E+002, 3.3832010E+002, 8.1959886E+001, 6.9208736E+001, 8.6090495E+001, 8.6738590E+001, 6.2629958E+001, 9.0296709E+001
 3.1002633E+002, 3.5024277E+002, 8.7380994E+001, 7.3412782E+001, 9.1868254E+001, 9.2572657E+001, 6.6187698E+001, 9.6244793E+001
 3.2001601E+002, 3.6216168E+002, 9.3195530E+001, 7.7930819E+001, 9.8059717E+001, 9.8823690E+001, 7.0011905E+001, 1.0258402E+002
 3.3001601E+002, 3.7408171E+002, 9.9402364E+001, 8.2763926E+001, 1.0466195E+002, 1.0548845E+002, 7.4102822E+001, 1.0930984E+002
 3.4000051E+002, 3.8260419E+002, 1.0601507E+002, 8.7922369E+001, 1.1168829E+002, 1.1257991E+002, 7.8470131E+001, 1.1645425E+002
 3.5002642E+002, 3.8778356E+002, 1.1300788E+002, 9.3386950E+001, 1.1910220E+002, 1.2006005E+002, 8.3077467E+001, 1.2377525E+002
 3.6002948E+002, 3.9296870E+002, 1.2023784E+002, 9.9036885E+001, 1.2674292E+002, 1.2776595E+002, 8.7789359E+001, 1.3099196E+002
 3.7002579E+002, 3.9814846E+002, 1.2759156E+002, 1.0477119E+002, 1.3449242E+002, 1.3557866E+002, 9.2527129E+001, 1.3812678E+002
 3.8000987E+002, 4.0332225E+002, 1.3504499E+002, 1.1056687E+002, 1.4232823E+002, 1.4347517E+002, 9.7292514E+001, 1.4528906E+002
 3.9003738E+002, 4.0850132E+002, 1.4260249E+002, 1.1643239E+002, 1.5025438E+002, 1.5145914E+002, 1.0210356E+002, 1.5248157E+002
 4.0001140E+002, 4.1368195E+002, 1.5023337E+002, 1.2234534E+002, 1.5824039E+002, 1.5950013E+002, 1.0694261E+002, 1.5968422E+002
 4.1002193E+002, 4.1885679E+002, 1.5790227E+002, 1.2828871E+002, 1.6624509E+002, 1.6755619E+002, 1.1180161E+002, 1.6684990E+002
 4.2003331E+002, 4.2404171E+002, 1.6562720E+002, 1.3428164E+002, 1.7428899E+002, 1.7564785E+002, 1.1670720E+002, 1.7410587E+002
 4.3003125E+002, 4.2922145E+002, 1.7341599E+002, 1.4032674E+002, 1.8238455E+002, 1.8378810E+002, 1.2165971E+002, 1.8143583E+002
 4.4003096E+002, 4.3439906E+002, 1.8125789E+002, 1.4642396E+002, 1.9051822E+002, 1.9196332E+002, 1.2666246E+002, 1.8881410E+002
 4.5000233E+002, 4.3957115E+002, 1.8913751E+002, 1.5256937E+002, 1.9867320E+002, 2.0015668E+002, 1.3171869E+002, 1.9621194E+002
 4.6001685E+002, 4.4474545E+002, 1.9705509E+002, 1.5877054E+002, 2.0684819E+002, 2.0836658E+002, 1.3683752E+002, 2.0368589E+002
 4.7002209E+002, 4.4993071E+002, 2.0504517E+002, 1.6504710E+002, 2.1508430E+002, 2.1663487E+002, 1.4202546E+002, 2.1125857E+002
 4.8000668E+002, 4.5510404E+002, 2.1307764E+002, 1.7137937E+002, 2.2334782E+002, 2.2492744E+002, 1.4726623E+002, 2.1886746E+002
 4.9003025E+002, 4.6028522E+002, 2.2114376E+002, 1.7776973E+002, 2.3162606E+002, 2.3323119E+002, 1.5256395E+002, 2.2651809E+002
 5.0002424E+002, 4.6546809E+002, 2.2924742E+002, 1.8422194E+002, 2.3992561E+002, 2.4155308E+002, 1.5792417E+002, 2.3421581E+002
 5.1000106E+002, 4.7063921E+002, 2.3734336E+002, 1.9070789E+002, 2.4819777E+002, 2.4984425E+002, 1.6333187E+002, 2.4190590E+002
 5.2001001E+002, 4.7581486E+002, 2.4545538E+002, 1.9725018E+002, 2.5646864E+002, 2.5813097E+002, 1.6880952E+002, 2.4968360E+002
 5.3000945E+002, 4.8099625E+002, 2.5360972E+002, 2.0386502E+002, 2.6476758E+002, 2.6644274E+002, 1.7436043E+002, 2.5754437E+002
 5.4002169E+002, 4.8617634E+002, 2.6179127E+002, 2.1054035E+002, 2.7307797E+002, 2.7476286E+002, 1.7996891E+002, 2.6542277E+002
 5.5000864E+002, 4.9135582E+002, 2.6995602E+002, 2.1724816E+002, 2.8135168E+002, 2.8304321E+002, 1.8561792E+002, 2.7324703E+002
 5.6001700E+002, 4.9653259E+002, 2.7808906E+002, 2.2398501E+002, 2.8957375E+002, 2.9126900E+002, 1.9131998E+002, 2.8106875E+002
 5.7000476E+002, 5.0170976E+002, 2.8620470E+002, 2.3075633E+002, 2.9776295E+002, 2.9945929E+002, 1.9707092E+002, 2.8892552E+002
 5.8000512E+002, 5.0688522E+002, 2.9432697E+002, 2.3757648E+002, 3.0594710E+002, 3.0764213E+002, 2.0288134E+002, 2.9687694E+002
 5.9000931E+002, 5.1206565E+002, 3.0243821E+002, 2.4444168E+002, 3.1410258E+002, 3.1579372E+002, 2.0875028E+002, 3.0474532E+002
 6.0002111E+002, 5.1724753E+002, 3.1051865E+002, 2.5133851E+002, 3.2221086E+002, 3.2389562E+002, 2.1467239E+002, 3.1267353E+002
 6.1001852E+002, 5.2242861E+002, 3.1859199E+002, 2.5827722E+002, 3.3030065E+002, 3.3197693E+002, 2.2064917E+002, 3.2060802E+002
 6.2000845E+002, 5.2500000E+002, 3.2661284E+002, 2.6522768E+002, 3.3832190E+002, 3.3998778E+002, 2.2665689E+002, 3.2842863E+002
 6.3002137E+002, 5.2500000E+002, 3.3451917E+002, 2.7213535E+002, 3.4620364E+002, 3.4785615E+002, 2.3261926E+002, 3.3591247E+002
 6.4001591E+002, 5.2500000E+002, 3.4218832E+002, 2.7888059E+002, 3.5381590E+002, 3.5545131E+002, 2.3839799E+002, 3.4290051E+002
 6.5001165E+002, 5.2500000E+002, 3.4951712E+002, 2.8536979E+002, 3.6105276E+002, 3.6266715E+002, 2.4391598E+002, 3.4933970E+002
 6.6002618E+002, 5.2500000E+002, 3.5647193E+002, 2.9157577E+002, 3.6788323E+002, 3.6947291E+002, 2.4916948E+002, 3.5530756E+002
 6.7002514E+002, 5.3144714E+002, 3.6306554E+002, 2.9750423E+002, 3.7433072E+002, 3.7589303E+002, 2.5418134E+002, 3.6103398E+002
 6.8000556E+002, 5.4420820E+002, 3.6951895E+002, 3.0333819E+002, 3.8065139E+002, 3.8218679E+002, 2.5919155E+002, 3.6745093E+002
 6.9002764E+002, 5.5698752E+002, 3.7626153E+002, 3.0946114E+002, 3.8730953E+002, 3.8882204E+002, 2.6461163E+002, 3.7499397E+002
 7.0001321E+002, 5.6976922E+002, 3.8346234E+002, 3.1605491E+002, 3.9446780E+002, 3.9596177E+002, 2.7059115E+002, 3.8340583E+002
 7.1002096E+002, 5.8254215E+002, 3.9113825E+002, 3.2316147E+002, 4.0212894E+002, 4.0360797E+002, 2.7714180E+002, 3.9253442E+002
 7.2001653E+002, 5.9531788E+002, 3.9939847E+002, 3.3085580E+002, 4.1040822E+002, 4.1187574E+002, 2.8430175E+002, 4.0258018E+002
 7.3002664E+002, 6.0810036E+002, 4.0821524E+002, 3.3911609E+002, 4.1926200E+002, 4.2071988E+002, 2.9202620E+002, 4.1313984E+002
 7.4001489E+002, 6.2087810E+002, 4.1751083E+002, 3.4788279E+002, 4.2860238E+002, 4.3005146E+002, 3.0026569E+002, 4.2423345E+002
 7.5002008E+002, 6.3364942E+002, 4.2729773E+002, 3.5715236E+002, 4.3844363E+002, 4.3988443E+002, 3.0901648E+002, 4.3584199E+002
 7.6000007E+002, 6.4055795E+002, 4.3748910E+002, 3.6684915E+002, 4.4868655E+002, 4.5011859E+002, 3.1819625E+002, 4.4761244E+002
 7.7000339E+002, 6.4166839E+002, 4.4783942E+002, 3.7674804E+002, 4.5905772E+002, 4.6047778E+002, 3.2752321E+002, 4.5881246E+002
 7.8002037E+002, 6.4278041E+002, 4.5796821E+002, 3.8648064E+002, 4.6914501E+002, 4.7054669E+002, 3.3656358E+002, 4.6874157E+002
 7.9002702E+002, 6.4389301E+002, 4.6754931E+002, 3.9574402E+002, 4.7861745E+002, 4.7999429E+002, 3.4506667E+002, 4.7749864E+002
 8.0000610E+002, 6.4500341E+002, 4.7652113E+002, 4.0445822E+002, 4.8743627E+002, 4.8878388E+002, 3.5301266E+002, 4.8545031E+002
 8.1000247E+002, 6.4611302E+002, 4.8495369E+002, 4.1267118E+002, 4.9569044E+002, 4.9700604E+002, 3.6048066E+002, 4.9288016E+002
 8.2002035E+002, 6.4722497E+002, 4.9290494E+002, 4.2044173E+002, 5.0344330E+002, 5.0472498E+002, 3.6753716E+002, 4.9972996E+002
 8.3001428E+002, 6.4833651E+002, 5.0037309E+002, 4.2777481E+002, 5.1069723E+002, 5.1194380E+002, 3.7419281E+002, 5.0609476E+002
 8.4001372E+002, 6.4944732E+002, 5.0740139E+002, 4.3471273E+002, 5.1750188E+002, 5.1871274E+002, 3.8049310E+002, 5.1209253E+002
 8.5001652E+002, 6.5055881E+002, 5.1405547E+002, 4.4131784E+002, 5.2392710E+002, 5.2510199E+002, 3.8649570E+002, 5.1784702E+002
 8.6000916E+002, 6.5166947E+002, 5.2036987E+002, 4.4763145E+002, 5.3000842E+002, 5.3114763E+002, 3.9223672E+002, 5.2322007E+002
 8.7002213E+002, 6.5278120E+002, 5.2635768E+002, 4.5367574E+002, 5.3576050E+002, 5.3686450E+002, 3.9773952E+002, 5.2847553E+002
 8.8001475E+002, 6.5389240E+002, 5.3209321E+002, 4.5950913E+002, 5.4126123E+002, 5.4233026E+002, 4.0304942E+002, 5.3352118E+002
 8.9002432E+002, 6.5500390E+002, 5.3755626E+002, 4.6512820E+002, 5.4648607E+002, 5.4752056E+002, 4.0816024E+002, 5.3829075E+002
 9.0000940E+002, 6.5611435E+002, 5.4273119E+002, 4.7053054E+002, 5.5141872E+002, 5.5241945E+002, 4.1307480E+002, 5.4280789E+002
 9.1001284E+002, 6.5722506E+002, 5.4765284E+002, 4.7574329E+002, 5.5609842E+002, 5.5706632E+002, 4.1781732E+002, 5.4712281E+002
 9.2000314E+002, 6.5833559E+002, 5.5236003E+002, 4.8079512E+002, 5.6056802E+002, 5.6150411E+002, 4.2241328E+002, 5.5140944E+002
 9.3001887E+002, 6.5944693E+002, 5.5688403E+002, 4.8571369E+002, 5.6485691E+002, 5.6576182E+002, 4.2688169E+002, 5.5544389E+002
 9.4000772E+002, 6.5365117E+002, 5.6113836E+002, 4.9044113E+002, 5.6886900E+002, 5.6974350E+002, 4.3116559E+002, 5.5907696E+002
 9.5000037E+002, 6.4102997E+002, 5.6492098E+002, 4.9478234E+002, 5.7237791E+002, 5.7322021E+002, 4.3498514E+002, 5.6142285E+002
 9.6001781E+002, 6.2839067E+002, 5.6782304E+002, 4.9835815E+002, 5.7493987E+002, 5.7574488E+002, 4.3790090E+002, 5.6195477E+002
 9.7000234E+002, 6.1575681E+002, 5.6967938E+002, 5.0099877E+002, 5.7640213E+002, 5.7716516E+002, 4.3980916E+002, 5.6122114E+002
 9.8001734E+002, 6.0312471E+002, 5.7051829E+002, 5.0272144E+002, 5.7680978E+002, 5.7752726E+002, 4.4078205E+002, 5.5934516E+002
 9.9002591E+002, 5.9048069E+002, 5.7042281E+002, 5.0360470E+002, 5.7626327E+002, 5.7693318E+002, 4.4094356E+002, 5.5679812E+002
 1.0000176E+003, 5.7785001E+002, 5.6949644E+002, 5.0374990E+002, 5.7487469E+002, 5.7549608E+002, 4.4040992E+002, 5.5346661E+002
 1.0100113E+003, 5.6522776E+002, 5.6779890E+002, 5.0323007E+002, 5.7270785E+002, 5.7328042E+002, 4.3927051E+002, 5.4960870E+002
 1.0200262E+003, 5.5258953E+002, 5.6545512E+002, 5.0215590E+002, 5.6989629E+002, 5.7041988E+002, 4.3763431E+002, 5.4544455E+002
 1.0300235E+003, 5.3995072E+002, 5.6253701E+002, 5.0060181E+002, 5.6651138E+002, 5.6698614E+002, 4.3556834E+002, 5.4084041E+002
 1.0400153E+003, 5.2732448E+002, 5.5913358E+002, 4.9864796E+002, 5.6264889E+002, 5.6307528E+002, 4.3315747E+002, 5.3613201E+002
 1.0500134E+003, 5.1469945E+002, 5.5530350E+002, 4.9635433E+002, 5.5836492E+002, 5.5874341E+002, 4.3044811E+002, 5.3109926E+002
 1.0600021E+003, 5.0207518E+002, 5.5108559E+002, 4.9375768E+002, 5.5369936E+002, 5.5403041E+002, 4.2747487E+002, 5.2589817E+002
 1.0700041E+003, 4.8945352E+002, 5.4645704E+002, 4.9085615E+002, 5.4862174E+002, 5.4890592E+002, 4.2423531E+002, 5.2025253E+002
 1.0800223E+003, 4.7680541E+002, 5.4146521E+002, 4.8768589E+002, 5.4318778E+002, 5.4342589E+002, 4.2077393E+002, 5.1459165E+002
 1.0900162E+003, 4.6416291E+002, 5.3619716E+002, 4.8430816E+002, 5.3748706E+002, 5.3767960E+002, 4.1713850E+002, 5.0876578E+002
 1.1000038E+003, 4.5154324E+002, 5.3067237E+002, 4.8074424E+002, 5.3153829E+002, 5.3168601E+002, 4.1335711E+002, 5.0288318E+002
 1.1100143E+003, 4.3891440E+002, 5.2491377E+002, 4.7701582E+002, 5.2536341E+002, 5.2546702E+002, 4.0944692E+002, 4.9681983E+002
 1.1200246E+003, 4.2627278E+002, 5.1889115E+002, 4.7310363E+002, 5.1892696E+002, 5.1898706E+002, 4.0538930E+002, 4.9050606E+002
 1.1300029E+003, 4.1748473E+002, 5.1264338E+002, 4.6903390E+002, 5.1227276E+002, 5.1229023E+002, 4.0122129E+002, 4.8417032E+002
 1.1400307E+003, 4.1248466E+002, 5.0630385E+002, 4.6490714E+002, 5.0555031E+002, 5.0552678E+002, 3.9705872E+002, 4.7824572E+002
 1.1500286E+003, 4.0747658E+002, 5.0006505E+002, 4.6088319E+002, 4.9896596E+002, 4.9890452E+002, 3.9306424E+002, 4.7282858E+002
 1.1600180E+003, 4.0248058E+002, 4.9400890E+002, 4.5703746E+002, 4.9259795E+002, 4.9250221E+002, 3.8929123E+002, 4.6773042E+002
 1.1700247E+003, 3.9748276E+002, 4.8806561E+002, 4.5332148E+002, 4.8636172E+002, 4.8623449E+002, 3.8567216E+002, 4.6264623E+002
 1.1800222E+003, 3.9247887E+002, 4.8222465E+002, 4.4971933E+002, 4.8024739E+002, 4.8009126E+002, 3.8219392E+002, 4.5782925E+002
 1.1900145E+003, 3.8748176E+002, 4.7655062E+002, 4.4626157E+002, 4.7432335E+002, 4.7414050E+002, 3.7887333E+002, 4.5324673E+002
 1.2000142E+003, 3.8248281E+002, 4.7100101E+002, 4.4291545E+002, 4.6853920E+002, 4.6833161E+002, 3.7567721E+002, 4.4871732E+002
 1.2100266E+003, 3.7747970E+002, 4.6554377E+002, 4.3965130E+002, 4.6286022E+002, 4.6262962E+002, 3.7257919E+002, 4.4423360E+002
 1.2200249E+003, 3.7247723E+002, 4.6018028E+002, 4.3645739E+002, 4.5728884E+002, 4.5703659E+002, 3.6957027E+002, 4.3992628E+002
 1.2300026E+003, 3.6748275E+002, 4.5495860E+002, 4.3335500E+002, 4.5187577E+002, 4.5160302E+002, 3.6666521E+002, 4.3570638E+002
 1.2400170E+003, 3.6248456E+002, 4.4980486E+002, 4.3029351E+002, 4.4653890E+002, 4.4624669E+002, 3.6381804E+002, 4.3149724E+002
 1.2500292E+003, 3.5748068E+002, 4.4473526E+002, 4.2727915E+002, 4.4129843E+002, 4.4098785E+002, 3.6104040E+002, 4.2738679E+002
 1.2600057E+003, 3.5248333E+002, 4.3974552E+002, 4.2430358E+002, 4.3614663E+002, 4.3581862E+002, 3.5832155E+002, 4.2327405E+002
 1.2700202E+003, 3.4748332E+002, 4.3482825E+002, 4.2135789E+002, 4.3107706E+002, 4.3073244E+002, 3.5565573E+002, 4.1920331E+002
 1.2800371E+003, 3.4247499E+002, 4.2992633E+002, 4.1840094E+002, 4.2602607E+002, 4.2566547E+002, 3.5300331E+002, 4.1501743E+002
 1.2900194E+003, 3.3747650E+002, 4.2505151E+002, 4.1543673E+002, 4.2100810E+002, 4.2063224E+002, 3.5037581E+002, 4.1086850E+002
 1.3000095E+003, 3.3248367E+002, 4.2022711E+002, 4.1248281E+002, 4.1604910E+002, 4.1565884E+002, 3.4778974E+002, 4.0678118E+002
 1.3100412E+003, 3.2747786E+002, 4.1544345E+002, 4.0952983E+002, 4.1113847E+002, 4.1073434E+002, 3.4523304E+002, 4.0269352E+002
 1.3200388E+003, 3.2246903E+002, 4.1069025E+002, 4.0657421E+002, 4.0626399E+002, 4.0584668E+002, 3.4270520E+002, 3.9866043E+002
 1.3300134E+003, 3.1747614E+002, 4.0602302E+002, 4.0365155E+002, 4.0148526E+002, 4.0105552E+002, 3.4023492E+002, 3.9468578E+002
 1.3400079E+003, 3.1248273E+002, 4.0139806E+002, 4.0072642E+002, 3.9675329E+002, 3.9631131E+002, 3.3778161E+002, 3.9072941E+002
 1.3500269E+003, 3.0748187E+002, 3.9680893E+002, 3.9779565E+002, 3.9206195E+002, 3.9160797E+002, 3.3534691E+002, 3.8676223E+002
 1.3600255E+003, 3.0247551E+002, 3.9224774E+002, 3.9486216E+002, 3.8740225E+002, 3.8693694E+002, 3.3293871E+002, 3.8280983E+002
 1.3700056E+003, 2.9748125E+002, 3.8775521E+002, 3.9195099E+002, 3.8281908E+002, 3.8234304E+002, 3.3057638E+002, 3.7898576E+002
 1.3800416E+003, 2.9247619E+002, 3.8332423E+002, 3.8905516E+002, 3.7830363E+002, 3.7781714E+002, 3.2824673E+002, 3.7516883E+002
 1.3900387E+003, 2.8746809E+002, 3.7891573E+002, 3.8614901E+002, 3.7381177E+002, 3.7331504E+002, 3.2592800E+002, 3.7129825E+002
 1.4000404E+003, 2.8247106E+002, 3.7455539E+002, 3.8325160E+002, 3.6937287E+002, 3.6886630E+002, 3.2364109E+002, 3.6753217E+002
 1.4100358E+003, 2.7747121E+002, 3.7025751E+002, 3.8037275E+002, 3.6500183E+002, 3.6448571E+002, 3.2138728E+002, 3.6381655E+002
 1.4200161E+003, 2.7247753E+002, 3.6600756E+002, 3.7750286E+002, 3.6068098E+002, 3.6015556E+002, 3.1915518E+002, 3.6006340E+002
 1.4300284E+003, 2.6747815E+002, 3.6174890E+002, 3.7460566E+002, 3.5634965E+002, 3.5581515E+002, 3.1692042E+002, 3.5623236E+002
 1.4400345E+003, 2.6247437E+002, 3.5750990E+002, 3.7169890E+002, 3.5204148E+002, 3.5149818E+002, 3.1470029E+002, 3.5246659E+002
 1.4500200E+003, 2.5747467E+002, 3.5330605E+002, 3.6879500E+002, 3.4777166E+002, 3.4721990E+002, 3.1250429E+002, 3.4872910E+002
 1.4600131E+003, 2.5247975E+002, 3.4915604E+002, 3.6590913E+002, 3.4356122E+002, 3.4300131E+002, 3.1034474E+002, 3.4510240E+002
 1.4700132E+003, 2.4748132E+002, 3.4505419E+002, 3.6303333E+002, 3.3940220E+002, 3.3883423E+002, 3.0820519E+002, 3.4147857E+002
 1.4800289E+003, 2.4247877E+002, 3.4098468E+002, 3.6016061E+002, 3.3527700E+002, 3.3470106E+002, 3.0608229E+002, 3.3784941E+002
 1.4900105E+003, 2.3747825E+002, 3.3693898E+002, 3.5728810E+002, 3.3117590E+002, 3.3059225E+002, 3.0397372E+002, 3.3421349E+002
 1.5000245E+003, 2.3248146E+002, 3.3293479E+002, 3.5442519E+002, 3.2711986E+002, 3.2652863E+002, 3.0188864E+002, 3.3066961E+002
 1.5100278E+003, 2.2747646E+002, 3.2896149E+002, 3.5156603E+002, 3.2309608E+002, 3.2249734E+002, 2.9981835E+002, 3.2710228E+002
 1.5200161E+003, 2.2247670E+002, 3.2500863E+002, 3.4870252E+002, 3.1909262E+002, 3.1848643E+002, 2.9775590E+002, 3.2350824E+002
 1.5300271E+003, 2.1747814E+002, 3.2107699E+002, 3.4583924E+002, 3.1511196E+002, 3.1449843E+002, 2.9570875E+002, 3.1996544E+002
 1.5400479E+003, 2.1247042E+002, 3.1716076E+002, 3.4297462E+002, 3.1114763E+002, 3.1052698E+002, 2.9367514E+002, 3.1639147E+002
