s,C,C,C,C,C,C,C,C,C
Time,"Air Temp","IRSN_1","IRSN_2","TRAC_2","TRAC_3","TRAC_4","VTT_1","GRS_2","NRC_1"
 0.0000000E+000, 2.0000000E+001, 2.0000000E+001, 2.0000000E+001, 2.0000000E+001, 2.0000000E+001, 2.0000000E+001, 2.0000000E+001, 2.0000000E+001, 2.0000000E+001
 1.0200000E+001, 2.2365918E+001, 2.0000093E+001, 2.0000096E+001, 2.0000134E+001, 2.0000129E+001, 2.0000136E+001, 2.0000112E+001, 2.0000143E+001, 2.0000219E+001
 2.0200000E+001, 2.6956000E+001, 2.0002772E+001, 2.0002938E+001, 2.0003861E+001, 2.0003698E+001, 2.0003917E+001, 2.0003317E+001, 2.0003691E+001, 2.0005488E+001
 3.0153253E+001, 3.7655929E+001, 2.0015223E+001, 2.0016475E+001, 2.0020841E+001, 2.0019858E+001, 2.0021141E+001, 2.0018194E+001, 2.0018466E+001, 2.0027036E+001
 4.0043500E+001, 5.9766204E+001, 2.0051965E+001, 2.0056971E+001, 2.0071120E+001, 2.0067792E+001, 2.0072115E+001, 2.0062485E+001, 2.0060674E+001, 2.0089166E+001
 5.0069432E+001, 8.2281338E+001, 2.0156576E+001, 2.0173362E+001, 2.0214559E+001, 2.0204697E+001, 2.0217478E+001, 2.0189381E+001, 2.0177678E+001, 2.0262464E+001
 6.0006382E+001, 1.0484783E+002, 2.0384098E+001, 2.0429661E+001, 2.0524576E+001, 2.0500254E+001, 2.0531532E+001, 2.0466039E+001, 2.0419245E+001, 2.0619077E+001
 7.0013906E+001, 1.2738042E+002, 2.0779576E+001, 2.0880246E+001, 2.1060025E+001, 2.1009971E+001, 2.1073812E+001, 2.0947647E+001, 2.0820689E+001, 2.1208143E+001
 8.0031516E+001, 1.5002705E+002, 2.1388999E+001, 2.1581517E+001, 2.1882641E+001, 2.1792553E+001, 2.1906702E+001, 2.1691903E+001, 2.1418897E+001, 2.2082925E+001
 9.0071437E+001, 1.7271860E+002, 2.2253453E+001, 2.2584634E+001, 2.3047282E+001, 2.2900062E+001, 2.3085624E+001, 2.2750606E+001, 2.2246060E+001, 2.3288384E+001
 1.0005162E+002, 1.9534065E+002, 2.3403943E+001, 2.3929256E+001, 2.4594292E+001, 2.4369928E+001, 2.4651407E+001, 2.4162533E+001, 2.3324008E+001, 2.4850833E+001
 1.1003111E+002, 2.1590141E+002, 2.4861957E+001, 2.5643673E+001, 2.6551865E+001, 2.6226986E+001, 2.6632793E+001, 2.5954372E+001, 2.4669514E+001, 2.6787284E+001
 1.2000055E+002, 2.1851649E+002, 2.6653288E+001, 2.7762507E+001, 2.8955177E+001, 2.8504704E+001, 2.9065262E+001, 2.8160227E+001, 2.6298270E+001, 2.9119027E+001
 1.3003207E+002, 2.1687651E+002, 2.8694417E+001, 3.0203280E+001, 3.1689070E+001, 3.1093494E+001, 3.1831697E+001, 3.0683964E+001, 2.8090375E+001, 3.1668457E+001
 1.4001823E+002, 2.1523684E+002, 3.0817201E+001, 3.2782157E+001, 3.4535039E+001, 3.3786426E+001, 3.4710650E+001, 3.3329189E+001, 2.9875874E+001, 3.4195294E+001
 1.5003443E+002, 2.1359684E+002, 3.2902706E+001, 3.5363351E+001, 3.7348905E+001, 3.6446407E+001, 3.7556600E+001, 3.5958607E+001, 3.1567367E+001, 3.6580512E+001
 1.6005952E+002, 2.1195494E+002, 3.4916364E+001, 3.7904215E+001, 4.0098092E+001, 3.9045479E+001, 4.0336529E+001, 3.8536443E+001, 3.3160270E+001, 3.8831595E+001
 1.7002533E+002, 2.1087831E+002, 3.6835588E+001, 4.0372845E+001, 4.2755290E+001, 4.1559484E+001, 4.3022736E+001, 4.1034756E+001, 3.4649605E+001, 4.0945304E+001
 1.8001011E+002, 2.1837860E+002, 3.8662372E+001, 4.2766100E+001, 4.5324325E+001, 4.3992624E+001, 4.5619209E+001, 4.3454155E+001, 3.6051990E+001, 4.2946500E+001
 1.9003268E+002, 2.2878320E+002, 4.0470579E+001, 4.5160014E+001, 4.7902715E+001, 4.6439487E+001, 4.8224591E+001, 4.5880160E+001, 3.7457723E+001, 4.4969189E+001
 2.0004061E+002, 2.3920459E+002, 4.2355838E+001, 4.7656835E+001, 5.0610945E+001, 4.9014687E+001, 5.0960845E+001, 4.8421862E+001, 3.8962600E+001, 4.7147510E+001
 2.1000028E+002, 2.4959252E+002, 4.4371036E+001, 5.0314393E+001, 5.3508067E+001, 5.1772356E+001, 5.3887821E+001, 5.1135854E+001, 4.0603288E+001, 4.9524989E+001
 2.2002762E+002, 2.5998668E+002, 4.6552394E+001, 5.3177214E+001, 5.6637097E+001, 5.4750705E+001, 5.7049278E+001, 5.4063822E+001, 4.2398891E+001, 5.2125018E+001
 2.3004854E+002, 2.7041930E+002, 4.8929977E+001, 5.6282459E+001, 6.0035872E+001, 5.7985470E+001, 6.0483411E+001, 5.7242245E+001, 4.4369129E+001, 5.4975604E+001
 2.4005604E+002, 2.8083288E+002, 5.1512442E+001, 5.9638306E+001, 6.3709546E+001, 6.1482851E+001, 6.4195098E+001, 6.0678178E+001, 4.6519084E+001, 5.8080504E+001
 2.5004934E+002, 2.9124304E+002, 5.4313090E+001, 6.3259964E+001, 6.7671600E+001, 6.5256944E+001, 6.8197660E+001, 6.4386222E+001, 4.8855506E+001, 6.1447606E+001
 2.6004649E+002, 3.0164005E+002, 5.7331417E+001, 6.7150148E+001, 7.1921673E+001, 6.9305503E+001, 7.2490954E+001, 6.8366702E+001, 5.1372043E+001, 6.5064694E+001
 2.7001575E+002, 3.1202621E+002, 6.0574662E+001, 7.1316528E+001, 7.6468308E+001, 7.3638094E+001, 7.7083373E+001, 7.2628052E+001, 5.4078814E+001, 6.8945386E+001
 2.8004878E+002, 3.2243097E+002, 6.4072195E+001, 7.5792468E+001, 8.1347771E+001, 7.8292351E+001, 8.2011021E+001, 7.7205668E+001, 5.7002640E+001, 7.3128798E+001
 2.9000455E+002, 3.3282951E+002, 6.7825861E+001, 8.0580038E+001, 8.6560140E+001, 8.3269063E+001, 8.7273771E+001, 8.2101037E+001, 6.0141724E+001, 7.7609381E+001
 3.0002957E+002, 3.4321901E+002, 7.1835742E+001, 8.5680933E+001, 9.2104680E+001, 8.8566908E+001, 9.2870902E+001, 8.7314404E+001, 6.3493313E+001, 8.2379039E+001
 3.1002395E+002, 3.5364028E+002, 7.6109043E+001, 9.1105694E+001, 9.7990983E+001, 9.4194530E+001, 9.8812120E+001, 9.2855401E+001, 6.7063246E+001, 8.7442464E+001
 3.2004373E+002, 3.6404948E+002, 8.0648645E+001, 9.6857617E+001, 1.0422572E+002, 1.0015964E+002, 1.0510402E+002, 9.8729328E+001, 7.0857244E+001, 9.2813524E+001
 3.3000825E+002, 3.7444463E+002, 8.5465251E+001, 1.0295175E+002, 1.1082582E+002, 1.0647898E+002, 1.1176360E+002, 1.0495220E+002, 7.4883003E+001, 9.8505116E+001
 3.4003583E+002, 3.8484872E+002, 9.0567030E+001, 1.0939609E+002, 1.1779452E+002, 1.1315683E+002, 1.1879375E+002, 1.1153018E+002, 7.9147513E+001, 1.0451658E+002
 3.5003270E+002, 3.9029703E+002, 9.5964547E+001, 1.1619851E+002, 1.2513787E+002, 1.2020215E+002, 1.2619993E+002, 1.1847153E+002, 8.3662684E+001, 1.1085914E+002
 3.6001329E+002, 3.9088512E+002, 1.0157014E+002, 1.2326775E+002, 1.3274227E+002, 1.2750464E+002, 1.3386732E+002, 1.2567552E+002, 8.8315959E+001, 1.1737470E+002
 3.7001953E+002, 3.9147308E+002, 1.0722790E+002, 1.3043042E+002, 1.4039472E+002, 1.3486452E+002, 1.4157956E+002, 1.3295465E+002, 9.2942215E+001, 1.2382522E+002
 3.8000538E+002, 3.9206096E+002, 1.1281646E+002, 1.3754895E+002, 1.4795199E+002, 1.4214628E+002, 1.4919210E+002, 1.4017147E+002, 9.7444101E+001, 1.3009430E+002
 3.9000487E+002, 3.9264870E+002, 1.1827467E+002, 1.4454503E+002, 1.5533770E+002, 1.4927915E+002, 1.5662773E+002, 1.4725104E+002, 1.0179481E+002, 1.3614596E+002
 4.0002473E+002, 3.9323751E+002, 1.2359412E+002, 1.5139243E+002, 1.6252944E+002, 1.5624657E+002, 1.6386322E+002, 1.5417175E+002, 1.0601427E+002, 1.4200041E+002
 4.1002855E+002, 3.9382636E+002, 1.2876917E+002, 1.5808754E+002, 1.6953918E+002, 1.6305515E+002, 1.7091197E+002, 1.6093546E+002, 1.1009713E+002, 1.4767844E+002
 4.2000201E+002, 3.9441401E+002, 1.3379700E+002, 1.6462592E+002, 1.7636822E+002, 1.6970264E+002, 1.7777606E+002, 1.6753927E+002, 1.1404570E+002, 1.5319078E+002
 4.3002724E+002, 3.9500203E+002, 1.3870256E+002, 1.7102243E+002, 1.8302746E+002, 1.7620253E+002, 1.8446586E+002, 1.7399734E+002, 1.1789156E+002, 1.5856335E+002
 4.4003575E+002, 3.9559130E+002, 1.4349832E+002, 1.7728229E+002, 1.8952466E+002, 1.8256236E+002, 1.9098922E+002, 1.8031609E+002, 1.2164691E+002, 1.6381476E+002
 4.5002963E+002, 3.9617954E+002, 1.4816386E+002, 1.8338510E+002, 1.9584058E+002, 1.8875659E+002, 1.9732801E+002, 1.8647301E+002, 1.2528445E+002, 1.6891531E+002
 4.6001224E+002, 3.9676717E+002, 1.5270674E+002, 1.8932741E+002, 2.0197110E+002, 1.9478283E+002, 2.0347779E+002, 1.9246499E+002, 1.2882119E+002, 1.7388116E+002
 4.7001456E+002, 3.9735537E+002, 1.5715500E+002, 1.9514289E+002, 2.0795678E+002, 2.0067919E+002, 2.0947973E+002, 1.9832802E+002, 1.3227907E+002, 1.7875190E+002
 4.8000521E+002, 3.9794273E+002, 1.6150442E+002, 2.0081017E+002, 2.1376545E+002, 2.0641670E+002, 2.1530087E+002, 2.0403688E+002, 1.3566007E+002, 1.8350515E+002
 4.9001221E+002, 3.9853112E+002, 1.6576370E+002, 2.0634055E+002, 2.1941613E+002, 2.1201142E+002, 2.2096096E+002, 2.0960529E+002, 1.3896788E+002, 1.8816091E+002
 5.0002009E+002, 3.9911988E+002, 1.6992644E+002, 2.1171167E+002, 2.2487517E+002, 2.1743224E+002, 2.2642562E+002, 2.1500645E+002, 1.4220380E+002, 1.9269274E+002
 5.1002731E+002, 3.9970835E+002, 1.7400783E+002, 2.1695217E+002, 2.3019041E+002, 2.2272160E+002, 2.3174411E+002, 2.2027584E+002, 1.4537179E+002, 1.9714737E+002
 5.2004370E+002, 3.9915721E+002, 1.7802608E+002, 2.2208953E+002, 2.3539170E+002, 2.2790612E+002, 2.3694691E+002, 2.2544091E+002, 1.4848186E+002, 2.0154177E+002
 5.3001577E+002, 3.9749077E+002, 1.8194812E+002, 2.2707653E+002, 2.4041494E+002, 2.3292384E+002, 2.4196913E+002, 2.3044711E+002, 1.5150186E+002, 2.0580270E+002
 5.4002260E+002, 3.9582586E+002, 1.8573018E+002, 2.3185746E+002, 2.4519508E+002, 2.3771279E+002, 2.4674492E+002, 2.3523523E+002, 1.5439042E+002, 2.0986814E+002
 5.5002914E+002, 3.9415871E+002, 1.8937704E+002, 2.3644411E+002, 2.4975441E+002, 2.4229492E+002, 2.5129693E+002, 2.3982186E+002, 1.5715363E+002, 2.1376790E+002
 5.6003992E+002, 3.9249062E+002, 1.9287350E+002, 2.4081316E+002, 2.5406624E+002, 2.4664374E+002, 2.5559841E+002, 2.4418224E+002, 1.5978311E+002, 2.1747832E+002
 5.7001413E+002, 3.9082277E+002, 1.9620214E+002, 2.4493750E+002, 2.5810155E+002, 2.5072991E+002, 2.5962039E+002, 2.4828807E+002, 1.6227111E+002, 2.2097905E+002
 5.8000556E+002, 3.8916189E+002, 1.9937883E+002, 2.4884272E+002, 2.6190014E+002, 2.5459023E+002, 2.6340359E+002, 2.5217054E+002, 1.6462867E+002, 2.2431228E+002
 5.9001906E+002, 3.8749350E+002, 2.0242693E+002, 2.5256241E+002, 2.6549901E+002, 2.5825843E+002, 2.6698557E+002, 2.5586365E+002, 1.6687237E+002, 2.2750405E+002
 6.0002228E+002, 3.8582574E+002, 2.0535696E+002, 2.5610964E+002, 2.6891604E+002, 2.6175136E+002, 2.7038452E+002, 2.5938234E+002, 1.6901188E+002, 2.3057364E+002
 6.1001347E+002, 3.8416099E+002, 2.0816884E+002, 2.5948376E+002, 2.7214876E+002, 2.6506566E+002, 2.7359799E+002, 2.6272484E+002, 1.7104579E+002, 2.3351242E+002
 6.2000794E+002, 3.8249369E+002, 2.1087194E+002, 2.6269399E+002, 2.7520617E+002, 2.6821021E+002, 2.7663497E+002, 2.6590031E+002, 1.7298513E+002, 2.3632944E+002
 6.3000389E+002, 3.8082919E+002, 2.1345232E+002, 2.6570758E+002, 2.7804180E+002, 2.7114018E+002, 2.7944842E+002, 2.6886999E+002, 1.7482659E+002, 2.3898444E+002
 6.4000782E+002, 3.7916255E+002, 2.1592031E+002, 2.6854123E+002, 2.8068426E+002, 2.7388254E+002, 2.8206764E+002, 2.7165530E+002, 1.7657844E+002, 2.4151173E+002
 6.5000127E+002, 3.7749531E+002, 2.1829769E+002, 2.7122889E+002, 2.8317835E+002, 2.7648042E+002, 2.8453796E+002, 2.7429474E+002, 1.7825634E+002, 2.4395204E+002
 6.6004136E+002, 3.7582591E+002, 2.2059966E+002, 2.7379153E+002, 2.8554174E+002, 2.7895057E+002, 2.8687707E+002, 2.7680764E+002, 1.7986783E+002, 2.4630662E+002
 6.7004355E+002, 3.7415538E+002, 2.2280347E+002, 2.7619051E+002, 2.8772428E+002, 2.8124443E+002, 2.8903420E+002, 2.7915045E+002, 1.8140205E+002, 2.4853129E+002
 6.8003267E+002, 3.7249087E+002, 2.2490147E+002, 2.7841650E+002, 2.8971954E+002, 2.8335506E+002, 2.9100306E+002, 2.8131495E+002, 1.8285578E+002, 2.5062151E+002
 6.9002496E+002, 3.7082402E+002, 2.2691504E+002, 2.8050397E+002, 2.9157530E+002, 2.8532868E+002, 2.9283220E+002, 2.8334108E+002, 1.8424326E+002, 2.5262792E+002
 7.0002725E+002, 3.6915816E+002, 2.2887322E+002, 2.8250310E+002, 2.9335029E+002, 2.8722096E+002, 2.9458106E+002, 2.8528217E+002, 1.8557747E+002, 2.5458795E+002
 7.1000927E+002, 3.6749293E+002, 2.3076166E+002, 2.8439074E+002, 2.9500962E+002, 2.8899758E+002, 2.9621425E+002, 2.8710969E+002, 1.8685076E+002, 2.5646283E+002
 7.2004394E+002, 3.6582541E+002, 2.3257217E+002, 2.8615318E+002, 2.9653279E+002, 2.9063820E+002, 2.9771092E+002, 2.8880669E+002, 1.8805747E+002, 2.5822762E+002
 7.3000255E+002, 3.6415882E+002, 2.3428395E+002, 2.8775130E+002, 2.9787420E+002, 2.9210058E+002, 2.9902488E+002, 2.9033204E+002, 1.8919787E+002, 2.5985539E+002
 7.4003802E+002, 3.6249263E+002, 2.3591506E+002, 2.8921199E+002, 2.9907335E+002, 2.9342321E+002, 3.0019631E+002, 2.9171828E+002, 1.9028466E+002, 2.6138867E+002
 7.5000825E+002, 3.6082498E+002, 2.3746683E+002, 2.9054127E+002, 3.0013402E+002, 2.9460843E+002, 3.0122938E+002, 2.9297000E+002, 1.9131443E+002, 2.6281842E+002
 7.6002116E+002, 3.5790141E+002, 2.3893692E+002, 2.9174130E+002, 3.0106298E+002, 2.9566243E+002, 3.0213060E+002, 2.9409109E+002, 1.9228444E+002, 2.6415341E+002
 7.7002707E+002, 3.5373001E+002, 2.4032102E+002, 2.9281537E+002, 3.0186047E+002, 2.9658493E+002, 3.0290008E+002, 2.9508387E+002, 1.9317751E+002, 2.6537412E+002
 7.8003803E+002, 3.4955964E+002, 2.4160727E+002, 2.9376766E+002, 3.0253888E+002, 2.9738820E+002, 3.0355030E+002, 2.9595581E+002, 1.9397116E+002, 2.6648763E+002
 7.9000079E+002, 3.4539654E+002, 2.4277222E+002, 2.9456803E+002, 3.0305530E+002, 2.9803102E+002, 3.0403799E+002, 2.9667130E+002, 1.9465176E+002, 2.6744504E+002
 8.0000709E+002, 3.4123834E+002, 2.4382530E+002, 2.9523066E+002, 3.0343254E+002, 2.9853683E+002, 3.0438630E+002, 2.9724878E+002, 1.9522971E+002, 2.6828069E+002
 8.1004754E+002, 3.3706229E+002, 2.4474289E+002, 2.9571112E+002, 3.0360727E+002, 2.9884400E+002, 3.0453096E+002, 2.9763525E+002, 1.9569428E+002, 2.6893087E+002
 8.2003450E+002, 3.3289021E+002, 2.4551791E+002, 2.9600422E+002, 3.0358459E+002, 2.9895565E+002, 3.0447778E+002, 2.9783007E+002, 1.9604466E+002, 2.6941184E+002
 8.3002316E+002, 3.2872964E+002, 2.4618256E+002, 2.9615767E+002, 3.0343018E+002, 2.9893634E+002, 3.0429282E+002, 2.9788911E+002, 1.9630810E+002, 2.6979442E+002
 8.4002093E+002, 3.2456170E+002, 2.4675233E+002, 2.9618993E+002, 3.0315756E+002, 2.9879852E+002, 3.0398990E+002, 2.9782837E+002, 1.9649334E+002, 2.7007552E+002
 8.5003950E+002, 3.2039289E+002, 2.4720394E+002, 2.9605873E+002, 3.0271050E+002, 2.9848719E+002, 3.0351223E+002, 2.9759908E+002, 1.9658923E+002, 2.7020594E+002
 8.6002871E+002, 3.1622822E+002, 2.4755565E+002, 2.9579472E+002, 3.0213307E+002, 2.9804500E+002, 3.0290425E+002, 2.9723794E+002, 1.9660874E+002, 2.7023178E+002
 8.7004981E+002, 3.1206260E+002, 2.4780934E+002, 2.9540469E+002, 3.0143279E+002, 2.9747879E+002, 3.0217376E+002, 2.9675146E+002, 1.9654905E+002, 2.7015427E+002
 8.8003788E+002, 3.3195895E+002, 2.4798359E+002, 2.9490864E+002, 3.0063193E+002, 2.9681139E+002, 3.0134306E+002, 2.9616086E+002, 1.9643799E+002, 2.7000330E+002
 8.9000237E+002, 3.7520654E+002, 2.4834602E+002, 2.9457991E+002, 3.0008377E+002, 2.9638518E+002, 3.0076988E+002, 2.9577429E+002, 1.9663725E+002, 2.7028570E+002
 9.0003006E+002, 4.1850904E+002, 2.4956234E+002, 2.9514078E+002, 3.0065096E+002, 2.9702937E+002, 3.0132635E+002, 2.9637010E+002, 1.9786357E+002, 2.7199568E+002
 9.1000347E+002, 4.6181983E+002, 2.5218728E+002, 2.9720658E+002, 3.0299599E+002, 2.9937675E+002, 3.0368082E+002, 2.9857574E+002, 2.0060785E+002, 2.7573155E+002
 9.2001049E+002, 5.0510566E+002, 2.5661788E+002, 3.0121389E+002, 3.0755939E+002, 3.0385323E+002, 3.0827603E+002, 3.0282398E+002, 2.0520332E+002, 2.8184926E+002
 9.3001042E+002, 5.4845093E+002, 2.6313071E+002, 3.0743888E+002, 3.1459152E+002, 3.1070922E+002, 3.1536131E+002, 3.0937826E+002, 2.1190681E+002, 2.9053600E+002
 9.4000457E+002, 5.9178008E+002, 2.7196830E+002, 3.1614787E+002, 3.2436571E+002, 3.2022415E+002, 3.2520898E+002, 3.1851049E+002, 2.2094327E+002, 3.0203602E+002
 9.5002668E+002, 6.3511921E+002, 2.8339396E+002, 3.2762943E+002, 3.3717505E+002, 3.3270549E+002, 3.3810963E+002, 3.3051784E+002, 2.3257828E+002, 3.1661454E+002
 9.6002048E+002, 6.7851001E+002, 2.9758756E+002, 3.4206930E+002, 3.5319098E+002, 3.4835063E+002, 3.5422973E+002, 3.4559055E+002, 2.4701647E+002, 3.3441722E+002
 9.7002832E+002, 6.7948366E+002, 3.1455323E+002, 3.5946110E+002, 3.7233671E+002, 3.6711871E+002, 3.7348429E+002, 3.6370413E+002, 2.6425278E+002, 3.5524761E+002
 9.8001432E+002, 6.3877381E+002, 3.3258308E+002, 3.7804840E+002, 3.9232416E+002, 3.8679064E+002, 3.9355805E+002, 3.8287185E+002, 2.8199977E+002, 3.7581355E+002
 9.9001408E+002, 5.9807109E+002, 3.4834990E+002, 3.9443276E+002, 4.0922053E+002, 4.0350782E+002, 4.1049229E+002, 3.9945365E+002, 2.9650038E+002, 3.9153643E+002
 1.0000045E+003, 5.5741911E+002, 3.6029696E+002, 4.0701706E+002, 4.2156516E+002, 4.1582276E+002, 4.2283036E+002, 4.1191626E+002, 3.0662359E+002, 4.0157349E+002
 1.0100070E+003, 5.1668845E+002, 3.6832607E+002, 4.1569136E+002, 4.2954328E+002, 4.2389654E+002, 4.3077056E+002, 4.2028510E+002, 3.1271965E+002, 4.0677734E+002
 1.0200297E+003, 4.7592671E+002, 3.7289807E+002, 4.2089491E+002, 4.3380253E+002, 4.2834757E+002, 4.3497093E+002, 4.2509399E+002, 3.1551009E+002, 4.0820160E+002
 1.0300037E+003, 4.3517533E+002, 3.7454607E+002, 4.2310436E+002, 4.3493433E+002, 4.2974388E+002, 4.3602962E+002, 4.2687069E+002, 3.1566396E+002, 4.0669240E+002
 1.0400039E+003, 4.1054747E+002, 3.7387794E+002, 4.2288406E+002, 4.3359218E+002, 4.2871765E+002, 4.3460538E+002, 4.2621709E+002, 3.1383998E+002, 4.0307346E+002
 1.0500218E+003, 4.0167272E+002, 3.7163250E+002, 4.2094671E+002, 4.3059347E+002, 4.2606401E+002, 4.3152217E+002, 4.2388938E+002, 3.1084485E+002, 3.9835386E+002
 1.0600181E+003, 3.9280249E+002, 3.6868897E+002, 4.1817644E+002, 4.2692411E+002, 4.2273751E+002, 4.2777369E+002, 4.2081076E+002, 3.0754788E+002, 3.9360702E+002
 1.0700204E+003, 3.8393399E+002, 3.6555371E+002, 4.1508253E+002, 4.2307374E+002, 4.1921050E+002, 4.2385134E+002, 4.1747479E+002, 3.0431845E+002, 3.8919302E+002
 1.0800109E+003, 3.7507717E+002, 3.6241779E+002, 4.1184618E+002, 4.1916565E+002, 4.1560218E+002, 4.1987734E+002, 4.1403195E+002, 3.0123192E+002, 3.8509743E+002
 1.0900384E+003, 3.6620530E+002, 3.5934572E+002, 4.0852676E+002, 4.1522307E+002, 4.1193710E+002, 4.1587371E+002, 4.1052297E+002, 2.9828156E+002, 3.8126332E+002
 1.1000460E+003, 3.5732479E+002, 3.5634296E+002, 4.0512464E+002, 4.1121876E+002, 4.0819069E+002, 4.1181201E+002, 4.0693476E+002, 2.9543324E+002, 3.7760210E+002
 1.1100162E+003, 3.4847299E+002, 3.5342877E+002, 4.0167036E+002, 4.0718105E+002, 4.0439345E+002, 4.0772020E+002, 4.0329684E+002, 2.9268083E+002, 3.7410566E+002
 1.1200017E+003, 3.3963327E+002, 3.5058853E+002, 3.9815575E+002, 4.0309429E+002, 4.0053337E+002, 4.0358190E+002, 3.9959824E+002, 2.9000077E+002, 3.7072757E+002
 1.1300530E+003, 3.3074999E+002, 3.4781638E+002, 3.9459284E+002, 3.9897466E+002, 3.9663053E+002, 3.9941275E+002, 3.9585442E+002, 2.8736990E+002, 3.6745936E+002
 1.1400385E+003, 3.2186313E+002, 3.4510257E+002, 3.9098782E+002, 3.9482370E+002, 3.9268687E+002, 3.9521404E+002, 3.9206942E+002, 2.8476750E+002, 3.6426034E+002
 1.1500159E+003, 3.1302218E+002, 3.4241662E+002, 3.8731023E+002, 3.9060047E+002, 3.8866138E+002, 3.9094461E+002, 3.8820767E+002, 2.8217912E+002, 3.6106527E+002
 1.1600185E+003, 3.0416473E+002, 3.3972588E+002, 3.8352522E+002, 3.8626972E+002, 3.8452154E+002, 3.8656885E+002, 3.8423477E+002, 2.7958820E+002, 3.5784368E+002
 1.1700354E+003, 2.9529017E+002, 3.3707412E+002, 3.7970500E+002, 3.8192851E+002, 3.8036735E+002, 3.8218409E+002, 3.8023630E+002, 2.7702864E+002, 3.5469490E+002
 1.1800340E+003, 2.8642222E+002, 3.3442774E+002, 3.7581731E+002, 3.7752270E+002, 3.7614238E+002, 3.7773573E+002, 3.7616897E+002, 2.7446764E+002, 3.5151484E+002
 1.1900457E+003, 2.7754618E+002, 3.3178156E+002, 3.7186538E+002, 3.7306396E+002, 3.7185929E+002, 3.7323559E+002, 3.7204030E+002, 2.7190766E+002, 3.4832577E+002
 1.2000042E+003, 2.6870139E+002, 3.2912255E+002, 3.6784187E+002, 3.6853773E+002, 3.6750286E+002, 3.6866903E+002, 3.6783923E+002, 2.6934010E+002, 3.4508896E+002
 1.2100219E+003, 2.5984562E+002, 3.2641460E+002, 3.6370472E+002, 3.6389520E+002, 3.6302503E+002, 3.6398693E+002, 3.6352061E+002, 2.6674234E+002, 3.4175449E+002
 1.2200500E+003, 2.5096544E+002, 3.2367881E+002, 3.5948392E+002, 3.5918552E+002, 3.5847774E+002, 3.5923859E+002, 3.5912469E+002, 2.6414480E+002, 3.3840168E+002
 1.2300219E+003, 2.4210499E+002, 3.2094773E+002, 3.5523673E+002, 3.5446627E+002, 3.5391656E+002, 3.5448186E+002, 3.5470879E+002, 2.6156303E+002, 3.3504711E+002
