s,C,C,C,C,C,C,C
Time,"Air Temp","VTT_1","IRSN_1","TRAC_2","TRAC_4","GRS_2","NRC_2"
 0.0000000E+000, 2.5000000E+001, 2.5000000E+001, 2.5000000E+001, 2.5000000E+001, 2.5000000E+001, 2.5000000E+001, 2.5000000E+001
 1.0200000E+001, 2.5421647E+001, 2.5000021E+001, 2.5000018E+001, 2.5000026E+001, 2.5000026E+001, 2.5000027E+001, 2.5000208E+001
 2.0200000E+001, 2.6216000E+001, 2.5000612E+001, 2.5000512E+001, 2.5000713E+001, 2.5000723E+001, 2.5000680E+001, 2.5003167E+001
 3.0200000E+001, 2.9182381E+001, 2.5003222E+001, 2.5002704E+001, 2.5003688E+001, 2.5003741E+001, 2.5003268E+001, 2.5011465E+001
 4.0042676E+001, 4.4100296E+001, 2.5011942E+001, 2.5010009E+001, 2.5013655E+001, 2.5013852E+001, 2.5012066E+001, 2.5046669E+001
 5.0099730E+001, 6.0865797E+001, 2.5054593E+001, 2.5045372E+001, 2.5062420E+001, 2.5063290E+001, 2.5054476E+001, 2.5205064E+001
 6.0103371E+001, 7.7750329E+001, 2.5179868E+001, 2.5148769E+001, 2.5203872E+001, 2.5206618E+001, 2.5169508E+001, 2.5552807E+001
 7.0075104E+001, 9.4544240E+001, 2.5429342E+001, 2.5353957E+001, 2.5482651E+001, 2.5488984E+001, 2.5383988E+001, 2.6119962E+001
 8.0023345E+001, 1.1127634E+002, 2.5839527E+001, 2.5689589E+001, 2.5937496E+001, 2.5949494E+001, 2.5718919E+001, 2.6937489E+001
 9.0029744E+001, 1.2805710E+002, 2.6443242E+001, 2.6181226E+001, 2.6602784E+001, 2.6622849E+001, 2.6192099E+001, 2.8007399E+001
 1.0002657E+002, 1.4487586E+002, 2.7255646E+001, 2.6841121E+001, 2.7493600E+001, 2.7524368E+001, 2.6810048E+001, 2.9320858E+001
 1.1005597E+002, 1.6173180E+002, 2.8297504E+001, 2.7685059E+001, 2.8632120E+001, 2.8676480E+001, 2.7586322E+001, 3.0915960E+001
 1.2005667E+002, 1.7311224E+002, 2.9595246E+001, 2.8732906E+001, 3.0046547E+001, 3.0107638E+001, 2.8537148E+001, 3.2812543E+001
 1.3000466E+002, 1.7920962E+002, 3.1132181E+001, 2.9969508E+001, 3.1715653E+001, 3.1796314E+001, 2.9635508E+001, 3.4854377E+001
 1.4006087E+002, 1.8531830E+002, 3.2854807E+001, 3.1348689E+001, 3.3578034E+001, 3.3680295E+001, 3.0827106E+001, 3.6921273E+001
 1.5005274E+002, 1.9144320E+002, 3.4715453E+001, 3.2827895E+001, 3.5582649E+001, 3.5707888E+001, 3.2077649E+001, 3.9020782E+001
 1.6001153E+002, 1.9754006E+002, 3.6673128E+001, 3.4371746E+001, 3.7686392E+001, 3.7835499E+001, 3.3362225E+001, 4.1123958E+001
 1.7006231E+002, 2.0365322E+002, 3.8732173E+001, 3.5982035E+001, 3.9895540E+001, 4.0069493E+001, 3.4690068E+001, 4.3298616E+001
 1.8000775E+002, 2.0976675E+002, 4.0894371E+001, 3.7659707E+001, 4.2212750E+001, 4.2412372E+001, 3.6067611E+001, 4.5558439E+001
 1.9004975E+002, 2.1587436E+002, 4.3159055E+001, 3.9404373E+001, 4.4637317E+001, 4.4863485E+001, 3.7494005E+001, 4.7884733E+001
 2.0002372E+002, 2.2198819E+002, 4.5526959E+001, 4.1216471E+001, 4.7170480E+001, 4.7424232E+001, 3.8970137E+001, 5.0282543E+001
 2.1004467E+002, 2.3104316E+002, 4.8000314E+001, 4.3098752E+001, 4.9814955E+001, 5.0097210E+001, 4.0502995E+001, 5.2796301E+001
 2.2002138E+002, 2.4296086E+002, 5.0612200E+001, 4.5079548E+001, 5.2607633E+001, 5.2919642E+001, 4.2124491E+001, 5.5531981E+001
 2.3003987E+002, 2.5488170E+002, 5.3426665E+001, 4.7212814E+001, 5.5619924E+001, 5.5963876E+001, 4.3890802E+001, 5.8597888E+001
 2.4003660E+002, 2.6681504E+002, 5.6494589E+001, 4.9541815E+001, 5.8905847E+001, 5.9284688E+001, 4.5834888E+001, 6.1978674E+001
 2.5000571E+002, 2.7871661E+002, 5.9832306E+001, 5.2082322E+001, 6.2481681E+001, 6.2898505E+001, 4.7967175E+001, 6.5695518E+001
 2.6001150E+002, 2.9061860E+002, 6.3486790E+001, 5.4873819E+001, 6.6395943E+001, 6.6853890E+001, 5.0320338E+001, 6.9801252E+001
 2.7002837E+002, 3.0256101E+002, 6.7478939E+001, 5.7934802E+001, 7.0668266E+001, 7.1170539E+001, 5.2904139E+001, 7.4257234E+001
 2.8003251E+002, 3.1450174E+002, 7.1804878E+001, 6.1262227E+001, 7.5293695E+001, 7.5843520E+001, 5.5710151E+001, 7.9035691E+001
 2.9003378E+002, 3.2641838E+002, 7.6474017E+001, 6.4862129E+001, 8.0282457E+001, 8.0883155E+001, 5.8745149E+001, 8.4190380E+001
 3.0001436E+002, 3.3832671E+002, 8.1506522E+001, 6.8752714E+001, 8.5654144E+001, 8.6308659E+001, 6.2029518E+001, 8.9750134E+001
 3.1002430E+002, 3.5024215E+002, 8.6928502E+001, 7.2954680E+001, 9.1435537E+001, 9.2146892E+001, 6.5579315E+001, 9.5708045E+001
 3.2002335E+002, 3.6217080E+002, 9.2755632E+001, 7.7477485E+001, 9.7643785E+001, 9.8415386E+001, 6.9398165E+001, 1.0206707E+002
 3.3001970E+002, 3.7408741E+002, 9.8981028E+001, 8.2314475E+001, 1.0427098E+002, 1.0510628E+002, 7.3476791E+001, 1.0880548E+002
 3.4000745E+002, 3.8260904E+002, 1.0561727E+002, 8.7483488E+001, 1.1132543E+002, 1.1222663E+002, 7.7842021E+001, 1.1598320E+002
 3.5003666E+002, 3.8779047E+002, 1.1262971E+002, 9.2960782E+001, 1.1876078E+002, 1.1972849E+002, 8.2453068E+001, 1.2332057E+002
 3.6003703E+002, 3.9297630E+002, 1.1988819E+002, 9.8628567E+001, 1.2643495E+002, 1.2746864E+002, 8.7176156E+001, 1.3060406E+002
 3.7003411E+002, 3.9815427E+002, 1.2728489E+002, 1.0439712E+002, 1.3423130E+002, 1.3532864E+002, 9.1945571E+001, 1.3782280E+002
 3.8002417E+002, 4.0332986E+002, 1.3477332E+002, 1.1022979E+002, 1.4210126E+002, 1.4325914E+002, 9.6745135E+001, 1.4501532E+002
 3.9004178E+002, 4.0851029E+002, 1.4234907E+002, 1.1611792E+002, 1.5004522E+002, 1.5126108E+002, 1.0157250E+002, 1.5221315E+002
 4.0002874E+002, 4.1368943E+002, 1.5000890E+002, 1.2205515E+002, 1.5806418E+002, 1.5933598E+002, 1.0642874E+002, 1.5946720E+002
 4.1002801E+002, 4.1886444E+002, 1.5772761E+002, 1.2803562E+002, 1.6612565E+002, 1.6745006E+002, 1.1132320E+002, 1.6672433E+002
 4.2001847E+002, 4.2404203E+002, 1.6550246E+002, 1.3406183E+002, 1.7422800E+002, 1.7560173E+002, 1.1625917E+002, 1.7403295E+002
 4.3003517E+002, 4.2921988E+002, 1.7335691E+002, 1.4014760E+002, 1.8240061E+002, 1.8382140E+002, 1.2124361E+002, 1.8141415E+002
 4.4001285E+002, 4.3439821E+002, 1.8126159E+002, 1.4628023E+002, 1.9060836E+002, 1.9207314E+002, 1.2627220E+002, 1.8881680E+002
 4.5001588E+002, 4.3957116E+002, 1.8921263E+002, 1.5246344E+002, 1.9884692E+002, 2.0035243E+002, 1.3135357E+002, 1.9629664E+002
 4.6002519E+002, 4.4475262E+002, 1.9723043E+002, 1.5871664E+002, 2.0713764E+002, 2.0868076E+002, 1.3650233E+002, 2.0384895E+002
 4.7003546E+002, 4.4993593E+002, 2.0531199E+002, 1.6503563E+002, 2.1548000E+002, 2.1705804E+002, 1.4171039E+002, 2.1148236E+002
 4.8000232E+002, 4.5510864E+002, 2.1343332E+002, 1.7140663E+002, 2.2384800E+002, 2.2545801E+002, 1.4696883E+002, 2.1917554E+002
 4.9002630E+002, 4.6028627E+002, 2.2161115E+002, 1.7784867E+002, 2.3225687E+002, 2.3389564E+002, 1.5229655E+002, 2.2691242E+002
 5.0002062E+002, 4.6546917E+002, 2.2980855E+002, 1.8434937E+002, 2.4066131E+002, 2.4232460E+002, 1.5769326E+002, 2.3466340E+002
 5.1001471E+002, 4.7064574E+002, 2.3799277E+002, 1.9088580E+002, 2.4902916E+002, 2.5071282E+002, 1.6314122E+002, 2.4240631E+002
 5.2001473E+002, 4.7582178E+002, 2.4616719E+002, 1.9746417E+002, 2.5736429E+002, 2.5906428E+002, 1.6864770E+002, 2.5016449E+002
 5.3001404E+002, 4.8100230E+002, 2.5434714E+002, 2.0409248E+002, 2.6568780E+002, 2.6740082E+002, 1.7421622E+002, 2.5801723E+002
 5.4000203E+002, 4.8617359E+002, 2.6256274E+002, 2.1078224E+002, 2.7403747E+002, 2.7576131E+002, 1.7984471E+002, 2.6595085E+002
 5.5001848E+002, 4.9135360E+002, 2.7080001E+002, 2.1753214E+002, 2.8239251E+002, 2.8412447E+002, 1.8553631E+002, 2.7388240E+002
 5.6001727E+002, 4.9653763E+002, 2.7903572E+002, 2.2433168E+002, 2.9072684E+002, 2.9246373E+002, 1.9129004E+002, 2.8183620E+002
 5.7002487E+002, 5.0171645E+002, 2.8726208E+002, 2.3117388E+002, 2.9903514E+002, 3.0077411E+002, 1.9709895E+002, 2.8982455E+002
 5.8003401E+002, 5.0689720E+002, 2.9551317E+002, 2.3807830E+002, 3.0735801E+002, 3.0909699E+002, 2.0297386E+002, 2.9790098E+002
 5.9001405E+002, 5.1207796E+002, 3.0374230E+002, 2.4501805E+002, 3.1564031E+002, 3.1737637E+002, 2.0889772E+002, 3.0591581E+002
 6.0001367E+002, 5.1724888E+002, 3.1195022E+002, 2.5199099E+002, 3.2388628E+002, 3.2561706E+002, 2.1486661E+002, 3.1395191E+002
 6.1001836E+002, 5.2242969E+002, 3.2016486E+002, 2.5901511E+002, 3.3212776E+002, 3.3385128E+002, 2.2089502E+002, 3.2205172E+002
 6.2002448E+002, 5.2500000E+002, 3.2832628E+002, 2.6605808E+002, 3.4029244E+002, 3.4200564E+002, 2.2696150E+002, 3.2988942E+002
 6.3000990E+002, 5.2500000E+002, 3.3627683E+002, 2.7300372E+002, 3.4820840E+002, 3.4990686E+002, 2.3295233E+002, 3.3735240E+002
 6.4002207E+002, 5.2500000E+002, 3.4399506E+002, 2.7978426E+002, 3.5586544E+002, 3.5754604E+002, 2.3875382E+002, 3.4434012E+002
 6.5000032E+002, 5.2500000E+002, 3.5136509E+002, 2.8630283E+002, 3.6313919E+002, 3.6479793E+002, 2.4429235E+002, 3.5082997E+002
 6.6000012E+002, 5.2500000E+002, 3.5840210E+002, 2.9255906E+002, 3.7005735E+002, 3.7169114E+002, 2.4958226E+002, 3.5701867E+002
 6.7002902E+002, 5.3142989E+002, 3.6517644E+002, 2.9860267E+002, 3.7669955E+002, 3.7830642E+002, 2.5467255E+002, 3.6302533E+002
 6.8000105E+002, 5.4420633E+002, 3.7175900E+002, 3.0452801E+002, 3.8314689E+002, 3.8472602E+002, 2.5973943E+002, 3.6937395E+002
 6.9001018E+002, 5.5697288E+002, 3.7853310E+002, 3.1067873E+002, 3.8982539E+002, 3.9138016E+002, 2.6517457E+002, 3.7686719E+002
 7.0001738E+002, 5.6976111E+002, 3.8580118E+002, 3.1732319E+002, 3.9704860E+002, 3.9858395E+002, 2.7119462E+002, 3.8545696E+002
 7.1001366E+002, 5.8253918E+002, 3.9361909E+002, 3.2452444E+002, 4.0485876E+002, 4.0637879E+002, 2.7781216E+002, 3.9483804E+002
 7.2000691E+002, 5.9531174E+002, 4.0203489E+002, 3.3232160E+002, 4.1329953E+002, 4.1480759E+002, 2.8503947E+002, 4.0506727E+002
 7.3002423E+002, 6.0809659E+002, 4.1098155E+002, 3.4068229E+002, 4.2227946E+002, 4.2377662E+002, 2.9283966E+002, 4.1569826E+002
 7.4002628E+002, 6.2088606E+002, 4.2039351E+002, 3.4954523E+002, 4.3173041E+002, 4.3321720E+002, 3.0115306E+002, 4.2688699E+002
 7.5002373E+002, 6.3366347E+002, 4.3029108E+002, 3.5890134E+002, 4.4167882E+002, 4.4315591E+002, 3.0996437E+002, 4.3863479E+002
 7.6002660E+002, 6.4056011E+002, 4.4061997E+002, 3.6870615E+002, 4.5205793E+002, 4.5352480E+002, 3.1922793E+002, 4.5059750E+002
 7.7000790E+002, 6.4167053E+002, 4.5104977E+002, 3.7867618E+002, 4.6249730E+002, 4.6395020E+002, 3.2860335E+002, 4.6168024E+002
 7.8000556E+002, 6.4278004E+002, 4.6118671E+002, 3.8842626E+002, 4.7258147E+002, 4.7401443E+002, 3.3765548E+002, 4.7165165E+002
 7.9001949E+002, 6.4389199E+002, 4.7088522E+002, 3.9778197E+002, 4.8217630E+002, 4.8358398E+002, 3.4623647E+002, 4.8074890E+002
 8.0000419E+002, 6.4500306E+002, 4.8005117E+002, 4.0664368E+002, 4.9119626E+002, 4.9257420E+002, 3.5429354E+002, 4.8891923E+002
 8.1001655E+002, 6.4611421E+002, 4.8858911E+002, 4.1495277E+002, 4.9954463E+002, 5.0088879E+002, 3.6182769E+002, 4.9625072E+002
 8.2001739E+002, 6.4722567E+002, 4.9657063E+002, 4.2276557E+002, 5.0731263E+002, 5.0862065E+002, 3.6891751E+002, 5.0308577E+002
 8.3001769E+002, 6.4833664E+002, 5.0408675E+002, 4.3015029E+002, 5.1460648E+002, 5.1587757E+002, 3.7562344E+002, 5.0957590E+002
 8.4000451E+002, 6.4944758E+002, 5.1117659E+002, 4.3715100E+002, 5.2146503E+002, 5.2269863E+002, 3.8198375E+002, 5.1562346E+002
 8.5002485E+002, 6.5055889E+002, 5.1787744E+002, 4.4381231E+002, 5.2792772E+002, 5.2912368E+002, 3.8804160E+002, 5.2136310E+002
 8.6002979E+002, 6.5167143E+002, 5.2418620E+002, 4.5014896E+002, 5.3398747E+002, 5.3514572E+002, 3.9381015E+002, 5.2664215E+002
 8.7001874E+002, 6.5278188E+002, 5.3013864E+002, 4.5618949E+002, 5.3969000E+002, 5.4081117E+002, 3.9932148E+002, 5.3181061E+002
 8.8002121E+002, 6.5389274E+002, 5.3585568E+002, 4.6202817E+002, 5.4516525E+002, 5.4625048E+002, 4.0464910E+002, 5.3694069E+002
 8.9002806E+002, 6.5500441E+002, 5.4136296E+002, 4.6769394E+002, 5.5043392E+002, 5.5148406E+002, 4.0980449E+002, 5.4184390E+002
 9.0002098E+002, 6.5611519E+002, 5.4659142E+002, 4.7314960E+002, 5.5541670E+002, 5.5643206E+002, 4.1476304E+002, 5.4637169E+002
 9.1000232E+002, 6.5722505E+002, 5.5148764E+002, 4.7836146E+002, 5.6005757E+002, 5.6103853E+002, 4.1950232E+002, 5.5054663E+002
 9.2001966E+002, 6.5833637E+002, 5.5613833E+002, 4.8339236E+002, 5.6445622E+002, 5.6540376E+002, 4.2408440E+002, 5.5466933E+002
 9.3000994E+002, 6.5944756E+002, 5.6062441E+002, 4.8830042E+002, 5.6870117E+002, 5.6961672E+002, 4.2855821E+002, 5.5889877E+002
 9.4000371E+002, 6.5365722E+002, 5.6496829E+002, 4.9310059E+002, 5.7281030E+002, 5.7369499E+002, 4.3291116E+002, 5.6281272E+002
 9.5001807E+002, 6.4101970E+002, 5.6883702E+002, 4.9752413E+002, 5.7640312E+002, 5.7725453E+002, 4.3679753E+002, 5.6517883E+002
 9.6002001E+002, 6.2837758E+002, 5.7177227E+002, 5.0114487E+002, 5.7899119E+002, 5.7980407E+002, 4.3974361E+002, 5.6568616E+002
 9.7000280E+002, 6.1575505E+002, 5.7363441E+002, 5.0380722E+002, 5.8045177E+002, 5.8122155E+002, 4.4166173E+002, 5.6487030E+002
 9.8002765E+002, 6.0312120E+002, 5.7443402E+002, 5.0552358E+002, 5.8080939E+002, 5.8153283E+002, 4.4263073E+002, 5.6290420E+002
 9.9000127E+002, 5.9048908E+002, 5.7431199E+002, 5.0640733E+002, 5.8023110E+002, 5.8090660E+002, 4.4280304E+002, 5.6037140E+002
 1.0000283E+003, 5.7785708E+002, 5.7338909E+002, 5.0657350E+002, 5.7884341E+002, 5.7946984E+002, 4.4229744E+002, 5.5709527E+002
 1.0100299E+003, 5.6520746E+002, 5.7169380E+002, 5.0607123E+002, 5.7667399E+002, 5.7725062E+002, 4.4117680E+002, 5.5327512E+002
 1.0200079E+003, 5.5258701E+002, 5.6936758E+002, 5.0501969E+002, 5.7387792E+002, 5.7440517E+002, 4.3955815E+002, 5.4913187E+002
 1.0300136E+003, 5.3996363E+002, 5.6648710E+002, 5.0350369E+002, 5.7053112E+002, 5.7100937E+002, 4.3752742E+002, 5.4464251E+002
 1.0400103E+003, 5.2732981E+002, 5.6307078E+002, 5.0156059E+002, 5.6664734E+002, 5.6707692E+002, 4.3512058E+002, 5.3971626E+002
 1.0500187E+003, 5.1469368E+002, 5.5916948E+002, 4.9923493E+002, 5.6228155E+002, 5.6266288E+002, 4.3238045E+002, 5.3456176E+002
 1.0600126E+003, 5.0206074E+002, 5.5485176E+002, 4.9658208E+002, 5.5750506E+002, 5.5783852E+002, 4.2935516E+002, 5.2918741E+002
 1.0700041E+003, 4.8943582E+002, 5.5018406E+002, 4.9366384E+002, 5.5238841E+002, 5.5267483E+002, 4.2611125E+002, 5.2375144E+002
 1.0800383E+003, 4.7678927E+002, 5.4521864E+002, 4.9052450E+002, 5.4698374E+002, 5.4722403E+002, 4.2267341E+002, 5.1811787E+002
 1.0900300E+003, 4.6414498E+002, 5.3995716E+002, 4.8716831E+002, 5.4128877E+002, 5.4148324E+002, 4.1905072E+002, 5.1235738E+002
 1.1000191E+003, 4.5152556E+002, 5.3445288E+002, 4.8363384E+002, 5.3535940E+002, 5.3550860E+002, 4.1528375E+002, 5.0646727E+002
 1.1100061E+003, 4.3890754E+002, 5.2871611E+002, 4.7993370E+002, 5.2920539E+002, 5.2931002E+002, 4.1138900E+002, 5.0049879E+002
 1.1200339E+003, 4.2626514E+002, 5.2274857E+002, 4.7607394E+002, 5.2282645E+002, 5.2288722E+002, 4.0737215E+002, 4.9436580E+002
 1.1300102E+003, 4.1747787E+002, 5.1659981E+002, 4.7208623E+002, 5.1627638E+002, 5.1629402E+002, 4.0326412E+002, 4.8819687E+002
 1.1400104E+003, 4.1248650E+002, 5.1031103E+002, 4.6801385E+002, 5.0959982E+002, 5.0957601E+002, 3.9913710E+002, 4.8213211E+002
 1.1500266E+003, 4.0748087E+002, 5.0406615E+002, 4.6400431E+002, 5.0300254E+002, 5.0294034E+002, 3.9514902E+002, 4.7668856E+002
 1.1600053E+003, 4.0247916E+002, 4.9797833E+002, 4.6015024E+002, 4.9659501E+002, 4.9649791E+002, 3.9135921E+002, 4.7146192E+002
 1.1700139E+003, 3.9748453E+002, 4.9196814E+002, 4.5639889E+002, 4.9028257E+002, 4.9015341E+002, 3.8770773E+002, 4.6627880E+002
 1.1800056E+003, 3.9248318E+002, 4.8610348E+002, 4.5278943E+002, 4.8414286E+002, 4.8398447E+002, 3.8423025E+002, 4.6149436E+002
 1.1900265E+003, 3.8748175E+002, 4.8036591E+002, 4.4930133E+002, 4.7814804E+002, 4.7796263E+002, 3.8088642E+002, 4.5677260E+002
 1.2000384E+003, 3.8247140E+002, 4.7473266E+002, 4.4590934E+002, 4.7227266E+002, 4.7206209E+002, 3.7765398E+002, 4.5210948E+002
 1.2100219E+003, 3.7747344E+002, 4.6916788E+002, 4.4257811E+002, 4.6647589E+002, 4.6624160E+002, 3.7450164E+002, 4.4742539E+002
 1.2200112E+003, 3.7247954E+002, 4.6368318E+002, 4.3930703E+002, 4.6077353E+002, 4.6051707E+002, 3.7143530E+002, 4.4289561E+002
 1.2300328E+003, 3.6747554E+002, 4.5825794E+002, 4.3607754E+002, 4.5514217E+002, 4.5486492E+002, 3.6843503E+002, 4.3839493E+002
 1.2400047E+003, 3.6248012E+002, 4.5293070E+002, 4.3290845E+002, 4.4962361E+002, 4.4932691E+002, 3.6551705E+002, 4.3404885E+002
 1.2500276E+003, 3.5748194E+002, 4.4772789E+002, 4.2981440E+002, 4.4424550E+002, 4.4393051E+002, 3.6268946E+002, 4.2989502E+002
 1.2600191E+003, 3.5247915E+002, 4.4263971E+002, 4.2678621E+002, 4.3899455E+002, 4.3866222E+002, 3.5993813E+002, 4.2583958E+002
 1.2700423E+003, 3.4747331E+002, 4.3768191E+002, 4.2383136E+002, 4.3388662E+002, 4.3353780E+002, 3.5726343E+002, 4.2186976E+002
 1.2800327E+003, 3.4246472E+002, 4.3279946E+002, 4.2090959E+002, 4.2886015E+002, 4.2849543E+002, 3.5463958E+002, 4.1785835E+002
 1.2900320E+003, 3.3747133E+002, 4.2796274E+002, 4.1799622E+002, 4.2388380E+002, 4.2350382E+002, 3.5205043E+002, 4.1379775E+002
 1.3000519E+003, 3.3246686E+002, 4.2318753E+002, 4.1510015E+002, 4.1897816E+002, 4.1858342E+002, 3.4950541E+002, 4.0987184E+002
 1.3100362E+003, 3.2746322E+002, 4.1847346E+002, 4.1221939E+002, 4.1413960E+002, 4.1373069E+002, 3.4699626E+002, 4.0587250E+002
 1.3200461E+003, 3.2246606E+002, 4.1375974E+002, 4.0931068E+002, 4.0930276E+002, 4.0888040E+002, 3.4449167E+002, 4.0177369E+002
 1.3300200E+003, 3.1747191E+002, 4.0906762E+002, 4.0638778E+002, 4.0449323E+002, 4.0405807E+002, 3.4200866E+002, 3.9770354E+002
 1.3400363E+003, 3.1246769E+002, 4.0438432E+002, 4.0344124E+002, 3.9969640E+002, 3.9924887E+002, 3.3953732E+002, 3.9362006E+002
 1.3500480E+003, 3.0745714E+002, 3.9976351E+002, 4.0051099E+002, 3.9497232E+002, 3.9451299E+002, 3.3710764E+002, 3.8972094E+002
 1.3600079E+003, 3.0247256E+002, 3.9519486E+002, 3.9758904E+002, 3.9030367E+002, 3.8983287E+002, 3.3470540E+002, 3.8574622E+002
 1.3700247E+003, 2.9748118E+002, 3.9067112E+002, 3.9467096E+002, 3.8568574E+002, 3.8520391E+002, 3.3233533E+002, 3.8185794E+002
 1.3800256E+003, 2.9247396E+002, 3.8620529E+002, 3.9176766E+002, 3.8113312E+002, 3.8064064E+002, 3.3000432E+002, 3.7809224E+002
 1.3900486E+003, 2.8746855E+002, 3.8182951E+002, 3.8890368E+002, 3.7667784E+002, 3.7617492E+002, 3.2772021E+002, 3.7439485E+002
 1.4000244E+003, 2.8246900E+002, 3.7751743E+002, 3.8605917E+002, 3.7228921E+002, 3.7177617E+002, 3.2546478E+002, 3.7068493E+002
 1.4100338E+003, 2.7746921E+002, 3.7323378E+002, 3.8320974E+002, 3.6792967E+002, 3.6740676E+002, 3.2322723E+002, 3.6689046E+002
 1.4200271E+003, 2.7247254E+002, 3.6894006E+002, 3.8032771E+002, 3.6355892E+002, 3.6302623E+002, 3.2098475E+002, 3.6302406E+002
 1.4300365E+003, 2.6746984E+002, 3.6466505E+002, 3.7743382E+002, 3.5921036E+002, 3.5866820E+002, 3.1875677E+002, 3.5923879E+002
 1.4400133E+003, 2.6247498E+002, 3.6039365E+002, 3.7451743E+002, 3.5486539E+002, 3.5431411E+002, 3.1652912E+002, 3.5532450E+002
 1.4500038E+003, 2.5748427E+002, 3.5615787E+002, 3.7160260E+002, 3.5056229E+002, 3.5000228E+002, 3.1433054E+002, 3.5167621E+002
 1.4600036E+003, 2.5248317E+002, 3.5201803E+002, 3.6873822E+002, 3.4636315E+002, 3.4579462E+002, 3.1218708E+002, 3.4813066E+002
 1.4700195E+003, 2.4747982E+002, 3.4792137E+002, 3.6588600E+002, 3.4220780E+002, 3.4163090E+002, 3.1006442E+002, 3.4448416E+002
 1.4800584E+003, 2.4246399E+002, 3.4382089E+002, 3.6300956E+002, 3.3804733E+002, 3.3746220E+002, 3.0793830E+002, 3.4078162E+002
 1.4900160E+003, 2.3746316E+002, 3.3975613E+002, 3.6013734E+002, 3.3392546E+002, 3.3333232E+002, 3.0583509E+002, 3.3712353E+002
 1.5000022E+003, 2.3248152E+002, 3.3571249E+002, 3.5725985E+002, 3.2982534E+002, 3.2922437E+002, 3.0374179E+002, 3.3346122E+002
 1.5100473E+003, 2.2747125E+002, 3.3169213E+002, 3.5438205E+002, 3.2575215E+002, 3.2514345E+002, 3.0166546E+002, 3.2990464E+002
 1.5200462E+003, 2.2246403E+002, 3.2770215E+002, 3.5150912E+002, 3.2171037E+002, 3.2109409E+002, 2.9960498E+002, 3.2625939E+002
 1.5300571E+003, 2.1745640E+002, 3.2371235E+002, 3.4861681E+002, 3.1766775E+002, 3.1704406E+002, 2.9754337E+002, 3.2261020E+002
 1.5400172E+003, 2.1246549E+002, 3.1977247E+002, 3.4574525E+002, 3.1367975E+002, 3.1304884E+002, 2.9551664E+002, 3.1912865E+002
