s,C,C,C,C,C,C,C,C,C
Time,"Air Temp","IRSN_1","IRSN_2","TRAC_2","TRAC_3","TRAC_4","VTT_1","GRS_2","NRC_1"
 0.0000000E+000, 2.0000000E+001, 2.0000000E+001, 2.0000000E+001, 2.0000000E+001, 2.0000000E+001, 2.0000000E+001, 2.0000000E+001, 2.0000000E+001, 2.0000000E+001
 1.0200000E+001, 2.2365918E+001, 2.0000094E+001, 2.0000097E+001, 2.0000135E+001, 2.0000131E+001, 2.0000137E+001, 2.0000113E+001, 2.0000144E+001, 2.0000222E+001
 2.0200000E+001, 2.6956000E+001, 2.0002790E+001, 2.0002958E+001, 2.0003887E+001, 2.0003723E+001, 2.0003943E+001, 2.0003339E+001, 2.0003715E+001, 2.0005526E+001
 3.0009653E+001, 3.7504887E+001, 2.0015284E+001, 2.0016567E+001, 2.0020980E+001, 2.0020016E+001, 2.0021278E+001, 2.0018317E+001, 2.0018523E+001, 2.0027245E+001
 4.0004994E+001, 5.9509128E+001, 2.0052979E+001, 2.0058186E+001, 2.0072762E+001, 2.0069491E+001, 2.0073761E+001, 2.0063921E+001, 2.0061749E+001, 2.0091329E+001
 5.0029477E+001, 8.2173816E+001, 2.0161663E+001, 2.0179379E+001, 2.0222181E+001, 2.0212318E+001, 2.0225169E+001, 2.0196137E+001, 2.0183055E+001, 2.0271618E+001
 6.0045358E+001, 1.0480558E+002, 2.0397394E+001, 2.0445585E+001, 2.0544293E+001, 2.0519785E+001, 2.0551428E+001, 2.0483657E+001, 2.0432719E+001, 2.0641779E+001
 7.0060044E+001, 1.2743918E+002, 2.0808500E+001, 2.0915456E+001, 2.1102952E+001, 2.1052400E+001, 2.1117086E+001, 2.0986349E+001, 2.0848491E+001, 2.1255428E+001
 8.0007762E+001, 1.5004012E+002, 2.1431069E+001, 2.1633808E+001, 2.1945013E+001, 2.1854200E+001, 2.1969520E+001, 2.1748815E+001, 2.1456659E+001, 2.2147626E+001
 9.0031049E+001, 1.7260635E+002, 2.2305535E+001, 2.2650438E+001, 2.3124414E+001, 2.2976385E+001, 2.3163245E+001, 2.2821666E+001, 2.2290052E+001, 2.3364772E+001
 1.0001028E+002, 1.9522379E+002, 2.3462800E+001, 2.4004874E+001, 2.4681064E+001, 2.4455302E+001, 2.4738756E+001, 2.4243096E+001, 2.3371017E+001, 2.4931181E+001
 1.1000854E+002, 2.1583029E+002, 2.4931756E+001, 2.5733496E+001, 2.6654877E+001, 2.6328242E+001, 2.6736523E+001, 2.6049915E+001, 2.4726170E+001, 2.6883320E+001
 1.2003968E+002, 2.1851717E+002, 2.6756802E+001, 2.7893427E+001, 2.9106663E+001, 2.8654589E+001, 2.9217660E+001, 2.8300538E+001, 2.6385768E+001, 2.9266535E+001
 1.3000551E+002, 2.1687761E+002, 2.8814037E+001, 3.0356138E+001, 3.1862873E+001, 3.1265646E+001, 3.2006383E+001, 3.0846470E+001, 2.8185776E+001, 3.1828834E+001
 1.4001478E+002, 2.1524097E+002, 3.0940380E+001, 3.2942128E+001, 3.4715290E+001, 3.3965274E+001, 3.4891706E+001, 3.3498569E+001, 2.9970580E+001, 3.4356817E+001
 1.5001148E+002, 2.1360036E+002, 3.3043490E+001, 3.5546730E+001, 3.7556111E+001, 3.6653065E+001, 3.7764545E+001, 3.6153533E+001, 3.1676079E+001, 3.6769217E+001
 1.6004208E+002, 2.1195880E+002, 3.5079122E+001, 3.8114926E+001, 4.0335782E+001, 3.9284734E+001, 4.0574663E+001, 3.8761295E+001, 3.3286836E+001, 3.9051705E+001
 1.7004162E+002, 2.1088286E+002, 3.7027708E+001, 4.0619100E+001, 4.3031646E+001, 4.1839917E+001, 4.3299175E+001, 4.1297901E+001, 3.4800757E+001, 4.1204141E+001
 1.8002616E+002, 2.1837827E+002, 3.8884375E+001, 4.3048010E+001, 4.5638599E+001, 4.4313813E+001, 4.5933118E+001, 4.3755441E+001, 3.6226750E+001, 4.3241839E+001
 1.9000438E+002, 2.2877043E+002, 4.0706684E+001, 4.5460434E+001, 4.8235207E+001, 4.6780463E+001, 4.8556407E+001, 4.6200633E+001, 3.7639551E+001, 4.5275946E+001
 2.0000182E+002, 2.3916170E+002, 4.2596533E+001, 4.7966237E+001, 5.0951412E+001, 4.9363923E+001, 5.1300522E+001, 4.8751025E+001, 3.9143387E+001, 4.7453575E+001
 2.1001029E+002, 2.4956569E+002, 4.4626406E+001, 5.0646133E+001, 5.3873055E+001, 5.2145844E+001, 5.4252120E+001, 5.1488317E+001, 4.0795056E+001, 4.9850000E+001
 2.2004279E+002, 2.5999234E+002, 4.6835225E+001, 5.3545813E+001, 5.7043580E+001, 5.5166336E+001, 5.7455101E+001, 5.4455758E+001, 4.2614460E+001, 5.2488394E+001
 2.3004112E+002, 2.7041379E+002, 4.9230217E+001, 5.6674820E+001, 6.0467503E+001, 5.8427702E+001, 6.0914179E+001, 5.7659323E+001, 4.4598772E+001, 5.5359996E+001
 2.4002944E+002, 2.8081102E+002, 5.1823160E+001, 6.0046006E+001, 6.4156420E+001, 6.1941790E+001, 6.4640867E+001, 6.1111254E+001, 4.6754737E+001, 5.8474345E+001
 2.5002392E+002, 2.9120884E+002, 5.4632960E+001, 6.3681302E+001, 6.8131791E+001, 6.5730572E+001, 6.8656522E+001, 6.4833391E+001, 4.9098089E+001, 6.1851170E+001
 2.6001876E+002, 3.0160036E+002, 5.7674180E+001, 6.7597136E+001, 7.2409256E+001, 6.9810321E+001, 7.2976634E+001, 6.8842066E+001, 5.1638478E+001, 6.5502216E+001
 2.7000442E+002, 3.1200018E+002, 6.0942896E+001, 7.1795614E+001, 7.6990348E+001, 7.4179168E+001, 7.7603281E+001, 7.3137567E+001, 5.4364383E+001, 6.9413249E+001
 2.8001142E+002, 3.2239958E+002, 6.4448639E+001, 7.6289261E+001, 8.1888084E+001, 7.8850236E+001, 8.2549471E+001, 7.7732610E+001, 5.7287238E+001, 7.3598579E+001
 2.9002175E+002, 3.3280914E+002, 6.8205390E+001, 8.1094277E+001, 8.7119515E+001, 8.3841286E+001, 8.7832134E+001, 8.2644142E+001, 6.0418423E+001, 7.8074478E+001
 3.0000010E+002, 3.4321311E+002, 7.2207023E+001, 8.6201014E+001, 9.2671148E+001, 8.9140560E+001, 9.3437359E+001, 8.7861389E+001, 6.3753782E+001, 8.2829282E+001
 3.1001172E+002, 3.5360812E+002, 7.6475234E+001, 9.1631504E+001, 9.8567329E+001, 9.4774826E+001, 9.9389143E+001, 9.3408569E+001, 6.7316633E+001, 8.7895026E+001
 3.2001874E+002, 3.6402672E+002, 8.1026135E+001, 9.7409613E+001, 1.0483403E+002, 1.0076810E+002, 1.0571381E+002, 9.9309828E+001, 7.1115759E+001, 9.3285621E+001
 3.3001620E+002, 3.7443222E+002, 8.5854062E+001, 1.0352450E+002, 1.1145574E+002, 1.0710774E+002, 1.1239523E+002, 1.0555329E+002, 7.5149648E+001, 9.8991242E+001
 3.4000796E+002, 3.8482824E+002, 9.0972316E+001, 1.0998511E+002, 1.1844001E+002, 1.1380525E+002, 1.1944023E+002, 1.1214899E+002, 7.9435163E+001, 1.0502873E+002
 3.5001880E+002, 3.9029536E+002, 9.6381493E+001, 1.1679545E+002, 1.2578834E+002, 1.2086061E+002, 1.2685044E+002, 1.1909914E+002, 8.3963105E+001, 1.1138357E+002
 3.6000180E+002, 3.9088381E+002, 1.0199815E+002, 1.2387306E+002, 1.3339648E+002, 1.2817086E+002, 1.3452073E+002, 1.2631108E+002, 8.8625590E+001, 1.1790530E+002
 3.7000805E+002, 3.9147222E+002, 1.0766318E+002, 1.3104088E+002, 1.4105224E+002, 1.3553748E+002, 1.4223565E+002, 1.3359599E+002, 9.3258062E+001, 1.2436385E+002
 3.8000775E+002, 3.9206027E+002, 1.1326728E+002, 1.3816875E+002, 1.4861504E+002, 1.4283100E+002, 1.4985254E+002, 1.4082308E+002, 9.7780609E+001, 1.3065134E+002
 3.9002131E+002, 3.9264902E+002, 1.1874291E+002, 1.4517422E+002, 1.5600542E+002, 1.4997534E+002, 1.5729156E+002, 1.4791283E+002, 1.0215224E+002, 1.3671973E+002
 4.0000739E+002, 3.9323719E+002, 1.2405835E+002, 1.5201347E+002, 1.6318596E+002, 1.5693413E+002, 1.6451535E+002, 1.5482513E+002, 1.0636449E+002, 1.4256285E+002
 4.1000236E+002, 3.9382469E+002, 1.2920880E+002, 1.5867131E+002, 1.7014778E+002, 1.6369889E+002, 1.7151522E+002, 1.6154821E+002, 1.1042843E+002, 1.4819881E+002
 4.2003035E+002, 3.9441370E+002, 1.3423801E+002, 1.6520063E+002, 1.7696184E+002, 1.7033664E+002, 1.7836333E+002, 1.6814227E+002, 1.1438517E+002, 1.5371035E+002
 4.3001654E+002, 3.9500234E+002, 1.3914547E+002, 1.7159646E+002, 1.8362111E+002, 1.7683823E+002, 1.8505290E+002, 1.7460076E+002, 1.1823266E+002, 1.5908833E+002
 4.4001632E+002, 3.9559030E+002, 1.4392145E+002, 1.7783166E+002, 1.9009112E+002, 1.8317112E+002, 1.9154896E+002, 1.8089380E+002, 1.2196952E+002, 1.6431410E+002
 4.5001453E+002, 3.9617841E+002, 1.4858026E+002, 1.8391574E+002, 1.9638199E+002, 1.8934460E+002, 1.9786181E+002, 1.8703087E+002, 1.2561050E+002, 1.6940482E+002
 4.6002132E+002, 3.9676664E+002, 1.5312265E+002, 1.8983971E+002, 2.0248402E+002, 1.9534914E+002, 2.0398173E+002, 1.9300259E+002, 1.2915915E+002, 1.7436209E+002
 4.7001619E+002, 3.9735525E+002, 1.5756619E+002, 1.9562695E+002, 2.0843146E+002, 2.0121515E+002, 2.0994394E+002, 1.9883589E+002, 1.3262684E+002, 1.7922141E+002
 4.8000322E+002, 3.9794298E+002, 1.6191231E+002, 2.0127495E+002, 2.1421860E+002, 2.0693560E+002, 2.1574287E+002, 2.0452629E+002, 1.3601297E+002, 1.8397444E+002
 4.9002579E+002, 3.9853154E+002, 1.6617695E+002, 2.0680700E+002, 2.1987332E+002, 2.1253476E+002, 2.2140710E+002, 2.1009772E+002, 1.3932341E+002, 1.8864016E+002
 5.0003195E+002, 3.9912047E+002, 1.7035942E+002, 2.1221164E+002, 2.2537915E+002, 2.1799822E+002, 2.2691970E+002, 2.1553712E+002, 1.4256600E+002, 1.9321411E+002
 5.1002233E+002, 3.9970851E+002, 1.7445646E+002, 2.1747816E+002, 2.3072544E+002, 2.2331554E+002, 2.3227000E+002, 2.2083384E+002, 1.4573994E+002, 1.9769127E+002
 5.2000338E+002, 3.9916145E+002, 1.7847134E+002, 2.2260156E+002, 2.3590447E+002, 2.2848038E+002, 2.3745000E+002, 2.2598207E+002, 1.4885247E+002, 2.0207086E+002
 5.3003032E+002, 3.9749434E+002, 1.8239076E+002, 2.2756732E+002, 2.4089360E+002, 2.3346914E+002, 2.4243695E+002, 2.3096298E+002, 1.5187907E+002, 2.0631138E+002
 5.4002039E+002, 3.9582576E+002, 1.8616892E+002, 2.3231997E+002, 2.4563225E+002, 2.3822318E+002, 2.4716990E+002, 2.3571910E+002, 1.5477799E+002, 2.1035795E+002
 5.5002453E+002, 3.9415967E+002, 1.8980155E+002, 2.3686961E+002, 2.5014750E+002, 2.4276588E+002, 2.5167704E+002, 2.4026706E+002, 1.5753923E+002, 2.1423560E+002
 5.6002685E+002, 3.9249328E+002, 1.9328715E+002, 2.4121130E+002, 2.5442749E+002, 2.4708557E+002, 2.5594625E+002, 2.4459899E+002, 1.6016654E+002, 2.1792972E+002
 5.7001515E+002, 3.9082669E+002, 1.9661914E+002, 2.4533540E+002, 2.5846850E+002, 2.5117753E+002, 2.5997419E+002, 2.4870744E+002, 1.6265748E+002, 2.2144712E+002
 5.8000934E+002, 3.8916140E+002, 1.9981494E+002, 2.4927226E+002, 2.6230993E+002, 2.5507727E+002, 2.6380117E+002, 2.5262566E+002, 1.6502226E+002, 2.2481696E+002
 5.9002159E+002, 3.8749390E+002, 2.0287323E+002, 2.5300438E+002, 2.6592091E+002, 2.5875679E+002, 2.6739542E+002, 2.5633097E+002, 1.6727199E+002, 2.2801611E+002
 6.0002211E+002, 3.8582692E+002, 2.0579802E+002, 2.5653299E+002, 2.6931046E+002, 2.6222457E+002, 2.7076629E+002, 2.5982792E+002, 1.6941263E+002, 2.3106546E+002
 6.1001632E+002, 3.8416062E+002, 2.0859306E+002, 2.5986320E+002, 2.7248251E+002, 2.6548252E+002, 2.7391800E+002, 2.6312034E+002, 1.7144682E+002, 2.3395967E+002
 6.2000894E+002, 3.8249488E+002, 2.1126974E+002, 2.6300939E+002, 2.7545991E+002, 2.6855249E+002, 2.7687381E+002, 2.6622606E+002, 1.7338366E+002, 2.3672825E+002
 6.3000557E+002, 3.8082987E+002, 2.1383729E+002, 2.6599167E+002, 2.7826288E+002, 2.7145167E+002, 2.7965437E+002, 2.6916429E+002, 1.7522309E+002, 2.3936976E+002
 6.4001197E+002, 3.7916248E+002, 2.1629442E+002, 2.6879668E+002, 2.8087394E+002, 2.7416480E+002, 2.8224187E+002, 2.7192041E+002, 1.7697562E+002, 2.4188351E+002
 6.5001730E+002, 3.7749449E+002, 2.1865691E+002, 2.7144856E+002, 2.8332301E+002, 2.7671985E+002, 2.8466664E+002, 2.7452064E+002, 1.7865021E+002, 2.4429019E+002
 6.6003690E+002, 3.7582629E+002, 2.2091944E+002, 2.7393395E+002, 2.8559143E+002, 2.7909922E+002, 2.8690967E+002, 2.7694939E+002, 1.8024710E+002, 2.4657503E+002
 6.7001769E+002, 3.7415853E+002, 2.2309347E+002, 2.7627531E+002, 2.8771222E+002, 2.8133376E+002, 2.8900466E+002, 2.7923327E+002, 1.8177135E+002, 2.4876567E+002
 6.8002067E+002, 3.7249382E+002, 2.2518356E+002, 2.7848380E+002, 2.8969658E+002, 2.8343299E+002, 2.9096305E+002, 2.8138288E+002, 1.8322237E+002, 2.5086132E+002
 6.9001641E+002, 3.7082739E+002, 2.2719819E+002, 2.8057114E+002, 2.9155752E+002, 2.8540986E+002, 2.9279777E+002, 2.8341056E+002, 1.8460854E+002, 2.5287437E+002
 7.0001777E+002, 3.6916091E+002, 2.2913122E+002, 2.8252164E+002, 2.9327013E+002, 2.8724089E+002, 2.9448354E+002, 2.8529678E+002, 1.8593150E+002, 2.5477844E+002
 7.1002828E+002, 3.6749352E+002, 2.3098879E+002, 2.8434882E+002, 2.9485783E+002, 2.8894803E+002, 2.9604438E+002, 2.8705894E+002, 1.8719216E+002, 2.5660185E+002
 7.2000130E+002, 3.6582800E+002, 2.3277241E+002, 2.8605962E+002, 2.9632569E+002, 2.9053441E+002, 2.9748549E+002, 2.8870272E+002, 1.8839055E+002, 2.5833424E+002
 7.3001913E+002, 3.6416185E+002, 2.3446642E+002, 2.8762632E+002, 2.9763669E+002, 2.9196477E+002, 2.9876942E+002, 2.9019643E+002, 1.8951960E+002, 2.5994315E+002
 7.4002977E+002, 3.6249274E+002, 2.3608552E+002, 2.8907040E+002, 2.9882244E+002, 2.9327052E+002, 2.9992804E+002, 2.9156609E+002, 1.9059228E+002, 2.6146686E+002
 7.5000819E+002, 3.6082704E+002, 2.3762284E+002, 2.9038316E+002, 2.9987038E+002, 2.9443881E+002, 3.0094853E+002, 2.9280109E+002, 1.9160650E+002, 2.6288643E+002
 7.6002600E+002, 3.5790193E+002, 2.3910009E+002, 2.9159833E+002, 3.0082563E+002, 2.9551434E+002, 3.0187669E+002, 2.9394049E+002, 1.9257596E+002, 2.6424980E+002
 7.7002690E+002, 3.5373134E+002, 2.4052006E+002, 2.9273060E+002, 3.0170212E+002, 2.9651088E+002, 3.0272627E+002, 2.9499892E+002, 1.9348865E+002, 2.6554949E+002
 7.8001953E+002, 3.4956664E+002, 2.4183539E+002, 2.9372807E+002, 3.0243211E+002, 2.9736152E+002, 3.0342892E+002, 2.9591710E+002, 1.9429587E+002, 2.6669849E+002
 7.9000948E+002, 3.4540095E+002, 2.4301944E+002, 2.9455642E+002, 3.0297892E+002, 2.9803159E+002, 3.0394768E+002, 2.9666005E+002, 1.9498420E+002, 2.6767466E+002
 8.0003890E+002, 3.4123119E+002, 2.4406189E+002, 2.9519687E+002, 3.0332113E+002, 2.9850131E+002, 3.0426093E+002, 2.9720841E+002, 1.9555349E+002, 2.6846576E+002
 8.1003094E+002, 3.3706020E+002, 2.4496624E+002, 2.9565535E+002, 3.0347380E+002, 2.9878433E+002, 3.0438408E+002, 2.9757201E+002, 1.9601149E+002, 2.6909742E+002
 8.2001096E+002, 3.3289836E+002, 2.4574227E+002, 2.9594966E+002, 3.0345977E+002, 2.9890196E+002, 3.0434029E+002, 2.9777071E+002, 1.9636582E+002, 2.6958673E+002
 8.3004062E+002, 3.2873272E+002, 2.4640957E+002, 2.9610476E+002, 3.0330941E+002, 2.9888433E+002, 3.0416007E+002, 2.9783188E+002, 1.9663060E+002, 2.6996827E+002
 8.4002218E+002, 3.2456084E+002, 2.4696523E+002, 2.9611738E+002, 3.0301257E+002, 2.9871998E+002, 3.0383331E+002, 2.9774837E+002, 1.9680247E+002, 2.7021702E+002
 8.5002731E+002, 3.2039744E+002, 2.4739636E+002, 2.9595924E+002, 3.0253503E+002, 2.9837576E+002, 3.0332531E+002, 2.9748926E+002, 1.9688479E+002, 2.7031355E+002
 8.6000450E+002, 3.1623487E+002, 2.4772118E+002, 2.9565670E+002, 3.0191355E+002, 2.9788775E+002, 3.0267369E+002, 2.9708602E+002, 1.9688888E+002, 2.7029677E+002
 8.7001757E+002, 3.1207435E+002, 2.4795240E+002, 2.9522887E+002, 3.0117023E+002, 2.9727743E+002, 3.0190048E+002, 2.9655898E+002, 1.9682337E+002, 2.7018419E+002
 8.8001017E+002, 3.3180526E+002, 2.4813202E+002, 2.9473341E+002, 3.0037872E+002, 2.9661757E+002, 3.0107968E+002, 2.9597297E+002, 1.9672673E+002, 2.7005951E+002
 8.9000181E+002, 3.7512029E+002, 2.4852665E+002, 2.9445152E+002, 2.9989320E+002, 2.9625020E+002, 3.0056993E+002, 2.9564006E+002, 1.9694634E+002, 2.7040355E+002
 9.0001552E+002, 4.1843516E+002, 2.4976261E+002, 2.9503983E+002, 3.0049101E+002, 2.9692193E+002, 3.0115740E+002, 2.9626401E+002, 1.9818646E+002, 2.7213354E+002
 9.1003126E+002, 4.6183623E+002, 2.5240069E+002, 2.9711409E+002, 3.0284157E+002, 2.9927341E+002, 3.0351749E+002, 2.9847618E+002, 2.0095060E+002, 2.7587200E+002
 9.2000007E+002, 5.0513289E+002, 2.5682470E+002, 3.0110285E+002, 3.0737986E+002, 3.0372457E+002, 3.0808744E+002, 3.0270246E+002, 2.0555185E+002, 2.8196443E+002
 9.3002691E+002, 5.4845387E+002, 2.6334477E+002, 3.0734127E+002, 3.1443474E+002, 3.1060123E+002, 3.1519610E+002, 3.0927369E+002, 2.1226018E+002, 2.9067462E+002
 9.4001370E+002, 5.9182192E+002, 2.7221554E+002, 3.1609490E+002, 3.2426384E+002, 3.2016945E+002, 3.2509920E+002, 3.1845490E+002, 2.2132692E+002, 3.0222534E+002
 9.5000657E+002, 6.3509932E+002, 2.8362192E+002, 3.2755270E+002, 3.3704154E+002, 3.3262181E+002, 3.3796751E+002, 3.3043569E+002, 2.3295264E+002, 3.1676143E+002
 9.6001749E+002, 6.7844317E+002, 2.9779367E+002, 3.4196393E+002, 3.5302249E+002, 3.4823467E+002, 3.5405205E+002, 3.4547758E+002, 2.4738051E+002, 3.3452326E+002
 9.7000711E+002, 6.7955049E+002, 3.1473320E+002, 3.5932161E+002, 3.7212983E+002, 3.6696748E+002, 3.7326767E+002, 3.6355603E+002, 2.6460653E+002, 3.5531605E+002
 9.8000031E+002, 6.3886346E+002, 3.3273890E+002, 3.7788828E+002, 3.9210103E+002, 3.8662407E+002, 3.9332520E+002, 3.8270557E+002, 2.8233420E+002, 3.7586382E+002
 9.9002432E+002, 5.9809935E+002, 3.4852349E+002, 3.9430584E+002, 4.0903895E+002, 4.0338102E+002, 4.1030151E+002, 3.9932401E+002, 2.9684385E+002, 3.9161486E+002
 1.0000075E+003, 5.5738290E+002, 3.6045929E+002, 4.0688950E+002, 4.2138261E+002, 4.1569328E+002, 4.2263880E+002, 4.1178513E+002, 3.0694986E+002, 4.0163336E+002
 1.0100091E+003, 5.1668699E+002, 3.6842325E+002, 4.1549294E+002, 4.2927272E+002, 4.2367743E+002, 4.3049066E+002, 4.2007396E+002, 3.1298723E+002, 4.0672438E+002
 1.0200060E+003, 4.7596875E+002, 3.7291551E+002, 4.2060116E+002, 4.3342592E+002, 4.2802153E+002, 4.3458451E+002, 4.2478150E+002, 3.1572088E+002, 4.0804750E+002
 1.0300249E+003, 4.3523018E+002, 3.7454136E+002, 4.2278519E+002, 4.3454126E+002, 4.2940047E+002, 4.3562666E+002, 4.2653603E+002, 3.1587002E+002, 4.0654422E+002
 1.0400094E+003, 4.1053553E+002, 3.7388662E+002, 4.2259061E+002, 4.3323962E+002, 4.2841308E+002, 4.3424346E+002, 4.2591425E+002, 3.1405589E+002, 4.0297322E+002
 1.0500132E+003, 4.0167970E+002, 3.7166351E+002, 4.2068833E+002, 4.3028603E+002, 4.2580162E+002, 4.3120613E+002, 4.2362546E+002, 3.1107323E+002, 3.9829261E+002
 1.0600078E+003, 3.9281846E+002, 3.6870908E+002, 4.1790674E+002, 4.2660032E+002, 4.2245636E+002, 4.2744154E+002, 4.2053218E+002, 3.0776291E+002, 3.9351755E+002
 1.0700194E+003, 3.8395247E+002, 3.6554532E+002, 4.1477789E+002, 4.2270560E+002, 4.1888269E+002, 4.2347498E+002, 4.1715581E+002, 3.0450896E+002, 3.8904824E+002
 1.0800143E+003, 3.7508462E+002, 3.6237162E+002, 4.1148969E+002, 4.1873771E+002, 4.1521262E+002, 4.1944137E+002, 4.1365625E+002, 3.0140028E+002, 3.8489674E+002
 1.0900129E+003, 3.6622134E+002, 3.5926662E+002, 4.0812138E+002, 4.1474006E+002, 4.1148973E+002, 4.1538288E+002, 4.1009422E+002, 2.9843406E+002, 3.8101242E+002
 1.1000189E+003, 3.5735859E+002, 3.5626439E+002, 4.0471744E+002, 4.1074470E+002, 4.0774998E+002, 4.1133073E+002, 4.0650847E+002, 2.9559434E+002, 3.7737729E+002
 1.1100193E+003, 3.4848910E+002, 3.5334686E+002, 4.0126090E+002, 4.0670805E+002, 4.0395172E+002, 4.0724025E+002, 4.0286934E+002, 2.9283723E+002, 3.7388034E+002
 1.1200213E+003, 3.3962882E+002, 3.5049113E+002, 3.9773120E+002, 4.0260630E+002, 4.0007496E+002, 4.0308710E+002, 3.9915513E+002, 2.9013825E+002, 3.7048426E+002
 1.1300296E+003, 3.3075757E+002, 3.4769413E+002, 3.9413844E+002, 3.9844999E+002, 3.9613254E+002, 3.9888146E+002, 3.9537698E+002, 2.8748623E+002, 3.6716946E+002
 1.1400318E+003, 3.2188416E+002, 3.4493492E+002, 3.9046916E+002, 3.9422059E+002, 3.9210707E+002, 3.9460445E+002, 3.9151926E+002, 2.8485885E+002, 3.6388920E+002
 1.1500093E+003, 3.1303191E+002, 3.4221570E+002, 3.8674067E+002, 3.8994611E+002, 3.8802907E+002, 3.9028406E+002, 3.8760533E+002, 2.8226193E+002, 3.6066780E+002
 1.1600254E+003, 3.0417031E+002, 3.3954713E+002, 3.8298204E+002, 3.8565848E+002, 3.8393172E+002, 3.8595200E+002, 3.8366664E+002, 2.7969745E+002, 3.5750754E+002
 1.1700294E+003, 2.9530034E+002, 3.3686137E+002, 3.7911462E+002, 3.8125376E+002, 3.7971016E+002, 3.8150368E+002, 3.7961169E+002, 2.7710833E+002, 3.5427253E+002
 1.1800419E+003, 2.8642940E+002, 3.3415941E+002, 3.7515256E+002, 3.7676289E+002, 3.7539728E+002, 3.7697029E+002, 3.7546328E+002, 2.7450568E+002, 3.5101230E+002
 1.1900254E+003, 2.7755943E+002, 3.3147751E+002, 3.7115338E+002, 3.7225523E+002, 3.7106313E+002, 3.7242150E+002, 3.7128534E+002, 2.7192407E+002, 3.4778352E+002
 1.2000266E+003, 2.6870745E+002, 3.2878685E+002, 3.6708505E+002, 3.6768321E+002, 3.6665907E+002, 3.6780940E+002, 3.6703798E+002, 2.6934175E+002, 3.4451275E+002
 1.2100373E+003, 2.5983777E+002, 3.2607707E+002, 3.6294047E+002, 3.6304401E+002, 3.6218363E+002, 3.6313109E+002, 3.6271659E+002, 2.6675452E+002, 3.4120557E+002
 1.2200071E+003, 2.5098112E+002, 3.2335128E+002, 3.5873513E+002, 3.5835364E+002, 3.5765249E+002, 3.5840265E+002, 3.5833699E+002, 2.6416363E+002, 3.3786147E+002
 1.2300007E+003, 2.4213169E+002, 3.2060507E+002, 3.5446937E+002, 3.5361337E+002, 3.5306736E+002, 3.5362525E+002, 3.5390008E+002, 2.6157009E+002, 3.3448127E+002
