s,C,C,C,C,C,C,C
Time,"Air Temp","VTT_1","IRSN_1","TRAC_2","TRAC_4","GRS_2","NRC_2"
 0.0000000E+000, 2.5000000E+001, 2.5000000E+001, 2.5000000E+001, 2.5000000E+001, 2.5000000E+001, 2.5000000E+001, 2.5000000E+001
 1.0200000E+001, 2.5421647E+001, 2.5000021E+001, 2.5000018E+001, 2.5000025E+001, 2.5000026E+001, 2.5000027E+001, 2.5000208E+001
 2.0200000E+001, 2.6216000E+001, 2.5000612E+001, 2.5000512E+001, 2.5000713E+001, 2.5000723E+001, 2.5000680E+001, 2.5003166E+001
 3.0200000E+001, 2.9182381E+001, 2.5003222E+001, 2.5002704E+001, 2.5003687E+001, 2.5003741E+001, 2.5003268E+001, 2.5011464E+001
 4.0031520E+001, 4.4091653E+001, 2.5011928E+001, 2.5009998E+001, 2.5013639E+001, 2.5013836E+001, 2.5012053E+001, 2.5046605E+001
 5.0072836E+001, 6.0842899E+001, 2.5054538E+001, 2.5045218E+001, 2.5062360E+001, 2.5063229E+001, 2.5054302E+001, 2.5204781E+001
 6.0046482E+001, 7.7667471E+001, 2.5180150E+001, 2.5148498E+001, 2.5204216E+001, 2.5206963E+001, 2.5169171E+001, 2.5554811E+001
 7.0013745E+001, 9.4422220E+001, 2.5431684E+001, 2.5354728E+001, 2.5485335E+001, 2.5491676E+001, 2.5384447E+001, 2.6129548E+001
 8.0084519E+001, 1.1126669E+002, 2.5847281E+001, 2.5694239E+001, 2.5946020E+001, 2.5958079E+001, 2.5722243E+001, 2.6943738E+001
 9.0065838E+001, 1.2814341E+002, 2.6447559E+001, 2.6183523E+001, 2.6607294E+001, 2.6627445E+001, 2.6192128E+001, 2.7997075E+001
 1.0006042E+002, 1.4493075E+002, 2.7256258E+001, 2.6840638E+001, 2.7494313E+001, 2.7525178E+001, 2.6808044E+001, 2.9316187E+001
 1.1000391E+002, 1.6170310E+002, 2.8291486E+001, 2.7679528E+001, 2.8625820E+001, 2.8670279E+001, 2.7579427E+001, 3.0896226E+001
 1.2002832E+002, 1.7309531E+002, 2.9576520E+001, 2.8717822E+001, 3.0026613E+001, 3.0087822E+001, 2.8520540E+001, 3.2761746E+001
 1.3001393E+002, 1.7920136E+002, 3.1105931E+001, 2.9949362E+001, 3.1687934E+001, 3.1768790E+001, 2.9614628E+001, 3.4792682E+001
 1.4006360E+002, 1.8532128E+002, 3.2819964E+001, 3.1322616E+001, 3.3541470E+001, 3.3643924E+001, 3.0802269E+001, 3.6859175E+001
 1.5004185E+002, 1.9143904E+002, 3.4673279E+001, 3.2796726E+001, 3.5538646E+001, 3.5663998E+001, 3.2050587E+001, 3.8966268E+001
 1.6002354E+002, 1.9754363E+002, 3.6635305E+001, 3.4344610E+001, 3.7647508E+001, 3.7796721E+001, 3.3341709E+001, 4.1101055E+001
 1.7003982E+002, 2.0365361E+002, 3.8702179E+001, 3.5961522E+001, 3.9865100E+001, 4.0039170E+001, 3.4676459E+001, 4.3282937E+001
 1.8004596E+002, 2.0976922E+002, 4.0870205E+001, 3.7644226E+001, 4.2188343E+001, 4.2388178E+001, 3.6057495E+001, 4.5538443E+001
 1.9003553E+002, 2.1587463E+002, 4.3139636E+001, 3.9392671E+001, 4.4618306E+001, 4.4844790E+001, 3.7488005E+001, 4.7884627E+001
 2.0001873E+002, 2.2198229E+002, 4.5516771E+001, 4.1212283E+001, 4.7161546E+001, 4.7415543E+001, 3.8973153E+001, 5.0311541E+001
 2.1003679E+002, 2.3103673E+002, 4.8001531E+001, 4.3103380E+001, 4.9817935E+001, 5.0100466E+001, 4.0511407E+001, 5.2823195E+001
 2.2002130E+002, 2.4294931E+002, 5.0618663E+001, 4.5087798E+001, 5.2616049E+001, 5.2928448E+001, 4.2132837E+001, 5.5537868E+001
 2.3004276E+002, 2.5487214E+002, 5.3424262E+001, 4.7214361E+001, 5.5618348E+001, 5.5962791E+001, 4.3890373E+001, 5.8569684E+001
 2.4002183E+002, 2.6680368E+002, 5.6482132E+001, 4.9537877E+001, 5.8892682E+001, 5.9271722E+001, 4.5832966E+001, 6.1966267E+001
 2.5003286E+002, 2.7871642E+002, 5.9824330E+001, 5.2084205E+001, 6.2472499E+001, 6.2889278E+001, 4.7972366E+001, 6.5700524E+001
 2.6002330E+002, 2.9064019E+002, 6.3484910E+001, 5.4881720E+001, 6.6392760E+001, 6.6850599E+001, 5.0330673E+001, 6.9810736E+001
 2.7000634E+002, 3.0255926E+002, 6.7465047E+001, 5.7932830E+001, 7.0652534E+001, 7.1154705E+001, 5.2903150E+001, 7.4234387E+001
 2.8004638E+002, 3.1448366E+002, 7.1793080E+001, 6.1259920E+001, 7.5281291E+001, 7.5831204E+001, 5.5709797E+001, 7.9042228E+001
 2.9002405E+002, 3.2642053E+002, 7.6474184E+001, 6.4869343E+001, 8.0282632E+001, 8.0883358E+001, 5.8755906E+001, 8.4216736E+001
 3.0001835E+002, 3.3832096E+002, 8.1510082E+001, 6.8761600E+001, 8.5658218E+001, 8.6312887E+001, 6.2039934E+001, 8.9763383E+001
 3.1004843E+002, 3.5025779E+002, 8.6946725E+001, 7.2974510E+001, 9.1455219E+001, 9.2166856E+001, 6.5599225E+001, 9.5745475E+001
 3.2000193E+002, 3.6217358E+002, 9.2768940E+001, 7.7494762E+001, 9.7657213E+001, 9.8428844E+001, 6.9416457E+001, 1.0210368E+002
 3.3001094E+002, 3.7407686E+002, 9.8988304E+001, 8.2331438E+001, 1.0427559E+002, 1.0511022E+002, 7.3497612E+001, 1.0884445E+002
 3.4002931E+002, 3.8261194E+002, 1.0563802E+002, 8.7511707E+001, 1.1134371E+002, 1.1224430E+002, 7.7868230E+001, 1.1601180E+002
 3.5002095E+002, 3.8779307E+002, 1.1265204E+002, 9.2983594E+001, 1.1878419E+002, 1.1975210E+002, 8.2466671E+001, 1.2334402E+002
 3.6002728E+002, 3.9296920E+002, 1.1990411E+002, 9.8642109E+001, 1.2645319E+002, 1.2748742E+002, 8.7179894E+001, 1.3061074E+002
 3.7001768E+002, 3.9814861E+002, 1.2729608E+002, 1.0440555E+002, 1.3424476E+002, 1.3534279E+002, 9.1943560E+001, 1.3781562E+002
 3.8002834E+002, 4.0332460E+002, 1.3479394E+002, 1.1023737E+002, 1.4212895E+002, 1.4328853E+002, 9.6734283E+001, 1.4501160E+002
 3.9001180E+002, 4.0850125E+002, 1.4238651E+002, 1.1612670E+002, 1.5009672E+002, 1.5131557E+002, 1.0155682E+002, 1.5225198E+002
 4.0000131E+002, 4.1367645E+002, 1.5004842E+002, 1.2206249E+002, 1.5811850E+002, 1.5939345E+002, 1.0641245E+002, 1.5948890E+002
 4.1003707E+002, 4.1886169E+002, 1.5779566E+002, 1.2805774E+002, 1.6621312E+002, 1.6754155E+002, 1.1131246E+002, 1.6676432E+002
 4.2004247E+002, 4.2404948E+002, 1.6561078E+002, 1.3410288E+002, 1.7436290E+002, 1.7574207E+002, 1.1625325E+002, 1.7409572E+002
 4.3002479E+002, 4.2922732E+002, 1.7346585E+002, 1.4018363E+002, 1.8253705E+002, 1.8396364E+002, 1.2123104E+002, 1.8146357E+002
 4.4002632E+002, 4.3440160E+002, 1.8136982E+002, 1.4631744E+002, 1.9074224E+002, 1.9221246E+002, 1.2626581E+002, 1.8888916E+002
 4.5000951E+002, 4.3957314E+002, 1.8933888E+002, 1.5251246E+002, 1.9900052E+002, 2.0051153E+002, 1.3135675E+002, 1.9640687E+002
 4.6000492E+002, 4.4474449E+002, 1.9736379E+002, 1.5876722E+002, 2.0729948E+002, 2.0884818E+002, 1.3650455E+002, 2.0394389E+002
 4.7002583E+002, 4.4992851E+002, 2.0542639E+002, 1.6508014E+002, 2.1561571E+002, 2.1719831E+002, 1.4171302E+002, 2.1151329E+002
 4.8003042E+002, 4.5511282E+002, 2.1353867E+002, 1.7145341E+002, 2.2396876E+002, 2.2558245E+002, 1.4698018E+002, 2.1918429E+002
 4.9002500E+002, 4.6029358E+002, 2.2167434E+002, 1.7787703E+002, 2.3232659E+002, 2.3396782E+002, 1.5230423E+002, 2.2687501E+002
 5.0001146E+002, 4.6546768E+002, 2.2981897E+002, 1.8434889E+002, 2.4067158E+002, 2.4233634E+002, 1.5768988E+002, 2.3458819E+002
 5.1001883E+002, 4.7064170E+002, 2.3797396E+002, 1.9087403E+002, 2.4900578E+002, 2.5069011E+002, 1.6314026E+002, 2.4235082E+002
 5.2001951E+002, 4.7582439E+002, 2.4616898E+002, 1.9746423E+002, 2.5736763E+002, 2.5906889E+002, 1.6865445E+002, 2.5018328E+002
 5.3001745E+002, 4.8100102E+002, 2.5435827E+002, 2.0409611E+002, 2.6570262E+002, 2.6741730E+002, 1.7422079E+002, 2.5799997E+002
 5.4003088E+002, 4.8618170E+002, 2.6257108E+002, 2.1079013E+002, 2.7404644E+002, 2.7577161E+002, 1.7985870E+002, 2.6593919E+002
 5.5001247E+002, 4.9135902E+002, 2.7079358E+002, 2.1753370E+002, 2.8238446E+002, 2.8411742E+002, 1.8554808E+002, 2.7384238E+002
 5.6001695E+002, 4.9653444E+002, 2.7901234E+002, 2.2431684E+002, 2.9070371E+002, 2.9244188E+002, 1.9128163E+002, 2.8179248E+002
 5.7002017E+002, 5.0171557E+002, 2.8724366E+002, 2.3115588E+002, 2.9901988E+002, 3.0076046E+002, 1.9707909E+002, 2.8975048E+002
 5.8001415E+002, 5.0689326E+002, 2.9543637E+002, 2.3802434E+002, 3.0727525E+002, 3.0901475E+002, 2.0293006E+002, 2.9771212E+002
 5.9001079E+002, 5.1207088E+002, 3.0363963E+002, 2.4494742E+002, 3.1553099E+002, 3.1726740E+002, 2.0884647E+002, 3.0576761E+002
 6.0002493E+002, 5.1725103E+002, 3.1184709E+002, 2.5192179E+002, 3.2377708E+002, 3.2550832E+002, 2.1481884E+002, 3.1379833E+002
 6.1001873E+002, 5.2243263E+002, 3.2004167E+002, 2.5893680E+002, 3.3199626E+002, 3.3372002E+002, 2.2084688E+002, 3.2187816E+002
 6.2003428E+002, 5.2500000E+002, 3.2820275E+002, 2.6598048E+002, 3.4016359E+002, 3.4187727E+002, 2.2691784E+002, 3.2981033E+002
 6.3002011E+002, 5.2500000E+002, 3.3621701E+002, 2.7296217E+002, 3.4815436E+002, 3.4985432E+002, 2.3293043E+002, 3.3740291E+002
 6.4001788E+002, 5.2500000E+002, 3.4399850E+002, 2.7978019E+002, 3.5588264E+002, 3.5756539E+002, 2.3875493E+002, 3.4449499E+002
 6.5002273E+002, 5.2500000E+002, 3.5146136E+002, 2.8635950E+002, 3.6325804E+002, 3.6491962E+002, 2.4433369E+002, 3.5111045E+002
 6.6001672E+002, 5.2500000E+002, 3.5858287E+002, 2.9267309E+002, 3.7026489E+002, 3.7190197E+002, 2.4965761E+002, 3.5731571E+002
 6.7000852E+002, 5.3142657E+002, 3.6535671E+002, 2.9871756E+002, 3.7690139E+002, 3.7851115E+002, 2.5474260E+002, 3.6324939E+002
 6.8002462E+002, 5.4421252E+002, 3.7199097E+002, 3.0467259E+002, 3.8340589E+002, 3.8498831E+002, 2.5982348E+002, 3.6972290E+002
 6.9001412E+002, 5.5698810E+002, 3.7883814E+002, 3.1086858E+002, 3.9016304E+002, 3.9172146E+002, 2.6528390E+002, 3.7728768E+002
 7.0000403E+002, 5.6975168E+002, 3.8612480E+002, 3.1752012E+002, 3.9740400E+002, 3.9894287E+002, 2.7129768E+002, 3.8581145E+002
 7.1000623E+002, 5.8253097E+002, 3.9396416E+002, 3.2473274E+002, 4.0523585E+002, 4.0675934E+002, 2.7791918E+002, 3.9521270E+002
 7.2002463E+002, 5.9531928E+002, 4.0239112E+002, 3.3254160E+002, 4.1368341E+002, 4.1519458E+002, 2.8515353E+002, 4.0536360E+002
 7.3000412E+002, 6.0809398E+002, 4.1129343E+002, 3.4087063E+002, 4.2261185E+002, 4.2411158E+002, 2.9292463E+002, 4.1586271E+002
 7.4002424E+002, 6.2086914E+002, 4.2061587E+002, 3.4967664E+002, 4.3196142E+002, 4.3344967E+002, 3.0120342E+002, 4.2688791E+002
 7.5002043E+002, 6.3365898E+002, 4.3041842E+002, 3.5897797E+002, 4.4180331E+002, 4.4328084E+002, 3.0999058E+002, 4.3853206E+002
 7.6001264E+002, 6.4055939E+002, 4.4068463E+002, 3.6873982E+002, 4.5211815E+002, 4.5358512E+002, 3.1923813E+002, 4.5057047E+002
 7.7000040E+002, 6.4166935E+002, 4.5110700E+002, 3.7870501E+002, 4.6255250E+002, 4.6400558E+002, 3.2861939E+002, 4.6163417E+002
 7.8001411E+002, 6.4278004E+002, 4.6117195E+002, 3.8841232E+002, 4.7255430E+002, 4.7398674E+002, 3.3763921E+002, 4.7137184E+002
 7.9000536E+002, 6.4389127E+002, 4.7072868E+002, 3.9767450E+002, 4.8199326E+002, 4.8339935E+002, 3.4615636E+002, 4.8021063E+002
 8.0001010E+002, 6.4500236E+002, 4.7974366E+002, 4.0643706E+002, 4.9085222E+002, 4.9222779E+002, 3.5415743E+002, 4.8832113E+002
 8.1000928E+002, 6.4611399E+002, 4.8823119E+002, 4.1470886E+002, 4.9915528E+002, 5.0049745E+002, 3.6167708E+002, 4.9577463E+002
 8.2000898E+002, 6.4722504E+002, 4.9622345E+002, 4.2252113E+002, 5.0694428E+002, 5.0825114E+002, 3.6876781E+002, 5.0273165E+002
 8.3002070E+002, 6.4833692E+002, 5.0374777E+002, 4.2991149E+002, 5.1424853E+002, 5.1551879E+002, 3.7547450E+002, 5.0915680E+002
 8.4000071E+002, 6.4944718E+002, 5.1079148E+002, 4.3688413E+002, 5.2105650E+002, 5.2228932E+002, 3.8180959E+002, 5.1508298E+002
 8.5000796E+002, 6.5055772E+002, 5.1743457E+002, 4.4350680E+002, 5.2746007E+002, 5.2865552E+002, 3.8783990E+002, 5.2084973E+002
 8.6001448E+002, 6.5166975E+002, 5.2380023E+002, 4.4988025E+002, 5.3359053E+002, 5.3474929E+002, 3.9364387E+002, 5.2643138E+002
 8.7002234E+002, 6.5278154E+002, 5.2983708E+002, 4.5598137E+002, 5.3938486E+002, 5.4050712E+002, 3.9919527E+002, 5.3165267E+002
 8.8001082E+002, 6.5389240E+002, 5.3560509E+002, 4.6186036E+002, 5.4491309E+002, 5.4599962E+002, 4.0454986E+002, 5.3679378E+002
 8.9001099E+002, 6.5500284E+002, 5.4111388E+002, 4.6753598E+002, 5.5018034E+002, 5.5123167E+002, 4.0971374E+002, 5.4163352E+002
 9.0000845E+002, 6.5611383E+002, 5.4635057E+002, 4.7300121E+002, 5.5517213E+002, 5.5618877E+002, 4.1467436E+002, 5.4621013E+002
 9.1002333E+002, 6.5722592E+002, 5.5131670E+002, 4.7826230E+002, 5.5988996E+002, 5.6087231E+002, 4.1944905E+002, 5.5059709E+002
 9.2002131E+002, 6.5833759E+002, 5.5605879E+002, 4.8335674E+002, 5.6438623E+002, 5.6533524E+002, 4.2407591E+002, 5.5479770E+002
 9.3000565E+002, 6.5944815E+002, 5.6052064E+002, 4.8824980E+002, 5.6859730E+002, 5.6951375E+002, 4.2852200E+002, 5.5866942E+002
 9.4001645E+002, 6.5365307E+002, 5.6477614E+002, 4.9299232E+002, 5.7260793E+002, 5.7349296E+002, 4.3283599E+002, 5.6253985E+002
 9.5000001E+002, 6.4102223E+002, 5.6866033E+002, 4.9742429E+002, 5.7622362E+002, 5.7707582E+002, 4.3674623E+002, 5.6512789E+002
 9.6002508E+002, 6.2838612E+002, 5.7166613E+002, 5.0109241E+002, 5.7889052E+002, 5.7970479E+002, 4.3973404E+002, 5.6575375E+002
 9.7002776E+002, 6.1573756E+002, 5.7352700E+002, 5.0375605E+002, 5.8034182E+002, 5.8111295E+002, 4.4163781E+002, 5.6469857E+002
 9.8002794E+002, 6.0310429E+002, 5.7427086E+002, 5.0542941E+002, 5.8063647E+002, 5.8136090E+002, 4.4256239E+002, 5.6261578E+002
 9.9002765E+002, 5.9047493E+002, 5.7405136E+002, 5.0624225E+002, 5.7995196E+002, 5.8062791E+002, 4.4267477E+002, 5.5986977E+002
 1.0000294E+003, 5.7783996E+002, 5.7306141E+002, 5.0635593E+002, 5.7849756E+002, 5.7912449E+002, 4.4213559E+002, 5.5668412E+002
 1.0100115E+003, 5.6521417E+002, 5.7134843E+002, 5.0583782E+002, 5.7631412E+002, 5.7689168E+002, 4.4100817E+002, 5.5283291E+002
 1.0200136E+003, 5.5259550E+002, 5.6898401E+002, 5.0476332E+002, 5.7347900E+002, 5.7400705E+002, 4.3937765E+002, 5.4865210E+002
 1.0300037E+003, 5.3996634E+002, 5.6607576E+002, 5.0323155E+002, 5.7010494E+002, 5.7058399E+002, 4.3733810E+002, 5.4413394E+002
 1.0400183E+003, 5.2733181E+002, 5.6262703E+002, 5.0126269E+002, 5.6618869E+002, 5.6661896E+002, 4.3490487E+002, 5.3919445E+002
 1.0500204E+003, 5.1469352E+002, 5.5869251E+002, 4.9891078E+002, 5.6178851E+002, 5.6217038E+002, 4.3214393E+002, 5.3397197E+002
 1.0600076E+003, 5.0206604E+002, 5.5436392E+002, 4.9625143E+002, 5.5700404E+002, 5.5733844E+002, 4.2912637E+002, 5.2868975E+002
 1.0700173E+003, 4.8943784E+002, 5.4968393E+002, 4.9332611E+002, 5.5187505E+002, 5.5216253E+002, 4.2587907E+002, 5.2314849E+002
 1.0800149E+003, 4.7679529E+002, 5.4468455E+002, 4.9016346E+002, 5.4643489E+002, 5.4667613E+002, 4.2243094E+002, 5.1753478E+002
 1.0900206E+003, 4.6416625E+002, 5.3943157E+002, 4.8681065E+002, 5.4075178E+002, 5.4094754E+002, 4.1881554E+002, 5.1183538E+002
 1.1000146E+003, 4.5153682E+002, 5.3394906E+002, 4.8329052E+002, 5.3484870E+002, 5.3499966E+002, 4.1506419E+002, 5.0607133E+002
 1.1100025E+003, 4.3891266E+002, 5.2826157E+002, 4.7962537E+002, 5.2874880E+002, 5.2885554E+002, 4.1119881E+002, 5.0014926E+002
 1.1200267E+003, 4.2626704E+002, 5.2234323E+002, 4.7580006E+002, 5.2242291E+002, 5.2248598E+002, 4.0720426E+002, 4.9410139E+002
 1.1300324E+003, 4.1747359E+002, 5.1619364E+002, 4.7181215E+002, 5.1586847E+002, 5.1588834E+002, 4.0308003E+002, 4.8775040E+002
 1.1400339E+003, 4.1247279E+002, 5.0985385E+002, 4.6770363E+002, 5.0913569E+002, 5.0911377E+002, 3.9891771E+002, 4.8163053E+002
 1.1500009E+003, 4.0747988E+002, 5.0356590E+002, 4.6366411E+002, 5.0249084E+002, 5.0243050E+002, 3.9490882E+002, 4.7599554E+002
 1.1600097E+003, 4.0248702E+002, 4.9739874E+002, 4.5975537E+002, 4.9599951E+002, 4.9590423E+002, 3.9108729E+002, 4.7073795E+002
 1.1700083E+003, 3.9748580E+002, 4.9139057E+002, 4.5600464E+002, 4.8969632E+002, 4.8956924E+002, 3.8745314E+002, 4.6577746E+002
 1.1800210E+003, 3.9248160E+002, 4.8555620E+002, 4.5241593E+002, 4.8359112E+002, 4.8343490E+002, 3.8399026E+002, 4.6099302E+002
 1.1900215E+003, 3.8747933E+002, 4.7983559E+002, 4.4893849E+002, 4.7761475E+002, 4.7743145E+002, 3.8064945E+002, 4.5631513E+002
 1.2000140E+003, 3.8247935E+002, 4.7427435E+002, 4.4559211E+002, 4.7181833E+002, 4.7160998E+002, 3.7745030E+002, 4.5186971E+002
 1.2100226E+003, 3.7747761E+002, 4.6881197E+002, 4.4232981E+002, 4.6613156E+002, 4.6589954E+002, 3.7434314E+002, 4.4733203E+002
 1.2200119E+003, 3.7247959E+002, 4.6337862E+002, 4.3909534E+002, 4.6048028E+002, 4.6022579E+002, 3.7129203E+002, 4.4277009E+002
 1.2300192E+003, 3.6748028E+002, 4.5804920E+002, 4.3593022E+002, 4.5495093E+002, 4.5467552E+002, 3.6833332E+002, 4.3851222E+002
 1.2400336E+003, 3.6247531E+002, 4.5285971E+002, 4.3285687E+002, 4.4957942E+002, 4.4928458E+002, 3.6548280E+002, 4.3441118E+002
 1.2500043E+003, 3.5747788E+002, 4.4777591E+002, 4.2984698E+002, 4.4432311E+002, 4.4400993E+002, 3.6270557E+002, 4.3025464E+002
 1.2600176E+003, 3.5248249E+002, 4.4276195E+002, 4.2687061E+002, 4.3914515E+002, 4.3881445E+002, 3.5998181E+002, 4.2614490E+002
 1.2700398E+003, 3.4747328E+002, 4.3779794E+002, 4.2391037E+002, 4.3402471E+002, 4.3367724E+002, 3.5729810E+002, 4.2204384E+002
 1.2800252E+003, 3.4247286E+002, 4.3289239E+002, 4.2096712E+002, 4.2896975E+002, 4.2860629E+002, 3.5465505E+002, 4.1788823E+002
 1.2900263E+003, 3.3747598E+002, 4.2798841E+002, 4.1800070E+002, 4.2391906E+002, 4.2354030E+002, 3.5202602E+002, 4.1367701E+002
 1.3000127E+003, 3.3247298E+002, 4.2312664E+002, 4.1503731E+002, 4.1891997E+002, 4.1852662E+002, 3.4943542E+002, 4.0953257E+002
 1.3100057E+003, 3.2748269E+002, 4.1828002E+002, 4.1205665E+002, 4.1393995E+002, 4.1353255E+002, 3.4685806E+002, 4.0532731E+002
 1.3200005E+003, 3.2248649E+002, 4.1348163E+002, 4.0908103E+002, 4.0901773E+002, 4.0859696E+002, 3.4431709E+002, 4.0126264E+002
 1.3300476E+003, 3.1747283E+002, 4.0870568E+002, 4.0609417E+002, 4.0412267E+002, 4.0368908E+002, 3.4179358E+002, 3.9712250E+002
 1.3400361E+003, 3.1246511E+002, 4.0401697E+002, 4.0314099E+002, 3.9932699E+002, 3.9888114E+002, 3.3933248E+002, 3.9324457E+002
 1.3500067E+003, 3.0747785E+002, 3.9939923E+002, 4.0021038E+002, 3.9460565E+002, 3.9414796E+002, 3.3690727E+002, 3.8921160E+002
 1.3600213E+003, 3.0248071E+002, 3.9481962E+002, 3.9728008E+002, 3.8992819E+002, 3.8945910E+002, 3.3450909E+002, 3.8537141E+002
 1.3700168E+003, 2.9747406E+002, 3.9033072E+002, 3.9438859E+002, 3.8535040E+002, 3.8487038E+002, 3.3216430E+002, 3.8157782E+002
 1.3800465E+003, 2.9247115E+002, 3.8587437E+002, 3.9149399E+002, 3.8080583E+002, 3.8031520E+002, 3.2983069E+002, 3.7767834E+002
 1.3900519E+003, 2.8745872E+002, 3.8144373E+002, 3.8859111E+002, 3.7629015E+002, 3.7578924E+002, 3.2751551E+002, 3.7384286E+002
 1.4000323E+003, 2.8246558E+002, 3.7705972E+002, 3.8569488E+002, 3.7182452E+002, 3.7131372E+002, 3.2522695E+002, 3.6999061E+002
 1.4100497E+003, 2.7746405E+002, 3.7271327E+002, 3.8279841E+002, 3.6740058E+002, 3.6687994E+002, 3.2295802E+002, 3.6622981E+002
 1.4200317E+003, 2.7246646E+002, 3.6842838E+002, 3.7992133E+002, 3.6304302E+002, 3.6251266E+002, 3.2071925E+002, 3.6252339E+002
 1.4300275E+003, 2.6747095E+002, 3.6415335E+002, 3.7702707E+002, 3.5869374E+002, 3.5815393E+002, 3.1848469E+002, 3.5861870E+002
 1.4400191E+003, 2.6247298E+002, 3.5986266E+002, 3.7409684E+002, 3.5432966E+002, 3.5378073E+002, 3.1625023E+002, 3.5477675E+002
 1.4500511E+003, 2.5746434E+002, 3.5560687E+002, 3.7116932E+002, 3.5000599E+002, 3.4944827E+002, 3.1404100E+002, 3.5101371E+002
 1.4600011E+003, 2.5247262E+002, 3.5139538E+002, 3.6825183E+002, 3.4572947E+002, 3.4516318E+002, 3.1185717E+002, 3.4725773E+002
 1.4700314E+003, 2.4747498E+002, 3.4724026E+002, 3.6535487E+002, 3.4151495E+002, 3.4094043E+002, 3.0971153E+002, 3.4367010E+002
 1.4800033E+003, 2.4247741E+002, 3.4315295E+002, 3.6248900E+002, 3.3737250E+002, 3.3678990E+002, 3.0760130E+002, 3.4009507E+002
 1.4900336E+003, 2.3747545E+002, 3.3910599E+002, 3.5963385E+002, 3.3327139E+002, 3.3268081E+002, 3.0551133E+002, 3.3651787E+002
 1.5000542E+003, 2.3246029E+002, 3.3508027E+002, 3.5677435E+002, 3.2919266E+002, 3.2859433E+002, 3.0343353E+002, 3.3290580E+002
 1.5100211E+003, 2.2746053E+002, 3.3109253E+002, 3.5392338E+002, 3.2515316E+002, 3.2454724E+002, 3.0137609E+002, 3.2933580E+002
 1.5200220E+003, 2.2247130E+002, 3.2712072E+002, 3.5106550E+002, 3.2112903E+002, 3.2051562E+002, 2.9932280E+002, 3.2571381E+002
 1.5300398E+003, 2.1746805E+002, 3.2317648E+002, 3.4821162E+002, 3.1713593E+002, 3.1651516E+002, 2.9728897E+002, 3.2226204E+002
 1.5400170E+003, 2.1246744E+002, 3.1930640E+002, 3.4539791E+002, 3.1322122E+002, 3.1259318E+002, 2.9529727E+002, 3.1884387E+002
