s,C,C
Time,"Air Temp","NRC_1"
 0.0000000E+000, 3.0000000E+001, 3.0000000E+001
 1.0052446E+001, 4.0380777E+001, 3.0001068E+001
 2.0054587E+001, 6.0149600E+001, 3.0031004E+001
 3.0084962E+001, 8.0103748E+001, 3.0178831E+001
 4.0060588E+001, 1.0004878E+002, 3.0520805E+001
 5.0023241E+001, 1.1993112E+002, 3.1092973E+001
 6.0020942E+001, 1.3983307E+002, 3.1925336E+001
 7.0012970E+001, 1.5976123E+002, 3.3049394E+001
 8.0040011E+001, 1.7973626E+002, 3.4485556E+001
 9.0036986E+001, 1.9969037E+002, 3.6254783E+001
 1.0001034E+002, 2.1963142E+002, 3.8377651E+001
 1.1001676E+002, 2.3208373E+002, 4.0901737E+001
 1.2003152E+002, 2.3721747E+002, 4.3747533E+001
 1.3003115E+002, 2.4235099E+002, 4.6733260E+001
 1.4002230E+002, 2.4747963E+002, 4.9773557E+001
 1.5001522E+002, 2.5260464E+002, 5.2830093E+001
 1.6002574E+002, 2.5773698E+002, 5.5912863E+001
 1.7001658E+002, 2.6286670E+002, 5.9029600E+001
 1.8000254E+002, 2.6799012E+002, 6.2189870E+001
 1.9000226E+002, 2.7311900E+002, 6.5390531E+001
 2.0003945E+002, 2.7825575E+002, 6.8642995E+001
 2.1003529E+002, 2.8685949E+002, 7.1957846E+001
 2.2000288E+002, 2.9879921E+002, 7.5389039E+001
 2.3000473E+002, 3.1075139E+002, 7.9087947E+001
 2.4001515E+002, 3.2273145E+002, 8.3119484E+001
 2.5002481E+002, 3.3470987E+002, 8.7491623E+001
 2.6001695E+002, 3.4668377E+002, 9.2214211E+001
 2.7001148E+002, 3.5864264E+002, 9.7305982E+001
 2.8000537E+002, 3.7060621E+002, 1.0277551E+002
 2.9003363E+002, 3.8258482E+002, 1.0863673E+002
 3.0002478E+002, 3.9457163E+002, 1.1491644E+002
 3.1001444E+002, 4.0250912E+002, 1.2159597E+002
 3.2001603E+002, 4.0649758E+002, 1.2852950E+002
 3.3002297E+002, 4.1049021E+002, 1.3548337E+002
 3.4003337E+002, 4.1448316E+002, 1.4238099E+002
 3.5002978E+002, 4.1847557E+002, 1.4920734E+002
 3.6002359E+002, 4.2246384E+002, 1.5597679E+002
 3.7002216E+002, 4.2645155E+002, 1.6270248E+002
 3.8000288E+002, 4.3043714E+002, 1.6937263E+002
 3.9001539E+002, 4.3442548E+002, 1.7595366E+002
 4.0003562E+002, 4.3842055E+002, 1.8252546E+002
 4.1001005E+002, 4.4154847E+002, 1.8909297E+002
 4.2001244E+002, 4.4382677E+002, 1.9558915E+002
 4.3001486E+002, 4.4610696E+002, 2.0195410E+002
 4.4000935E+002, 4.4838679E+002, 2.0817625E+002
 4.5002785E+002, 4.5066776E+002, 2.1430542E+002
 4.6001641E+002, 4.5294881E+002, 2.2033026E+002
 4.7000842E+002, 4.5522620E+002, 2.2627109E+002
 4.8001027E+002, 4.5750607E+002, 2.3213536E+002
 4.9003187E+002, 4.5978840E+002, 2.3793728E+002
 5.0002228E+002, 4.6206961E+002, 2.4367911E+002
 5.1002142E+002, 4.6492333E+002, 2.4929568E+002
 5.2001433E+002, 4.6834143E+002, 2.5484969E+002
 5.3000425E+002, 4.7175958E+002, 2.6040429E+002
 5.4002788E+002, 4.7518081E+002, 2.6594832E+002
 5.5000228E+002, 4.7860149E+002, 2.7147529E+002
 5.6003356E+002, 4.8202237E+002, 2.7699456E+002
 5.7002829E+002, 4.8544621E+002, 2.8253422E+002
 5.8001966E+002, 4.8886371E+002, 2.8806238E+002
 5.9000722E+002, 4.9228117E+002, 2.9357340E+002
 6.0002436E+002, 4.9570137E+002, 2.9904077E+002
 6.1002526E+002, 4.9912335E+002, 3.0455653E+002
 6.2002096E+002, 5.0254372E+002, 3.1005716E+002
 6.3000493E+002, 5.0595980E+002, 3.1551600E+002
 6.4000723E+002, 5.0937786E+002, 3.2090550E+002
 6.5001611E+002, 5.1279949E+002, 3.2628333E+002
 6.6002676E+002, 5.1622245E+002, 3.3169759E+002
 6.7002702E+002, 5.1964448E+002, 3.3707751E+002
 6.8000021E+002, 5.2306014E+002, 3.4238638E+002
 6.9001233E+002, 5.2647723E+002, 3.4770666E+002
 7.0000465E+002, 5.2989758E+002, 3.5304853E+002
 7.1001449E+002, 5.3417780E+002, 3.5833206E+002
 7.2002281E+002, 5.3931097E+002, 3.6364500E+002
 7.3001490E+002, 5.4444307E+002, 3.6905694E+002
 7.4001474E+002, 5.4957054E+002, 3.7452545E+002
 7.5002296E+002, 5.5470228E+002, 3.8003520E+002
 7.6000882E+002, 5.5983020E+002, 3.8553769E+002
 7.7000326E+002, 5.6495553E+002, 3.9109576E+002
 7.8000470E+002, 5.7008432E+002, 3.9682075E+002
 7.9001842E+002, 5.7521791E+002, 4.0266478E+002
 8.0001199E+002, 5.8034981E+002, 4.0862175E+002
 8.1001900E+002, 5.8318680E+002, 4.1455009E+002
 8.2000267E+002, 5.8375646E+002, 4.2033208E+002
 8.3001113E+002, 5.8432615E+002, 4.2584378E+002
 8.4000113E+002, 5.8489613E+002, 4.3108849E+002
 8.5000694E+002, 5.8546583E+002, 4.3608603E+002
 8.6000284E+002, 5.8603601E+002, 4.4076371E+002
 8.7000956E+002, 5.8660613E+002, 4.4507262E+002
 8.8000409E+002, 5.8717624E+002, 4.4916331E+002
 8.9001342E+002, 5.8774629E+002, 4.5315496E+002
 9.0001998E+002, 5.8831683E+002, 4.5697594E+002
 9.1000423E+002, 5.8630894E+002, 4.6057577E+002
 9.2000774E+002, 5.8175159E+002, 4.6387879E+002
 9.3002474E+002, 5.7718577E+002, 4.6669365E+002
 9.4000876E+002, 5.7262797E+002, 4.6897695E+002
 9.5002041E+002, 5.6806663E+002, 4.7089738E+002
 9.6000379E+002, 5.6350811E+002, 4.7239714E+002
 9.7001567E+002, 5.5894827E+002, 4.7357660E+002
 9.8001206E+002, 5.5438766E+002, 4.7447634E+002
 9.9001258E+002, 5.4982674E+002, 4.7510744E+002
 1.0000051E+003, 5.4526899E+002, 4.7541803E+002
 1.0100298E+003, 5.3726412E+002, 4.7555978E+002
 1.0200278E+003, 5.2584798E+002, 4.7536109E+002
 1.0300030E+003, 5.1446573E+002, 4.7456360E+002
 1.0400265E+003, 5.0306623E+002, 4.7313817E+002
 1.0500110E+003, 4.9165996E+002, 4.7117615E+002
 1.0600303E+003, 4.8026014E+002, 4.6882040E+002
 1.0700285E+003, 4.6885007E+002, 4.6611717E+002
 1.0800052E+003, 4.5745759E+002, 4.6305734E+002
 1.0900102E+003, 4.4607333E+002, 4.5973215E+002
 1.1000219E+003, 4.3466174E+002, 4.5610076E+002
 1.1100244E+003, 4.2181580E+002, 4.5220990E+002
 1.1200111E+003, 4.0757592E+002, 4.4807331E+002
 1.1300173E+003, 3.9332932E+002, 4.4378076E+002
 1.1400010E+003, 3.7909003E+002, 4.3928116E+002
 1.1500230E+003, 3.6483194E+002, 4.3451264E+002
 1.1600095E+003, 3.5057463E+002, 4.2953640E+002
 1.1700129E+003, 3.3633170E+002, 4.2438313E+002
 1.1800086E+003, 3.2208320E+002, 4.1915490E+002
 1.1900295E+003, 3.0781548E+002, 4.1382411E+002
 1.2000138E+003, 2.9356471E+002, 4.0839297E+002
 1.2100067E+003, 2.8363190E+002, 4.0295850E+002
 1.2200219E+003, 2.7793152E+002, 3.9747999E+002
 1.2300144E+003, 2.7222600E+002, 3.9219288E+002
 1.2400382E+003, 2.6652313E+002, 3.8716219E+002
 1.2500150E+003, 2.6082383E+002, 3.8224363E+002
 1.2600364E+003, 2.5512274E+002, 3.7746586E+002
 1.2700116E+003, 2.4942413E+002, 3.7281279E+002
 1.2800132E+003, 2.4373194E+002, 3.6819101E+002
 1.2900055E+003, 2.3802720E+002, 3.6371011E+002
 1.3000373E+003, 2.3232320E+002, 3.5936052E+002
 1.3100159E+003, 2.2777210E+002, 3.5506137E+002
 1.3200407E+003, 2.2435133E+002, 3.5087198E+002
 1.3300432E+003, 2.2092788E+002, 3.4682060E+002
 1.3400288E+003, 2.1750974E+002, 3.4281737E+002
 1.3500176E+003, 2.1409412E+002, 3.3892461E+002
 1.3600215E+003, 2.1067547E+002, 3.3506000E+002
 1.3700431E+003, 2.0724985E+002, 3.3131801E+002
 1.3800265E+003, 2.0382853E+002, 3.2764851E+002
 1.3900198E+003, 2.0041422E+002, 3.2406912E+002
 1.4000181E+003, 1.9699656E+002, 3.2054585E+002
 1.4100094E+003, 1.9415114E+002, 3.1707963E+002
 1.4200192E+003, 1.9187171E+002, 3.1363148E+002
 1.4300457E+003, 1.8958739E+002, 3.1022300E+002
 1.4400018E+003, 1.8730831E+002, 3.0692743E+002
 1.4500295E+003, 1.8503072E+002, 3.0370492E+002
 1.4600329E+003, 1.8274699E+002, 3.0051629E+002
 1.4700085E+003, 1.8047023E+002, 2.9742009E+002
 1.4800091E+003, 1.7819046E+002, 2.9439832E+002
 1.4900245E+003, 1.7590900E+002, 2.9141820E+002
 1.5000152E+003, 1.7362938E+002, 2.8844778E+002
 1.5100080E+003, 1.7135168E+002, 2.8547820E+002
 1.5200074E+003, 1.6907202E+002, 2.8254483E+002
 1.5300434E+003, 1.6678849E+002, 2.7970814E+002
 1.5400199E+003, 1.6450627E+002, 2.7694063E+002
 1.5500275E+003, 1.6222790E+002, 2.7421408E+002
 1.5600309E+003, 1.5994692E+002, 2.7151165E+002
 1.5700151E+003, 1.5766756E+002, 2.6882860E+002
 1.5800253E+003, 1.5538763E+002, 2.6615473E+002
 1.5900327E+003, 1.5310647E+002, 2.6348705E+002
 1.6000183E+003, 1.5082745E+002, 2.6086493E+002
 1.6100285E+003, 1.4898221E+002, 2.5831274E+002
 1.6200007E+003, 1.4755642E+002, 2.5577738E+002
 1.6300038E+003, 1.4613262E+002, 2.5327027E+002
 1.6400530E+003, 1.4470454E+002, 2.5080825E+002
 1.6500081E+003, 1.4327837E+002, 2.4842277E+002
 1.6600099E+003, 1.4185683E+002, 2.4606708E+002
 1.6700370E+003, 1.4043045E+002, 2.4371455E+002
 1.6800429E+003, 1.3900194E+002, 2.4141424E+002
 1.6900388E+003, 1.3757716E+002, 2.3916070E+002
 1.7000268E+003, 1.3615429E+002, 2.3696253E+002
 1.7100518E+003, 1.3472807E+002, 2.3478138E+002
 1.7200350E+003, 1.3330228E+002, 2.3261110E+002
 1.7300550E+003, 1.3187675E+002, 2.3045257E+002
 1.7400448E+003, 1.3045104E+002, 2.2831995E+002
 1.7500023E+003, 1.2902942E+002, 2.2623799E+002
 1.7600026E+003, 1.2760783E+002, 2.2418438E+002
 1.7700147E+003, 1.2618071E+002, 2.2212326E+002
 1.7800157E+003, 1.2475618E+002, 2.2008609E+002
 1.7900290E+003, 1.2333025E+002, 2.1807283E+002
 1.8000300E+003, 1.2190332E+002, 2.1609776E+002
 1.8100448E+003, 1.2076648E+002, 2.1414561E+002
 1.8200431E+003, 1.1991108E+002, 2.1223177E+002
 1.8300378E+003, 1.1905635E+002, 2.1034147E+002
 1.8400526E+003, 1.1820079E+002, 2.0845994E+002
 1.8500552E+003, 1.1734532E+002, 2.0663923E+002
 1.8600472E+003, 1.1649062E+002, 2.0485270E+002
 1.8700049E+003, 1.1563696E+002, 2.0310041E+002
 1.8800686E+003, 1.1478190E+002, 2.0137203E+002
 1.8900019E+003, 1.1392615E+002, 1.9964423E+002
 1.9000078E+003, 1.1307419E+002, 1.9794695E+002
 1.9100295E+003, 1.1221846E+002, 1.9627584E+002
 1.9200266E+003, 1.1136249E+002, 1.9463826E+002
 1.9300566E+003, 1.1050597E+002, 1.9303411E+002
 1.9400007E+003, 1.0965247E+002, 1.9144094E+002
 1.9500264E+003, 1.0879816E+002, 1.8987470E+002
 1.9600455E+003, 1.0794168E+002, 1.8832819E+002
 1.9700244E+003, 1.0708616E+002, 1.8679811E+002
 1.9800369E+003, 1.0623198E+002, 1.8529010E+002
 1.9900435E+003, 1.0537611E+002, 1.8380377E+002
 2.0000000E+003, 1.0452297E+002, 1.8234364E+002
