s,C,C,C,C,C,C,C,C,C
Time,"Air Temp","IRSN_1","IRSN_2","TRAC_2","TRAC_3","TRAC_4","VTT_1","GRS_2","NRC_1"
 0.0000000E+000, 2.0000000E+001, 2.0000000E+001, 2.0000000E+001, 2.0000000E+001, 2.0000000E+001, 2.0000000E+001, 2.0000000E+001, 2.0000000E+001, 2.0000000E+001
 1.0200000E+001, 2.2365918E+001, 2.0000094E+001, 2.0000097E+001, 2.0000135E+001, 2.0000131E+001, 2.0000137E+001, 2.0000113E+001, 2.0000144E+001, 2.0000221E+001
 2.0057503E+001, 2.6914918E+001, 2.0002736E+001, 2.0002900E+001, 2.0003813E+001, 2.0003654E+001, 2.0003869E+001, 2.0003275E+001, 2.0003650E+001, 2.0005432E+001
 3.0094651E+001, 3.7464186E+001, 2.0015465E+001, 2.0016771E+001, 2.0021259E+001, 2.0020309E+001, 2.0021557E+001, 2.0018562E+001, 2.0018747E+001, 2.0027652E+001
 4.0006167E+001, 5.9623111E+001, 2.0054757E+001, 2.0060207E+001, 2.0075309E+001, 2.0072026E+001, 2.0076324E+001, 2.0066205E+001, 2.0063733E+001, 2.0094710E+001
 5.0068597E+001, 8.2203836E+001, 2.0168878E+001, 2.0187753E+001, 2.0232695E+001, 2.0222823E+001, 2.0235723E+001, 2.0205601E+001, 2.0190516E+001, 2.0284682E+001
 6.0028470E+001, 1.0483923E+002, 2.0414767E+001, 2.0466178E+001, 2.0569557E+001, 2.0545116E+001, 2.0576779E+001, 2.0506657E+001, 2.0450039E+001, 2.0670871E+001
 7.0052003E+001, 1.2741836E+002, 2.0837695E+001, 2.0950102E+001, 2.1144287E+001, 2.1093875E+001, 2.1158545E+001, 2.1024470E+001, 2.0877374E+001, 2.1300101E+001
 8.0010946E+001, 1.5002393E+002, 2.1477136E+001, 2.1687888E+001, 2.2008857E+001, 2.1918180E+001, 2.2033577E+001, 2.1807895E+001, 2.1503815E+001, 2.2215980E+001
 9.0029838E+001, 1.7260999E+002, 2.2369738E+001, 2.2725517E+001, 2.3211438E+001, 2.3063204E+001, 2.3250599E+001, 2.2902708E+001, 2.2357368E+001, 2.3454193E+001
 1.0002586E+002, 1.9524861E+002, 2.3546420E+001, 2.4101964E+001, 2.4792580E+001, 2.4566695E+001, 2.4850672E+001, 2.4347397E+001, 2.3463460E+001, 2.5044877E+001
 1.1001335E+002, 2.1586060E+002, 2.5038145E+001, 2.5853882E+001, 2.6791182E+001, 2.6464698E+001, 2.6873212E+001, 2.6178421E+001, 2.4849305E+001, 2.7021465E+001
 1.2001338E+002, 2.1851815E+002, 2.6865560E+001, 2.8011607E+001, 2.9235415E+001, 2.8783395E+001, 2.9346628E+001, 2.8424234E+001, 2.6520355E+001, 2.9390989E+001
 1.3003105E+002, 2.1687758E+002, 2.8930954E+001, 3.0477455E+001, 3.1992977E+001, 3.1396000E+001, 3.2136639E+001, 3.0972441E+001, 2.8342510E+001, 3.1957983E+001
 1.4001930E+002, 2.1523825E+002, 3.1066583E+001, 3.3069959E+001, 3.4850973E+001, 3.4101727E+001, 3.5027445E+001, 3.3630779E+001, 3.0147554E+001, 3.4491932E+001
 1.5003264E+002, 2.1359793E+002, 3.3170370E+001, 3.5670279E+001, 3.7684408E+001, 3.6783156E+001, 3.7892652E+001, 3.6280368E+001, 3.1866500E+001, 3.6897579E+001
 1.6001106E+002, 2.1195879E+002, 3.5198459E+001, 3.8223256E+001, 4.0444713E+001, 3.9396184E+001, 4.0683186E+001, 3.8871173E+001, 3.3483822E+001, 3.9162248E+001
 1.7000935E+002, 2.1087659E+002, 3.7133307E+001, 4.0705437E+001, 4.3114565E+001, 4.1925347E+001, 4.3381597E+001, 4.1383764E+001, 3.4999128E+001, 4.1289629E+001
 1.8000189E+002, 2.1835701E+002, 3.8979716E+001, 4.3117793E+001, 4.5702316E+001, 4.4379622E+001, 4.5996366E+001, 4.3823198E+001, 3.6428958E+001, 4.3309725E+001
 1.9001246E+002, 2.2876190E+002, 4.0802237E+001, 4.5525917E+001, 4.8294527E+001, 4.6842887E+001, 4.8615122E+001, 4.6264434E+001, 3.7855223E+001, 4.5346291E+001
 2.0003443E+002, 2.3918167E+002, 4.2693311E+001, 4.8027933E+001, 5.1005167E+001, 4.9421670E+001, 5.1353502E+001, 4.8810581E+001, 3.9372330E+001, 4.7521494E+001
 2.1000381E+002, 2.4957993E+002, 4.4711469E+001, 5.0687325E+001, 5.3901945E+001, 5.2179533E+001, 5.4279994E+001, 5.1525602E+001, 4.1025807E+001, 4.9896057E+001
 2.2004129E+002, 2.5998936E+002, 4.6902662E+001, 5.3557324E+001, 5.7037789E+001, 5.5166294E+001, 5.7447998E+001, 5.4461285E+001, 4.2844675E+001, 5.2507340E+001
 2.3002681E+002, 2.7040623E+002, 4.9289097E+001, 5.6664730E+001, 6.0437165E+001, 5.8404706E+001, 6.0882186E+001, 5.7642490E+001, 4.4839776E+001, 5.5367390E+001
 2.4002075E+002, 2.8079552E+002, 5.1876890E+001, 6.0017846E+001, 6.4105349E+001, 6.1900250E+001, 6.4587711E+001, 6.1076023E+001, 4.7008119E+001, 5.8474393E+001
 2.5000266E+002, 2.9119259E+002, 5.4676129E+001, 6.3630739E+001, 6.8054420E+001, 6.5663780E+001, 6.8576796E+001, 6.4774372E+001, 4.9355163E+001, 6.1831351E+001
 2.6003045E+002, 3.0159934E+002, 5.7700407E+001, 6.7520670E+001, 7.2302337E+001, 6.9712079E+001, 7.2867625E+001, 6.8754527E+001, 5.1893109E+001, 6.5451852E+001
 2.7003378E+002, 3.1201847E+002, 6.0958914E+001, 7.1698526E+001, 7.6860072E+001, 7.4057209E+001, 7.7470996E+001, 7.3027830E+001, 5.4627439E+001, 6.9348131E+001
 2.8001264E+002, 3.2241589E+002, 6.4451052E+001, 7.6164537E+001, 8.1727079E+001, 7.8699889E+001, 8.2386047E+001, 7.7594719E+001, 5.7556912E+001, 7.3517866E+001
 2.9000424E+002, 3.3280536E+002, 6.8188499E+001, 8.0933273E+001, 8.6917581E+001, 8.3653688E+001, 8.7627094E+001, 8.2469298E+001, 6.0691343E+001, 7.7970856E+001
 3.0000280E+002, 3.4320317E+002, 7.2182651E+001, 8.6018353E+001, 9.2445325E+001, 8.8931586E+001, 9.3208085E+001, 8.7664893E+001, 6.4039201E+001, 8.2716535E+001
 3.1000307E+002, 3.5360231E+002, 7.6441165E+001, 9.1429005E+001, 9.8320440E+001, 9.4544295E+001, 9.9139028E+001, 9.3191402E+001, 6.7608523E+001, 8.7766337E+001
 3.2001103E+002, 3.6401548E+002, 8.0966420E+001, 9.7169170E+001, 1.0454422E+002, 1.0049382E+002, 1.0542083E+002, 9.9051872E+001, 7.1398290E+001, 9.3116124E+001
 3.3001758E+002, 3.7442963E+002, 8.5764625E+001, 1.0324325E+002, 1.1111985E+002, 1.0678645E+002, 1.1205611E+002, 1.0525144E+002, 7.5415810E+001, 9.8777605E+001
 3.4001228E+002, 3.8483380E+002, 9.0843352E+001, 1.0965730E+002, 1.1805284E+002, 1.1343004E+002, 1.1904999E+002, 1.1179704E+002, 7.9671012E+001, 1.0475948E+002
 3.5000220E+002, 3.9029511E+002, 9.6204881E+001, 1.1640963E+002, 1.2533762E+002, 1.2042157E+002, 1.2639637E+002, 1.1868622E+002, 8.4163911E+001, 1.1105751E+002
 3.6003003E+002, 3.9088419E+002, 1.0179266E+002, 1.2344390E+002, 1.3289560E+002, 1.2768563E+002, 1.3401540E+002, 1.2585320E+002, 8.8812400E+001, 1.1754663E+002
 3.7001160E+002, 3.9147288E+002, 1.0742303E+002, 1.3055850E+002, 1.4048784E+002, 1.3499428E+002, 1.4166525E+002, 1.3308239E+002, 9.3423542E+001, 1.2395886E+002
 3.8000807E+002, 3.9206029E+002, 1.1297271E+002, 1.3761526E+002, 1.4797182E+002, 1.4221228E+002, 1.4920223E+002, 1.4023609E+002, 9.7901151E+001, 1.3018094E+002
 3.9002199E+002, 3.9264895E+002, 1.1841231E+002, 1.4457405E+002, 1.5531278E+002, 1.4931002E+002, 1.5659099E+002, 1.4727910E+002, 1.0224506E+002, 1.3621614E+002
 4.0000244E+002, 3.9323707E+002, 1.2370022E+002, 1.5137674E+002, 1.6245586E+002, 1.5623456E+002, 1.6377651E+002, 1.5415587E+002, 1.0643081E+002, 1.4203797E+002
 4.1002011E+002, 3.9382519E+002, 1.2884000E+002, 1.5802385E+002, 1.6940970E+002, 1.6299351E+002, 1.7076776E+002, 1.6087070E+002, 1.1047544E+002, 1.4767434E+002
 4.2002285E+002, 3.9441403E+002, 1.3384164E+002, 1.6451226E+002, 1.7617271E+002, 1.6958588E+002, 1.7756322E+002, 1.6742160E+002, 1.1440088E+002, 1.5314594E+002
 4.3003196E+002, 3.9500283E+002, 1.3871276E+002, 1.7084970E+002, 1.8276148E+002, 1.7602555E+002, 1.8418019E+002, 1.7381958E+002, 1.1821431E+002, 1.5847699E+002
 4.4002213E+002, 3.9559086E+002, 1.4346052E+002, 1.7703442E+002, 1.8917057E+002, 1.8230610E+002, 1.9061335E+002, 1.8006090E+002, 1.2192758E+002, 1.6366762E+002
 4.5001141E+002, 3.9617861E+002, 1.4808674E+002, 1.8305511E+002, 1.9538745E+002, 1.8841536E+002, 1.9685018E+002, 1.8613363E+002, 1.2554763E+002, 1.6872145E+002
 4.6001045E+002, 3.9676605E+002, 1.5261318E+002, 1.8894281E+002, 2.0145188E+002, 1.9438956E+002, 2.0293114E+002, 1.9207163E+002, 1.2908239E+002, 1.7367153E+002
 4.7000787E+002, 3.9735468E+002, 1.5703774E+002, 1.9468899E+002, 2.0735036E+002, 2.0021316E+002, 2.0884296E+002, 1.9786308E+002, 1.3253323E+002, 1.7850341E+002
 4.8001089E+002, 3.9794263E+002, 1.6136536E+002, 2.0029390E+002, 2.1308552E+002, 2.0588852E+002, 2.1458838E+002, 2.0350915E+002, 1.3590561E+002, 1.8322883E+002
 4.9002586E+002, 3.9853162E+002, 1.6560480E+002, 2.0576717E+002, 2.1866789E+002, 2.1142521E+002, 2.2017812E+002, 2.0901953E+002, 1.3920114E+002, 1.8785574E+002
 5.0000552E+002, 3.9911962E+002, 1.6975296E+002, 2.1109910E+002, 2.2408794E+002, 2.1681388E+002, 2.2560268E+002, 2.1438464E+002, 1.4242001E+002, 1.9238290E+002
 5.1003367E+002, 3.9970789E+002, 1.7382290E+002, 2.1630085E+002, 2.2935644E+002, 2.2206476E+002, 2.3087292E+002, 2.1961519E+002, 1.4557460E+002, 1.9682117E+002
 5.2002668E+002, 3.9915829E+002, 1.7781402E+002, 2.2136778E+002, 2.3446783E+002, 2.2717066E+002, 2.3598353E+002, 2.2470536E+002, 1.4866777E+002, 2.0116371E+002
 5.3003031E+002, 3.9749172E+002, 1.8171115E+002, 2.2628537E+002, 2.3940813E+002, 2.3211690E+002, 2.4092067E+002, 2.2964048E+002, 1.5167792E+002, 2.0538965E+002
 5.4003329E+002, 3.9582540E+002, 1.8548353E+002, 2.3102133E+002, 2.4413543E+002, 2.3686302E+002, 2.4564189E+002, 2.3438419E+002, 1.5456445E+002, 2.0944255E+002
 5.5001960E+002, 3.9415886E+002, 1.8910312E+002, 2.3554037E+002, 2.4861547E+002, 2.4137414E+002, 2.5011312E+002, 2.3890113E+002, 1.5731299E+002, 2.1330004E+002
 5.6002681E+002, 3.9249325E+002, 1.9257882E+002, 2.3985816E+002, 2.5287279E+002, 2.4567505E+002, 2.5435909E+002, 2.4321140E+002, 1.5992676E+002, 2.1699050E+002
 5.7000218E+002, 3.9082811E+002, 1.9590346E+002, 2.4396332E+002, 2.5689294E+002, 2.4974963E+002, 2.5836547E+002, 2.4730165E+002, 1.6240633E+002, 2.2049699E+002
 5.8001293E+002, 3.8916284E+002, 1.9908133E+002, 2.4785556E+002, 2.6067850E+002, 2.5359950E+002, 2.6213517E+002, 2.5117241E+002, 1.6476199E+002, 2.2383257E+002
 5.9001846E+002, 3.8749438E+002, 2.0212585E+002, 2.5155058E+002, 2.6424809E+002, 2.5724241E+002, 2.6568709E+002, 2.5484047E+002, 1.6700434E+002, 2.2701464E+002
 6.0002686E+002, 3.8582626E+002, 2.0503394E+002, 2.5503937E+002, 2.6759112E+002, 2.6066828E+002, 2.6901053E+002, 2.5829632E+002, 1.6913211E+002, 2.3003654E+002
 6.1001599E+002, 3.8416042E+002, 2.0782375E+002, 2.5834789E+002, 2.7074400E+002, 2.6391157E+002, 2.7214248E+002, 2.6157015E+002, 1.7115997E+002, 2.3293529E+002
 6.2002824E+002, 3.8249341E+002, 2.1049153E+002, 2.6146893E+002, 2.7369159E+002, 2.6695459E+002, 2.7506790E+002, 2.6464994E+002, 1.7308918E+002, 2.3568336E+002
 6.3001264E+002, 3.8082730E+002, 2.1304732E+002, 2.6441464E+002, 2.7645290E+002, 2.6981678E+002, 2.7780602E+002, 2.6755114E+002, 1.7492777E+002, 2.3830869E+002
 6.4001248E+002, 3.7916164E+002, 2.1549690E+002, 2.6719369E+002, 2.7903703E+002, 2.7250636E+002, 2.8036609E+002, 2.7028237E+002, 1.7667746E+002, 2.4081238E+002
 6.5001663E+002, 3.7749431E+002, 2.1784542E+002, 2.6981308E+002, 2.8145086E+002, 2.7502905E+002, 2.8275515E+002, 2.7285005E+002, 1.7834233E+002, 2.4319717E+002
 6.6000910E+002, 3.7582894E+002, 2.2008679E+002, 2.7226068E+002, 2.8367863E+002, 2.7736901E+002, 2.8495736E+002, 2.7524023E+002, 1.7992245E+002, 2.4544914E+002
 6.7002679E+002, 3.7416063E+002, 2.2224450E+002, 2.7457082E+002, 2.8576742E+002, 2.7957283E+002, 2.8702024E+002, 2.7749308E+002, 1.8143478E+002, 2.4761908E+002
 6.8003205E+002, 3.7249177E+002, 2.2432573E+002, 2.7675825E+002, 2.8773148E+002, 2.8165399E+002, 2.8895810E+002, 2.7962300E+002, 1.8287924E+002, 2.4970703E+002
 6.9001013E+002, 3.7082701E+002, 2.2632758E+002, 2.7881923E+002, 2.8956470E+002, 2.8360510E+002, 2.9076495E+002, 2.8162465E+002, 1.8425706E+002, 2.5170117E+002
 7.0001547E+002, 3.6916136E+002, 2.2824185E+002, 2.8073896E+002, 2.9124593E+002, 2.8540475E+002, 2.9241952E+002, 2.8347983E+002, 1.8556615E+002, 2.5358065E+002
 7.1002669E+002, 3.6749348E+002, 2.3006884E+002, 2.8251647E+002, 2.9277485E+002, 2.8705361E+002, 2.9392135E+002, 2.8518828E+002, 1.8680664E+002, 2.5534798E+002
 7.2001103E+002, 3.6582669E+002, 2.3181238E+002, 2.8416043E+002, 2.9416666E+002, 2.8856538E+002, 2.9528611E+002, 2.8676115E+002, 1.8798519E+002, 2.5701970E+002
 7.3002129E+002, 3.6416162E+002, 2.3349333E+002, 2.8570028E+002, 2.9545746E+002, 2.8997654E+002, 2.9655002E+002, 2.8823133E+002, 1.8911580E+002, 2.5863125E+002
 7.4000777E+002, 3.6249447E+002, 2.3511451E+002, 2.8714178E+002, 2.9664918E+002, 2.9128884E+002, 2.9771487E+002, 2.8960283E+002, 1.9019694E+002, 2.6017108E+002
 7.5000851E+002, 3.6082874E+002, 2.3665580E+002, 2.8845809E+002, 2.9770702E+002, 2.9246745E+002, 2.9874563E+002, 2.9084487E+002, 1.9121446E+002, 2.6160118E+002
 7.6000597E+002, 3.5790633E+002, 2.3813088E+002, 2.8966658E+002, 2.9865720E+002, 2.9353808E+002, 2.9966890E+002, 2.9197872E+002, 1.9218449E+002, 2.6295939E+002
 7.7001805E+002, 3.5373594E+002, 2.3953556E+002, 2.9077138E+002, 2.9950120E+002, 2.9450225E+002, 3.0048600E+002, 2.9300743E+002, 1.9308910E+002, 2.6422523E+002
 7.8002771E+002, 3.4956794E+002, 2.4082650E+002, 2.9172376E+002, 3.0017880E+002, 2.9530096E+002, 3.0113621E+002, 2.9387705E+002, 1.9388788E+002, 2.6532975E+002
 7.9000599E+002, 3.4540113E+002, 2.4197964E+002, 2.9249917E+002, 3.0066714E+002, 2.9591161E+002, 3.0159667E+002, 2.9456380E+002, 1.9456447E+002, 2.6625610E+002
 8.0000547E+002, 3.4123990E+002, 2.4299443E+002, 2.9309804E+002, 3.0096952E+002, 2.9633837E+002, 3.0187065E+002, 2.9506996E+002, 1.9512144E+002, 2.6701311E+002
 8.1002358E+002, 3.3707052E+002, 2.4387609E+002, 2.9352364E+002, 3.0109247E+002, 2.9658879E+002, 3.0196465E+002, 2.9540080E+002, 1.9556882E+002, 2.6761899E+002
 8.2000982E+002, 3.3290094E+002, 2.4464718E+002, 2.9380976E+002, 3.0107990E+002, 2.9670624E+002, 3.0192294E+002, 2.9559501E+002, 1.9592463E+002, 2.6811624E+002
 8.3003274E+002, 3.2873392E+002, 2.4530679E+002, 2.9395409E+002, 3.0092340E+002, 2.9668070E+002, 3.0173714E+002, 2.9564684E+002, 1.9618719E+002, 2.6848638E+002
 8.4001365E+002, 3.2456414E+002, 2.4585472E+002, 2.9395434E+002, 3.0062015E+002, 2.9650941E+002, 3.0140437E+002, 2.9555361E+002, 1.9636030E+002, 2.6873009E+002
 8.5001738E+002, 3.2040266E+002, 2.4629260E+002, 2.9380883E+002, 3.0016746E+002, 2.9618902E+002, 3.0092204E+002, 2.9531286E+002, 1.9645022E+002, 2.6884736E+002
 8.6001801E+002, 3.1623522E+002, 2.4662444E+002, 2.9352149E+002, 2.9956969E+002, 2.9572297E+002, 3.0029469E+002, 2.9492832E+002, 1.9646058E+002, 2.6884207E+002
 8.7001727E+002, 3.1207271E+002, 2.4686626E+002, 2.9311498E+002, 2.9885673E+002, 2.9514077E+002, 2.9955252E+002, 2.9442597E+002, 1.9640527E+002, 2.6874793E+002
 8.8002184E+002, 3.3184442E+002, 2.4703208E+002, 2.9260233E+002, 2.9804179E+002, 2.9445493E+002, 2.9870886E+002, 2.9381870E+002, 1.9630386E+002, 2.6858162E+002
 8.9002284E+002, 3.7518846E+002, 2.4738520E+002, 2.9225918E+002, 2.9748125E+002, 2.9401082E+002, 2.9812438E+002, 2.9341676E+002, 1.9650408E+002, 2.6884380E+002
 9.0003089E+002, 4.1851802E+002, 2.4857541E+002, 2.9278161E+002, 2.9800623E+002, 2.9460738E+002, 2.9863943E+002, 2.9396999E+002, 1.9772330E+002, 2.7050670E+002
 9.1000970E+002, 4.6181467E+002, 2.5117092E+002, 2.9480198E+002, 3.0030187E+002, 2.9690248E+002, 3.0094489E+002, 2.9612685E+002, 2.0046003E+002, 2.7419240E+002
 9.2002205E+002, 5.0514651E+002, 2.5554306E+002, 2.9872373E+002, 3.0476652E+002, 3.0127914E+002, 3.0544114E+002, 3.0028230E+002, 2.0502339E+002, 2.8020879E+002
 9.3000372E+002, 5.4844041E+002, 2.6199177E+002, 3.0487165E+002, 3.1172130E+002, 3.0805582E+002, 3.1244943E+002, 3.0675799E+002, 2.1168003E+002, 2.8881943E+002
 9.4001234E+002, 5.9177035E+002, 2.7080232E+002, 3.1355967E+002, 3.2149070E+002, 3.1756482E+002, 3.2229303E+002, 3.1587616E+002, 2.2069171E+002, 3.0032241E+002
 9.5001821E+002, 6.3513064E+002, 2.8221078E+002, 3.2503959E+002, 3.3431058E+002, 3.3005552E+002, 3.3520473E+002, 3.2788728E+002, 2.3229999E+002, 3.1489525E+002
 9.6001467E+002, 6.7846470E+002, 2.9631898E+002, 3.3939439E+002, 3.5022830E+002, 3.4560134E+002, 3.5122635E+002, 3.4286806E+002, 2.4665843E+002, 3.3256227E+002
 9.7000009E+002, 6.7955340E+002, 3.1315190E+002, 3.5664678E+002, 3.6922076E+002, 3.6421425E+002, 3.7032751E+002, 3.6083440E+002, 2.6378419E+002, 3.5321529E+002
 9.8000356E+002, 6.3886946E+002, 3.3107338E+002, 3.7513583E+002, 3.8911386E+002, 3.8378345E+002, 3.9030839E+002, 3.7990212E+002, 2.8143962E+002, 3.7366716E+002
 9.9001822E+002, 5.9810599E+002, 3.4676735E+002, 3.9146410E+002, 4.0596012E+002, 4.0044009E+002, 4.0719436E+002, 3.9642620E+002, 2.9588181E+002, 3.8931354E+002
 1.0000094E+003, 5.5738258E+002, 3.5862994E+002, 4.0398171E+002, 4.1824425E+002, 4.1268534E+002, 4.1947354E+002, 4.0882079E+002, 3.0593353E+002, 3.9926707E+002
 1.0100071E+003, 5.1669764E+002, 3.6657134E+002, 4.1257932E+002, 4.2614932E+002, 4.2067845E+002, 4.2734209E+002, 4.1711090E+002, 3.1196387E+002, 4.0438267E+002
 1.0200138E+003, 4.7597396E+002, 3.7106325E+002, 4.1770550E+002, 4.3033514E+002, 4.2504983E+002, 4.3147029E+002, 4.2184124E+002, 3.1470195E+002, 4.0573156E+002
 1.0300262E+003, 4.3521370E+002, 3.7267818E+002, 4.1989204E+002, 4.3145978E+002, 4.2643236E+002, 4.3252328E+002, 4.2359929E+002, 3.1484477E+002, 4.0422170E+002
 1.0400140E+003, 4.1053262E+002, 3.7201584E+002, 4.1970006E+002, 4.3016805E+002, 4.2545059E+002, 4.3115111E+002, 4.2298183E+002, 3.1303641E+002, 4.0065462E+002
 1.0500054E+003, 4.0168444E+002, 3.6979695E+002, 4.1781411E+002, 4.2724217E+002, 4.2286168E+002, 4.2814268E+002, 4.2071253E+002, 3.1006636E+002, 3.9600120E+002
 1.0600122E+003, 3.9281708E+002, 3.6687391E+002, 4.1508606E+002, 4.2362688E+002, 4.1958182E+002, 4.2444978E+002, 4.1767888E+002, 3.0678317E+002, 3.9128791E+002
 1.0700150E+003, 3.8394894E+002, 3.6373234E+002, 4.1199750E+002, 4.1978245E+002, 4.1605323E+002, 4.2053463E+002, 4.1434538E+002, 3.0354666E+002, 3.8685540E+002
 1.0800131E+003, 3.7508853E+002, 3.6059773E+002, 4.0877481E+002, 4.1589681E+002, 4.1246060E+002, 4.1658448E+002, 4.1091742E+002, 3.0046386E+002, 3.8277325E+002
 1.0900194E+003, 3.6622160E+002, 3.5755984E+002, 4.0551259E+002, 4.1203151E+002, 4.0886812E+002, 4.1265944E+002, 4.0747347E+002, 2.9754294E+002, 3.7901008E+002
 1.1000121E+003, 3.5735901E+002, 3.5460467E+002, 4.0218705E+002, 4.0812139E+002, 4.0521042E+002, 4.0869318E+002, 4.0396851E+002, 2.9472811E+002, 3.7542016E+002
 1.1100302E+003, 3.4848813E+002, 3.5171887E+002, 3.9878558E+002, 4.0414764E+002, 4.0147185E+002, 4.0466637E+002, 4.0038681E+002, 2.9199205E+002, 3.7196589E+002
 1.1200101E+003, 3.3962397E+002, 3.4891277E+002, 3.9533522E+002, 4.0013878E+002, 3.9768516E+002, 4.0060689E+002, 3.9675750E+002, 2.8932867E+002, 3.6863963E+002
 1.1300164E+003, 3.3076794E+002, 3.4614348E+002, 3.9179322E+002, 3.9603524E+002, 3.9379149E+002, 3.9645463E+002, 3.9302966E+002, 2.8669179E+002, 3.6534083E+002
 1.1400351E+003, 3.2188953E+002, 3.4340559E+002, 3.8816732E+002, 3.9185795E+002, 3.8981655E+002, 3.9223019E+002, 3.8921886E+002, 2.8407994E+002, 3.6209586E+002
 1.1500139E+003, 3.1302952E+002, 3.4070485E+002, 3.8448073E+002, 3.8762950E+002, 3.8578209E+002, 3.8795621E+002, 3.8534804E+002, 2.8149083E+002, 3.5888848E+002
 1.1600152E+003, 3.0417527E+002, 3.3803341E+002, 3.8073523E+002, 3.8335344E+002, 3.8169344E+002, 3.8363605E+002, 3.8142051E+002, 2.7892157E+002, 3.5571113E+002
 1.1700001E+003, 2.9531571E+002, 3.3537376E+002, 3.7691915E+002, 3.7901440E+002, 3.7753511E+002, 3.7925423E+002, 3.7742279E+002, 2.7635748E+002, 3.5253182E+002
 1.1800149E+003, 2.8645161E+002, 3.3271221E+002, 3.7302564E+002, 3.7460381E+002, 3.7329922E+002, 3.7480198E+002, 3.7334752E+002, 2.7378905E+002, 3.4932776E+002
 1.1900356E+003, 2.7757404E+002, 3.3003158E+002, 3.6904063E+002, 3.7010741E+002, 3.6897287E+002, 3.7026488E+002, 3.6918098E+002, 2.7120826E+002, 3.4608264E+002
 1.2000360E+003, 2.6870029E+002, 3.2735331E+002, 3.6500603E+002, 3.6557837E+002, 3.6461182E+002, 3.6569601E+002, 3.6497179E+002, 2.6863517E+002, 3.4284037E+002
 1.2100001E+003, 2.5985131E+002, 3.2464811E+002, 3.6088886E+002, 3.6096645E+002, 3.6016065E+002, 3.6104537E+002, 3.6067668E+002, 2.6604683E+002, 3.3952400E+002
 1.2200032E+003, 2.5100415E+002, 3.2192750E+002, 3.5670925E+002, 3.5630862E+002, 3.5566033E+002, 3.5634989E+002, 3.5632524E+002, 2.6346277E+002, 3.3619762E+002
 1.2300340E+003, 2.4212353E+002, 3.1918993E+002, 3.5247162E+002, 3.5160520E+002, 3.5111122E+002, 3.5160973E+002, 3.5192036E+002, 2.6087543E+002, 3.3284350E+002
