s,C,C,C,C,C,C,C,C,C
Time,"Air Temp","IRSN_1","IRSN_2","TRAC_2","TRAC_3","TRAC_4","VTT_1","GRS_2","NRC_1"
 0.0000000E+000, 2.0000000E+001, 2.0000000E+001, 2.0000000E+001, 2.0000000E+001, 2.0000000E+001, 2.0000000E+001, 2.0000000E+001, 2.0000000E+001, 2.0000000E+001
 1.0200000E+001, 2.2365918E+001, 2.0000094E+001, 2.0000097E+001, 2.0000135E+001, 2.0000131E+001, 2.0000137E+001, 2.0000113E+001, 2.0000144E+001, 2.0000221E+001
 2.0200000E+001, 2.6956000E+001, 2.0002792E+001, 2.0002959E+001, 2.0003889E+001, 2.0003726E+001, 2.0003945E+001, 2.0003341E+001, 2.0003720E+001, 2.0005534E+001
 3.0118600E+001, 3.7647805E+001, 2.0015536E+001, 2.0016835E+001, 2.0021322E+001, 2.0020351E+001, 2.0021624E+001, 2.0018618E+001, 2.0018845E+001, 2.0027708E+001
 4.0053627E+001, 5.9708859E+001, 2.0054164E+001, 2.0059410E+001, 2.0074314E+001, 2.0071005E+001, 2.0075331E+001, 2.0065302E+001, 2.0063281E+001, 2.0093332E+001
 5.0016169E+001, 8.2202360E+001, 2.0165097E+001, 2.0182827E+001, 2.0226693E+001, 2.0216741E+001, 2.0229713E+001, 2.0200122E+001, 2.0187600E+001, 2.0277444E+001
 6.0006828E+001, 1.0475587E+002, 2.0407244E+001, 2.0456322E+001, 2.0558046E+001, 2.0533510E+001, 2.0565253E+001, 2.0495951E+001, 2.0444599E+001, 2.0658583E+001
 7.0048590E+001, 1.2739459E+002, 2.0830264E+001, 2.0939359E+001, 2.1132211E+001, 2.1081414E+001, 2.1146521E+001, 2.1012910E+001, 2.0874350E+001, 2.1289120E+001
 8.0048642E+001, 1.5005965E+002, 2.1469820E+001, 2.1675112E+001, 2.1993635E+001, 2.1901783E+001, 2.2018504E+001, 2.1793423E+001, 2.1503150E+001, 2.2201923E+001
 9.0045918E+001, 1.7267289E+002, 2.2358661E+001, 2.2705478E+001, 2.3187015E+001, 2.3036972E+001, 2.3226368E+001, 2.2879722E+001, 2.2354994E+001, 2.3431855E+001
 1.0002117E+002, 1.9525085E+002, 2.3527950E+001, 2.4070024E+001, 2.4754303E+001, 2.4526400E+001, 2.4812552E+001, 2.4311398E+001, 2.3455090E+001, 2.5011619E+001
 1.1003056E+002, 2.1585187E+002, 2.5020409E+001, 2.5822756E+001, 2.6755395E+001, 2.6427298E+001, 2.6837568E+001, 2.6144197E+001, 2.4839512E+001, 2.6994786E+001
 1.2001971E+002, 2.1851646E+002, 2.6853620E+001, 2.7988435E+001, 2.9210294E+001, 2.8757097E+001, 2.9321663E+001, 2.8399494E+001, 2.6514389E+001, 2.9377350E+001
 1.3003433E+002, 2.1687676E+002, 2.8926683E+001, 3.0465709E+001, 3.1982360E+001, 3.1385018E+001, 3.2126125E+001, 3.0961036E+001, 2.8341037E+001, 3.1958403E+001
 1.4002923E+002, 2.1523631E+002, 3.1065269E+001, 3.3062834E+001, 3.4844428E+001, 3.4094835E+001, 3.5020952E+001, 3.3623837E+001, 3.0147391E+001, 3.4492366E+001
 1.5000860E+002, 2.1359885E+002, 3.3167834E+001, 3.5661165E+001, 3.7675184E+001, 3.6774059E+001, 3.7883373E+001, 3.6271314E+001, 3.1864420E+001, 3.6896091E+001
 1.6004718E+002, 2.1195888E+002, 3.5199059E+001, 3.8217915E+001, 4.0438765E+001, 3.9390653E+001, 4.0677119E+001, 3.8865783E+001, 3.3482178E+001, 3.9163364E+001
 1.7004408E+002, 2.1088353E+002, 3.7139905E+001, 4.0706546E+001, 4.3114512E+001, 4.1926081E+001, 4.3381347E+001, 4.1384716E+001, 3.5000122E+001, 4.1297070E+001
 1.8003456E+002, 2.1839300E+002, 3.8986367E+001, 4.3117536E+001, 4.5699920E+001, 4.4378657E+001, 4.5993623E+001, 4.3822591E+001, 3.6428283E+001, 4.3316389E+001
 1.9003981E+002, 2.2879105E+002, 4.0807313E+001, 4.5522027E+001, 4.8287511E+001, 4.6837484E+001, 4.8607682E+001, 4.6259780E+001, 3.7853284E+001, 4.5349940E+001
 2.0004603E+002, 2.3920007E+002, 4.2701528E+001, 4.8025191E+001, 5.1000165E+001, 4.9418842E+001, 5.1348006E+001, 4.8807729E+001, 3.9374923E+001, 4.7532453E+001
 2.1003419E+002, 2.4960064E+002, 4.4729503E+001, 5.0694632E+001, 5.3908675E+001, 5.2189049E+001, 5.4286174E+001, 5.1533915E+001, 4.1037047E+001, 4.9921703E+001
 2.2003154E+002, 2.5999925E+002, 4.6925677E+001, 5.3570583E+001, 5.7051119E+001, 5.5182995E+001, 5.7460705E+001, 5.4476171E+001, 4.2859053E+001, 5.2539207E+001
 2.3000066E+002, 2.7038422E+002, 4.9309106E+001, 5.6675449E+001, 6.0447370E+001, 5.8419038E+001, 6.0891643E+001, 5.7654904E+001, 4.4849702E+001, 5.5394983E+001
 2.4001030E+002, 2.8077817E+002, 5.1900565E+001, 6.0032687E+001, 6.4119783E+001, 6.1918276E+001, 6.4601538E+001, 6.1092404E+001, 4.7023794E+001, 5.8504987E+001
 2.5003166E+002, 2.9120357E+002, 5.4712429E+001, 6.3660151E+001, 6.8084631E+001, 6.5696660E+001, 6.8606634E+001, 6.4805511E+001, 4.9383885E+001, 6.1876147E+001
 2.6003253E+002, 3.0161379E+002, 5.7743834E+001, 6.7557447E+001, 7.2340020E+001, 6.9753040E+001, 7.2904854E+001, 6.8793346E+001, 5.1927220E+001, 6.5504986E+001
 2.7000520E+002, 3.1200324E+002, 6.0995793E+001, 7.1726866E+001, 7.6888005E+001, 7.4089358E+001, 7.7498262E+001, 7.3057978E+001, 5.4655000E+001, 6.9391948E+001
 2.8002128E+002, 3.2240616E+002, 6.4492322E+001, 7.6197966E+001, 8.1760456E+001, 7.8737832E+001, 8.2418693E+001, 7.7630262E+001, 5.7587641E+001, 7.3567618E+001
 2.9002692E+002, 3.3282097E+002, 6.8245618E+001, 8.0985461E+001, 8.6971283E+001, 8.3712233E+001, 8.7680061E+001, 8.2524497E+001, 6.0733859E+001, 7.8040594E+001
 3.0001909E+002, 3.4322618E+002, 7.2248148E+001, 8.6080791E+001, 9.2510246E+001, 8.9001744E+001, 9.3272216E+001, 8.7731004E+001, 6.4089258E+001, 8.2797236E+001
 3.1000070E+002, 3.5361106E+002, 7.6510657E+001, 9.1492651E+001, 9.8384619E+001, 9.4617554E+001, 9.9201640E+001, 9.3259506E+001, 6.7663046E+001, 8.7854006E+001
 3.2000215E+002, 3.6401237E+002, 8.1041637E+001, 9.7232815E+001, 1.0460533E+002, 1.0056957E+002, 1.0547931E+002, 9.9121013E+001, 7.1458892E+001, 9.3211846E+001
 3.3002740E+002, 3.7442530E+002, 8.5854990E+001, 1.0332094E+002, 1.1119481E+002, 1.0687879E+002, 1.1212794E+002, 1.0533588E+002, 7.5490839E+001, 9.8891289E+001
 3.4001311E+002, 3.8483782E+002, 9.0947129E+001, 1.0974395E+002, 1.1813445E+002, 1.1353269E+002, 1.1912783E+002, 1.1189099E+002, 7.9758811E+001, 1.0488721E+002
 3.5001191E+002, 3.9029546E+002, 9.6315315E+001, 1.1650406E+002, 1.2542762E+002, 1.2053265E+002, 1.2648257E+002, 1.1878838E+002, 8.4257685E+001, 1.1118876E+002
 3.6000092E+002, 3.9088355E+002, 1.0189392E+002, 1.2353335E+002, 1.3298101E+002, 1.2778972E+002, 1.3409737E+002, 1.2594959E+002, 8.8897736E+001, 1.1766266E+002
 3.7003081E+002, 3.9147260E+002, 1.0752400E+002, 1.3064812E+002, 1.4057162E+002, 1.3509619E+002, 1.4174575E+002, 1.3317775E+002, 9.3508131E+001, 1.2407047E+002
 3.8002688E+002, 3.9206164E+002, 1.1308295E+002, 1.3771195E+002, 1.4805975E+002, 1.4231952E+002, 1.4928673E+002, 1.4033756E+002, 9.7993720E+001, 1.3029803E+002
 3.9002037E+002, 3.9264958E+002, 1.1851271E+002, 1.4465706E+002, 1.5538617E+002, 1.4940408E+002, 1.5666075E+002, 1.4736704E+002, 1.0232964E+002, 1.3632229E+002
 4.0002038E+002, 3.9323738E+002, 1.2380465E+002, 1.5146623E+002, 1.6253794E+002, 1.5633852E+002, 1.6385479E+002, 1.5425198E+002, 1.0652489E+002, 1.4215640E+002
 4.1003035E+002, 3.9382583E+002, 1.2895512E+002, 1.5812200E+002, 1.6949956E+002, 1.6310713E+002, 1.7085358E+002, 1.6097597E+002, 1.1058719E+002, 1.4780521E+002
 4.2001479E+002, 3.9441432E+002, 1.3395666E+002, 1.6460796E+002, 1.7626048E+002, 1.6969806E+002, 1.7764694E+002, 1.6752493E+002, 1.1451875E+002, 1.5327794E+002
 4.3001733E+002, 3.9500178E+002, 1.3883040E+002, 1.7094722E+002, 1.8285249E+002, 1.7613990E+002, 1.8426745E+002, 1.7392500E+002, 1.1833954E+002, 1.5861206E+002
 4.4000235E+002, 3.9558996E+002, 1.4358064E+002, 1.7713756E+002, 1.8926975E+002, 1.8242627E+002, 1.9070930E+002, 1.8017212E+002, 1.2205183E+002, 1.6380501E+002
 4.5001204E+002, 3.9617772E+002, 1.4820725E+002, 1.8316777E+002, 1.9549780E+002, 1.8854355E+002, 1.9695782E+002, 1.8625383E+002, 1.2566092E+002, 1.6885417E+002
 4.6001691E+002, 3.9676652E+002, 1.5273253E+002, 1.8906093E+002, 2.0156817E+002, 1.9452099E+002, 2.0304518E+002, 1.9219631E+002, 1.2919037E+002, 1.7380019E+002
 4.7001946E+002, 3.9735531E+002, 1.5715744E+002, 1.9481338E+002, 2.0747506E+002, 2.0035188E+002, 2.0896567E+002, 1.9799456E+002, 1.3263822E+002, 1.7863642E+002
 4.8002175E+002, 3.9794345E+002, 1.6147981E+002, 2.0041489E+002, 2.1320449E+002, 2.0602167E+002, 2.1470526E+002, 2.0363622E+002, 1.3600238E+002, 1.8335147E+002
 4.9002370E+002, 3.9853163E+002, 1.6570485E+002, 2.0586882E+002, 2.1876316E+002, 2.1153549E+002, 2.2027109E+002, 2.0912547E+002, 1.3928933E+002, 1.8795667E+002
 5.0001963E+002, 3.9911988E+002, 1.6984682E+002, 2.1119269E+002, 2.2417568E+002, 2.1691595E+002, 2.2568829E+002, 2.1448237E+002, 1.4250801E+002, 1.9247915E+002
 5.1002569E+002, 3.9970795E+002, 1.7392225E+002, 2.1640767E+002, 2.2946514E+002, 2.2218595E+002, 2.3097998E+002, 2.1972908E+002, 1.4566478E+002, 1.9693672E+002
 5.2001197E+002, 3.9915969E+002, 1.7792208E+002, 2.2149532E+002, 2.3460580E+002, 2.2731888E+002, 2.3612043E+002, 2.2484322E+002, 1.4875781E+002, 2.0130208E+002
 5.3002968E+002, 3.9749389E+002, 1.8183094E+002, 2.2643604E+002, 2.3957215E+002, 2.3229029E+002, 2.4108374E+002, 2.2980266E+002, 1.5176503E+002, 2.0554254E+002
 5.4000220E+002, 3.9582814E+002, 1.8560678E+002, 2.3118410E+002, 2.4431463E+002, 2.3705055E+002, 2.4582028E+002, 2.3455955E+002, 1.5464504E+002, 2.0960270E+002
 5.5000991E+002, 3.9416258E+002, 1.8922829E+002, 2.3571613E+002, 2.4880991E+002, 2.4157478E+002, 2.5030706E+002, 2.3908974E+002, 1.5738555E+002, 2.1346014E+002
 5.6001478E+002, 3.9249535E+002, 1.9269655E+002, 2.4002634E+002, 2.5305404E+002, 2.4586157E+002, 2.5453980E+002, 2.4338929E+002, 1.5999300E+002, 2.1713039E+002
 5.7001664E+002, 3.9082791E+002, 1.9602840E+002, 2.4414066E+002, 2.5708646E+002, 2.4994899E+002, 2.5855854E+002, 2.4749029E+002, 1.6247860E+002, 2.2065489E+002
 5.8000842E+002, 3.8916167E+002, 1.9921053E+002, 2.4803834E+002, 2.6087697E+002, 2.5380471E+002, 2.6233311E+002, 2.5136667E+002, 1.6483444E+002, 2.2399337E+002
 5.9001574E+002, 3.8749514E+002, 2.0224586E+002, 2.5172240E+002, 2.6443305E+002, 2.5743431E+002, 2.6587146E+002, 2.5502264E+002, 1.6706784E+002, 2.2715820E+002
 6.0002945E+002, 3.8582668E+002, 2.0514436E+002, 2.5520284E+002, 2.6776655E+002, 2.6084920E+002, 2.6918556E+002, 2.5846895E+002, 1.6918772E+002, 2.3016305E+002
 6.1004014E+002, 3.8415801E+002, 2.0790364E+002, 2.5847258E+002, 2.7086996E+002, 2.6404019E+002, 2.7226823E+002, 2.6169747E+002, 1.7119782E+002, 2.3300345E+002
 6.2001745E+002, 3.8249254E+002, 2.1055075E+002, 2.6157027E+002, 2.7379651E+002, 2.6706230E+002, 2.7517272E+002, 2.6475476E+002, 1.7311312E+002, 2.3573819E+002
 6.3002582E+002, 3.8082690E+002, 2.1309462E+002, 2.6450673E+002, 2.7655187E+002, 2.6991799E+002, 2.7790508E+002, 2.6764802E+002, 1.7494129E+002, 2.3835698E+002
 6.4000549E+002, 3.7916077E+002, 2.1554961E+002, 2.6729818E+002, 2.7915587E+002, 2.7262683E+002, 2.8048527E+002, 2.7039500E+002, 1.7669506E+002, 2.4088327E+002
 6.5003001E+002, 3.7749428E+002, 2.1791060E+002, 2.6993733E+002, 2.8159538E+002, 2.7517454E+002, 2.8290022E+002, 2.7298509E+002, 1.7836994E+002, 2.4329359E+002
 6.6000810E+002, 3.7582695E+002, 2.2018459E+002, 2.7243646E+002, 2.8388868E+002, 2.7757862E+002, 2.8516854E+002, 2.7543309E+002, 1.7997133E+002, 2.4560670E+002
 6.7001839E+002, 3.7416092E+002, 2.2235617E+002, 2.7477150E+002, 2.8600313E+002, 2.7980669E+002, 2.8725735E+002, 2.7771085E+002, 1.8148876E+002, 2.4778696E+002
 6.8001519E+002, 3.7249451E+002, 2.2444435E+002, 2.7696987E+002, 2.8797640E+002, 2.8189613E+002, 2.8920453E+002, 2.7985053E+002, 1.8293840E+002, 2.4987607E+002
 6.9002219E+002, 3.7082699E+002, 2.2645414E+002, 2.7903956E+002, 2.8981750E+002, 2.8385451E+002, 2.9101940E+002, 2.8186006E+002, 1.8432511E+002, 2.5187834E+002
 7.0002265E+002, 3.6915970E+002, 2.2839137E+002, 2.8098867E+002, 2.9153359E+002, 2.8568996E+002, 2.9270888E+002, 2.8374766E+002, 1.8565046E+002, 2.5379492E+002
 7.1003683E+002, 3.6749200E+002, 2.3024463E+002, 2.8280367E+002, 2.9310709E+002, 2.8738409E+002, 2.9425545E+002, 2.8549740E+002, 1.8690632E+002, 2.5560293E+002
 7.2001572E+002, 3.6582499E+002, 2.3200558E+002, 2.8447516E+002, 2.9452793E+002, 2.8892560E+002, 2.9564932E+002, 2.8709901E+002, 1.8809029E+002, 2.5729120E+002
 7.3002721E+002, 3.6415975E+002, 2.3368245E+002, 2.8601201E+002, 2.9580905E+002, 2.9032802E+002, 2.9690363E+002, 2.8856350E+002, 1.8921259E+002, 2.5888112E+002
 7.4000182E+002, 3.6249414E+002, 2.3529801E+002, 2.8744734E+002, 2.9699218E+002, 2.9163233E+002, 2.9805994E+002, 2.8992787E+002, 1.9028925E+002, 2.6041055E+002
 7.5002530E+002, 3.6082757E+002, 2.3683707E+002, 2.8876071E+002, 2.9804584E+002, 2.9280649E+002, 2.9908653E+002, 2.9116612E+002, 1.9130641E+002, 2.6183557E+002
 7.6001159E+002, 3.5790210E+002, 2.3830550E+002, 2.8996257E+002, 2.9898677E+002, 2.9386748E+002, 3.0000057E+002, 2.9229179E+002, 1.9226928E+002, 2.6317803E+002
 7.7001700E+002, 3.5373791E+002, 2.3969256E+002, 2.9104631E+002, 2.9980627E+002, 2.9480655E+002, 3.0079331E+002, 2.9329728E+002, 1.9316246E+002, 2.6441813E+002
 7.8000150E+002, 3.4957387E+002, 2.4098164E+002, 2.9200158E+002, 3.0049249E+002, 2.9561563E+002, 3.0145210E+002, 2.9417320E+002, 1.9395878E+002, 2.6553568E+002
 7.9000810E+002, 3.4540804E+002, 2.4215380E+002, 2.9280684E+002, 3.0101932E+002, 2.9626797E+002, 3.0195077E+002, 2.9489554E+002, 1.9464626E+002, 2.6650268E+002
 8.0001163E+002, 3.4123941E+002, 2.4317471E+002, 2.9341538E+002, 3.0132918E+002, 2.9670489E+002, 3.0223166E+002, 2.9541171E+002, 1.9520260E+002, 2.6726076E+002
 8.1002724E+002, 3.3706746E+002, 2.4405220E+002, 2.9383868E+002, 3.0144695E+002, 2.9695239E+002, 3.0231998E+002, 2.9573997E+002, 1.9564275E+002, 2.6785579E+002
 8.2000036E+002, 3.3290242E+002, 2.4479668E+002, 2.9409024E+002, 3.0138776E+002, 2.9702356E+002, 3.0223120E+002, 2.9589417E+002, 1.9597873E+002, 2.6829899E+002
 8.3000340E+002, 3.2874132E+002, 2.4542176E+002, 2.9418362E+002, 3.0116900E+002, 2.9693548E+002, 3.0198294E+002, 2.9588929E+002, 1.9622548E+002, 2.6861571E+002
 8.4000322E+002, 3.2457441E+002, 2.4596410E+002, 2.9417035E+002, 3.0085570E+002, 2.9675548E+002, 3.0164014E+002, 2.9578445E+002, 1.9640491E+002, 2.6887141E+002
 8.5001631E+002, 3.2040495E+002, 2.4642083E+002, 2.9404746E+002, 3.0043390E+002, 2.9646784E+002, 3.0118869E+002, 2.9557112E+002, 1.9651034E+002, 2.6902936E+002
 8.6002111E+002, 3.1623373E+002, 2.4675568E+002, 2.9376022E+002, 2.9983366E+002, 2.9599911E+002, 3.0055870E+002, 2.9518571E+002, 1.9652241E+002, 2.6902062E+002
 8.7001641E+002, 3.1207221E+002, 2.4698364E+002, 2.9332933E+002, 2.9908852E+002, 2.9538360E+002, 2.9978412E+002, 2.9465513E+002, 1.9645898E+002, 2.6889370E+002
 8.8001259E+002, 3.3181592E+002, 2.4713157E+002, 2.9278859E+002, 2.9824126E+002, 2.9466425E+002, 2.9890803E+002, 2.9401725E+002, 1.9634758E+002, 2.6870096E+002
 8.9001743E+002, 3.7515555E+002, 2.4748273E+002, 2.9244062E+002, 2.9768011E+002, 2.9421953E+002, 2.9832294E+002, 2.9361253E+002, 1.9654780E+002, 2.6897364E+002
 9.0001485E+002, 4.1848400E+002, 2.4868219E+002, 2.9297840E+002, 2.9822644E+002, 2.9483806E+002, 2.9885927E+002, 2.9418447E+002, 1.9776825E+002, 2.7065824E+002
 9.1001977E+002, 4.6181505E+002, 2.5127844E+002, 2.9499970E+002, 3.0052181E+002, 2.9713205E+002, 3.0116443E+002, 2.9634146E+002, 2.0050491E+002, 2.7434163E+002
 9.2002388E+002, 5.0518055E+002, 2.5566616E+002, 2.9894040E+002, 3.0501022E+002, 3.0153167E+002, 3.0568466E+002, 3.0051785E+002, 2.0508248E+002, 2.8038722E+002
 9.3002435E+002, 5.4848315E+002, 2.6214537E+002, 3.0512702E+002, 3.1201173E+002, 3.0835367E+002, 3.1274011E+002, 3.0703560E+002, 2.1176342E+002, 2.8904722E+002
 9.4002428E+002, 5.9183964E+002, 2.7095267E+002, 3.1380839E+002, 3.2176235E+002, 3.1784012E+002, 3.2256514E+002, 3.1613974E+002, 2.2077778E+002, 3.0051012E+002
 9.5001122E+002, 6.3513654E+002, 2.8231567E+002, 3.2522865E+002, 3.3451056E+002, 3.3025582E+002, 3.3540529E+002, 3.2808357E+002, 2.3236413E+002, 3.1501312E+002
 9.6001302E+002, 6.7844614E+002, 2.9640871E+002, 3.3956367E+002, 3.5040790E+002, 3.4577744E+002, 3.5140705E+002, 3.4304245E+002, 2.4672043E+002, 3.3266382E+002
 9.7001141E+002, 6.7953110E+002, 3.1325403E+002, 3.5682578E+002, 3.6941375E+002, 3.6439960E+002, 3.7052231E+002, 3.6101850E+002, 2.6386627E+002, 3.5333932E+002
 9.8000002E+002, 6.3884976E+002, 3.3120092E+002, 3.7535130E+002, 3.8935643E+002, 3.8401651E+002, 3.9055321E+002, 3.8012845E+002, 2.8153538E+002, 3.7384826E+002
 9.9000237E+002, 5.9815168E+002, 3.4691307E+002, 3.9171282E+002, 4.0624594E+002, 4.0071732E+002, 4.0748235E+002, 3.9669125E+002, 2.9597666E+002, 3.8953726E+002
 1.0000203E+003, 5.5740243E+002, 3.5881688E+002, 4.0428219E+002, 4.1858590E+002, 4.1301918E+002, 4.1981718E+002, 4.0914011E+002, 3.0605299E+002, 3.9954076E+002
 1.0100127E+003, 5.1665533E+002, 3.6678322E+002, 4.1291300E+002, 4.2652138E+002, 4.2104405E+002, 4.2771568E+002, 4.1746290E+002, 3.1209000E+002, 4.0466921E+002
 1.0200266E+003, 4.7591982E+002, 3.7127482E+002, 4.1804492E+002, 4.3071182E+002, 4.2542278E+002, 4.3184813E+002, 4.2219954E+002, 3.1481871E+002, 4.0601666E+002
 1.0300190E+003, 4.3520770E+002, 3.7287820E+002, 4.2022172E+002, 4.3182032E+002, 4.2679062E+002, 4.3288469E+002, 4.2394546E+002, 3.1494106E+002, 4.0447903E+002
 1.0400235E+003, 4.1053605E+002, 3.7217613E+002, 4.1998127E+002, 4.3046764E+002, 4.2574893E+002, 4.3145110E+002, 4.2327378E+002, 3.1309213E+002, 4.0084348E+002
 1.0500221E+003, 4.0166615E+002, 3.6992963E+002, 4.1806301E+002, 4.2750669E+002, 4.2312765E+002, 4.2840714E+002, 4.2097177E+002, 3.1009973E+002, 3.9616074E+002
 1.0600247E+003, 3.9280543E+002, 3.6699861E+002, 4.1532530E+002, 4.2388469E+002, 4.1984251E+002, 4.2470739E+002, 4.1793042E+002, 3.0681443E+002, 3.9145071E+002
 1.0700165E+003, 3.8394458E+002, 3.6387669E+002, 4.1226093E+002, 4.2007425E+002, 4.1634984E+002, 4.2082620E+002, 4.1462665E+002, 3.0360025E+002, 3.8706468E+002
 1.0800169E+003, 3.7508506E+002, 3.6076391E+002, 4.0906595E+002, 4.1622113E+002, 4.1279188E+002, 4.1690835E+002, 4.1122979E+002, 3.0053642E+002, 3.8301470E+002
 1.0900320E+003, 3.6621359E+002, 3.5772206E+002, 4.0579688E+002, 4.1234237E+002, 4.0918584E+002, 4.1296968E+002, 4.0777587E+002, 2.9761080E+002, 3.7922996E+002
 1.1000071E+003, 3.5735573E+002, 3.5476480E+002, 4.0246782E+002, 4.0842813E+002, 4.0552473E+002, 4.0899923E+002, 4.0426728E+002, 2.9479505E+002, 3.7563833E+002
 1.1100234E+003, 3.4849229E+002, 3.5188202E+002, 3.9907229E+002, 4.0446180E+002, 4.0179560E+002, 4.0497960E+002, 4.0069302E+002, 2.9206062E+002, 3.7219030E+002
 1.1200145E+003, 3.3962586E+002, 3.4906211E+002, 3.9560826E+002, 4.0043557E+002, 3.9799406E+002, 4.0090227E+002, 3.9704924E+002, 2.8938274E+002, 3.6884201E+002
 1.1300059E+003, 3.3077116E+002, 3.4629874E+002, 3.9207793E+002, 3.9635060E+002, 3.9412176E+002, 3.9676838E+002, 3.9333747E+002, 2.8675173E+002, 3.6557020E+002
 1.1400111E+003, 3.2190421E+002, 3.4357352E+002, 3.8847265E+002, 3.9219681E+002, 3.9017104E+002, 3.9256739E+002, 3.8954917E+002, 2.8414600E+002, 3.6234175E+002
 1.1500054E+003, 3.1304156E+002, 3.4088297E+002, 3.8480188E+002, 3.8798738E+002, 3.8615746E+002, 3.8831221E+002, 3.8569661E+002, 2.8156430E+002, 3.5915362E+002
 1.1600352E+003, 3.0417115E+002, 3.3820428E+002, 3.8104775E+002, 3.8369812E+002, 3.8205693E+002, 3.8397843E+002, 3.8175895E+002, 2.7898621E+002, 3.5595845E+002
 1.1700003E+003, 2.9530907E+002, 3.3551942E+002, 3.7719819E+002, 3.7931410E+002, 3.7785334E+002, 3.7955124E+002, 3.7772209E+002, 2.7640054E+002, 3.5272502E+002
 1.1800059E+003, 2.8645916E+002, 3.3283185E+002, 3.7326959E+002, 3.7486284E+002, 3.7357699E+002, 3.7505816E+002, 3.7360882E+002, 2.7381656E+002, 3.4948602E+002
 1.1900166E+003, 2.7758357E+002, 3.3014975E+002, 3.6928312E+002, 3.7036929E+002, 3.6925421E+002, 3.7052394E+002, 3.6944316E+002, 2.7123847E+002, 3.4625320E+002
 1.2000427E+003, 2.6870830E+002, 3.2745989E+002, 3.6523205E+002, 3.6582005E+002, 3.6487164E+002, 3.6593494E+002, 3.6521521E+002, 2.6865425E+002, 3.4299158E+002
 1.2100279E+003, 2.5983832E+002, 3.2474307E+002, 3.6109864E+002, 3.6119243E+002, 3.6040571E+002, 3.6126849E+002, 3.6090438E+002, 2.6605514E+002, 3.3967091E+002
 1.2200168E+003, 2.5098664E+002, 3.2202992E+002, 3.5693035E+002, 3.5655086E+002, 3.5592328E+002, 3.5658915E+002, 3.5656741E+002, 2.6347468E+002, 3.3636655E+002
 1.2300179E+003, 2.4212866E+002, 3.1931613E+002, 3.5272844E+002, 3.5189052E+002, 3.5141881E+002, 3.5189197E+002, 3.5220269E+002, 2.6090178E+002, 3.3305441E+002
