s,C,C,C,C,C,C,C,C,C
Time,"Air Temp","IRSN_1","IRSN_2","TRAC_2","TRAC_3","TRAC_4","VTT_1","GRS_2","NRC_1"
 0.0000000E+000, 2.0000000E+001, 2.0000000E+001, 2.0000000E+001, 2.0000000E+001, 2.0000000E+001, 2.0000000E+001, 2.0000000E+001, 2.0000000E+001, 2.0000000E+001
 1.0200000E+001, 2.2365918E+001, 2.0000094E+001, 2.0000097E+001, 2.0000135E+001, 2.0000131E+001, 2.0000137E+001, 2.0000113E+001, 2.0000144E+001, 2.0000222E+001
 2.0200000E+001, 2.6956000E+001, 2.0002786E+001, 2.0002953E+001, 2.0003880E+001, 2.0003716E+001, 2.0003936E+001, 2.0003333E+001, 2.0003709E+001, 2.0005515E+001
 3.0135484E+001, 3.7619166E+001, 2.0015239E+001, 2.0016492E+001, 2.0020862E+001, 2.0019878E+001, 2.0021161E+001, 2.0018213E+001, 2.0018486E+001, 2.0027063E+001
 4.0042185E+001, 5.9716837E+001, 2.0052423E+001, 2.0057455E+001, 2.0071799E+001, 2.0068476E+001, 2.0072800E+001, 2.0063066E+001, 2.0061225E+001, 2.0090062E+001
 5.0005590E+001, 8.2179306E+001, 2.0158653E+001, 2.0175685E+001, 2.0217681E+001, 2.0207762E+001, 2.0220631E+001, 2.0192092E+001, 2.0180198E+001, 2.0266404E+001
 6.0005730E+001, 1.0472790E+002, 2.0391907E+001, 2.0438764E+001, 2.0536230E+001, 2.0511751E+001, 2.0543283E+001, 2.0476351E+001, 2.0427941E+001, 2.0633404E+001
 7.0007430E+001, 1.2735210E+002, 2.0802335E+001, 2.0907456E+001, 2.1093859E+001, 2.1043583E+001, 2.1107872E+001, 2.0978053E+001, 2.0843823E+001, 2.1247572E+001
 8.0000592E+001, 1.4995637E+002, 2.1427258E+001, 2.1628133E+001, 2.1938724E+001, 2.1848264E+001, 2.1963106E+001, 2.1743134E+001, 2.1454689E+001, 2.2143641E+001
 9.0047878E+001, 1.7260435E+002, 2.2298105E+001, 2.2640302E+001, 2.3111489E+001, 2.2963214E+001, 2.3150232E+001, 2.2810216E+001, 2.2284218E+001, 2.3350098E+001
 1.0002914E+002, 1.9527350E+002, 2.3452251E+001, 2.3990158E+001, 2.4663482E+001, 2.4437545E+001, 2.4721095E+001, 2.4226983E+001, 2.3364656E+001, 2.4915069E+001
 1.1002772E+002, 2.1586553E+002, 2.4925614E+001, 2.5723010E+001, 2.6643068E+001, 2.6316813E+001, 2.6724583E+001, 2.6039060E+001, 2.4725019E+001, 2.6876654E+001
 1.2000364E+002, 2.1851856E+002, 2.6737052E+001, 2.7866726E+001, 2.9074526E+001, 2.8622559E+001, 2.9185296E+001, 2.8271398E+001, 2.6369979E+001, 2.9234559E+001
 1.3001806E+002, 2.1687919E+002, 2.8785330E+001, 3.0318486E+001, 3.1818922E+001, 3.1221482E+001, 3.1962250E+001, 3.0805760E+001, 2.8163761E+001, 3.1786836E+001
 1.4001295E+002, 2.1523985E+002, 3.0907511E+001, 3.2899031E+001, 3.4664823E+001, 3.3913937E+001, 3.4841124E+001, 3.3451616E+001, 2.9945773E+001, 3.4307004E+001
 1.5000052E+002, 2.1360180E+002, 3.2995780E+001, 3.5483913E+001, 3.7482845E+001, 3.6578692E+001, 3.7691123E+001, 3.6085193E+001, 3.1640703E+001, 3.6698382E+001
 1.6004044E+002, 2.1196000E+002, 3.5020702E+001, 3.8037473E+001, 4.0246337E+001, 3.9193838E+001, 4.0485088E+001, 3.8677359E+001, 3.3243965E+001, 3.8967379E+001
 1.7003341E+002, 2.1088153E+002, 3.6958663E+001, 4.0528303E+001, 4.2927941E+001, 4.1733879E+001, 4.3195469E+001, 4.1199738E+001, 3.4749203E+001, 4.1106416E+001
 1.8003922E+002, 2.1838473E+002, 3.8808611E+001, 4.2948971E+001, 4.5527071E+001, 4.4199069E+001, 4.5821767E+001, 4.3648789E+001, 3.6170537E+001, 4.3138779E+001
 1.9003138E+002, 2.2878850E+002, 4.0633181E+001, 4.5362242E+001, 4.8125875E+001, 4.6668165E+001, 4.8447266E+001, 4.6095558E+001, 3.7588252E+001, 4.5180674E+001
 2.0001152E+002, 2.3918113E+002, 4.2524933E+001, 4.7868346E+001, 5.0843388E+001, 4.9253275E+001, 5.1192688E+001, 4.8646892E+001, 3.9095690E+001, 4.7363499E+001
 2.1001338E+002, 2.4957301E+002, 4.4548416E+001, 5.0539404E+001, 5.3754416E+001, 5.2024168E+001, 5.4133690E+001, 5.1374323E+001, 4.0741021E+001, 4.9747267E+001
 2.2003569E+002, 2.5999313E+002, 4.6742933E+001, 5.3420787E+001, 5.6903633E+001, 5.5022725E+001, 5.7315384E+001, 5.4321651E+001, 4.2549216E+001, 5.2363864E+001
 2.3001267E+002, 2.7039203E+002, 4.9126289E+001, 5.6533927E+001, 6.0310715E+001, 5.8267257E+001, 6.0757611E+001, 5.7508816E+001, 4.4525659E+001, 5.5222330E+001
 2.4002250E+002, 2.8079404E+002, 5.1709027E+001, 5.9893547E+001, 6.3987546E+001, 6.1767820E+001, 6.4472461E+001, 6.0948231E+001, 4.6672247E+001, 5.8323143E+001
 2.5001005E+002, 2.9119249E+002, 5.4506887E+001, 6.3517448E+001, 6.7951374E+001, 6.5542179E+001, 6.8477067E+001, 6.4657589E+001, 4.9002545E+001, 6.1682900E+001
 2.6000551E+002, 3.0158897E+002, 5.7530434E+001, 6.7416420E+001, 7.2212023E+001, 6.9601592E+001, 7.2780956E+001, 6.8647814E+001, 5.1525032E+001, 6.5311646E+001
 2.7002497E+002, 3.1200386E+002, 6.0796600E+001, 7.1613593E+001, 7.6793987E+001, 7.3969344E+001, 7.7408868E+001, 7.2942127E+001, 5.4250944E+001, 6.9225824E+001
 2.8003387E+002, 3.2241567E+002, 6.4312028E+001, 7.6114823E+001, 8.1700942E+001, 7.8650613E+001, 8.2364145E+001, 7.7545974E+001, 5.7187218E+001, 7.3429955E+001
 2.9002298E+002, 3.3282096E+002, 6.8067053E+001, 8.0910466E+001, 8.6920299E+001, 8.3632067E+001, 8.7634216E+001, 8.2447947E+001, 6.0320325E+001, 7.7902490E+001
 3.0002482E+002, 3.4322407E+002, 7.2072169E+001, 8.6016687E+001, 9.2471859E+001, 8.8932306E+001, 9.3239195E+001, 8.7665365E+001, 6.3660893E+001, 8.2663496E+001
 3.1001057E+002, 3.5361861E+002, 7.6340374E+001, 9.1444175E+001, 9.8364136E+001, 9.4563039E+001, 9.9186970E+001, 9.3209317E+001, 6.7223610E+001, 8.7726970E+001
 3.2001083E+002, 3.6402065E+002, 8.0882013E+001, 9.7201944E+001, 1.0460548E+002, 1.0053467E+002, 1.0548551E+002, 9.9089426E+001, 7.1019993E+001, 9.3103760E+001
 3.3000101E+002, 3.7442069E+002, 8.5704623E+001, 1.0330017E+002, 1.1120620E+002, 1.0685738E+002, 1.1214513E+002, 1.0531591E+002, 7.5055269E+001, 9.8800281E+001
 3.4000008E+002, 3.8481984E+002, 9.0811659E+001, 1.0974708E+002, 1.1817625E+002, 1.1353928E+002, 1.1917611E+002, 1.1189705E+002, 7.9326601E+001, 1.0481903E+002
 3.5003166E+002, 3.9029518E+002, 9.6219400E+001, 1.1656249E+002, 1.2553391E+002, 1.2059951E+002, 1.2659654E+002, 1.1885234E+002, 8.3849047E+001, 1.1117482E+002
 3.6001772E+002, 3.9088470E+002, 1.0183834E+002, 1.2364565E+002, 1.3314964E+002, 1.2791515E+002, 1.3427485E+002, 1.2606986E+002, 8.8512967E+001, 1.1770085E+002
 3.7001920E+002, 3.9147288E+002, 1.0749348E+002, 1.3080463E+002, 1.4079609E+002, 1.3527024E+002, 1.4198079E+002, 1.3334472E+002, 9.3134481E+001, 1.2414434E+002
 3.8000853E+002, 3.9206083E+002, 1.1307560E+002, 1.3791112E+002, 1.4833600E+002, 1.4253771E+002, 1.4957528E+002, 1.4054825E+002, 9.7633772E+001, 1.3040090E+002
 3.9000909E+002, 3.9264847E+002, 1.1853235E+002, 1.4489342E+002, 1.5570182E+002, 1.4965714E+002, 1.5698979E+002, 1.4761387E+002, 1.0199389E+002, 1.3645033E+002
 4.0002504E+002, 3.9323728E+002, 1.2385382E+002, 1.5173445E+002, 1.6288528E+002, 1.5662076E+002, 1.6421624E+002, 1.5452929E+002, 1.0622051E+002, 1.4230888E+002
 4.1001028E+002, 3.9382534E+002, 1.2901682E+002, 1.5840203E+002, 1.6985832E+002, 1.6339843E+002, 1.7122708E+002, 1.6126367E+002, 1.1029997E+002, 1.4796297E+002
 4.2000947E+002, 3.9441337E+002, 1.3402902E+002, 1.6490323E+002, 1.7663761E+002, 1.7000361E+002, 1.7803984E+002, 1.6782743E+002, 1.1424499E+002, 1.5344372E+002
 4.3001489E+002, 3.9500166E+002, 1.3891827E+002, 1.7127239E+002, 1.8326613E+002, 1.7647508E+002, 1.8469846E+002, 1.7425752E+002, 1.1807805E+002, 1.5879390E+002
 4.4001385E+002, 3.9559019E+002, 1.4368167E+002, 1.7749312E+002, 1.8972049E+002, 1.8279092E+002, 1.9117909E+002, 1.8053487E+002, 1.2180272E+002, 1.6400127E+002
 4.5001199E+002, 3.9617825E+002, 1.4832580E+002, 1.8356098E+002, 1.9599582E+002, 1.8894739E+002, 1.9747666E+002, 1.8665528E+002, 1.2543081E+002, 1.6907696E+002
 4.6002064E+002, 3.9676656E+002, 1.5286153E+002, 1.8948077E+002, 2.0209720E+002, 1.9494906E+002, 2.0359636E+002, 1.9262349E+002, 1.2897295E+002, 1.7403232E+002
 4.7000618E+002, 3.9735476E+002, 1.5729138E+002, 1.9525033E+002, 2.0802437E+002, 2.0079433E+002, 2.0953827E+002, 1.9843768E+002, 1.3243049E+002, 1.7887175E+002
 4.8001098E+002, 3.9794268E+002, 1.6163313E+002, 2.0089860E+002, 2.1381663E+002, 2.0651719E+002, 2.1534284E+002, 2.0412953E+002, 1.3580982E+002, 1.8362660E+002
 4.9003476E+002, 3.9853183E+002, 1.6589513E+002, 2.0642091E+002, 2.1945710E+002, 2.1210401E+002, 2.2099230E+002, 2.0968990E+002, 1.3912620E+002, 1.8828621E+002
 5.0002360E+002, 3.9912046E+002, 1.7007252E+002, 2.1181010E+002, 2.2494545E+002, 2.1755245E+002, 2.2648693E+002, 2.1511390E+002, 1.4237286E+002, 1.9285555E+002
 5.1000477E+002, 3.9970769E+002, 1.7415655E+002, 2.1704589E+002, 2.3025337E+002, 2.2283530E+002, 2.3179798E+002, 2.2037787E+002, 1.4554687E+002, 1.9730915E+002
 5.2001238E+002, 3.9916212E+002, 1.7816251E+002, 2.2214963E+002, 2.3540933E+002, 2.2797853E+002, 2.3695461E+002, 2.2550536E+002, 1.4865586E+002, 2.0167334E+002
 5.3002071E+002, 3.9749355E+002, 1.8208153E+002, 2.2711661E+002, 2.4040611E+002, 2.3297326E+002, 2.4194975E+002, 2.3048979E+002, 1.5168080E+002, 2.0592421E+002
 5.4000432E+002, 3.9582787E+002, 1.8586367E+002, 2.3188275E+002, 2.4516755E+002, 2.3774657E+002, 2.4670637E+002, 2.3526244E+002, 1.5457747E+002, 2.0998748E+002
 5.5002213E+002, 3.9416159E+002, 1.8950232E+002, 2.3644564E+002, 2.4969901E+002, 2.4230291E+002, 2.5123019E+002, 2.3982415E+002, 1.5733934E+002, 2.1387335E+002
 5.6000770E+002, 3.9249517E+002, 1.9299868E+002, 2.4080960E+002, 2.5400913E+002, 2.4664968E+002, 2.5553022E+002, 2.4418090E+002, 1.5996996E+002, 2.1758997E+002
 5.7000923E+002, 3.9082898E+002, 1.9633048E+002, 2.4493431E+002, 2.5804632E+002, 2.5073724E+002, 2.5955424E+002, 2.4828766E+002, 1.6246060E+002, 2.2109544E+002
 5.8000415E+002, 3.8916312E+002, 1.9950222E+002, 2.4882191E+002, 2.6181785E+002, 2.5457182E+002, 2.6330992E+002, 2.5214857E+002, 1.6481951E+002, 2.2440602E+002
 5.9001339E+002, 3.8749553E+002, 2.0253409E+002, 2.5250228E+002, 2.6536812E+002, 2.5819487E+002, 2.6684253E+002, 2.5579930E+002, 1.6706236E+002, 2.2756921E+002
 6.0000115E+002, 3.8582969E+002, 2.0545037E+002, 2.5601704E+002, 2.6874824E+002, 2.6165319E+002, 2.7020414E+002, 2.5928441E+002, 1.6920046E+002, 2.3061860E+002
 6.1001438E+002, 3.8416233E+002, 2.0824384E+002, 2.5934424E+002, 2.7192079E+002, 2.6491136E+002, 2.7335652E+002, 2.6257534E+002, 1.7123525E+002, 2.3351722E+002
 6.2003176E+002, 3.8249365E+002, 2.1092101E+002, 2.6249133E+002, 2.7489864E+002, 2.6798084E+002, 2.7631293E+002, 2.6568150E+002, 1.7317153E+002, 2.3628283E+002
 6.3001869E+002, 3.8082658E+002, 2.1348200E+002, 2.6546196E+002, 2.7768945E+002, 2.7086766E+002, 2.7908138E+002, 2.6860775E+002, 1.7500858E+002, 2.3891874E+002
 6.4002435E+002, 3.7916052E+002, 2.1593882E+002, 2.6826531E+002, 2.8029969E+002, 2.7357928E+002, 2.8166816E+002, 2.7136242E+002, 1.7676350E+002, 2.4143288E+002
 6.5000185E+002, 3.7749491E+002, 2.1829834E+002, 2.7091098E+002, 2.8274546E+002, 2.7613104E+002, 2.8408973E+002, 2.7395769E+002, 1.7843890E+002, 2.4384374E+002
 6.6002439E+002, 3.7582836E+002, 2.2058256E+002, 2.7344058E+002, 2.8507689E+002, 2.7856946E+002, 2.8639694E+002, 2.7643809E+002, 1.8004238E+002, 2.4618183E+002
 6.7001562E+002, 3.7416053E+002, 2.2278438E+002, 2.7583915E+002, 2.8726842E+002, 2.8086946E+002, 2.8856387E+002, 2.7878375E+002, 1.8157187E+002, 2.4841788E+002
 6.8002725E+002, 3.7249324E+002, 2.2489142E+002, 2.7808415E+002, 2.8929313E+002, 2.8300555E+002, 2.9056323E+002, 2.8097052E+002, 1.8302523E+002, 2.5053267E+002
 6.9001958E+002, 3.7082708E+002, 2.2690575E+002, 2.8017872E+002, 2.9115679E+002, 2.8498332E+002, 2.9240090E+002, 2.8300264E+002, 1.8440429E+002, 2.5253163E+002
 7.0001686E+002, 3.6916017E+002, 2.2882029E+002, 2.8211383E+002, 2.9284875E+002, 2.8679195E+002, 2.9406626E+002, 2.8487011E+002, 1.8570554E+002, 2.5440243E+002
 7.1001728E+002, 3.6749428E+002, 2.3065393E+002, 2.8391509E+002, 2.9440463E+002, 2.8846630E+002, 2.9559539E+002, 2.8660308E+002, 1.8694651E+002, 2.5618779E+002
 7.2001299E+002, 3.6582756E+002, 2.3241971E+002, 2.8560723E+002, 2.9585333E+002, 2.9003320E+002, 2.9701749E+002, 2.8822753E+002, 1.8813134E+002, 2.5790291E+002
 7.3002809E+002, 3.6416027E+002, 2.3413335E+002, 2.8721182E+002, 2.9721942E+002, 2.9151736E+002, 2.9835725E+002, 2.8976662E+002, 1.8927282E+002, 2.5957040E+002
 7.4001186E+002, 3.6249358E+002, 2.3578015E+002, 2.8870458E+002, 2.9846495E+002, 2.9288164E+002, 2.9957616E+002, 2.9118998E+002, 1.9036340E+002, 2.6114242E+002
 7.5002228E+002, 3.6082741E+002, 2.3735118E+002, 2.9007275E+002, 2.9957896E+002, 2.9411530E+002, 3.0066336E+002, 2.9248545E+002, 1.9139683E+002, 2.6261675E+002
 7.6001476E+002, 3.5789995E+002, 2.3885717E+002, 2.9134108E+002, 3.0059521E+002, 2.9524993E+002, 3.0165287E+002, 2.9368136E+002, 1.9237515E+002, 2.6401934E+002
 7.7000561E+002, 3.5373812E+002, 2.4028255E+002, 2.9249385E+002, 3.0149001E+002, 2.9626250E+002, 3.0252076E+002, 2.9475853E+002, 1.9328149E+002, 2.6531221E+002
 7.8001392E+002, 3.4957151E+002, 2.4157969E+002, 2.9346815E+002, 3.0218286E+002, 2.9707640E+002, 3.0318573E+002, 2.9564697E+002, 1.9407481E+002, 2.6641219E+002
 7.9000615E+002, 3.4540430E+002, 2.4273010E+002, 2.9424429E+002, 3.0266151E+002, 2.9768087E+002, 3.0363543E+002, 2.9633086E+002, 1.9474499E+002, 2.6732442E+002
 8.0000373E+002, 3.4123981E+002, 2.4375987E+002, 2.9486805E+002, 3.0299035E+002, 2.9813809E+002, 3.0393513E+002, 2.9686425E+002, 1.9531158E+002, 2.6811492E+002
 8.1000010E+002, 3.3707515E+002, 2.4466528E+002, 2.9532934E+002, 3.0314895E+002, 2.9842750E+002, 3.0406400E+002, 2.9723243E+002, 1.9577514E+002, 2.6875430E+002
 8.2001034E+002, 3.3290776E+002, 2.4542976E+002, 2.9559945E+002, 3.0310160E+002, 2.9851377E+002, 3.0398603E+002, 2.9740340E+002, 1.9612848E+002, 2.6921371E+002
 8.3001461E+002, 3.2873832E+002, 2.4607854E+002, 2.9572149E+002, 3.0291186E+002, 2.9845848E+002, 3.0376595E+002, 2.9742911E+002, 1.9638708E+002, 2.6956463E+002
 8.4002570E+002, 3.2456553E+002, 2.4662787E+002, 2.9572333E+002, 3.0260724E+002, 2.9828744E+002, 3.0343150E+002, 2.9733675E+002, 1.9655793E+002, 2.6981623E+002
 8.5000080E+002, 3.2040282E+002, 2.4706724E+002, 2.9558243E+002, 3.0215441E+002, 2.9796838E+002, 3.0294891E+002, 2.9709904E+002, 1.9664318E+002, 2.6993688E+002
 8.6001574E+002, 3.1623957E+002, 2.4739782E+002, 2.9529347E+002, 3.0155008E+002, 2.9749812E+002, 3.0231456E+002, 2.9671138E+002, 1.9664878E+002, 2.6993387E+002
 8.7003619E+002, 3.1206960E+002, 2.4765489E+002, 2.9491209E+002, 3.0086596E+002, 2.9694723E+002, 3.0160095E+002, 2.9623706E+002, 1.9659378E+002, 2.6987725E+002
 8.8003224E+002, 3.3189590E+002, 2.4784094E+002, 2.9443209E+002, 3.0008560E+002, 2.9629846E+002, 3.0079149E+002, 2.9566477E+002, 1.9649456E+002, 2.6974670E+002
 8.9003372E+002, 3.7523395E+002, 2.4820450E+002, 2.9410424E+002, 2.9953568E+002, 2.9586766E+002, 3.0021697E+002, 2.9527738E+002, 1.9669212E+002, 2.7001871E+002
 9.0000889E+002, 4.1849307E+002, 2.4940102E+002, 2.9463663E+002, 3.0006709E+002, 2.9647361E+002, 3.0073782E+002, 2.9584025E+002, 1.9790775E+002, 2.7169034E+002
 9.1002643E+002, 4.6180666E+002, 2.5201152E+002, 2.9667443E+002, 3.0237778E+002, 2.9878531E+002, 3.0305788E+002, 2.9801418E+002, 2.0065558E+002, 2.7539596E+002
 9.2001338E+002, 5.0515285E+002, 2.5640652E+002, 3.0061117E+002, 3.0685348E+002, 3.0317594E+002, 3.0756453E+002, 3.0218398E+002, 2.0525126E+002, 2.8144075E+002
 9.3002392E+002, 5.4846204E+002, 2.6289941E+002, 3.0679823E+002, 3.1385062E+002, 3.0999757E+002, 3.1461477E+002, 3.0870161E+002, 2.1195706E+002, 2.9011519E+002
 9.4002591E+002, 5.9184561E+002, 2.7176417E+002, 3.1553959E+002, 3.2367394E+002, 3.1955970E+002, 3.2451234E+002, 3.1787338E+002, 2.2102395E+002, 3.0167703E+002
 9.5001976E+002, 6.3515909E+002, 2.8320414E+002, 3.2704403E+002, 3.3651577E+002, 3.3207277E+002, 3.3744575E+002, 3.2990792E+002, 2.3267256E+002, 3.1628587E+002
 9.6000409E+002, 6.7844411E+002, 2.9737111E+002, 3.4145416E+002, 3.5249365E+002, 3.4768256E+002, 3.5352704E+002, 3.4494792E+002, 2.4709222E+002, 3.3403622E+002
 9.7001829E+002, 6.7953470E+002, 3.1430830E+002, 3.5880149E+002, 3.7158579E+002, 3.6640236E+002, 3.7272692E+002, 3.6301457E+002, 2.6432480E+002, 3.5481886E+002
 9.8001581E+002, 6.3880831E+002, 3.3233780E+002, 3.7739412E+002, 3.9158568E+002, 3.8608531E+002, 3.9281352E+002, 3.8219047E+002, 2.8206852E+002, 3.7539319E+002
 9.9001290E+002, 5.9809614E+002, 3.4809592E+002, 3.9378544E+002, 4.0849575E+002, 4.0281201E+002, 4.0976218E+002, 3.9878088E+002, 2.9654714E+002, 3.9111468E+002
 1.0000073E+003, 5.5740190E+002, 3.6003383E+002, 4.0637731E+002, 4.2085502E+002, 4.1513783E+002, 4.2211560E+002, 4.1125287E+002, 3.0664946E+002, 4.0115402E+002
 1.0100146E+003, 5.1667720E+002, 3.6805947E+002, 4.1506232E+002, 4.2884731E+002, 4.2322352E+002, 4.3007028E+002, 4.1963315E+002, 3.1273348E+002, 4.0635621E+002
 1.0200076E+003, 4.7595744E+002, 3.7259323E+002, 4.2022858E+002, 4.3306314E+002, 4.2763009E+002, 4.3422702E+002, 4.2440128E+002, 3.1548797E+002, 4.0772453E+002
 1.0300252E+003, 4.3522124E+002, 3.7423071E+002, 4.2243179E+002, 4.3419352E+002, 4.2902382E+002, 4.3528447E+002, 4.2617324E+002, 3.1563290E+002, 4.0621831E+002
 1.0400114E+003, 4.1053413E+002, 3.7357841E+002, 4.2224174E+002, 4.3289352E+002, 4.2803814E+002, 4.3390300E+002, 4.2555465E+002, 3.1381540E+002, 4.0264251E+002
 1.0500090E+003, 4.0168131E+002, 3.7136138E+002, 4.2035034E+002, 4.2995166E+002, 4.2543836E+002, 4.3087748E+002, 4.2327702E+002, 3.1083300E+002, 3.9796872E+002
 1.0600243E+003, 3.9280955E+002, 3.6838965E+002, 4.1755000E+002, 4.2623789E+002, 4.2206526E+002, 4.2708454E+002, 4.2016042E+002, 3.0750428E+002, 3.9315022E+002
 1.0700066E+003, 3.8394829E+002, 3.6521581E+002, 4.1440872E+002, 4.2233245E+002, 4.1848231E+002, 4.2310717E+002, 4.1677258E+002, 3.0424853E+002, 3.8868029E+002
 1.0800142E+003, 3.7508734E+002, 3.6207337E+002, 4.1116518E+002, 4.1842271E+002, 4.1487117E+002, 4.1913198E+002, 4.1332457E+002, 3.0116535E+002, 3.8459103E+002
 1.0900305E+003, 3.6621224E+002, 3.5899599E+002, 4.0783931E+002, 4.1447595E+002, 4.1120055E+002, 4.1512440E+002, 4.0980976E+002, 2.9821530E+002, 3.8075322E+002
 1.1000080E+003, 3.5735536E+002, 3.5601042E+002, 4.0446106E+002, 4.1050501E+002, 4.0748586E+002, 4.1109650E+002, 4.0624954E+002, 2.9538384E+002, 3.7712657E+002
 1.1100015E+003, 3.4850280E+002, 3.5310151E+002, 4.0101666E+002, 4.0647940E+002, 4.0369937E+002, 4.0701692E+002, 4.0262222E+002, 2.9263482E+002, 3.7363477E+002
 1.1200356E+003, 3.3962571E+002, 3.5025000E+002, 3.9749473E+002, 4.0238516E+002, 3.9983137E+002, 4.0287107E+002, 3.9891615E+002, 2.8993800E+002, 3.7024256E+002
 1.1300035E+003, 3.3076189E+002, 3.4747014E+002, 3.9392730E+002, 3.9825961E+002, 3.9592072E+002, 3.9869618E+002, 3.9516633E+002, 2.8729838E+002, 3.6695804E+002
 1.1400184E+003, 3.2190319E+002, 3.4473734E+002, 3.9029680E+002, 3.9407525E+002, 3.9194121E+002, 3.9446424E+002, 3.9135100E+002, 2.8468915E+002, 3.6371601E+002
 1.1500079E+003, 3.1303943E+002, 3.4202648E+002, 3.8658577E+002, 3.8981761E+002, 3.8788098E+002, 3.9016043E+002, 3.8745484E+002, 2.8208884E+002, 3.6049843E+002
 1.1600039E+003, 3.0418385E+002, 3.3933836E+002, 3.8280714E+002, 3.8549909E+002, 3.8375275E+002, 3.8579708E+002, 3.8349085E+002, 2.7950206E+002, 3.5729003E+002
 1.1700297E+003, 2.9530681E+002, 3.3663162E+002, 3.7891322E+002, 3.8106308E+002, 3.7950029E+002, 3.8131723E+002, 3.7940704E+002, 2.7690147E+002, 3.5402822E+002
 1.1800088E+003, 2.8644337E+002, 3.3393412E+002, 3.7495613E+002, 3.7657953E+002, 3.7519506E+002, 3.7679109E+002, 3.7526488E+002, 2.7431059E+002, 3.5077881E+002
 1.1900342E+003, 2.7757403E+002, 3.3122648E+002, 3.7092013E+002, 3.7202375E+002, 3.7081243E+002, 3.7219380E+002, 3.7104445E+002, 2.7171381E+002, 3.4749483E+002
 1.2000345E+003, 2.6870430E+002, 3.2849651E+002, 3.6679658E+002, 3.6738805E+002, 3.6634509E+002, 3.6751763E+002, 3.6673780E+002, 2.6910586E+002, 3.4416937E+002
 1.2100375E+003, 2.5983363E+002, 3.2577625E+002, 3.6263994E+002, 3.6273949E+002, 3.6186090E+002, 3.6282979E+002, 3.6240604E+002, 2.6651184E+002, 3.4086114E+002
 1.2200277E+003, 2.5097506E+002, 3.2304380E+002, 3.5842613E+002, 3.5804283E+002, 3.5732403E+002, 3.5809492E+002, 3.5801928E+002, 2.6391824E+002, 3.3752055E+002
 1.2300192E+003, 2.4211999E+002, 3.2031606E+002, 3.5418467E+002, 3.5333686E+002, 3.5277451E+002, 3.5335186E+002, 3.5361212E+002, 2.6133991E+002, 3.3418892E+002
