s,C,C,C,C,C,C,C,C,C
Time,"Air Temp","IRSN_1","IRSN_2","TRAC_2","TRAC_3","TRAC_4","VTT_1","GRS_2","NRC_1"
 0.0000000E+000, 2.0000000E+001, 2.0000000E+001, 2.0000000E+001, 2.0000000E+001, 2.0000000E+001, 2.0000000E+001, 2.0000000E+001, 2.0000000E+001, 2.0000000E+001
 1.0200000E+001, 2.2365918E+001, 2.0000094E+001, 2.0000097E+001, 2.0000135E+001, 2.0000131E+001, 2.0000137E+001, 2.0000113E+001, 2.0000144E+001, 2.0000222E+001
 2.0200000E+001, 2.6956000E+001, 2.0002786E+001, 2.0002953E+001, 2.0003880E+001, 2.0003716E+001, 2.0003937E+001, 2.0003334E+001, 2.0003709E+001, 2.0005515E+001
 3.0002068E+001, 3.7474472E+001, 2.0015070E+001, 2.0016305E+001, 2.0020630E+001, 2.0019654E+001, 2.0020926E+001, 2.0018008E+001, 2.0018290E+001, 2.0026773E+001
 4.0000578E+001, 5.9534306E+001, 2.0051820E+001, 2.0056778E+001, 2.0070951E+001, 2.0067648E+001, 2.0071941E+001, 2.0062298E+001, 2.0060525E+001, 2.0088987E+001
 5.0034396E+001, 8.2156992E+001, 2.0158109E+001, 2.0175034E+001, 2.0216843E+001, 2.0206910E+001, 2.0219788E+001, 2.0191290E+001, 2.0179611E+001, 2.0265307E+001
 6.0061962E+001, 1.0483675E+002, 2.0391265E+001, 2.0437802E+001, 2.0534863E+001, 2.0510274E+001, 2.0541928E+001, 2.0475062E+001, 2.0427370E+001, 2.0631611E+001
 7.0042003E+001, 1.2745362E+002, 2.0800124E+001, 2.0904364E+001, 2.1089844E+001, 2.1039375E+001, 2.1103866E+001, 2.0974334E+001, 2.0841895E+001, 2.1242798E+001
 8.0011621E+001, 1.5000394E+002, 2.1420899E+001, 2.1619877E+001, 2.1928806E+001, 2.1838174E+001, 2.1953174E+001, 2.1733871E+001, 2.1449382E+001, 2.2133338E+001
 9.0040160E+001, 1.7261702E+002, 2.2291651E+001, 2.2631673E+001, 2.3101740E+001, 2.2953455E+001, 2.3140445E+001, 2.2800928E+001, 2.2278977E+001, 2.3341453E+001
 1.0005045E+002, 1.9528707E+002, 2.3440287E+001, 2.3974899E+001, 2.4645120E+001, 2.4418639E+001, 2.4702716E+001, 2.4209869E+001, 2.3353713E+001, 2.4894820E+001
 1.1000326E+002, 2.1587215E+002, 2.4904980E+001, 2.5697004E+001, 2.6612231E+001, 2.6285217E+001, 2.6693724E+001, 2.6010213E+001, 2.4706640E+001, 2.6843741E+001
 1.2003179E+002, 2.1851722E+002, 2.6708776E+001, 2.7830935E+001, 2.9032551E+001, 2.8579582E+001, 2.9143316E+001, 2.8231947E+001, 2.6345661E+001, 2.9191480E+001
 1.3003432E+002, 2.1687659E+002, 2.8760803E+001, 3.0285704E+001, 3.1781681E+001, 3.1183537E+001, 3.1925019E+001, 3.0770253E+001, 2.8145462E+001, 3.1753681E+001
 1.4004498E+002, 2.1523610E+002, 3.0883765E+001, 3.2866494E+001, 3.4628198E+001, 3.3876855E+001, 3.4804480E+001, 3.3416661E+001, 2.9928128E+001, 3.4275593E+001
 1.5003477E+002, 2.1359613E+002, 3.2968899E+001, 3.5448775E+001, 3.7442946E+001, 3.6537840E+001, 3.7651261E+001, 3.6047115E+001, 3.1618702E+001, 3.6660077E+001
 1.6001694E+002, 2.1195883E+002, 3.4978377E+001, 3.7985002E+001, 4.0187020E+001, 3.9133052E+001, 4.0425853E+001, 3.8620675E+001, 3.3208309E+001, 3.8907732E+001
 1.7002521E+002, 2.1087744E+002, 3.6901916E+001, 4.0459448E+001, 4.2850941E+001, 4.1654559E+001, 4.3118692E+001, 4.1125620E+001, 3.4701470E+001, 4.1029141E+001
 1.8003792E+002, 2.1838284E+002, 3.8744457E+001, 4.2872248E+001, 4.5441724E+001, 4.4110069E+001, 4.5736876E+001, 4.3565964E+001, 3.6116558E+001, 4.3052074E+001
 1.9003591E+002, 2.2878666E+002, 4.0562848E+001, 4.5279440E+001, 4.8035106E+001, 4.6572254E+001, 4.8357230E+001, 4.6006298E+001, 3.7529629E+001, 4.5088335E+001
 2.0001979E+002, 2.3918653E+002, 4.2448648E+001, 4.7780135E+001, 5.0747840E+001, 4.9150868E+001, 5.1098166E+001, 4.8551755E+001, 3.9031737E+001, 4.7265004E+001
 2.1002855E+002, 2.4958209E+002, 4.4469400E+001, 5.0448959E+001, 5.3657701E+001, 5.1919380E+001, 5.4038226E+001, 5.1276902E+001, 4.0674579E+001, 4.9648337E+001
 2.2000672E+002, 2.5998097E+002, 4.6658091E+001, 5.3323143E+001, 5.6800006E+001, 5.4910544E+001, 5.7213082E+001, 5.4216951E+001, 4.2476888E+001, 5.2260298E+001
 2.3003293E+002, 2.7038531E+002, 4.9042151E+001, 5.6435753E+001, 6.0206652E+001, 5.8154586E+001, 6.0654854E+001, 5.7403626E+001, 4.4454261E+001, 5.5120835E+001
 2.4001331E+002, 2.8079290E+002, 5.1625430E+001, 5.9793688E+001, 6.3880975E+001, 6.1653013E+001, 6.4367077E+001, 6.0841151E+001, 4.6603117E+001, 5.8222045E+001
 2.5003999E+002, 2.9120840E+002, 5.4429116E+001, 6.3420283E+001, 6.7847796E+001, 6.5431990E+001, 6.8374384E+001, 6.4554095E+001, 4.8941710E+001, 6.1592091E+001
 2.6002897E+002, 3.0161634E+002, 5.7461931E+001, 6.7327732E+001, 7.2117519E+001, 6.9501052E+001, 7.2687250E+001, 6.8553399E+001, 5.1472718E+001, 6.5232014E+001
 2.7002451E+002, 3.1201322E+002, 6.0722467E+001, 7.1513376E+001, 7.6684643E+001, 7.3855517E+001, 7.7299940E+001, 7.2835315E+001, 5.4195263E+001, 6.9134727E+001
 2.8000635E+002, 3.2240052E+002, 6.4217231E+001, 7.5987717E+001, 8.1560394E+001, 7.8505783E+001, 8.2223848E+001, 7.7410262E+001, 5.7112499E+001, 7.3306148E+001
 2.9002504E+002, 3.3281365E+002, 6.7963656E+001, 8.0774305E+001, 8.6771480E+001, 8.3477715E+001, 8.7485911E+001, 8.2302948E+001, 6.0238221E+001, 7.7770320E+001
 3.0003668E+002, 3.4323249E+002, 7.1970423E+001, 8.5885288E+001, 9.2329935E+001, 8.8782822E+001, 9.3098211E+001, 8.7525254E+001, 6.3579283E+001, 8.2534719E+001
 3.1003112E+002, 3.5364089E+002, 7.6243630E+001, 9.1321891E+001, 9.8235500E+001, 9.4424992E+001, 9.9059728E+001, 9.3079501E+001, 6.7146875E+001, 8.7610979E+001
 3.2003013E+002, 3.6403568E+002, 8.0794098E+001, 9.7094935E+001, 1.0449716E+002, 1.0041450E+002, 1.0537914E+002, 9.8976286E+001, 7.0948891E+001, 9.3003841E+001
 3.3000073E+002, 3.7442911E+002, 8.5612668E+001, 1.0319826E+002, 1.1110698E+002, 1.0674119E+002, 1.1204884E+002, 1.0520759E+002, 7.4972565E+001, 9.8694820E+001
 3.4001670E+002, 3.8482253E+002, 9.0721824E+001, 1.0965341E+002, 1.1808737E+002, 1.1343081E+002, 1.1909067E+002, 1.1179679E+002, 7.9245002E+001, 1.0471871E+002
 3.5002908E+002, 3.9029585E+002, 9.6134638E+001, 1.1647222E+002, 1.2544699E+002, 1.2049444E+002, 1.2651275E+002, 1.1875540E+002, 8.3775542E+001, 1.1108053E+002
 3.6002701E+002, 3.9088520E+002, 1.0175272E+002, 1.2355116E+002, 1.3305632E+002, 1.2780515E+002, 1.3418434E+002, 1.2596825E+002, 8.8440213E+001, 1.1760284E+002
 3.7003213E+002, 3.9147324E+002, 1.0741364E+002, 1.3071112E+002, 1.4070084E+002, 1.3516097E+002, 1.4188781E+002, 1.3324384E+002, 9.3071553E+001, 1.2405078E+002
 3.8000422E+002, 3.9206083E+002, 1.1299710E+002, 1.3780795E+002, 1.4822795E+002, 1.4242077E+002, 1.4946856E+002, 1.4043840E+002, 9.7580295E+001, 1.3031003E+002
 3.9003531E+002, 3.9264927E+002, 1.1846147E+002, 1.4480037E+002, 1.5560646E+002, 1.4955214E+002, 1.5689596E+002, 1.4751512E+002, 1.0194257E+002, 1.3636746E+002
 4.0003316E+002, 3.9323844E+002, 1.2378366E+002, 1.5164752E+002, 1.6279821E+002, 1.5652151E+002, 1.6413121E+002, 1.5443661E+002, 1.0616339E+002, 1.4222547E+002
 4.1001179E+002, 3.9382579E+002, 1.2895282E+002, 1.5833155E+002, 1.6979684E+002, 1.6332139E+002, 1.7116850E+002, 1.6119034E+002, 1.1024438E+002, 1.4790169E+002
 4.2002433E+002, 3.9441388E+002, 1.3399307E+002, 1.6487979E+002, 1.7663555E+002, 1.6998145E+002, 1.7804179E+002, 1.6780521E+002, 1.1420563E+002, 1.5342994E+002
 4.3002331E+002, 3.9500233E+002, 1.3890455E+002, 1.7128450E+002, 1.8330271E+002, 1.7648924E+002, 1.8473949E+002, 1.7427144E+002, 1.1805174E+002, 1.5880445E+002
 4.4002289E+002, 3.9559060E+002, 1.4367210E+002, 1.7750748E+002, 1.8975278E+002, 1.8280295E+002, 1.9121522E+002, 1.8054881E+002, 1.2178127E+002, 1.6400457E+002
 4.5001078E+002, 3.9617845E+002, 1.4831146E+002, 1.8356497E+002, 1.9601246E+002, 1.8894612E+002, 1.9749655E+002, 1.8665728E+002, 1.2540763E+002, 1.6906674E+002
 4.6000945E+002, 3.9676632E+002, 1.5284109E+002, 1.8947368E+002, 2.0210014E+002, 1.9493614E+002, 2.0360215E+002, 1.9261396E+002, 1.2894767E+002, 1.7401281E+002
 4.7002090E+002, 3.9735486E+002, 1.5727765E+002, 1.9525808E+002, 2.0804695E+002, 2.0079941E+002, 2.0956411E+002, 1.9844457E+002, 1.3240560E+002, 1.7886423E+002
 4.8000021E+002, 3.9794278E+002, 1.6161628E+002, 2.0090568E+002, 2.1383699E+002, 2.0651966E+002, 2.1536646E+002, 2.0413477E+002, 1.3578029E+002, 1.8361093E+002
 4.9002390E+002, 3.9853107E+002, 1.6587443E+002, 2.0643198E+002, 2.1948612E+002, 2.1211274E+002, 2.2102508E+002, 2.0970026E+002, 1.3908836E+002, 1.8827189E+002
 5.0000199E+002, 3.9911925E+002, 1.7004721E+002, 2.1182056E+002, 2.2497322E+002, 2.1755900E+002, 2.2651857E+002, 2.1512290E+002, 1.4232856E+002, 1.9283332E+002
 5.1003462E+002, 3.9970791E+002, 1.7414040E+002, 2.1707868E+002, 2.3030903E+002, 2.2286711E+002, 2.3185813E+002, 2.2041069E+002, 1.4550302E+002, 1.9730376E+002
 5.2001707E+002, 3.9915901E+002, 1.7815348E+002, 2.2220199E+002, 2.3548766E+002, 2.2803060E+002, 2.3703790E+002, 2.2555824E+002, 1.4861143E+002, 2.0167772E+002
 5.3003690E+002, 3.9749323E+002, 1.8207313E+002, 2.2717747E+002, 2.4049621E+002, 2.3303567E+002, 2.4204512E+002, 2.3055218E+002, 1.5163344E+002, 2.0593496E+002
 5.4001220E+002, 3.9582650E+002, 1.8586146E+002, 2.3196578E+002, 2.4528632E+002, 2.3783432E+002, 2.4683100E+002, 2.3534886E+002, 1.5452467E+002, 2.1001083E+002
 5.5003719E+002, 3.9415952E+002, 1.8950844E+002, 2.3655681E+002, 2.4985439E+002, 2.4242359E+002, 2.5139220E+002, 2.3994129E+002, 1.5728250E+002, 2.1391651E+002
 5.6001975E+002, 3.9249173E+002, 1.9301291E+002, 2.4094889E+002, 2.5419801E+002, 2.4680004E+002, 2.5572645E+002, 2.4432713E+002, 1.5990752E+002, 2.1764601E+002
 5.7002047E+002, 3.9082672E+002, 1.9634923E+002, 2.4509453E+002, 2.5826063E+002, 2.5091013E+002, 2.5977652E+002, 2.4845569E+002, 1.6239235E+002, 2.2116238E+002
 5.8001254E+002, 3.8916174E+002, 1.9955611E+002, 2.4905505E+002, 2.6212929E+002, 2.5483565E+002, 2.6363098E+002, 2.5239857E+002, 1.6476351E+002, 2.2455192E+002
 5.9003240E+002, 3.8749387E+002, 2.0263368E+002, 2.5282594E+002, 2.6578780E+002, 2.5856001E+002, 2.6727331E+002, 2.5614567E+002, 1.6702037E+002, 2.2778439E+002
 6.0002136E+002, 3.8582586E+002, 2.0557102E+002, 2.5638441E+002, 2.6921064E+002, 2.6205843E+002, 2.7067785E+002, 2.5967299E+002, 1.6916230E+002, 2.3084818E+002
 6.1002331E+002, 3.8415928E+002, 2.0838166E+002, 2.5975156E+002, 2.7242847E+002, 2.6535907E+002, 2.7387597E+002, 2.6300534E+002, 1.7119829E+002, 2.3377131E+002
 6.2000651E+002, 3.8249425E+002, 2.1105857E+002, 2.6290869E+002, 2.7541210E+002, 2.6843407E+002, 2.7683789E+002, 2.6611949E+002, 1.7312888E+002, 2.3652547E+002
 6.3001575E+002, 3.8082916E+002, 2.1362401E+002, 2.6589305E+002, 2.7821675E+002, 2.7133567E+002, 2.7961990E+002, 2.6905986E+002, 1.7496697E+002, 2.3916755E+002
 6.4002848E+002, 3.7916016E+002, 2.1609442E+002, 2.6872473E+002, 2.8085923E+002, 2.7407993E+002, 2.8223886E+002, 2.7184492E+002, 1.7672624E+002, 2.4170318E+002
 6.5001211E+002, 3.7749327E+002, 2.1845543E+002, 2.7137818E+002, 2.8330741E+002, 2.7663539E+002, 2.8466240E+002, 2.7444613E+002, 1.7839936E+002, 2.4410340E+002
 6.6003203E+002, 3.7582652E+002, 2.2072708E+002, 2.7388665E+002, 2.8560717E+002, 2.7904552E+002, 2.8693712E+002, 2.7690177E+002, 1.7999822E+002, 2.4641248E+002
 6.7001754E+002, 3.7415934E+002, 2.2290873E+002, 2.7624975E+002, 2.8775163E+002, 2.8130272E+002, 2.8905596E+002, 2.7920820E+002, 1.8152074E+002, 2.4861006E+002
 6.8002938E+002, 3.7249285E+002, 2.2499509E+002, 2.7845781E+002, 2.8973093E+002, 2.8339764E+002, 2.9100895E+002, 2.8135568E+002, 1.8296761E+002, 2.5069335E+002
 6.9000223E+002, 3.7082784E+002, 2.2698942E+002, 2.8051555E+002, 2.9155035E+002, 2.8533488E+002, 2.9280159E+002, 2.8334889E+002, 1.8434151E+002, 2.5266354E+002
 7.0000093E+002, 3.6916312E+002, 2.2890873E+002, 2.8245193E+002, 2.9325086E+002, 2.8715453E+002, 2.9447538E+002, 2.8522211E+002, 1.8565453E+002, 2.5456304E+002
 7.1002092E+002, 3.6749558E+002, 2.3076836E+002, 2.8428779E+002, 2.9484933E+002, 2.8887279E+002, 2.9604702E+002, 2.8699425E+002, 1.8691522E+002, 2.5639299E+002
 7.2001989E+002, 3.6582608E+002, 2.3254656E+002, 2.8598915E+002, 2.9630330E+002, 2.9044754E+002, 2.9747369E+002, 2.8862727E+002, 1.8811320E+002, 2.5811602E+002
 7.3001780E+002, 3.6416071E+002, 2.3425742E+002, 2.8757916E+002, 2.9764586E+002, 2.9191147E+002, 2.9878899E+002, 2.9014898E+002, 1.8925942E+002, 2.5976534E+002
 7.4002904E+002, 3.6249297E+002, 2.3590823E+002, 2.8907144E+002, 2.9889238E+002, 2.9327891E+002, 3.0000848E+002, 2.9157347E+002, 1.9035498E+002, 2.6135034E+002
 7.5000484E+002, 3.6082763E+002, 2.3750283E+002, 2.9047657E+002, 3.0005431E+002, 2.9456087E+002, 3.0114369E+002, 2.9291162E+002, 1.9140132E+002, 2.6287250E+002
 7.6001474E+002, 3.5790416E+002, 2.3902331E+002, 2.9176825E+002, 3.0109424E+002, 2.9572028E+002, 3.0215669E+002, 2.9413187E+002, 1.9238565E+002, 2.6428901E+002
 7.7002889E+002, 3.5373128E+002, 2.4044215E+002, 2.9290440E+002, 3.0195942E+002, 2.9670650E+002, 3.0299418E+002, 2.9518752E+002, 1.9328834E+002, 2.6555061E+002
 7.8002325E+002, 3.4956691E+002, 2.4173947E+002, 2.9387511E+002, 3.0265049E+002, 2.9752120E+002, 3.0365720E+002, 2.9607397E+002, 1.9408378E+002, 2.6666147E+002
 7.9002253E+002, 3.4539899E+002, 2.4292261E+002, 2.9470112E+002, 3.0319469E+002, 2.9819131E+002, 3.0417312E+002, 2.9681546E+002, 1.9477518E+002, 2.6764203E+002
 8.0000189E+002, 3.4123668E+002, 2.4397678E+002, 2.9536198E+002, 3.0356318E+002, 2.9868820E+002, 3.0451270E+002, 2.9738760E+002, 1.9535337E+002, 2.6845942E+002
 8.1000037E+002, 3.3707606E+002, 2.4488441E+002, 2.9583038E+002, 3.0372509E+002, 2.9898110E+002, 3.0464488E+002, 2.9776110E+002, 1.9581027E+002, 2.6909192E+002
 8.2000410E+002, 3.3290869E+002, 2.4566459E+002, 2.9613346E+002, 3.0371967E+002, 2.9910869E+002, 3.0460939E+002, 2.9796886E+002, 1.9616382E+002, 2.6958649E+002
 8.3003249E+002, 3.2873507E+002, 2.4632522E+002, 2.9628029E+002, 3.0355484E+002, 2.9907815E+002, 3.0441436E+002, 2.9801920E+002, 1.9642157E+002, 2.6994767E+002
 8.4001230E+002, 3.2456431E+002, 2.4687606E+002, 2.9628462E+002, 3.0324915E+002, 2.9890703E+002, 3.0407852E+002, 2.9792777E+002, 1.9659411E+002, 2.7019670E+002
 8.5001941E+002, 3.2040306E+002, 2.4732823E+002, 2.9616521E+002, 3.0282188E+002, 2.9861355E+002, 3.0362134E+002, 2.9771337E+002, 1.9668417E+002, 2.7034190E+002
 8.6002626E+002, 3.1623330E+002, 2.4767550E+002, 2.9590662E+002, 3.0225085E+002, 2.9817670E+002, 3.0302031E+002, 2.9735756E+002, 1.9669290E+002, 2.7036382E+002
 8.7000249E+002, 3.1207490E+002, 2.4792733E+002, 2.9551975E+002, 3.0155297E+002, 2.9761300E+002, 3.0229244E+002, 2.9687400E+002, 1.9663284E+002, 2.7028387E+002
 8.8002373E+002, 3.3179749E+002, 2.4810457E+002, 2.9502700E+002, 3.0075524E+002, 2.9694850E+002, 3.0146507E+002, 2.9628710E+002, 1.9652739E+002, 2.7013737E+002
 8.9002356E+002, 3.7518689E+002, 2.4848080E+002, 2.9471981E+002, 3.0023478E+002, 2.9654841E+002, 3.0091996E+002, 2.9592486E+002, 1.9673110E+002, 2.7044748E+002
 9.0002016E+002, 4.1850023E+002, 2.4972054E+002, 2.9531645E+002, 3.0084506E+002, 2.9723341E+002, 3.0151998E+002, 2.9655947E+002, 1.9797432E+002, 2.7219657E+002
 9.1002789E+002, 4.6183247E+002, 2.5236452E+002, 2.9740217E+002, 3.0320798E+002, 2.9959768E+002, 3.0389236E+002, 2.9878395E+002, 2.0074060E+002, 2.7594555E+002
 9.2001430E+002, 5.0517121E+002, 2.5679639E+002, 3.0140029E+002, 3.0775439E+002, 3.0405780E+002, 3.0847020E+002, 3.0301943E+002, 2.0534692E+002, 2.8204703E+002
 9.3000548E+002, 5.4842227E+002, 2.6330588E+002, 3.0761874E+002, 3.1477974E+002, 3.1090792E+002, 3.1554852E+002, 3.0956727E+002, 2.1205196E+002, 2.9072994E+002
 9.4000289E+002, 5.9175654E+002, 2.7214666E+002, 3.1632442E+002, 3.2454809E+002, 3.2041918E+002, 3.2538991E+002, 3.1869574E+002, 2.2110159E+002, 3.0222878E+002
 9.5000174E+002, 6.3505876E+002, 2.8355608E+002, 3.2777669E+002, 3.3731959E+002, 3.3286628E+002, 3.3825187E+002, 3.3067103E+002, 2.3273528E+002, 3.1677265E+002
 9.6000491E+002, 6.7840946E+002, 2.9770746E+002, 3.4215340E+002, 3.5325629E+002, 3.4843564E+002, 3.5429176E+002, 3.4567403E+002, 2.4714996E+002, 3.3449743E+002
 9.7001729E+002, 6.7953262E+002, 3.1465597E+002, 3.5950930E+002, 3.7236256E+002, 3.6716714E+002, 3.7350628E+002, 3.6375112E+002, 2.6439330E+002, 3.5531011E+002
 9.8002270E+002, 6.3878923E+002, 3.3270892E+002, 3.7812127E+002, 3.9238465E+002, 3.8687301E+002, 3.9361497E+002, 3.8294834E+002, 2.8216525E+002, 3.7592190E+002
 9.9000130E+002, 5.9810874E+002, 3.4849482E+002, 3.9453832E+002, 4.0932613E+002, 4.0363310E+002, 4.1059503E+002, 3.9956815E+002, 2.9667338E+002, 3.9169283E+002
 1.0000211E+003, 5.5739963E+002, 3.6046652E+002, 4.0716057E+002, 4.2171470E+002, 4.1599021E+002, 4.2297750E+002, 4.1207110E+002, 3.0680742E+002, 4.0176714E+002
 1.0100100E+003, 5.1665694E+002, 3.6850192E+002, 4.1584750E+002, 4.2970010E+002, 4.2407120E+002, 4.3092474E+002, 4.2045010E+002, 3.1289932E+002, 4.0695962E+002
 1.0200146E+003, 4.7594703E+002, 3.7303324E+002, 4.2100362E+002, 4.3390091E+002, 4.2846395E+002, 4.3506635E+002, 4.2520638E+002, 3.1565324E+002, 4.0831947E+002
 1.0300345E+003, 4.3519032E+002, 3.7465951E+002, 4.2318643E+002, 4.3500238E+002, 4.2982940E+002, 4.3609451E+002, 4.2695403E+002, 3.1579018E+002, 4.0678533E+002
 1.0400152E+003, 4.1052684E+002, 3.7399906E+002, 4.2298067E+002, 4.3368220E+002, 4.2882472E+002, 4.3469258E+002, 4.2631787E+002, 3.1396939E+002, 4.0319536E+002
 1.0500177E+003, 4.0167864E+002, 3.7177573E+002, 4.2107640E+002, 4.3072616E+002, 4.2621186E+002, 4.3165262E+002, 4.2402706E+002, 3.1098480E+002, 3.9851957E+002
 1.0600226E+003, 3.9280804E+002, 3.6884059E+002, 4.1832187E+002, 4.2707393E+002, 4.2290108E+002, 4.2792147E+002, 4.2096447E+002, 3.0768495E+002, 3.9378178E+002
 1.0700032E+003, 3.8394701E+002, 3.6570518E+002, 4.1522919E+002, 4.2322153E+002, 4.1937136E+002, 4.2399714E+002, 4.1762791E+002, 3.0445104E+002, 3.8935620E+002
 1.0800231E+003, 3.7508704E+002, 3.6255330E+002, 4.1197090E+002, 4.1928500E+002, 4.1573439E+002, 4.1999465E+002, 4.1415978E+002, 3.0135308E+002, 3.8522800E+002
 1.0900176E+003, 3.6621600E+002, 3.5947130E+002, 4.0863450E+002, 4.1532363E+002, 4.1205043E+002, 4.1597227E+002, 4.1063279E+002, 2.9840088E+002, 3.8138066E+002
 1.1000297E+003, 3.5735011E+002, 3.5649242E+002, 4.0526204E+002, 4.1136068E+002, 4.0834511E+002, 4.1195237E+002, 4.0707979E+002, 2.9557446E+002, 3.7777166E+002
 1.1100253E+003, 3.4848086E+002, 3.5362195E+002, 4.0186923E+002, 4.0740152E+002, 4.0462760E+002, 4.0793946E+002, 4.0351239E+002, 2.9285167E+002, 3.7435919E+002
 1.1200015E+003, 3.3962965E+002, 3.5081575E+002, 3.9840790E+002, 4.0337417E+002, 4.0082758E+002, 4.0386058E+002, 3.9987091E+002, 2.9018328E+002, 3.7102173E+002
 1.1300129E+003, 3.3077163E+002, 3.4805342E+002, 3.9486528E+002, 3.9927018E+002, 3.9693978E+002, 3.9970699E+002, 3.9614518E+002, 2.8754804E+002, 3.6774396E+002
 1.1400245E+003, 3.2189655E+002, 3.4532097E+002, 3.9123816E+002, 3.9508721E+002, 3.9296368E+002, 3.9547604E+002, 3.9233310E+002, 2.8493083E+002, 3.6450308E+002
 1.1500022E+003, 3.1304025E+002, 3.4261702E+002, 3.8753539E+002, 3.9083341E+002, 3.8890796E+002, 3.9117580E+002, 3.8844346E+002, 2.8233487E+002, 3.6128066E+002
 1.1600383E+003, 3.0416827E+002, 3.3992700E+002, 3.8375249E+002, 3.8650918E+002, 3.8477512E+002, 3.8680643E+002, 3.8447502E+002, 2.7974434E+002, 3.5807272E+002
 1.1700341E+003, 2.9529327E+002, 3.3724618E+002, 3.7989585E+002, 3.8211890E+002, 3.8057013E+002, 3.8237226E+002, 3.8043360E+002, 2.7715688E+002, 3.5485948E+002
 1.1800159E+003, 2.8643848E+002, 3.3455851E+002, 3.7595355E+002, 3.7764630E+002, 3.7627658E+002, 3.7785695E+002, 3.7630487E+002, 2.7456789E+002, 3.5160928E+002
 1.1900153E+003, 2.7757934E+002, 3.3186410E+002, 3.7193654E+002, 3.7311200E+002, 3.7191680E+002, 3.7328110E+002, 3.7210525E+002, 2.7197831E+002, 3.4834938E+002
 1.2000084E+003, 2.6872222E+002, 3.2917065E+002, 3.6786455E+002, 3.6853604E+002, 3.6751106E+002, 3.6866464E+002, 3.6785504E+002, 2.6939469E+002, 3.4508060E+002
 1.2100311E+003, 2.5984851E+002, 3.2645891E+002, 3.6371721E+002, 3.6389256E+002, 3.6303346E+002, 3.6398164E+002, 3.6353107E+002, 2.6680682E+002, 3.4177232E+002
 1.2200136E+003, 2.5098508E+002, 3.2373426E+002, 3.5951122E+002, 3.5920039E+002, 3.5850250E+002, 3.5925094E+002, 3.5915124E+002, 2.6421850E+002, 3.3843041E+002
 1.2300310E+003, 2.4211729E+002, 3.2098432E+002, 3.5523640E+002, 3.5444896E+002, 3.5390804E+002, 3.5446197E+002, 3.5470498E+002, 2.6162396E+002, 3.3504829E+002
