s,C,C,C,C,C,C,C
Time,"Air Temp","VTT_1","IRSN_1","TRAC_2","TRAC_4","GRS_2","NRC_2"
 0.0000000E+000, 2.5000000E+001, 2.5000000E+001, 2.5000000E+001, 2.5000000E+001, 2.5000000E+001, 2.5000000E+001, 2.5000000E+001
 1.0200000E+001, 2.5421647E+001, 2.5000022E+001, 2.5000018E+001, 2.5000026E+001, 2.5000026E+001, 2.5000028E+001, 2.5000209E+001
 2.0200000E+001, 2.6216000E+001, 2.5000614E+001, 2.5000513E+001, 2.5000715E+001, 2.5000725E+001, 2.5000682E+001, 2.5003173E+001
 3.0200000E+001, 2.9182381E+001, 2.5003226E+001, 2.5002708E+001, 2.5003692E+001, 2.5003746E+001, 2.5003273E+001, 2.5011478E+001
 4.0007618E+001, 4.4079542E+001, 2.5011920E+001, 2.5009991E+001, 2.5013629E+001, 2.5013826E+001, 2.5012047E+001, 2.5046618E+001
 5.0062115E+001, 6.0807270E+001, 2.5055241E+001, 2.5045789E+001, 2.5063226E+001, 2.5064103E+001, 2.5055030E+001, 2.5209411E+001
 6.0020081E+001, 7.7608080E+001, 2.5184445E+001, 2.5151864E+001, 2.5209214E+001, 2.5212010E+001, 2.5172922E+001, 2.5569199E+001
 7.0063913E+001, 9.4460685E+001, 2.5442509E+001, 2.5363192E+001, 2.5497559E+001, 2.5504019E+001, 2.5393159E+001, 2.6155518E+001
 8.0004605E+001, 1.1124042E+002, 2.5863582E+001, 2.5706923E+001, 2.5964194E+001, 2.5976416E+001, 2.5734517E+001, 2.6979034E+001
 9.0021089E+001, 1.2801097E+002, 2.6474530E+001, 2.6203996E+001, 2.6637165E+001, 2.6657529E+001, 2.6211818E+001, 2.8060979E+001
 1.0003527E+002, 1.4486120E+002, 2.7302275E+001, 2.6875427E+001, 2.7544646E+001, 2.7575819E+001, 2.6840231E+001, 2.9408444E+001
 1.1004121E+002, 1.6169962E+002, 2.8364798E+001, 2.7734956E+001, 2.8705441E+001, 2.8750308E+001, 2.7629608E+001, 3.1040260E+001
 1.2000804E+002, 1.7308447E+002, 2.9683851E+001, 2.8798687E+001, 3.0142536E+001, 3.0204185E+001, 2.8592584E+001, 3.2966253E+001
 1.3001334E+002, 1.7918772E+002, 3.1247684E+001, 3.0055576E+001, 3.1839997E+001, 3.1921288E+001, 2.9706010E+001, 3.5033102E+001
 1.4002939E+002, 1.8530754E+002, 3.2991031E+001, 3.1449696E+001, 3.3723848E+001, 3.3826795E+001, 3.0906742E+001, 3.7097244E+001
 1.5002316E+002, 1.9142036E+002, 3.4853558E+001, 3.2929098E+001, 3.5729473E+001, 3.5855366E+001, 3.2153982E+001, 3.9171550E+001
 1.6002333E+002, 1.9753160E+002, 3.6829778E+001, 3.4486159E+001, 3.7852972E+001, 3.8002739E+001, 3.3451900E+001, 4.1344203E+001
 1.7004516E+002, 2.0364823E+002, 3.8925580E+001, 3.6123841E+001, 4.0101054E+001, 4.0275595E+001, 3.4805391E+001, 4.3583371E+001
 1.8002521E+002, 2.0975684E+002, 4.1116358E+001, 3.7823035E+001, 4.2447145E+001, 4.2647259E+001, 3.6198090E+001, 4.5846720E+001
 1.9002715E+002, 2.1586699E+002, 4.3402101E+001, 3.9583448E+001, 4.4892611E+001, 4.5119113E+001, 3.7635704E+001, 4.8196715E+001
 2.0003534E+002, 2.2197746E+002, 4.5796274E+001, 4.1415901E+001, 4.7452039E+001, 4.7705808E+001, 3.9129166E+001, 5.0636706E+001
 2.1000062E+002, 2.3101544E+002, 4.8287317E+001, 4.3312308E+001, 5.0112876E+001, 5.0394774E+001, 4.0670575E+001, 5.3140384E+001
 2.2000426E+002, 2.4291399E+002, 5.0909482E+001, 4.5300527E+001, 5.2914821E+001, 5.3226224E+001, 4.2295570E+001, 5.5880165E+001
 2.3001673E+002, 2.5484409E+002, 5.3737439E+001, 4.7443670E+001, 5.5939771E+001, 5.6282936E+001, 4.4068579E+001, 5.8947276E+001
 2.4004042E+002, 2.6678799E+002, 5.6820266E+001, 4.9784472E+001, 5.9239803E+001, 5.9617548E+001, 4.6024020E+001, 6.2359144E+001
 2.5002877E+002, 2.7871638E+002, 6.0189025E+001, 5.2350237E+001, 6.2846738E+001, 6.3262082E+001, 4.8180998E+001, 6.6142955E+001
 2.6000939E+002, 2.9062104E+002, 6.3866812E+001, 5.5162102E+001, 6.6782746E+001, 6.7238629E+001, 5.0552510E+001, 7.0265328E+001
 2.7000481E+002, 3.0253258E+002, 6.7865191E+001, 5.8227580E+001, 7.1059758E+001, 7.1559671E+001, 5.3136229E+001, 7.4692475E+001
 2.8000880E+002, 3.1445537E+002, 7.2197911E+001, 6.1555314E+001, 7.5692843E+001, 7.6240585E+001, 5.5939011E+001, 7.9468759E+001
 2.9003315E+002, 3.2639308E+002, 7.6890809E+001, 6.5170225E+001, 8.0706754E+001, 8.1305482E+001, 5.8988674E+001, 8.4666580E+001
 3.0003700E+002, 3.3833619E+002, 8.1954214E+001, 6.9083709E+001, 8.6109887E+001, 8.6762374E+001, 6.2293847E+001, 9.0249963E+001
 3.1002768E+002, 3.5025202E+002, 8.7386137E+001, 7.3294117E+001, 9.1899313E+001, 9.2608302E+001, 6.5849723E+001, 9.6198997E+001
 3.2003667E+002, 3.6217417E+002, 9.3213806E+001, 7.7821374E+001, 9.8104284E+001, 9.8872712E+001, 6.9674647E+001, 1.0257921E+002
 3.3001944E+002, 3.7409113E+002, 9.9452846E+001, 8.2677574E+001, 1.0474058E+002, 1.0557133E+002, 7.3778466E+001, 1.0938072E+002
 3.4002462E+002, 3.8260964E+002, 1.0610890E+002, 8.7866909E+001, 1.1181254E+002, 1.1270841E+002, 7.8161465E+001, 1.1657231E+002
 3.5001303E+002, 3.8778564E+002, 1.1313843E+002, 9.3356407E+001, 1.1926544E+002, 1.2022766E+002, 8.2780097E+001, 1.2393471E+002
 3.6000603E+002, 3.9296195E+002, 1.2039555E+002, 9.9028008E+001, 1.2693346E+002, 1.2796059E+002, 8.7510544E+001, 1.3121093E+002
 3.7000013E+002, 3.9813667E+002, 1.2779237E+002, 1.0480273E+002, 1.3472512E+002, 1.3581492E+002, 9.2286865E+001, 1.3841531E+002
 3.8000588E+002, 4.0331471E+002, 1.3529246E+002, 1.1064149E+002, 1.4260770E+002, 1.4375827E+002, 9.7084426E+001, 1.4560126E+002
 3.9000544E+002, 4.0849257E+002, 1.4288689E+002, 1.1653713E+002, 1.5057375E+002, 1.5178287E+002, 1.0191380E+002, 1.5283963E+002
 4.0002010E+002, 4.1367593E+002, 1.5055588E+002, 1.2248479E+002, 1.5859837E+002, 1.5986280E+002, 1.0678215E+002, 1.6007204E+002
 4.1001917E+002, 4.1885881E+002, 1.5828420E+002, 1.2847618E+002, 1.6666714E+002, 1.6798366E+002, 1.1168772E+002, 1.6735705E+002
 4.2000196E+002, 4.2403162E+002, 1.6607223E+002, 1.3451193E+002, 1.7478340E+002, 1.7614914E+002, 1.1663251E+002, 1.7470408E+002
 4.3001234E+002, 4.2921032E+002, 1.7394335E+002, 1.4060747E+002, 1.8297436E+002, 1.8438731E+002, 1.2162136E+002, 1.8209245E+002
 4.4000009E+002, 4.3438736E+002, 1.8185848E+002, 1.4675114E+002, 1.9118993E+002, 1.9264641E+002, 1.2666151E+002, 1.8949393E+002
 4.5001237E+002, 4.3956529E+002, 1.8980211E+002, 1.5293899E+002, 1.9941380E+002, 2.0090983E+002, 1.3175273E+002, 1.9693009E+002
 4.6000513E+002, 4.4474633E+002, 1.9779239E+002, 1.5918022E+002, 2.0767051E+002, 2.0920308E+002, 1.3689762E+002, 2.0445896E+002
 4.7003083E+002, 4.4992743E+002, 2.0585329E+002, 1.6549225E+002, 2.1598739E+002, 2.1755399E+002, 1.4210763E+002, 2.1208074E+002
 4.8002761E+002, 4.5511161E+002, 2.1396050E+002, 1.7186376E+002, 2.2433492E+002, 2.2593261E+002, 1.4737358E+002, 2.1972459E+002
 4.9002143E+002, 4.6028979E+002, 2.2208434E+002, 1.7828000E+002, 2.3268018E+002, 2.3430539E+002, 1.5269063E+002, 2.2739438E+002
 5.0002758E+002, 4.6546792E+002, 2.3021611E+002, 1.8474739E+002, 2.4100960E+002, 2.4265800E+002, 1.5807462E+002, 2.3509215E+002
 5.1003201E+002, 4.7064968E+002, 2.3835979E+002, 1.9127006E+002, 2.4933009E+002, 2.5099778E+002, 1.6352746E+002, 2.4283540E+002
 5.2001402E+002, 4.7582344E+002, 2.4650245E+002, 1.9783353E+002, 2.5763147E+002, 2.5931516E+002, 1.6902942E+002, 2.5059297E+002
 5.3000341E+002, 4.8099443E+002, 2.5465479E+002, 2.0444480E+002, 2.6592763E+002, 2.6762444E+002, 1.7458671E+002, 2.5844137E+002
 5.4003794E+002, 4.8618054E+002, 2.6287692E+002, 2.1114497E+002, 2.7428470E+002, 2.7599254E+002, 1.8022804E+002, 2.6639882E+002
 5.5000809E+002, 4.9135912E+002, 2.7109851E+002, 2.1789026E+002, 2.8262220E+002, 2.8433810E+002, 1.8591921E+002, 2.7429071E+002
 5.6001085E+002, 4.9653208E+002, 2.7930361E+002, 2.2466750E+002, 2.9092729E+002, 2.9264856E+002, 1.9165160E+002, 2.8224971E+002
 5.7002397E+002, 5.0171279E+002, 2.8755490E+002, 2.3152224E+002, 2.9926771E+002, 3.0099212E+002, 1.9746430E+002, 2.9030017E+002
 5.8003035E+002, 5.0689711E+002, 2.9579698E+002, 2.3842210E+002, 3.0757950E+002, 3.0930412E+002, 2.0333146E+002, 2.9825316E+002
 5.9001149E+002, 5.1207246E+002, 3.0396805E+002, 2.4532617E+002, 3.1579726E+002, 3.1751875E+002, 2.0922690E+002, 3.0616547E+002
 6.0001437E+002, 5.1724621E+002, 3.1208683E+002, 2.5224671E+002, 3.2394371E+002, 3.2565922E+002, 2.1516222E+002, 3.1402889E+002
 6.1002970E+002, 5.2242864E+002, 3.2019165E+002, 2.5921050E+002, 3.3206366E+002, 3.3377084E+002, 2.2116362E+002, 3.2202886E+002
 6.2002814E+002, 5.2500000E+002, 3.2830495E+002, 2.6622404E+002, 3.4018424E+002, 3.4188158E+002, 2.2722109E+002, 3.3002806E+002
 6.3001066E+002, 5.2500000E+002, 3.3630720E+002, 2.7319375E+002, 3.4816866E+002, 3.4985323E+002, 2.3322500E+002, 3.3760017E+002
 6.4000925E+002, 5.2500000E+002, 3.4403076E+002, 2.7997746E+002, 3.5583343E+002, 3.5750076E+002, 2.3902531E+002, 3.4454412E+002
 6.5001746E+002, 5.2500000E+002, 3.5139705E+002, 2.8649797E+002, 3.6310282E+002, 3.6474857E+002, 2.4456392E+002, 3.5097361E+002
 6.6000109E+002, 5.2500000E+002, 3.5840824E+002, 2.9273994E+002, 3.6999333E+002, 3.7161444E+002, 2.4984078E+002, 3.5711657E+002
 6.7002658E+002, 5.3142073E+002, 3.6507854E+002, 2.9871970E+002, 3.7651913E+002, 3.7811267E+002, 2.5488284E+002, 3.6283050E+002
 6.8002299E+002, 5.4421768E+002, 3.7157028E+002, 3.0458810E+002, 3.8287107E+002, 3.8443662E+002, 2.5991563E+002, 3.6919296E+002
 6.9000163E+002, 5.5698155E+002, 3.7830568E+002, 3.1070643E+002, 3.8951672E+002, 3.9105880E+002, 2.6532595E+002, 3.7672224E+002
 7.0000197E+002, 5.6974130E+002, 3.8553135E+002, 3.1731288E+002, 3.9670123E+002, 3.9822469E+002, 2.7131012E+002, 3.8522736E+002
 7.1000882E+002, 5.8252323E+002, 3.9327172E+002, 3.2446526E+002, 4.0442690E+002, 4.0593483E+002, 2.7789517E+002, 3.9439103E+002
 7.2001773E+002, 5.9531142E+002, 4.0151505E+002, 3.3216032E+002, 4.1267592E+002, 4.1417074E+002, 2.8505795E+002, 4.0429959E+002
 7.3000150E+002, 6.0808495E+002, 4.1029164E+002, 3.4040559E+002, 4.2147912E+002, 4.2296294E+002, 2.9278250E+002, 4.1483697E+002
 7.4002604E+002, 6.2086836E+002, 4.1957302E+002, 3.4917911E+002, 4.3079741E+002, 4.3227109E+002, 3.0104323E+002, 4.2594046E+002
 7.5002571E+002, 6.3366121E+002, 4.2935511E+002, 3.5846427E+002, 4.4062605E+002, 4.4209016E+002, 3.0981812E+002, 4.3752187E+002
 7.6000942E+002, 6.4055891E+002, 4.3951134E+002, 3.6815605E+002, 4.5082438E+002, 4.5227825E+002, 3.1901214E+002, 4.4933087E+002
 7.7002198E+002, 6.4166990E+002, 4.4988408E+002, 3.7808803E+002, 4.6121593E+002, 4.6265704E+002, 3.2837725E+002, 4.6056846E+002
 7.8002125E+002, 6.4278232E+002, 4.5997488E+002, 3.8780943E+002, 4.7125632E+002, 4.7267834E+002, 3.3740840E+002, 4.7040259E+002
 7.9001622E+002, 6.4389254E+002, 4.6956472E+002, 3.9709019E+002, 4.8073909E+002, 4.8213606E+002, 3.4593626E+002, 4.7930559E+002
 8.0000710E+002, 6.4500311E+002, 4.7854569E+002, 4.0582885E+002, 4.8956179E+002, 4.9092876E+002, 3.5390652E+002, 4.8718300E+002
 8.1000920E+002, 6.4611345E+002, 4.8690224E+002, 4.1401248E+002, 4.9772282E+002, 4.9905630E+002, 3.6135326E+002, 4.9435100E+002
 8.2000069E+002, 6.4722418E+002, 4.9477885E+002, 4.2174333E+002, 5.0539418E+002, 5.0669284E+002, 3.6838956E+002, 5.0127584E+002
 8.3000442E+002, 6.4833514E+002, 5.0222977E+002, 4.2907624E+002, 5.1262969E+002, 5.1389272E+002, 3.7505601E+002, 5.0769563E+002
 8.4001326E+002, 6.4944704E+002, 5.0925661E+002, 4.3603047E+002, 5.1942958E+002, 5.2065632E+002, 3.8137707E+002, 5.1369933E+002
 8.5002474E+002, 6.5055915E+002, 5.1593961E+002, 4.4267495E+002, 5.2588500E+002, 5.2707551E+002, 3.8742406E+002, 5.1958691E+002
 8.6002166E+002, 6.5167053E+002, 5.2235364E+002, 4.4906960E+002, 5.3207599E+002, 5.3323099E+002, 3.9323321E+002, 5.2532492E+002
 8.7001982E+002, 6.5278156E+002, 5.2847279E+002, 4.5521627E+002, 5.3796528E+002, 5.3908484E+002, 3.9880925E+002, 5.3059601E+002
 8.8002198E+002, 6.5389272E+002, 5.3420821E+002, 4.6106994E+002, 5.4345417E+002, 5.4453786E+002, 4.0412711E+002, 5.3546097E+002
 8.9001175E+002, 6.5500303E+002, 5.3970335E+002, 4.6672796E+002, 5.4871218E+002, 5.4976116E+002, 4.0927844E+002, 5.4046442E+002
 9.0000890E+002, 6.5611351E+002, 5.4497613E+002, 4.7221242E+002, 5.5374771E+002, 5.5476267E+002, 4.1425906E+002, 5.4505867E+002
 9.1000662E+002, 6.5722445E+002, 5.4993887E+002, 4.7746900E+002, 5.5846394E+002, 5.5944514E+002, 4.1903164E+002, 5.4939925E+002
 9.2001278E+002, 6.5833578E+002, 5.5469181E+002, 4.8256676E+002, 5.6297603E+002, 5.6392454E+002, 4.2366042E+002, 5.5364984E+002
 9.3001457E+002, 6.5944734E+002, 5.5920859E+002, 4.8749252E+002, 5.6725038E+002, 5.6816696E+002, 4.2813027E+002, 5.5766931E+002
 9.4001952E+002, 6.5364479E+002, 5.6350921E+002, 4.9225984E+002, 5.7131004E+002, 5.7219566E+002, 4.3245039E+002, 5.6145375E+002
 9.5001134E+002, 6.4101811E+002, 5.6736470E+002, 4.9666290E+002, 5.7489350E+002, 5.7574638E+002, 4.3632371E+002, 5.6391810E+002
 9.6001048E+002, 6.2838893E+002, 5.7031620E+002, 5.0028228E+002, 5.7750361E+002, 5.7831876E+002, 4.3926870E+002, 5.6442647E+002
 9.7000991E+002, 6.1576323E+002, 5.7216128E+002, 5.0292346E+002, 5.7894569E+002, 5.7971812E+002, 4.4116351E+002, 5.6347314E+002
 9.8000449E+002, 6.0313199E+002, 5.7293129E+002, 5.0460464E+002, 5.7927434E+002, 5.8000058E+002, 4.4209925E+002, 5.6150320E+002
 9.9000459E+002, 5.9050120E+002, 5.7279713E+002, 5.0546578E+002, 5.7868642E+002, 5.7936490E+002, 4.4225037E+002, 5.5894102E+002
 1.0000209E+003, 5.7786344E+002, 5.7186231E+002, 5.0561158E+002, 5.7728977E+002, 5.7791963E+002, 4.4172668E+002, 5.5574053E+002
 1.0100145E+003, 5.6522395E+002, 5.7022970E+002, 5.0514236E+002, 5.7519366E+002, 5.7577451E+002, 4.4063457E+002, 5.5204674E+002
 1.0200041E+003, 5.5260320E+002, 5.6793954E+002, 5.0411308E+002, 5.7243650E+002, 5.7296807E+002, 4.3903156E+002, 5.4788318E+002
 1.0300168E+003, 5.3996588E+002, 5.6503107E+002, 5.0257603E+002, 5.6905655E+002, 5.6953883E+002, 4.3697573E+002, 5.4318824E+002
 1.0400168E+003, 5.2732852E+002, 5.6160659E+002, 5.0061820E+002, 5.6516792E+002, 5.6560171E+002, 4.3455862E+002, 5.3843860E+002
 1.0500305E+003, 5.1468556E+002, 5.5775832E+002, 4.9832052E+002, 5.6086272E+002, 5.6124866E+002, 4.3184142E+002, 5.3337211E+002
 1.0600178E+003, 5.0205434E+002, 5.5350731E+002, 4.9570730E+002, 5.5616002E+002, 5.5649856E+002, 4.2884427E+002, 5.2807617E+002
 1.0700014E+003, 4.8944235E+002, 5.4886236E+002, 4.9279437E+002, 5.5106521E+002, 5.5135668E+002, 4.2558886E+002, 5.2252009E+002
 1.0800201E+003, 4.7680675E+002, 5.4390868E+002, 4.8965172E+002, 5.4567297E+002, 5.4591789E+002, 4.2215259E+002, 5.1696201E+002
 1.0900318E+003, 4.6415866E+002, 5.3866250E+002, 4.8629794E+002, 5.3999380E+002, 5.4019281E+002, 4.1853431E+002, 5.1115255E+002
 1.1000157E+003, 4.5152971E+002, 5.3314980E+002, 4.8275371E+002, 5.3405504E+002, 5.3420899E+002, 4.1476501E+002, 5.0523078E+002
 1.1100340E+003, 4.3889023E+002, 5.2737081E+002, 4.7902020E+002, 5.2785461E+002, 5.2796420E+002, 4.1084169E+002, 4.9910423E+002
 1.1200307E+003, 4.2625537E+002, 5.2133915E+002, 4.7510799E+002, 5.2140699E+002, 5.2147279E+002, 4.0678377E+002, 4.9282853E+002
 1.1300314E+003, 4.1747569E+002, 5.1511043E+002, 4.7105696E+002, 5.1477304E+002, 5.1479589E+002, 4.0263432E+002, 4.8661162E+002
 1.1400235E+003, 4.1247784E+002, 5.0880939E+002, 4.6696499E+002, 5.0808941E+002, 5.0807109E+002, 3.9849735E+002, 4.8067158E+002
 1.1500169E+003, 4.0748184E+002, 5.0257350E+002, 4.6295245E+002, 5.0150393E+002, 5.0144749E+002, 3.9450512E+002, 4.7520751E+002
 1.1600282E+003, 4.0247979E+002, 4.9649984E+002, 4.5910057E+002, 4.9511453E+002, 4.9502326E+002, 3.9072004E+002, 4.7008226E+002
 1.1700109E+003, 3.9748116E+002, 4.9054913E+002, 4.5538536E+002, 4.8886916E+002, 4.8874608E+002, 3.8710318E+002, 4.6509728E+002
 1.1800090E+003, 3.9248590E+002, 4.8478064E+002, 4.5183915E+002, 4.8283281E+002, 4.8268074E+002, 3.8367193E+002, 4.6040638E+002
 1.1900076E+003, 3.8748778E+002, 4.7909209E+002, 4.4838306E+002, 4.7688667E+002, 4.7670752E+002, 3.8033982E+002, 4.5560820E+002
 1.2000214E+003, 3.8248352E+002, 4.7348160E+002, 4.4500301E+002, 4.7103355E+002, 4.7082909E+002, 3.7710819E+002, 4.5101755E+002
 1.2100128E+003, 3.7748330E+002, 4.6799173E+002, 4.4171909E+002, 4.6531842E+002, 4.6509042E+002, 3.7399038E+002, 4.4655152E+002
 1.2200265E+003, 3.7247977E+002, 4.6262105E+002, 4.3852421E+002, 4.5973841E+002, 4.5948837E+002, 3.7097927E+002, 4.4220724E+002
 1.2300328E+003, 3.6747645E+002, 4.5733742E+002, 4.3539009E+002, 4.5425692E+002, 4.5398608E+002, 3.6804745E+002, 4.3791554E+002
 1.2400052E+003, 3.6248103E+002, 4.5214638E+002, 4.3231260E+002, 4.4887870E+002, 4.4858819E+002, 3.6518823E+002, 4.3363754E+002
 1.2500181E+003, 3.5748507E+002, 4.4701530E+002, 4.2926580E+002, 4.4356995E+002, 4.4326082E+002, 3.6238216E+002, 4.2940638E+002
 1.2600222E+003, 3.5248066E+002, 4.4194455E+002, 4.2624634E+002, 4.3833145E+002, 4.3800468E+002, 3.5962583E+002, 4.2520071E+002
 1.2700212E+003, 3.4748037E+002, 4.3693148E+002, 4.2324671E+002, 4.3315884E+002, 4.3281526E+002, 3.5691475E+002, 4.2101544E+002
 1.2800162E+003, 3.4248477E+002, 4.3197626E+002, 4.2026535E+002, 4.2805326E+002, 4.2769368E+002, 3.5425121E+002, 4.1689634E+002
 1.2900307E+003, 3.3747970E+002, 4.2709560E+002, 4.1731282E+002, 4.2303282E+002, 4.2265810E+002, 3.5164118E+002, 4.1287324E+002
 1.3000261E+003, 3.3247699E+002, 4.2231979E+002, 4.1440832E+002, 4.1812935E+002, 4.1774029E+002, 3.4909889E+002, 4.0901312E+002
 1.3100067E+003, 3.2748256E+002, 4.1764064E+002, 4.1154586E+002, 4.1333026E+002, 4.1292744E+002, 3.4661242E+002, 4.0511406E+002
 1.3200334E+003, 3.2248017E+002, 4.1297091E+002, 4.0866408E+002, 4.0854098E+002, 4.0812474E+002, 3.4413155E+002, 4.0106125E+002
 1.3300175E+003, 3.1747856E+002, 4.0828474E+002, 4.0574160E+002, 4.0373552E+002, 4.0330615E+002, 3.4164328E+002, 3.9691332E+002
 1.3400231E+003, 3.1248034E+002, 4.0361571E+002, 4.0280067E+002, 3.9895324E+002, 3.9851130E+002, 3.3917583E+002, 3.9288048E+002
 1.3500129E+003, 3.0747953E+002, 3.9899806E+002, 3.9986754E+002, 3.9423042E+002, 3.9377656E+002, 3.3674191E+002, 3.8893558E+002
 1.3600303E+003, 3.0247970E+002, 3.9444574E+002, 3.9695354E+002, 3.8958066E+002, 3.8911540E+002, 3.3434895E+002, 3.8505366E+002
 1.3700011E+003, 2.9748200E+002, 3.8992501E+002, 3.9403439E+002, 3.8496440E+002, 3.8448809E+002, 3.3197487E+002, 3.8103530E+002
 1.3800177E+003, 2.9248652E+002, 3.8539361E+002, 3.9107886E+002, 3.8033798E+002, 3.7985090E+002, 3.2959884E+002, 3.7698372E+002
 1.3900091E+003, 2.8748393E+002, 3.8089871E+002, 3.8812211E+002, 3.7575538E+002, 3.7525793E+002, 3.2725171E+002, 3.7311209E+002
 1.4000121E+003, 2.8248450E+002, 3.7646700E+002, 3.8518532E+002, 3.7124159E+002, 3.7073411E+002, 3.2494092E+002, 3.6925056E+002
 1.4100331E+003, 2.7747933E+002, 3.7206573E+002, 3.8224621E+002, 3.6676060E+002, 3.6624334E+002, 3.2264663E+002, 3.6536419E+002
 1.4200188E+003, 2.7247688E+002, 3.6771558E+002, 3.7931979E+002, 3.6233591E+002, 3.6180929E+002, 3.2038478E+002, 3.6162132E+002
 1.4300159E+003, 2.6748005E+002, 3.6341567E+002, 3.7640614E+002, 3.5796375E+002, 3.5742809E+002, 3.1814817E+002, 3.5775078E+002
 1.4400037E+003, 2.6248487E+002, 3.5909697E+002, 3.7345344E+002, 3.5357129E+002, 3.5302678E+002, 3.1590051E+002, 3.5383954E+002
 1.4500043E+003, 2.5748622E+002, 3.5482017E+002, 3.7050781E+002, 3.4922695E+002, 3.4867386E+002, 3.1368162E+002, 3.5010170E+002
 1.4600378E+003, 2.5248037E+002, 3.5059926E+002, 3.6758278E+002, 3.4494372E+002, 3.4438232E+002, 3.1149716E+002, 3.4641094E+002
 1.4700357E+003, 2.4747247E+002, 3.4642318E+002, 3.6467025E+002, 3.4070758E+002, 3.4013804E+002, 3.0933755E+002, 3.4271602E+002
 1.4800359E+003, 2.4247334E+002, 3.4229827E+002, 3.6177546E+002, 3.3652528E+002, 3.3594778E+002, 3.0720663E+002, 3.3907091E+002
 1.4900234E+003, 2.3747186E+002, 3.3820017E+002, 3.5888088E+002, 3.3237005E+002, 3.3178470E+002, 3.0508684E+002, 3.3538630E+002
 1.5000156E+003, 2.3248008E+002, 3.3413963E+002, 3.5599544E+002, 3.2825508E+002, 3.2766201E+002, 3.0298981E+002, 3.3180364E+002
 1.5100123E+003, 2.2748175E+002, 3.3010554E+002, 3.5310969E+002, 3.2416765E+002, 3.2356707E+002, 3.0090587E+002, 3.2812941E+002
 1.5200363E+003, 2.2247962E+002, 3.2608057E+002, 3.5021179E+002, 3.2009045E+002, 3.1948247E+002, 2.9882773E+002, 3.2453760E+002
 1.5300292E+003, 2.1747197E+002, 3.2214502E+002, 3.4736619E+002, 3.1611045E+002, 3.1549521E+002, 2.9680990E+002, 3.2121316E+002
 1.5400288E+003, 2.1247377E+002, 3.1829760E+002, 3.4457368E+002, 3.1222093E+002, 3.1159850E+002, 2.9483715E+002, 3.1783034E+002
