s,C,C,C,C,C,C,C,C,C
Time,"Air Temp","IRSN_1","IRSN_2","TRAC_2","TRAC_3","TRAC_4","VTT_1","GRS_2","NRC_1"
 0.0000000E+000, 2.0000000E+001, 2.0000000E+001, 2.0000000E+001, 2.0000000E+001, 2.0000000E+001, 2.0000000E+001, 2.0000000E+001, 2.0000000E+001, 2.0000000E+001
 1.0200000E+001, 2.2365918E+001, 2.0000094E+001, 2.0000097E+001, 2.0000135E+001, 2.0000131E+001, 2.0000137E+001, 2.0000113E+001, 2.0000144E+001, 2.0000222E+001
 2.0200000E+001, 2.6956000E+001, 2.0002793E+001, 2.0002961E+001, 2.0003891E+001, 2.0003728E+001, 2.0003948E+001, 2.0003343E+001, 2.0003720E+001, 2.0005535E+001
 3.0117591E+001, 3.7646944E+001, 2.0015535E+001, 2.0016837E+001, 2.0021325E+001, 2.0020354E+001, 2.0021627E+001, 2.0018620E+001, 2.0018843E+001, 2.0027708E+001
 4.0016641E+001, 5.9666832E+001, 2.0054025E+001, 2.0059263E+001, 2.0074130E+001, 2.0070829E+001, 2.0075144E+001, 2.0065144E+001, 2.0063120E+001, 2.0093107E+001
 5.0024622E+001, 8.2177031E+001, 2.0164840E+001, 2.0182528E+001, 2.0226285E+001, 2.0216328E+001, 2.0229302E+001, 2.0199790E+001, 2.0187298E+001, 2.0277029E+001
 6.0044586E+001, 1.0481257E+002, 2.0407249E+001, 2.0456258E+001, 2.0557818E+001, 2.0533195E+001, 2.0565034E+001, 2.0495822E+001, 2.0444486E+001, 2.0658265E+001
 7.0025085E+001, 1.2741325E+002, 2.0828381E+001, 2.0937611E+001, 2.1130194E+001, 2.1079473E+001, 2.1144475E+001, 2.1011126E+001, 2.0872197E+001, 2.1286816E+001
 8.0013807E+001, 1.4998608E+002, 2.1464536E+001, 2.1670972E+001, 2.1989291E+001, 2.1898021E+001, 2.2014046E+001, 2.1789527E+001, 2.1496959E+001, 2.2196568E+001
 9.0036258E+001, 1.7261793E+002, 2.2353482E+001, 2.2703026E+001, 2.3185351E+001, 2.3036370E+001, 2.3224542E+001, 2.2878222E+001, 2.2347871E+001, 2.3429646E+001
 1.0002563E+002, 1.9523915E+002, 2.3529344E+001, 2.4077234E+001, 2.4764545E+001, 2.4538011E+001, 2.4822642E+001, 2.4320857E+001, 2.3452163E+001, 2.5021601E+001
 1.1004598E+002, 2.1586483E+002, 2.5020534E+001, 2.5828395E+001, 2.6761843E+001, 2.6434552E+001, 2.6843865E+001, 2.6150840E+001, 2.4834995E+001, 2.6996318E+001
 1.2004501E+002, 2.1851374E+002, 2.6846654E+001, 2.7983592E+001, 2.9203035E+001, 2.8750038E+001, 2.9314252E+001, 2.8393789E+001, 2.6504623E+001, 2.9364225E+001
 1.3000459E+002, 2.1687702E+002, 2.8901290E+001, 3.0436165E+001, 3.1945466E+001, 3.1348158E+001, 3.2088959E+001, 3.0928086E+001, 2.8315942E+001, 3.1916096E+001
 1.4004030E+002, 2.1523881E+002, 3.1026647E+001, 3.3013273E+001, 3.4784904E+001, 3.4035226E+001, 3.4961115E+001, 3.3569445E+001, 3.0114001E+001, 3.4432853E+001
 1.5000900E+002, 2.1359842E+002, 3.3130485E+001, 3.5609826E+001, 3.7615855E+001, 3.6714688E+001, 3.7823798E+001, 3.6216037E+001, 3.1836261E+001, 3.6844830E+001
 1.6001912E+002, 2.1196099E+002, 3.5167635E+001, 3.8173212E+001, 4.0390389E+001, 3.9343487E+001, 4.0628424E+001, 3.8819779E+001, 3.3459210E+001, 3.9130625E+001
 1.7000802E+002, 2.1087764E+002, 3.7116329E+001, 4.0672725E+001, 4.3080049E+001, 4.1893660E+001, 4.3346510E+001, 4.1351510E+001, 3.4981606E+001, 4.1279341E+001
 1.8004722E+002, 2.1837413E+002, 3.8976987E+001, 4.3103219E+001, 4.5687716E+001, 4.4368625E+001, 4.5981104E+001, 4.3810347E+001, 3.6419109E+001, 4.3318556E+001
 1.9003880E+002, 2.2879663E+002, 4.0808850E+001, 4.5523196E+001, 4.8292036E+001, 4.6843768E+001, 4.8612003E+001, 4.6263504E+001, 3.7851747E+001, 4.5363456E+001
 2.0001473E+002, 2.3918727E+002, 4.2701683E+001, 4.8026291E+001, 5.1004018E+001, 4.9424467E+001, 5.1351640E+001, 4.8811094E+001, 3.9370598E+001, 4.7542002E+001
 2.1000111E+002, 2.4956724E+002, 4.4725065E+001, 5.0691280E+001, 5.3906563E+001, 5.2188638E+001, 5.4283823E+001, 5.1532039E+001, 4.1027099E+001, 4.9922238E+001
 2.2001394E+002, 2.5997172E+002, 4.6918465E+001, 5.3564886E+001, 5.7045380E+001, 5.5178733E+001, 5.7454735E+001, 5.4471182E+001, 4.2845063E+001, 5.2533541E+001
 2.3003183E+002, 2.7039064E+002, 4.9306260E+001, 5.6676228E+001, 6.0448458E+001, 5.8421253E+001, 6.0892574E+001, 5.7656371E+001, 4.4839081E+001, 5.5394429E+001
 2.4000671E+002, 2.8079223E+002, 5.1897664E+001, 6.0035576E+001, 6.4123413E+001, 6.1923791E+001, 6.4604875E+001, 6.1096494E+001, 4.7010196E+001, 5.8506904E+001
 2.5003802E+002, 2.9120584E+002, 5.4707321E+001, 6.3662097E+001, 6.8087862E+001, 6.5703163E+001, 6.8609323E+001, 6.4809530E+001, 4.9366166E+001, 6.1879705E+001
 2.6001276E+002, 3.0160730E+002, 5.7742768E+001, 6.7565410E+001, 7.2351010E+001, 6.9768176E+001, 7.2915175E+001, 6.8804648E+001, 5.1912663E+001, 6.5518202E+001
 2.7002215E+002, 3.1200757E+002, 6.1002677E+001, 7.1745137E+001, 7.6910091E+001, 7.4115831E+001, 7.7519649E+001, 7.3080152E+001, 5.4646073E+001, 6.9414713E+001
 2.8001832E+002, 3.2241280E+002, 6.4500955E+001, 7.6217882E+001, 8.1782015E+001, 7.8763790E+001, 8.2439522E+001, 7.7653085E+001, 5.7577469E+001, 7.3586073E+001
 2.9003956E+002, 3.3282437E+002, 6.8245266E+001, 8.0994044E+001, 8.6978497E+001, 8.3723661E+001, 8.7686524E+001, 8.2534422E+001, 6.0714545E+001, 7.8042230E+001
 3.0001911E+002, 3.4323622E+002, 7.2239894E+001, 8.6079078E+001, 9.2505187E+001, 8.9001339E+001, 9.3266263E+001, 8.7729822E+001, 6.4062300E+001, 8.2787962E+001
 3.1000290E+002, 3.5361070E+002, 7.6488111E+001, 9.1475786E+001, 9.8363086E+001, 9.4599167E+001, 9.9179392E+001, 9.3241843E+001, 6.7622061E+001, 8.7823678E+001
 3.2002217E+002, 3.6402137E+002, 8.1014512E+001, 9.7211841E+001, 1.0457988E+002, 1.0054620E+002, 1.0545332E+002, 9.9098800E+001, 7.1415688E+001, 9.3177886E+001
 3.3001541E+002, 3.7443160E+002, 8.5816046E+001, 1.0328426E+002, 1.1115122E+002, 1.0683837E+002, 1.1208357E+002, 1.0529722E+002, 7.5438497E+001, 9.8842675E+001
 3.4002149E+002, 3.8483569E+002, 9.0894305E+001, 1.0969505E+002, 1.1807978E+002, 1.1347846E+002, 1.1907281E+002, 1.1183947E+002, 7.9694141E+001, 1.0482116E+002
 3.5001793E+002, 3.9029554E+002, 9.6260039E+001, 1.1645936E+002, 1.2538083E+002, 1.2048180E+002, 1.2643626E+002, 1.1874086E+002, 8.4191344E+001, 1.1112302E+002
 3.6000657E+002, 3.9088423E+002, 1.0183209E+002, 1.2348407E+002, 1.3293072E+002, 1.2773303E+002, 1.3404793E+002, 1.2589697E+002, 8.8826499E+001, 1.1759054E+002
 3.7000721E+002, 3.9147229E+002, 1.0745420E+002, 1.3059387E+002, 1.4051964E+002, 1.3503540E+002, 1.4169503E+002, 1.3312072E+002, 9.3433294E+001, 1.2399559E+002
 3.8001237E+002, 3.9206048E+002, 1.1301166E+002, 1.3765699E+002, 1.4800815E+002, 1.4225850E+002, 1.4923642E+002, 1.4028012E+002, 9.7922236E+001, 1.3022493E+002
 3.9002818E+002, 3.9264930E+002, 1.1845100E+002, 1.4461086E+002, 1.5534182E+002, 1.4935037E+002, 1.5661762E+002, 1.4731763E+002, 1.0226799E+002, 1.3625780E+002
 4.0000222E+002, 3.9323719E+002, 1.2374232E+002, 1.5141163E+002, 1.6248238E+002, 1.5627447E+002, 1.6380029E+002, 1.5419310E+002, 1.0646512E+002, 1.4208758E+002
 4.1002089E+002, 3.9382511E+002, 1.2889081E+002, 1.5805732E+002, 1.6943361E+002, 1.6303357E+002, 1.7078865E+002, 1.6090709E+002, 1.1052981E+002, 1.4773666E+002
 4.2003143E+002, 3.9441452E+002, 1.3391042E+002, 1.6456246E+002, 1.7621689E+002, 1.6964686E+002, 1.7760455E+002, 1.6747675E+002, 1.1447668E+002, 1.5323418E+002
 4.3002361E+002, 3.9500251E+002, 1.3879200E+002, 1.7090999E+002, 1.8281631E+002, 1.7609734E+002, 1.8423219E+002, 1.7388530E+002, 1.1830060E+002, 1.5857466E+002
 4.4002165E+002, 3.9559064E+002, 1.4353908E+002, 1.7709014E+002, 1.8921820E+002, 1.8237102E+002, 1.9065802E+002, 1.8012090E+002, 1.2201381E+002, 1.6375753E+002
 4.5001974E+002, 3.9617882E+002, 1.4817500E+002, 1.8313086E+002, 1.9546121E+002, 1.8850400E+002, 1.9692147E+002, 1.8621558E+002, 1.2563303E+002, 1.6882779E+002
 4.6002025E+002, 3.9676663E+002, 1.5270280E+002, 1.8903109E+002, 2.0154030E+002, 1.9448923E+002, 2.0301766E+002, 1.9216564E+002, 1.2915878E+002, 1.7377509E+002
 4.7002410E+002, 3.9735548E+002, 1.5711337E+002, 1.9476310E+002, 2.0741927E+002, 2.0029130E+002, 2.0891014E+002, 1.9793940E+002, 1.3259649E+002, 1.7857788E+002
 4.8002081E+002, 3.9794325E+002, 1.6142665E+002, 2.0035201E+002, 2.1313618E+002, 2.0594796E+002, 2.1463735E+002, 2.0356807E+002, 1.3595692E+002, 1.8328462E+002
 4.9002492E+002, 3.9853186E+002, 1.6565184E+002, 2.0580846E+002, 2.1870100E+002, 2.1146685E+002, 2.2020955E+002, 2.0906113E+002, 1.3924357E+002, 1.8789653E+002
 5.0000844E+002, 3.9911966E+002, 1.6979953E+002, 2.1114210E+002, 2.2412715E+002, 2.1686089E+002, 2.2564042E+002, 2.1442972E+002, 1.4246409E+002, 1.9243366E+002
 5.1001752E+002, 3.9970752E+002, 1.7387698E+002, 2.1635833E+002, 2.2941602E+002, 2.2213048E+002, 2.3093140E+002, 2.1967698E+002, 1.4562458E+002, 1.9688928E+002
 5.2001810E+002, 3.9916030E+002, 1.7787507E+002, 2.2143824E+002, 2.3454349E+002, 2.2725113E+002, 2.3605832E+002, 2.2478113E+002, 1.4872270E+002, 2.0124311E+002
 5.3003053E+002, 3.9749304E+002, 1.8177638E+002, 2.2636267E+002, 2.3948848E+002, 2.3220170E+002, 2.4100006E+002, 2.2972196E+002, 1.5173388E+002, 2.0546676E+002
 5.4000458E+002, 3.9582764E+002, 1.8554100E+002, 2.3108886E+002, 2.4420474E+002, 2.3693603E+002, 2.4571028E+002, 2.3445482E+002, 1.5461627E+002, 2.0950872E+002
 5.5002330E+002, 3.9416109E+002, 1.8917094E+002, 2.3562660E+002, 2.4870996E+002, 2.4147187E+002, 2.5020691E+002, 2.3899337E+002, 1.5736698E+002, 2.1338938E+002
 5.6000893E+002, 3.9249428E+002, 1.9265844E+002, 2.3996328E+002, 2.5298851E+002, 2.4579394E+002, 2.5447415E+002, 2.4332375E+002, 1.5998420E+002, 2.1709544E+002
 5.7002352E+002, 3.9082781E+002, 1.9598692E+002, 2.4407193E+002, 2.5700932E+002, 2.4986907E+002, 2.5848122E+002, 2.4741608E+002, 1.6246619E+002, 2.2059903E+002
 5.8002924E+002, 3.8915987E+002, 1.9915580E+002, 2.4794817E+002, 2.6077002E+002, 2.5369439E+002, 2.6222587E+002, 2.5126663E+002, 1.6481684E+002, 2.2390571E+002
 5.9000873E+002, 3.8749371E+002, 2.0217490E+002, 2.5160528E+002, 2.6429583E+002, 2.5729452E+002, 2.6573379E+002, 2.5489417E+002, 1.6704480E+002, 2.2705195E+002
 6.0000937E+002, 3.8582855E+002, 2.0507475E+002, 2.5508678E+002, 2.6763688E+002, 2.6071808E+002, 2.6905548E+002, 2.5834511E+002, 1.6916697E+002, 2.3007490E+002
 6.1001774E+002, 3.8416184E+002, 2.0784811E+002, 2.5837902E+002, 2.7077042E+002, 2.6394083E+002, 2.7216814E+002, 2.6160069E+002, 1.7118030E+002, 2.3294501E+002
 6.2002693E+002, 3.8249274E+002, 2.1050938E+002, 2.6149827E+002, 2.7372070E+002, 2.6698609E+002, 2.7509654E+002, 2.6468056E+002, 1.7310237E+002, 2.3569595E+002
 6.3003088E+002, 3.8082601E+002, 2.1306258E+002, 2.6444891E+002, 2.7649060E+002, 2.6985578E+002, 2.7784353E+002, 2.6758802E+002, 1.7493414E+002, 2.3832296E+002
 6.4003267E+002, 3.7915880E+002, 2.1551083E+002, 2.6723341E+002, 2.7908283E+002, 2.7255241E+002, 2.8041191E+002, 2.7032556E+002, 1.7667941E+002, 2.4082950E+002
 6.5001409E+002, 3.7749298E+002, 2.1785792E+002, 2.6985525E+002, 2.8150179E+002, 2.7507885E+002, 2.8280640E+002, 2.7289642E+002, 1.7834445E+002, 2.4321783E+002
 6.6000585E+002, 3.7582877E+002, 2.2010078E+002, 2.7230842E+002, 2.8373784E+002, 2.7742567E+002, 2.8501722E+002, 2.7529289E+002, 1.7992701E+002, 2.4547542E+002
 6.7002459E+002, 3.7416075E+002, 2.2225163E+002, 2.7461250E+002, 2.8581752E+002, 2.7961900E+002, 2.8707115E+002, 2.7753763E+002, 1.8143352E+002, 2.4762857E+002
 6.8002219E+002, 3.7249359E+002, 2.2431703E+002, 2.7678122E+002, 2.8775848E+002, 2.8167543E+002, 2.8898606E+002, 2.7964599E+002, 1.8286824E+002, 2.4968858E+002
 6.9002991E+002, 3.7082619E+002, 2.2630581E+002, 2.7882545E+002, 2.8957273E+002, 2.8360669E+002, 2.9077399E+002, 2.8162930E+002, 1.8423963E+002, 2.5166663E+002
 7.0003859E+002, 3.6915866E+002, 2.2821654E+002, 2.8073986E+002, 2.9124870E+002, 2.8540129E+002, 2.9242327E+002, 2.8347927E+002, 1.8554673E+002, 2.5354414E+002
 7.1002513E+002, 3.6749133E+002, 2.3003476E+002, 2.8250750E+002, 2.9276906E+002, 2.8704087E+002, 2.9391676E+002, 2.8517810E+002, 1.8678101E+002, 2.5530503E+002
 7.2002673E+002, 3.6582656E+002, 2.3177902E+002, 2.8415448E+002, 2.9416723E+002, 2.8855862E+002, 2.9528804E+002, 2.8675543E+002, 1.8795831E+002, 2.5698351E+002
 7.3000883E+002, 3.6416060E+002, 2.3345033E+002, 2.8568413E+002, 2.9544622E+002, 2.8995707E+002, 2.9654016E+002, 2.8821422E+002, 1.8907906E+002, 2.5857901E+002
 7.4003228E+002, 3.6249343E+002, 2.3507766E+002, 2.8713602E+002, 2.9665459E+002, 2.9128578E+002, 2.9772185E+002, 2.8959899E+002, 1.9016383E+002, 2.6014080E+002
 7.5003210E+002, 3.6082485E+002, 2.3664061E+002, 2.8848396E+002, 2.9775224E+002, 2.9250343E+002, 2.9879281E+002, 2.9087638E+002, 1.9119416E+002, 2.6161022E+002
 7.6003200E+002, 3.5789731E+002, 2.3813527E+002, 2.8972541E+002, 2.9874152E+002, 2.9361220E+002, 2.9975545E+002, 2.9204599E+002, 1.9217120E+002, 2.6299712E+002
 7.7000151E+002, 3.5373327E+002, 2.3954237E+002, 2.9083850E+002, 2.9959266E+002, 2.9458271E+002, 3.0057969E+002, 2.9308231E+002, 1.9307367E+002, 2.6425870E+002
 7.8002304E+002, 3.4957094E+002, 2.4083277E+002, 2.9179372E+002, 3.0027308E+002, 2.9538447E+002, 3.0123274E+002, 2.9395483E+002, 1.9387041E+002, 2.6536228E+002
 7.9003468E+002, 3.4539740E+002, 2.4199494E+002, 2.9258080E+002, 3.0077276E+002, 2.9600850E+002, 3.0170419E+002, 2.9465408E+002, 1.9455239E+002, 2.6629848E+002
 8.0002929E+002, 3.4122862E+002, 2.4301180E+002, 2.9318116E+002, 3.0107472E+002, 2.9643689E+002, 3.0197741E+002, 2.9516171E+002, 1.9511077E+002, 2.6705508E+002
 8.1001902E+002, 3.3706640E+002, 2.4388403E+002, 2.9359740E+002, 3.0118458E+002, 2.9667484E+002, 3.0205813E+002, 2.9548171E+002, 1.9554895E+002, 2.6764043E+002
 8.2001963E+002, 3.3290054E+002, 2.4461875E+002, 2.9383634E+002, 3.0111105E+002, 2.9673193E+002, 3.0195491E+002, 2.9562230E+002, 1.9587599E+002, 2.6806795E+002
 8.3001975E+002, 3.2873440E+002, 2.4523373E+002, 2.9392071E+002, 3.0088359E+002, 2.9663621E+002, 3.0169766E+002, 2.9560896E+002, 1.9610954E+002, 2.6837241E+002
 8.4002373E+002, 3.2456568E+002, 2.4575249E+002, 2.9388107E+002, 3.0053817E+002, 2.9642228E+002, 3.0132276E+002, 2.9547433E+002, 1.9626896E+002, 2.6858798E+002
 8.5002869E+002, 3.2039795E+002, 2.4618107E+002, 2.9372283E+002, 3.0007536E+002, 2.9609123E+002, 3.0083045E+002, 2.9522191E+002, 1.9635644E+002, 2.6870676E+002
 8.6003159E+002, 3.1622753E+002, 2.4651732E+002, 2.9344329E+002, 2.9949198E+002, 2.9563965E+002, 3.0021767E+002, 2.9484825E+002, 1.9637064E+002, 2.6872569E+002
 8.7000710E+002, 3.1207299E+002, 2.4677209E+002, 2.9305568E+002, 2.9880455E+002, 2.9508435E+002, 2.9950101E+002, 2.9436831E+002, 1.9632392E+002, 2.6866146E+002
 8.8001073E+002, 3.3177132E+002, 2.4695071E+002, 2.9256327E+002, 2.9801470E+002, 2.9442570E+002, 2.9868223E+002, 2.9378435E+002, 1.9622572E+002, 2.6851688E+002
 8.9000721E+002, 3.7510997E+002, 2.4730932E+002, 2.9223071E+002, 2.9746768E+002, 2.9399706E+002, 2.9811102E+002, 2.9339531E+002, 1.9642324E+002, 2.6879113E+002
 9.0001967E+002, 4.1845678E+002, 2.4852119E+002, 2.9278701E+002, 2.9803465E+002, 2.9463697E+002, 2.9866808E+002, 2.9398719E+002, 1.9765151E+002, 2.7049286E+002
 9.1001277E+002, 4.6181775E+002, 2.5113250E+002, 2.9482892E+002, 3.0035321E+002, 2.9695451E+002, 3.0099653E+002, 2.9616628E+002, 2.0039888E+002, 2.7419631E+002
 9.2001749E+002, 5.0513749E+002, 2.5552524E+002, 2.9877500E+002, 3.0484468E+002, 3.0135703E+002, 3.0551977E+002, 3.0034698E+002, 2.0498193E+002, 2.8023934E+002
 9.3001728E+002, 5.4847778E+002, 2.6201142E+002, 3.0496919E+002, 3.1185455E+002, 3.0818692E+002, 3.1258368E+002, 3.0687250E+002, 2.1167033E+002, 2.8890713E+002
 9.4000691E+002, 5.9179408E+002, 2.7083223E+002, 3.1367218E+002, 3.2163329E+002, 3.1770076E+002, 3.2243715E+002, 3.1600113E+002, 2.2069144E+002, 3.0039664E+002
 9.5001534E+002, 6.3510067E+002, 2.8221288E+002, 3.2511848E+002, 3.3440878E+002, 3.3014355E+002, 3.3530478E+002, 3.2797162E+002, 2.3228225E+002, 3.1491416E+002
 9.6000979E+002, 6.7843857E+002, 2.9632961E+002, 3.3948477E+002, 3.5034419E+002, 3.4570492E+002, 3.5134454E+002, 3.4296583E+002, 2.4665083E+002, 3.3260734E+002
 9.7001484E+002, 6.7954159E+002, 3.1322129E+002, 3.5681162E+002, 3.6942837E+002, 3.6440703E+002, 3.7053808E+002, 3.6101432E+002, 2.6382407E+002, 3.5336028E+002
 9.8002228E+002, 6.3880701E+002, 3.3122162E+002, 3.7540245E+002, 3.8943839E+002, 3.8409158E+002, 3.9063641E+002, 3.8019106E+002, 2.8153402E+002, 3.7392102E+002
 9.9000835E+002, 5.9808299E+002, 3.4693879E+002, 3.9177029E+002, 4.0632835E+002, 4.0079254E+002, 4.0756599E+002, 3.9675721E+002, 2.9597845E+002, 3.8959905E+002
 1.0000189E+003, 5.5739719E+002, 3.5884021E+002, 4.0434227E+002, 4.1867095E+002, 4.1309718E+002, 4.1990350E+002, 4.0920888E+002, 3.0604937E+002, 3.9959744E+002
 1.0100259E+003, 5.1663165E+002, 3.6678348E+002, 4.1294566E+002, 4.2656658E+002, 4.2108144E+002, 4.2776196E+002, 4.1749779E+002, 3.1206419E+002, 4.0467016E+002
 1.0200094E+003, 4.7594061E+002, 3.7124334E+002, 4.1803981E+002, 4.3071203E+002, 4.2541407E+002, 4.3184925E+002, 4.2219253E+002, 3.1476867E+002, 4.0596909E+002
 1.0300262E+003, 4.3523170E+002, 3.7283831E+002, 4.2020826E+002, 4.3181622E+002, 4.2677810E+002, 4.3288146E+002, 4.2393210E+002, 3.1489234E+002, 4.0443840E+002
 1.0400219E+003, 4.1052879E+002, 3.7213833E+002, 4.1997174E+002, 4.3046777E+002, 4.2574009E+002, 4.3145213E+002, 4.2326439E+002, 3.1304742E+002, 4.0080490E+002
 1.0500115E+003, 4.0167581E+002, 3.6989570E+002, 4.1805811E+002, 4.2751305E+002, 4.2312369E+002, 4.2841465E+002, 4.2096725E+002, 3.1006007E+002, 3.9612966E+002
 1.0600072E+003, 3.9281644E+002, 3.6697460E+002, 4.1533515E+002, 4.2391084E+002, 4.1985990E+002, 4.2473463E+002, 4.1794371E+002, 3.0678450E+002, 3.9144361E+002
 1.0700157E+003, 3.8395301E+002, 3.6386636E+002, 4.1229426E+002, 4.2012915E+002, 4.1639972E+002, 4.2088180E+002, 4.1466773E+002, 3.0357879E+002, 3.8708416E+002
 1.0800189E+003, 3.7508598E+002, 3.6075052E+002, 4.0910270E+002, 4.1627697E+002, 4.1284592E+002, 4.1696429E+002, 4.1127470E+002, 3.0050546E+002, 3.8302368E+002
 1.0900105E+003, 3.6622067E+002, 3.5769553E+002, 4.0582265E+002, 4.1238298E+002, 4.0922772E+002, 4.1300976E+002, 4.0780918E+002, 2.9756598E+002, 3.7921601E+002
 1.1000199E+003, 3.5735508E+002, 3.5473528E+002, 4.0249328E+002, 4.0847165E+002, 4.0557272E+002, 4.0904184E+002, 4.0430317E+002, 2.9475160E+002, 3.7563525E+002
 1.1100146E+003, 3.4849010E+002, 3.5185585E+002, 3.9910404E+002, 4.0451217E+002, 4.0185128E+002, 4.0502896E+002, 4.0073603E+002, 2.9202023E+002, 3.7219254E+002
 1.1200115E+003, 3.3963044E+002, 3.4904770E+002, 3.9565363E+002, 4.0050140E+002, 3.9806362E+002, 4.0096744E+002, 3.9710618E+002, 2.8935348E+002, 3.6886089E+002
 1.1300202E+003, 3.3076779E+002, 3.4628109E+002, 3.9211864E+002, 3.9640758E+002, 3.9418108E+002, 3.9682477E+002, 3.9338722E+002, 2.8671708E+002, 3.6557491E+002
 1.1400314E+003, 3.2189244E+002, 3.4353542E+002, 3.8848485E+002, 3.9221611E+002, 3.9019124E+002, 3.9258605E+002, 3.8956535E+002, 2.8409425E+002, 3.6230479E+002
 1.1500272E+003, 3.1302528E+002, 3.4081537E+002, 3.8477395E+002, 3.8795799E+002, 3.8612802E+002, 3.8828212E+002, 3.8566790E+002, 2.8149032E+002, 3.5906969E+002
 1.1600351E+003, 3.0415748E+002, 3.3812481E+002, 3.8100390E+002, 3.8365333E+002, 3.8201226E+002, 3.8393302E+002, 3.8171441E+002, 2.7890706E+002, 3.5586751E+002
 1.1700353E+003, 2.9529381E+002, 3.3543451E+002, 3.7714464E+002, 3.7926083E+002, 3.7780036E+002, 3.7949747E+002, 3.7766841E+002, 2.7632172E+002, 3.5263521E+002
 1.1800092E+003, 2.8643962E+002, 3.3274155E+002, 3.7320752E+002, 3.7479950E+002, 3.7351392E+002, 3.7499433E+002, 3.7354591E+002, 2.7373422E+002, 3.4938686E+002
 1.1900205E+003, 2.7758126E+002, 3.3005024E+002, 3.6920872E+002, 3.7029159E+002, 3.6917707E+002, 3.7044568E+002, 3.6936698E+002, 2.7115050E+002, 3.4614082E+002
 1.2000042E+003, 2.6871772E+002, 3.2736130E+002, 3.6515966E+002, 3.6574724E+002, 3.6480047E+002, 3.6586153E+002, 3.6514285E+002, 2.6856971E+002, 3.4288858E+002
 1.2100062E+003, 2.5986202E+002, 3.2466113E+002, 3.6104687E+002, 3.6114647E+002, 3.6036181E+002, 3.6122209E+002, 3.6085592E+002, 2.6598755E+002, 3.3960096E+002
 1.2200226E+003, 2.5099210E+002, 3.2194686E+002, 3.5686918E+002, 3.5649077E+002, 3.5586262E+002, 3.5652893E+002, 3.5650622E+002, 2.6340692E+002, 3.3628505E+002
 1.2300446E+003, 2.4210854E+002, 3.1923512E+002, 3.5266068E+002, 3.5182334E+002, 3.5134954E+002, 3.5182495E+002, 3.5213381E+002, 2.6083975E+002, 3.3297746E+002
