s,C,C,C,C,C,C,C,C,C
Time,Air Temp,IRSN_1,IRSN_2,TRAC_2,TRAC_3,TRAC_4,VTT_1,GRS_2,NRC_1
 0.0000000E+000, 2.0000000E+001, 2.0000000E+001, 2.0000000E+001, 2.0000000E+001, 2.0000000E+001, 2.0000000E+001, 2.0000000E+001, 2.0000000E+001, 2.0000000E+001
 1.0200000E+001, 2.2365918E+001, 2.0000094E+001, 2.0000097E+001, 2.0000135E+001, 2.0000131E+001, 2.0000137E+001, 2.0000113E+001, 2.0000144E+001, 2.0000221E+001
 2.0200000E+001, 2.6956000E+001, 2.0002787E+001, 2.0002954E+001, 2.0003882E+001, 2.0003719E+001, 2.0003939E+001, 2.0003335E+001, 2.0003713E+001, 2.0005521E+001
 3.0039235E+001, 3.7535404E+001, 2.0015386E+001, 2.0016670E+001, 2.0021117E+001, 2.0020156E+001, 2.0021415E+001, 2.0018437E+001, 2.0018670E+001, 2.0027459E+001
 4.0026226E+001, 5.9589549E+001, 2.0054055E+001, 2.0059339E+001, 2.0074185E+001, 2.0070885E+001, 2.0075194E+001, 2.0065204E+001, 2.0063066E+001, 2.0093357E+001
 5.0045186E+001, 8.2200307E+001, 2.0166886E+001, 2.0185166E+001, 2.0229382E+001, 2.0219438E+001, 2.0232398E+001, 2.0202629E+001, 2.0188770E+001, 2.0280854E+001
 6.0029448E+001, 1.0482016E+002, 2.0408401E+001, 2.0458096E+001, 2.0559300E+001, 2.0534752E+001, 2.0566472E+001, 2.0497465E+001, 2.0443967E+001, 2.0659050E+001
 7.0058420E+001, 1.2743736E+002, 2.0827625E+001, 2.0937323E+001, 2.1129002E+001, 2.1078651E+001, 2.1143180E+001, 2.1010453E+001, 2.0868375E+001, 2.1284958E+001
 8.0001262E+001, 1.5001272E+002, 2.1465773E+001, 2.1673079E+001, 2.1991576E+001, 2.1901037E+001, 2.2016222E+001, 2.1791884E+001, 2.1493988E+001, 2.2199872E+001
 9.0032915E+001, 1.7259705E+002, 2.2355654E+001, 2.2706470E+001, 2.3189499E+001, 2.3041532E+001, 2.3228573E+001, 2.2882303E+001, 2.2344159E+001, 2.3434675E+001
 1.0001868E+002, 1.9523355E+002, 2.3535729E+001, 2.4086864E+001, 2.4776713E+001, 2.4551486E+001, 2.4834699E+001, 2.4332227E+001, 2.3450685E+001, 2.5035483E+001
 1.1000623E+002, 2.1585336E+002, 2.5033689E+001, 2.5848866E+001, 2.6788359E+001, 2.6463384E+001, 2.6870205E+001, 2.6175267E+001, 2.4835244E+001, 2.7027378E+001
 1.2003882E+002, 2.1851740E+002, 2.6875777E+001, 2.8028402E+001, 2.9258809E+001, 2.8809251E+001, 2.9369808E+001, 2.8445584E+001, 2.6510406E+001, 2.9422932E+001
 1.3000978E+002, 2.1687739E+002, 2.8940551E+001, 3.0497875E+001, 3.2018448E+001, 3.1424776E+001, 3.2161688E+001, 3.0997177E+001, 2.8322075E+001, 3.1983680E+001
 1.4000730E+002, 2.1524133E+002, 3.1064094E+001, 3.3076453E+001, 3.4858355E+001, 3.4113014E+001, 3.5034162E+001, 3.3639872E+001, 3.0114018E+001, 3.4496643E+001
 1.5000605E+002, 2.1360224E+002, 3.3162569E+001, 3.5668613E+001, 3.7682026E+001, 3.6785108E+001, 3.7889456E+001, 3.6280704E+001, 3.1829780E+001, 3.6895205E+001
 1.6003514E+002, 2.1195960E+002, 3.5193028E+001, 3.8223729E+001, 4.0444686E+001, 3.9400952E+001, 4.0682253E+001, 3.8873935E+001, 3.3448626E+001, 3.9164075E+001
 1.7000627E+002, 2.1087582E+002, 3.7131365E+001, 4.0709224E+001, 4.3118330E+001, 4.1934770E+001, 4.3384311E+001, 4.1390446E+001, 3.4965603E+001, 4.1298595E+001
 1.8001437E+002, 2.1835249E+002, 3.8986163E+001, 4.3130722E+001, 4.5717619E+001, 4.4402230E+001, 4.6010404E+001, 4.3840937E+001, 3.6400948E+001, 4.3336038E+001
 1.9000726E+002, 2.2876074E+002, 4.0816528E+001, 4.5547501E+001, 4.8318880E+001, 4.6875406E+001, 4.8638063E+001, 4.6291464E+001, 3.7831734E+001, 4.5381521E+001
 2.0001014E+002, 2.3916424E+002, 4.2708344E+001, 4.8049873E+001, 5.1029270E+001, 4.9454904E+001, 5.1376016E+001, 4.8838100E+001, 3.9347562E+001, 4.7556872E+001
 2.1000546E+002, 2.4956826E+002, 4.4731626E+001, 5.0715947E+001, 5.3933061E+001, 5.2220919E+001, 5.4309347E+001, 5.1560476E+001, 4.1002576E+001, 4.9938456E+001
 2.2000171E+002, 2.5996874E+002, 4.6918524E+001, 5.3582866E+001, 5.7063744E+001, 5.5203728E+001, 5.7471919E+001, 5.4492654E+001, 4.2811338E+001, 5.2540489E+001
 2.3003888E+002, 2.7039224E+002, 4.9290441E+001, 5.6675949E+001, 6.0443772E+001, 5.8423971E+001, 6.0886401E+001, 5.7657628E+001, 4.4785264E+001, 5.5375107E+001
 2.4004049E+002, 2.8081238E+002, 5.1864272E+001, 6.0015067E+001, 6.4094218E+001, 6.1902199E+001, 6.4574010E+001, 6.1075495E+001, 4.6937841E+001, 5.8461451E+001
 2.5001285E+002, 2.9120614E+002, 5.4651644E+001, 6.3613772E+001, 6.8028683E+001, 6.5652136E+001, 6.8548321E+001, 6.4759818E+001, 4.9276989E+001, 6.1809834E+001
 2.6001779E+002, 3.0159679E+002, 5.7667019E+001, 6.7491885E+001, 7.2264695E+001, 6.9689616E+001, 7.2827046E+001, 6.8728582E+001, 5.1809715E+001, 6.5423926E+001
 2.7003448E+002, 3.1201504E+002, 6.0913115E+001, 7.1653582E+001, 7.6803059E+001, 7.4016221E+001, 7.7410773E+001, 7.2984523E+001, 5.4532341E+001, 6.9301899E+001
 2.8000868E+002, 3.2240859E+002, 6.4395631E+001, 7.6104951E+001, 8.1652633E+001, 7.8643092E+001, 8.2308018E+001, 7.7536064E+001, 5.7452223E+001, 7.3460013E+001
 2.9003291E+002, 3.3281892E+002, 6.8134162E+001, 8.0870322E+001, 8.6838775E+001, 8.3595165E+001, 8.7544209E+001, 8.2407932E+001, 6.0586502E+001, 7.7919034E+001
 3.0002688E+002, 3.4323321E+002, 7.2132203E+001, 8.5954733E+001, 9.2363725E+001, 8.8873652E+001, 9.3121649E+001, 8.7603390E+001, 6.3935489E+001, 8.2670774E+001
 3.1003293E+002, 3.5363353E+002, 7.6387977E+001, 9.1354056E+001, 9.8222956E+001, 9.4475517E+001, 9.9035586E+001, 9.3118632E+001, 6.7501748E+001, 8.7718115E+001
 3.2001477E+002, 3.6403335E+002, 8.0915415E+001, 9.7082520E+001, 1.0443007E+002, 1.0041720E+002, 1.0529905E+002, 9.8968943E+001, 7.1295745E+001, 9.3076287E+001
 3.3003599E+002, 3.7444036E+002, 8.5717286E+001, 1.0314889E+002, 1.1099381E+002, 1.0670418E+002, 1.1192129E+002, 1.0516169E+002, 7.5318063E+001, 9.8740696E+001
 3.4001309E+002, 3.8484221E+002, 9.0792171E+001, 1.0954897E+002, 1.1790794E+002, 1.1333236E+002, 1.1889563E+002, 1.1169255E+002, 7.9570038E+001, 1.0471071E+002
 3.5002708E+002, 3.9029568E+002, 9.6149207E+001, 1.1629318E+002, 1.2518386E+002, 1.2031472E+002, 1.2623325E+002, 1.1857317E+002, 8.4060610E+001, 1.1099944E+002
 3.6002756E+002, 3.9088512E+002, 1.0172533E+002, 1.2331132E+002, 1.3272335E+002, 1.2755952E+002, 1.3383397E+002, 1.2572254E+002, 8.8700307E+001, 1.1746941E+002
 3.7002616E+002, 3.9147312E+002, 1.0734330E+002, 1.3040270E+002, 1.4028793E+002, 1.3484278E+002, 1.4145584E+002, 1.3292724E+002, 9.3306939E+001, 1.2386487E+002
 3.8001221E+002, 3.9206099E+002, 1.1289163E+002, 1.3744564E+002, 1.4775504E+002, 1.4204744E+002, 1.4897542E+002, 1.4006713E+002, 9.7792535E+001, 1.3008555E+002
 3.9002770E+002, 3.9264920E+002, 1.1832916E+002, 1.4439227E+002, 1.5508341E+002, 1.4913409E+002, 1.5635147E+002, 1.4709842E+002, 1.0214034E+002, 1.3611986E+002
 4.0001195E+002, 3.9323771E+002, 1.2362352E+002, 1.5119373E+002, 1.6222561E+002, 1.5605872E+002, 1.6353605E+002, 1.5397456E+002, 1.0634006E+002, 1.4195089E+002
 4.1001451E+002, 3.9382515E+002, 1.2876948E+002, 1.5783665E+002, 1.6917492E+002, 1.6281475E+002, 1.7052267E+002, 1.6068574E+002, 1.1040195E+002, 1.4759598E+002
 4.2001471E+002, 3.9441384E+002, 1.3377533E+002, 1.6432496E+002, 1.7593936E+002, 1.6940798E+002, 1.7731985E+002, 1.6723708E+002, 1.1433664E+002, 1.5307131E+002
 4.3001064E+002, 3.9500173E+002, 1.3863326E+002, 1.7063826E+002, 1.8249621E+002, 1.7581528E+002, 1.8390489E+002, 1.7360699E+002, 1.1814463E+002, 1.5836816E+002
 4.4000475E+002, 3.9558949E+002, 1.4335441E+002, 1.7678009E+002, 1.8885327E+002, 1.8204492E+002, 1.9028562E+002, 1.7980134E+002, 1.2184157E+002, 1.6351314E+002
 4.5001521E+002, 3.9617814E+002, 1.4795732E+002, 1.8276348E+002, 1.9502463E+002, 1.8810921E+002, 1.9647662E+002, 1.8583297E+002, 1.2544824E+002, 1.6852550E+002
 4.6001081E+002, 3.9676637E+002, 1.5245114E+002, 1.8860020E+002, 2.0102951E+002, 1.9402413E+002, 2.0249781E+002, 1.9171574E+002, 1.2896692E+002, 1.7342616E+002
 4.7001051E+002, 3.9735484E+002, 1.5685129E+002, 1.9431125E+002, 2.0689358E+002, 1.9981308E+002, 2.0837526E+002, 1.9747213E+002, 1.3240385E+002, 1.7823650E+002
 4.8002704E+002, 3.9794312E+002, 1.6117343E+002, 1.9990768E+002, 2.1262407E+002, 2.0548283E+002, 2.1411633E+002, 2.0311115E+002, 1.3577566E+002, 1.8296539E+002
 4.9001813E+002, 3.9853182E+002, 1.6540648E+002, 2.0536738E+002, 2.1819382E+002, 2.1100708E+002, 2.1969351E+002, 2.0860851E+002, 1.3907200E+002, 1.8759052E+002
 5.0003018E+002, 3.9912011E+002, 1.6955550E+002, 2.1069180E+002, 2.2360584E+002, 2.1638825E+002, 2.2510998E+002, 2.1396613E+002, 1.4229933E+002, 1.9212071E+002
 5.1000862E+002, 3.9970764E+002, 1.7362297E+002, 2.1588281E+002, 2.2886393E+002, 2.2162860E+002, 2.3036983E+002, 2.1918613E+002, 1.4545781E+002, 1.9655826E+002
 5.2002854E+002, 3.9916073E+002, 1.7761704E+002, 2.2095343E+002, 2.3398432E+002, 2.2674275E+002, 2.3548965E+002, 2.2428231E+002, 1.4854891E+002, 2.0091224E+002
 5.3002320E+002, 3.9749282E+002, 1.8151354E+002, 2.2587294E+002, 2.3892634E+002, 2.3168920E+002, 2.4042859E+002, 2.2921870E+002, 1.5155118E+002, 2.0513160E+002
 5.4000542E+002, 3.9582840E+002, 1.8527144E+002, 2.3059184E+002, 2.4363613E+002, 2.3641500E+002, 2.4513269E+002, 2.3394385E+002, 1.5442756E+002, 2.0916398E+002
 5.5000814E+002, 3.9416259E+002, 1.8887699E+002, 2.3509133E+002, 2.4809285E+002, 2.4090067E+002, 2.4958086E+002, 2.3843845E+002, 1.5716929E+002, 2.1299545E+002
 5.6002801E+002, 3.9249394E+002, 1.9232469E+002, 2.3936497E+002, 2.5229379E+002, 2.4514371E+002, 2.5377039E+002, 2.4269787E+002, 1.5977106E+002, 2.1663008E+002
 5.7002683E+002, 3.9082593E+002, 1.9562200E+002, 2.4342744E+002, 2.5626483E+002, 2.4916913E+002, 2.5772763E+002, 2.4674196E+002, 1.6223772E+002, 2.2009793E+002
 5.8000534E+002, 3.8916138E+002, 1.9876844E+002, 2.4727458E+002, 2.6000146E+002, 2.5296990E+002, 2.6144850E+002, 2.5056547E+002, 1.6457370E+002, 2.2339369E+002
 5.9003150E+002, 3.8749434E+002, 2.0178618E+002, 2.5093000E+002, 2.6352977E+002, 2.5657162E+002, 2.6495919E+002, 2.5419308E+002, 1.6679941E+002, 2.2654652E+002
 6.0001883E+002, 3.8582612E+002, 2.0466630E+002, 2.5437566E+002, 2.6682445E+002, 2.5994726E+002, 2.6823468E+002, 2.5760241E+002, 1.6891589E+002, 2.2952700E+002
 6.1000686E+002, 3.8416189E+002, 2.0741571E+002, 2.5762426E+002, 2.6991042E+002, 2.6311980E+002, 2.7130042E+002, 2.6081103E+002, 1.7092845E+002, 2.3236625E+002
 6.2003795E+002, 3.8249309E+002, 2.1005897E+002, 2.6070906E+002, 2.7282278E+002, 2.6612436E+002, 2.7419136E+002, 2.6385341E+002, 1.7284866E+002, 2.3509067E+002
 6.3000051E+002, 3.8082674E+002, 2.1259450E+002, 2.6362912E+002, 2.7556104E+002, 2.6896016E+002, 2.7690716E+002, 2.6672877E+002, 1.7467448E+002, 2.3769566E+002
 6.4002441E+002, 3.7916215E+002, 2.1501118E+002, 2.6636160E+002, 2.7809207E+002, 2.7159300E+002, 2.7941442E+002, 2.6940842E+002, 1.7640647E+002, 2.4014799E+002
 6.5001372E+002, 3.7749418E+002, 2.1733472E+002, 2.6894088E+002, 2.8046459E+002, 2.7407177E+002, 2.8176228E+002, 2.7193369E+002, 1.7806525E+002, 2.4250714E+002
 6.6001155E+002, 3.7582851E+002, 2.1956301E+002, 2.7136806E+002, 2.8267527E+002, 2.7639130E+002, 2.8394764E+002, 2.7430357E+002, 1.7964257E+002, 2.4474997E+002
 6.7002684E+002, 3.7415995E+002, 2.2169560E+002, 2.7364090E+002, 2.8472202E+002, 2.7854979E+002, 2.8596860E+002, 2.7651541E+002, 1.8114156E+002, 2.4688094E+002
 6.8003003E+002, 3.7249281E+002, 2.2375253E+002, 2.7578739E+002, 2.8663947E+002, 2.8058150E+002, 2.8786002E+002, 2.7860037E+002, 1.8257877E+002, 2.4893187E+002
 6.9000960E+002, 3.7082679E+002, 2.2572249E+002, 2.7778898E+002, 2.8840320E+002, 2.8246134E+002, 2.8959741E+002, 2.8053664E+002, 1.8394950E+002, 2.5087534E+002
 7.0002814E+002, 3.6916031E+002, 2.2761809E+002, 2.7966739E+002, 2.9004130E+002, 2.8421651E+002, 2.9120913E+002, 2.8234866E+002, 1.8525949E+002, 2.5273504E+002
 7.1001668E+002, 3.6749367E+002, 2.2945790E+002, 2.8145532E+002, 2.9159508E+002, 2.8588758E+002, 2.9273678E+002, 2.8407313E+002, 1.8651850E+002, 2.5454592E+002
 7.2003397E+002, 3.6582544E+002, 2.3122421E+002, 2.8313196E+002, 2.9303158E+002, 2.8744143E+002, 2.9414699E+002, 2.8568351E+002, 1.8770728E+002, 2.5625679E+002
 7.3002206E+002, 3.6415884E+002, 2.3288858E+002, 2.8465097E+002, 2.9429261E+002, 2.8881945E+002, 2.9538137E+002, 2.8712727E+002, 1.8881863E+002, 2.5782005E+002
 7.4002098E+002, 3.6249311E+002, 2.3448462E+002, 2.8605763E+002, 2.9544696E+002, 2.9009124E+002, 2.9650938E+002, 2.8846108E+002, 1.8988515E+002, 2.5932805E+002
 7.5001135E+002, 3.6082663E+002, 2.3603840E+002, 2.8739330E+002, 2.9653749E+002, 2.9129874E+002, 2.9757385E+002, 2.8972724E+002, 1.9091629E+002, 2.6079750E+002
 7.6000031E+002, 3.5790697E+002, 2.3751735E+002, 2.8861066E+002, 2.9749900E+002, 2.9237706E+002, 2.9850909E+002, 2.9086972E+002, 1.9188699E+002, 2.6215543E+002
 7.7000475E+002, 3.5374214E+002, 2.3889205E+002, 2.8967309E+002, 2.9828937E+002, 2.9328471E+002, 2.9927271E+002, 2.9184923E+002, 1.9277157E+002, 2.6335995E+002
 7.8002213E+002, 3.4957077E+002, 2.4016398E+002, 2.9060088E+002, 2.9894395E+002, 2.9405840E+002, 2.9990027E+002, 2.9269384E+002, 1.9355856E+002, 2.6444689E+002
 7.9002098E+002, 3.4539881E+002, 2.4131156E+002, 2.9137207E+002, 2.9943247E+002, 2.9466823E+002, 3.0036117E+002, 2.9337801E+002, 1.9422990E+002, 2.6537365E+002
 8.0001223E+002, 3.4123307E+002, 2.4232636E+002, 2.9197166E+002, 2.9974079E+002, 2.9510054E+002, 3.0064135E+002, 2.9388723E+002, 1.9478950E+002, 2.6614108E+002
 8.1003256E+002, 3.3706683E+002, 2.4320674E+002, 2.9239730E+002, 2.9986466E+002, 2.9534978E+002, 3.0073664E+002, 2.9421780E+002, 1.9523663E+002, 2.6673952E+002
 8.2001134E+002, 3.3289869E+002, 2.4394308E+002, 2.9263505E+002, 2.9979120E+002, 2.9540353E+002, 3.0063411E+002, 2.9435629E+002, 1.9557021E+002, 2.6716693E+002
 8.3000447E+002, 3.2873914E+002, 2.4456694E+002, 2.9272864E+002, 2.9957888E+002, 2.9532033E+002, 3.0039265E+002, 2.9435374E+002, 1.9581672E+002, 2.6748951E+002
 8.4000979E+002, 3.2457150E+002, 2.4509585E+002, 2.9270044E+002, 2.9924804E+002, 2.9511934E+002, 3.0003270E+002, 2.9423134E+002, 1.9598468E+002, 2.6771424E+002
 8.5003096E+002, 3.2040086E+002, 2.4551813E+002, 2.9252966E+002, 2.9876914E+002, 2.9476992E+002, 2.9952468E+002, 2.9396347E+002, 1.9607009E+002, 2.6781107E+002
 8.6001529E+002, 3.1623129E+002, 2.4584417E+002, 2.9223209E+002, 2.9816555E+002, 2.9429548E+002, 2.9889214E+002, 2.9356951E+002, 1.9608380E+002, 2.6780847E+002
 8.7002480E+002, 3.1207029E+002, 2.4608697E+002, 2.9182801E+002, 2.9746055E+002, 2.9372001E+002, 2.9815829E+002, 2.9307168E+002, 1.9603044E+002, 2.6772341E+002
 8.8002626E+002, 3.3184872E+002, 2.4625858E+002, 2.9132855E+002, 2.9666643E+002, 2.9305436E+002, 2.9733566E+002, 2.9248106E+002, 1.9592930E+002, 2.6757533E+002
 8.9000338E+002, 3.7515812E+002, 2.4661177E+002, 2.9099262E+002, 2.9611695E+002, 2.9262010E+002, 2.9676242E+002, 2.9208777E+002, 1.9612501E+002, 2.6784077E+002
 9.0000554E+002, 4.1843032E+002, 2.4781333E+002, 2.9154067E+002, 2.9667781E+002, 2.9325227E+002, 2.9731368E+002, 2.9267150E+002, 1.9734563E+002, 2.6953392E+002
 9.1000859E+002, 4.6176788E+002, 2.5042646E+002, 2.9359444E+002, 2.9901586E+002, 2.9558839E+002, 2.9966198E+002, 2.9486569E+002, 2.0008969E+002, 2.7325200E+002
 9.2000651E+002, 5.0511829E+002, 2.5482295E+002, 2.9755571E+002, 3.0352895E+002, 3.0001237E+002, 3.0420703E+002, 2.9906466E+002, 2.0466894E+002, 2.7930858E+002
 9.3002309E+002, 5.4845828E+002, 2.6131441E+002, 3.0376675E+002, 3.1056124E+002, 3.0686476E+002, 3.1129344E+002, 3.0560984E+002, 2.1135364E+002, 2.8798995E+002
 9.4000025E+002, 5.9180128E+002, 2.7013672E+002, 3.1247887E+002, 3.2035033E+002, 3.1639029E+002, 3.2115695E+002, 3.1474901E+002, 2.2037292E+002, 2.9947934E+002
 9.5000934E+002, 6.3506742E+002, 2.8147220E+002, 3.2386853E+002, 3.3305386E+002, 3.2876279E+002, 3.3395185E+002, 3.2665616E+002, 2.3193635E+002, 3.1391269E+002
 9.6001866E+002, 6.7845431E+002, 2.9557080E+002, 3.3821108E+002, 3.4896555E+002, 3.4430088E+002, 3.4996787E+002, 3.4162658E+002, 2.4630465E+002, 3.3158677E+002
 9.7001368E+002, 6.7951454E+002, 3.1242933E+002, 3.5549926E+002, 3.6800622E+002, 3.6295970E+002, 3.6911791E+002, 3.5963377E+002, 2.6345988E+002, 3.5228986E+002
 9.8000256E+002, 6.3884192E+002, 3.3036015E+002, 3.7401581E+002, 3.8793713E+002, 3.8256590E+002, 3.8913697E+002, 3.7873365E+002, 2.8111249E+002, 3.7276837E+002
 9.9000675E+002, 5.9813452E+002, 3.4605133E+002, 3.9036262E+002, 4.0481101E+002, 3.9924982E+002, 4.0605089E+002, 3.9528052E+002, 2.9553503E+002, 3.8842848E+002
 1.0000007E+003, 5.5743151E+002, 3.5794932E+002, 4.0294025E+002, 4.1717051E+002, 4.1156874E+002, 4.1840617E+002, 4.0774212E+002, 3.0560726E+002, 3.9845007E+002
 1.0100064E+003, 5.1670302E+002, 3.6592096E+002, 4.1159437E+002, 4.2513699E+002, 4.1962202E+002, 4.2633644E+002, 4.1609095E+002, 3.1164120E+002, 4.0359435E+002
 1.0200042E+003, 4.7598545E+002, 3.7041572E+002, 4.1674053E+002, 4.2934148E+002, 4.2401089E+002, 4.3048336E+002, 4.2084022E+002, 3.1436700E+002, 4.0493633E+002
 1.0300144E+003, 4.3525324E+002, 3.7198539E+002, 4.1887843E+002, 4.3039764E+002, 4.2532278E+002, 4.3146730E+002, 4.2253917E+002, 3.1446338E+002, 4.0332739E+002
 1.0400095E+003, 4.1054851E+002, 3.7123670E+002, 4.1858130E+002, 4.2897464E+002, 4.2420721E+002, 4.2996326E+002, 4.2180258E+002, 3.1258285E+002, 3.9961196E+002
 1.0500027E+003, 4.0168316E+002, 3.6892725E+002, 4.1657952E+002, 4.2591389E+002, 4.2148131E+002, 4.2681977E+002, 4.1940661E+002, 3.0955046E+002, 3.9482752E+002
 1.0600017E+003, 3.9282128E+002, 3.6595324E+002, 4.1378617E+002, 4.2223590E+002, 4.1813846E+002, 4.2306437E+002, 4.1630807E+002, 3.0624347E+002, 3.9008004E+002
 1.0700148E+003, 3.8395340E+002, 3.6281122E+002, 4.1069902E+002, 4.1840634E+002, 4.1462593E+002, 4.1916439E+002, 4.1298292E+002, 3.0301892E+002, 3.8568271E+002
 1.0800340E+003, 3.7507688E+002, 3.5962499E+002, 4.0740802E+002, 4.1443229E+002, 4.1094251E+002, 4.1512566E+002, 4.0947607E+002, 2.9989619E+002, 3.8149348E+002
 1.0900039E+003, 3.6622036E+002, 3.5647667E+002, 4.0399140E+002, 4.1037832E+002, 4.0715560E+002, 4.1101204E+002, 4.0585804E+002, 2.9689919E+002, 3.7754001E+002
 1.1000092E+003, 3.5736034E+002, 3.5342712E+002, 4.0053423E+002, 4.0632373E+002, 4.0334952E+002, 4.0690177E+002, 4.0221261E+002, 2.9402744E+002, 3.7383491E+002
 1.1100326E+003, 3.4848508E+002, 3.5049488E+002, 3.9706845E+002, 4.0229281E+002, 3.9955206E+002, 4.0281838E+002, 3.9856874E+002, 2.9126957E+002, 3.7036053E+002
 1.1200257E+003, 3.3961678E+002, 3.4767347E+002, 3.9359655E+002, 3.9827269E+002, 3.9575229E+002, 3.9874826E+002, 3.9492204E+002, 2.8860028E+002, 3.6704683E+002
 1.1300183E+003, 3.3075624E+002, 3.4491615E+002, 3.9007008E+002, 3.9419990E+002, 3.9188855E+002, 3.9462731E+002, 3.9121683E+002, 2.8597563E+002, 3.6379895E+002
 1.1400011E+003, 3.2190626E+002, 3.4220416E+002, 3.8647719E+002, 3.9006424E+002, 3.8795182E+002, 3.9044524E+002, 3.8744227E+002, 2.8338166E+002, 3.6059330E+002
 1.1500219E+003, 3.1304460E+002, 3.3948818E+002, 3.8276410E+002, 3.8579991E+002, 3.8387722E+002, 3.8613573E+002, 3.8353888E+002, 2.8078016E+002, 3.5734404E+002
 1.1600323E+003, 3.0416650E+002, 3.3677539E+002, 3.7895697E+002, 3.8145039E+002, 3.7971119E+002, 3.8174240E+002, 3.7954209E+002, 2.7817848E+002, 3.5409889E+002
 1.1700230E+003, 2.9529980E+002, 3.3405189E+002, 3.7505003E+002, 3.7700036E+002, 3.7543720E+002, 3.7724982E+002, 3.7544162E+002, 2.7556542E+002, 3.5080357E+002
 1.1800001E+003, 2.8645284E+002, 3.3131247E+002, 3.7104423E+002, 3.7246062E+002, 3.7106791E+002, 3.7266878E+002, 3.7124351E+002, 2.7295029E+002, 3.4748546E+002
 1.1900147E+003, 2.7758541E+002, 3.2859610E+002, 3.6700510E+002, 3.6791302E+002, 3.6668776E+002, 3.6808109E+002, 3.6702270E+002, 2.7035651E+002, 3.4421586E+002
 1.2000205E+003, 2.6871832E+002, 3.2588223E+002, 3.6291756E+002, 3.6332905E+002, 3.6226837E+002, 3.6345779E+002, 3.6275791E+002, 2.6776258E+002, 3.4093397E+002
 1.2100297E+003, 2.5984803E+002, 3.2314380E+002, 3.5874943E+002, 3.5866709E+002, 3.5776541E+002, 3.5875750E+002, 3.5841118E+002, 2.6515650E+002, 3.3759158E+002
 1.2200247E+003, 2.5098357E+002, 3.2041414E+002, 3.5455158E+002, 3.5399731E+002, 3.5325138E+002, 3.5405057E+002, 3.5404378E+002, 2.6257074E+002, 3.3427318E+002
 1.2300331E+003, 2.4211617E+002, 3.1768246E+002, 3.5031712E+002, 3.4930162E+002, 3.4870688E+002, 3.4931873E+002, 3.4964314E+002, 2.5999164E+002, 3.3093189E+002
