s,C,C,C,C,C,C,C,C,C
Time,"Air Temp","IRSN_1","IRSN_2","TRAC_2","TRAC_3","TRAC_4","VTT_1","GRS_2","NRC_1"
 0.0000000E+000, 2.0000000E+001, 2.0000000E+001, 2.0000000E+001, 2.0000000E+001, 2.0000000E+001, 2.0000000E+001, 2.0000000E+001, 2.0000000E+001, 2.0000000E+001
 1.0200000E+001, 2.2365918E+001, 2.0000094E+001, 2.0000097E+001, 2.0000135E+001, 2.0000131E+001, 2.0000137E+001, 2.0000113E+001, 2.0000144E+001, 2.0000222E+001
 2.0200000E+001, 2.6956000E+001, 2.0002794E+001, 2.0002963E+001, 2.0003894E+001, 2.0003731E+001, 2.0003950E+001, 2.0003345E+001, 2.0003722E+001, 2.0005540E+001
 3.0017479E+001, 3.7519204E+001, 2.0015489E+001, 2.0016814E+001, 2.0021315E+001, 2.0020362E+001, 2.0021613E+001, 2.0018610E+001, 2.0018772E+001, 2.0027700E+001
 4.0061317E+001, 5.9611225E+001, 2.0054329E+001, 2.0059819E+001, 2.0074884E+001, 2.0071643E+001, 2.0075896E+001, 2.0065797E+001, 2.0063249E+001, 2.0093921E+001
 5.0016458E+001, 8.2207548E+001, 2.0167163E+001, 2.0186019E+001, 2.0230885E+001, 2.0221075E+001, 2.0233910E+001, 2.0203809E+001, 2.0189030E+001, 2.0282246E+001
 6.0007047E+001, 1.0475408E+002, 2.0412182E+001, 2.0463758E+001, 2.0567363E+001, 2.0543040E+001, 2.0574580E+001, 2.0504337E+001, 2.0447312E+001, 2.0668196E+001
 7.0045751E+001, 1.2739539E+002, 2.0837817E+001, 2.0951434E+001, 2.1147159E+001, 2.1096863E+001, 2.1161451E+001, 2.1026543E+001, 2.0876829E+001, 2.1303810E+001
 8.0009151E+001, 1.5000724E+002, 2.1479572E+001, 2.1692638E+001, 2.2015374E+001, 2.1924626E+001, 2.2040162E+001, 2.1813455E+001, 2.1505140E+001, 2.2221799E+001
 9.0008305E+001, 1.7259280E+002, 2.2370751E+001, 2.2729030E+001, 2.3216325E+001, 2.3068124E+001, 2.3255526E+001, 2.2906878E+001, 2.2356530E+001, 2.3458139E+001
 1.0003955E+002, 1.9523416E+002, 2.3553877E+001, 2.4113733E+001, 2.4807914E+001, 2.4582335E+001, 2.4866060E+001, 2.4361007E+001, 2.3466090E+001, 2.5062166E+001
 1.1004422E+002, 2.1587030E+002, 2.5059993E+001, 2.5885246E+001, 2.6829811E+001, 2.6504025E+001, 2.6911939E+001, 2.6213660E+001, 2.4859183E+001, 2.7063116E+001
 1.2004990E+002, 2.1851316E+002, 2.6903454E+001, 2.8065223E+001, 2.9299985E+001, 2.8849189E+001, 2.9411320E+001, 2.8483826E+001, 2.6538960E+001, 2.9457643E+001
 1.3002996E+002, 2.1687441E+002, 2.8975922E+001, 3.0543204E+001, 3.2070654E+001, 3.1475750E+001, 3.2214304E+001, 3.1045105E+001, 2.8360818E+001, 3.2032913E+001
 1.4003523E+002, 2.1523778E+002, 3.1120289E+001, 3.3147973E+001, 3.4942027E+001, 3.4196032E+001, 3.5118298E+001, 3.3716837E+001, 3.0168956E+001, 3.4579337E+001
 1.5004693E+002, 2.1359521E+002, 3.3234683E+001, 3.5762330E+001, 3.7790018E+001, 3.6892804E+001, 3.7997921E+001, 3.6381126E+001, 3.1892510E+001, 3.6996150E+001
 1.6002185E+002, 2.1195752E+002, 3.5270031E+001, 3.8325973E+001, 4.0561692E+001, 3.9518402E+001, 4.0799620E+001, 3.8983479E+001, 3.3511758E+001, 3.9270323E+001
 1.7000857E+002, 2.1087605E+002, 3.7211409E+001, 4.0817720E+001, 4.3241434E+001, 4.2058909E+001, 4.3507666E+001, 4.1506472E+001, 3.5028189E+001, 4.1406556E+001
 1.8002647E+002, 2.1836720E+002, 3.9067786E+001, 4.3243358E+001, 4.5843023E+001, 4.4528237E+001, 4.6136062E+001, 4.3960024E+001, 3.6462857E+001, 4.3439114E+001
 1.9003222E+002, 2.2877977E+002, 4.0897734E+001, 4.5661564E+001, 4.8445060E+001, 4.7002014E+001, 4.8764509E+001, 4.6411527E+001, 3.7892483E+001, 4.5482433E+001
 2.0002397E+002, 2.3918997E+002, 4.2793721E+001, 4.8169936E+001, 5.1162775E+001, 4.9588885E+001, 5.1509811E+001, 4.8964823E+001, 3.9413078E+001, 4.7665274E+001
 2.1002595E+002, 2.4958375E+002, 4.4824256E+001, 5.0844320E+001, 5.4076247E+001, 5.2364003E+001, 5.4452954E+001, 5.1695941E+001, 4.1077969E+001, 5.0056563E+001
 2.2002488E+002, 2.5999340E+002, 4.7028105E+001, 5.3731044E+001, 5.7230802E+001, 5.5370239E+001, 5.7639607E+001, 5.4649688E+001, 4.2906848E+001, 5.2685287E+001
 2.3003289E+002, 2.7039831E+002, 4.9422920E+001, 5.6851094E+001, 6.0642822E+001, 5.8622941E+001, 6.1086168E+001, 5.7844309E+001, 4.4903815E+001, 5.5554817E+001
 2.4000481E+002, 2.8078826E+002, 5.2011331E+001, 6.0207392E+001, 6.4311441E+001, 6.2120275E+001, 6.4791819E+001, 6.1280330E+001, 4.7067416E+001, 5.8656708E+001
 2.5003635E+002, 2.9120059E+002, 5.4814028E+001, 6.3825891E+001, 6.8264944E+001, 6.5889325E+001, 6.8785120E+001, 6.4984178E+001, 4.9415123E+001, 6.2016651E+001
 2.6003385E+002, 3.0161760E+002, 5.7845000E+001, 6.7723964E+001, 7.2520530E+001, 6.9947664E+001, 7.3083185E+001, 6.8973296E+001, 5.1955761E+001, 6.5647560E+001
 2.7003219E+002, 3.1201852E+002, 6.1102668E+001, 7.1900511E+001, 7.7076286E+001, 7.4292203E+001, 7.7684297E+001, 7.3245615E+001, 5.4690458E+001, 6.9542944E+001
 2.8001698E+002, 3.2241645E+002, 6.4604689E+001, 7.6375568E+001, 8.1952666E+001, 7.8945855E+001, 8.2608473E+001, 7.7822427E+001, 5.7629331E+001, 7.3726622E+001
 2.9003444E+002, 3.3282311E+002, 6.8355724E+001, 8.1157597E+001, 8.7155250E+001, 8.3913820E+001, 8.7861205E+001, 8.2710686E+001, 6.0771203E+001, 7.8193276E+001
 3.0003396E+002, 3.4324066E+002, 7.2360149E+001, 8.6252154E+001, 9.2690646E+001, 8.9202021E+001, 9.3449257E+001, 8.7916073E+001, 6.4125015E+001, 8.2949942E+001
 3.1001003E+002, 3.5362715E+002, 7.6618521E+001, 9.1659261E+001, 9.8558757E+001, 9.4811965E+001, 9.9372202E+001, 9.3439296E+001, 6.7691282E+001, 8.7998631E+001
 3.2002356E+002, 3.6402784E+002, 8.1143522E+001, 9.7394321E+001, 1.0477356E+002, 1.0075721E+002, 1.0564404E+002, 9.9294903E+001, 7.1479769E+001, 9.3348311E+001
 3.3000623E+002, 3.7442928E+002, 8.5945877E+001, 1.0346702E+002, 1.1134543E+002, 1.0705055E+002, 1.1227476E+002, 1.0549398E+002, 7.5503606E+001, 9.9016157E+001
 3.4002763E+002, 3.8483418E+002, 9.1037506E+001, 1.0989088E+002, 1.1828845E+002, 1.1370663E+002, 1.1927835E+002, 1.1205062E+002, 7.9774466E+001, 1.0501520E+002
 3.5000157E+002, 3.9029571E+002, 9.6415976E+001, 1.1665913E+002, 1.2559028E+002, 1.2071633E+002, 1.2664172E+002, 1.1895681E+002, 8.4287095E+001, 1.1133352E+002
 3.6002530E+002, 3.9088397E+002, 1.0200900E+002, 1.2369593E+002, 1.3315005E+002, 1.2798299E+002, 1.3426249E+002, 1.2612635E+002, 8.8942342E+001, 1.1782552E+002
 3.7001678E+002, 3.9147294E+002, 1.0764672E+002, 1.3081772E+002, 1.4074897E+002, 1.3529770E+002, 1.4191928E+002, 1.3336218E+002, 9.3558849E+001, 1.2424117E+002
 3.8003314E+002, 3.9206128E+002, 1.1320541E+002, 1.3788013E+002, 1.4823522E+002, 1.4251880E+002, 1.4945842E+002, 1.4052023E+002, 9.8045925E+001, 1.3046551E+002
 3.9000024E+002, 3.9264887E+002, 1.1863102E+002, 1.4481080E+002, 1.5554072E+002, 1.4958405E+002, 1.5681116E+002, 1.4753277E+002, 1.0238252E+002, 1.3647510E+002
 4.0002985E+002, 3.9323722E+002, 1.2391720E+002, 1.5159841E+002, 1.6266391E+002, 1.5649193E+002, 1.6397630E+002, 1.5439345E+002, 1.0657777E+002, 1.4229138E+002
 4.1002552E+002, 3.9382595E+002, 1.2906189E+002, 1.5823470E+002, 1.6960178E+002, 1.6323840E+002, 1.7095116E+002, 1.6109640E+002, 1.1064051E+002, 1.4792840E+002
 4.2001321E+002, 3.9441394E+002, 1.3405397E+002, 1.6469842E+002, 1.7633696E+002, 1.6980495E+002, 1.7771867E+002, 1.6762193E+002, 1.1456935E+002, 1.5338551E+002
 4.3001020E+002, 3.9500182E+002, 1.3890698E+002, 1.7099738E+002, 1.8287786E+002, 1.7619911E+002, 1.8428740E+002, 1.7397789E+002, 1.1838059E+002, 1.5868065E+002
 4.4002567E+002, 3.9559038E+002, 1.4364027E+002, 1.7714908E+002, 1.8924705E+002, 1.8244206E+002, 1.9068028E+002, 1.8018370E+002, 1.2209343E+002, 1.6384607E+002
 4.5003831E+002, 3.9617941E+002, 1.4827097E+002, 1.8317594E+002, 1.9547510E+002, 1.8856117E+002, 1.9692861E+002, 1.8626444E+002, 1.2571459E+002, 1.6891163E+002
 4.6001473E+002, 3.9676704E+002, 1.5278946E+002, 1.8905409E+002, 2.0152979E+002, 1.9452435E+002, 2.0299994E+002, 1.9219231E+002, 1.2924208E+002, 1.7385132E+002
 4.7003207E+002, 3.9735521E+002, 1.5720646E+002, 1.9478897E+002, 2.0741670E+002, 2.0033632E+002, 2.0890015E+002, 1.9797230E+002, 1.3268611E+002, 1.7867655E+002
 4.8003070E+002, 3.9794415E+002, 1.6153826E+002, 2.0040166E+002, 2.1316339E+002, 2.0602250E+002, 2.1465731E+002, 2.0362771E+002, 1.3605655E+002, 1.8341382E+002
 4.9000456E+002, 3.9853157E+002, 1.6576068E+002, 2.0585403E+002, 2.1872203E+002, 2.1153529E+002, 2.2022324E+002, 2.0911584E+002, 1.3933520E+002, 1.8801670E+002
 5.0002421E+002, 3.9911956E+002, 1.6989699E+002, 2.1116887E+002, 2.2412159E+002, 2.1690325E+002, 2.2562722E+002, 2.1446208E+002, 1.4254803E+002, 1.9252581E+002
 5.1001368E+002, 3.9970795E+002, 1.7395444E+002, 2.1635353E+002, 2.2937065E+002, 2.2213277E+002, 2.3087825E+002, 2.1967354E+002, 1.4569920E+002, 1.9694449E+002
 5.2001098E+002, 3.9916213E+002, 1.7792704E+002, 2.2139614E+002, 2.3445756E+002, 2.2721135E+002, 2.3596487E+002, 2.2473795E+002, 1.4878448E+002, 2.0126580E+002
 5.3003039E+002, 3.9749417E+002, 1.8181690E+002, 2.2630632E+002, 2.3939113E+002, 2.3214747E+002, 2.4089585E+002, 2.2966448E+002, 1.5178919E+002, 2.0548116E+002
 5.4002608E+002, 3.9582553E+002, 1.8556953E+002, 2.3101977E+002, 2.4409252E+002, 2.3686363E+002, 2.4559167E+002, 2.3438223E+002, 1.5466076E+002, 2.0950056E+002
 5.5000252E+002, 3.9416140E+002, 1.8915061E+002, 2.3548555E+002, 2.4850875E+002, 2.4130855E+002, 2.4999920E+002, 2.3883964E+002, 1.5738604E+002, 2.1329438E+002
 5.6003294E+002, 3.9249406E+002, 1.9257757E+002, 2.3972921E+002, 2.5267649E+002, 2.4551832E+002, 2.5415550E+002, 2.4306740E+002, 1.5997611E+002, 2.1690457E+002
 5.7000845E+002, 3.9082678E+002, 1.9585902E+002, 2.4376491E+002, 2.5661782E+002, 2.4951298E+002, 2.5808315E+002, 2.4708282E+002, 1.6243856E+002, 2.2035289E+002
 5.8001363E+002, 3.8916160E+002, 1.9899704E+002, 2.4759384E+002, 2.6033466E+002, 2.5329245E+002, 2.6178447E+002, 2.5088663E+002, 1.6477749E+002, 2.2363842E+002
 5.9001567E+002, 3.8749448E+002, 2.0199919E+002, 2.5122443E+002, 2.6383359E+002, 2.5686314E+002, 2.6526597E+002, 2.5448639E+002, 1.6699702E+002, 2.2676424E+002
 6.0003217E+002, 3.8582678E+002, 2.0486837E+002, 2.5465364E+002, 2.6711295E+002, 2.6022276E+002, 2.6852618E+002, 2.5787938E+002, 1.6910826E+002, 2.2973894E+002
 6.1001959E+002, 3.8415994E+002, 2.0763322E+002, 2.5792671E+002, 2.7023352E+002, 2.6343050E+002, 2.7162650E+002, 2.6111774E+002, 1.7112535E+002, 2.3261801E+002
 6.2002856E+002, 3.8249266E+002, 2.1028336E+002, 2.6102323E+002, 2.7315920E+002, 2.6644922E+002, 2.7453049E+002, 2.6417326E+002, 1.7304451E+002, 2.3535265E+002
 6.3002701E+002, 3.8082589E+002, 2.1281250E+002, 2.6392485E+002, 2.7586868E+002, 2.6925713E+002, 2.7721697E+002, 2.6702558E+002, 1.7487106E+002, 2.3793355E+002
 6.4001017E+002, 3.7916041E+002, 2.1522380E+002, 2.6664334E+002, 2.7838398E+002, 2.7187487E+002, 2.7970852E+002, 2.6969072E+002, 1.7660169E+002, 2.4037993E+002
 6.5001392E+002, 3.7749535E+002, 2.1753423E+002, 2.6920455E+002, 2.8073530E+002, 2.7433149E+002, 2.8203557E+002, 2.7219632E+002, 1.7824873E+002, 2.4271591E+002
 6.6002341E+002, 3.7582737E+002, 2.1975916E+002, 2.7162647E+002, 2.8294205E+002, 2.7664588E+002, 2.8421765E+002, 2.7456088E+002, 1.7982620E+002, 2.4495918E+002
 6.7000677E+002, 3.7416172E+002, 2.2189133E+002, 2.7390135E+002, 2.8499458E+002, 2.7880905E+002, 2.8624486E+002, 2.7677598E+002, 1.8132387E+002, 2.4709609E+002
 6.8001014E+002, 3.7249602E+002, 2.2395227E+002, 2.7606023E+002, 2.8693227E+002, 2.8086016E+002, 2.8815689E+002, 2.7887671E+002, 1.8275834E+002, 2.4916503E+002
 6.9003277E+002, 3.7082631E+002, 2.2593406E+002, 2.7808710E+002, 2.8872558E+002, 2.8276803E+002, 2.8992414E+002, 2.8083996E+002, 1.8412809E+002, 2.5112386E+002
 7.0000480E+002, 3.6916028E+002, 2.2781752E+002, 2.7995394E+002, 2.9034606E+002, 2.8450401E+002, 2.9151831E+002, 2.8263698E+002, 1.8542519E+002, 2.5295492E+002
 7.1002812E+002, 3.6749402E+002, 2.2961912E+002, 2.8169053E+002, 2.9183426E+002, 2.8610859E+002, 2.9298015E+002, 2.8430278E+002, 1.8665549E+002, 2.5469511E+002
 7.2000242E+002, 3.6582804E+002, 2.3134404E+002, 2.8330516E+002, 2.9319748E+002, 2.8758809E+002, 2.9431698E+002, 2.8584488E+002, 1.8782472E+002, 2.5634501E+002
 7.3002793E+002, 3.6416151E+002, 2.3300842E+002, 2.8481959E+002, 2.9446453E+002, 2.8897153E+002, 2.9555773E+002, 2.8728857E+002, 1.8894778E+002, 2.5793927E+002
 7.4002651E+002, 3.6249181E+002, 2.3462720E+002, 2.8625585E+002, 2.9565756E+002, 2.9028112E+002, 2.9672451E+002, 2.8865616E+002, 1.9003060E+002, 2.5948715E+002
 7.5001596E+002, 3.6082630E+002, 2.3618595E+002, 2.8759975E+002, 2.9675797E+002, 2.9149749E+002, 2.9779893E+002, 2.8993092E+002, 1.9106066E+002, 2.6096139E+002
 7.6001382E+002, 3.5790460E+002, 2.3768370E+002, 2.8884455E+002, 2.9775633E+002, 2.9261237E+002, 2.9877119E+002, 2.9110517E+002, 1.9204264E+002, 2.6235931E+002
 7.7000131E+002, 3.5373937E+002, 2.3910758E+002, 2.8998021E+002, 2.9863916E+002, 2.9361239E+002, 2.9962766E+002, 2.9216730E+002, 1.9295670E+002, 2.6365334E+002
 7.8000536E+002, 3.4957359E+002, 2.4042178E+002, 2.9096952E+002, 2.9936367E+002, 2.9445571E+002, 3.0032538E+002, 2.9307758E+002, 1.9376834E+002, 2.6479670E+002
 7.9002204E+002, 3.4540135E+002, 2.4160334E+002, 2.9178728E+002, 2.9990043E+002, 2.9511429E+002, 3.0083452E+002, 2.9380960E+002, 1.9445919E+002, 2.6575859E+002
 8.0002190E+002, 3.4123205E+002, 2.4264236E+002, 2.9242041E+002, 3.0024175E+002, 2.9558144E+002, 3.0114736E+002, 2.9435308E+002, 1.9502997E+002, 2.6654846E+002
 8.1002899E+002, 3.3706469E+002, 2.4353444E+002, 2.9286475E+002, 3.0038219E+002, 2.9584889E+002, 3.0125873E+002, 2.9470207E+002, 1.9547909E+002, 2.6715307E+002
 8.2000056E+002, 3.3290354E+002, 2.4428175E+002, 2.9312029E+002, 3.0032628E+002, 2.9592070E+002, 3.0117341E+002, 2.9485849E+002, 1.9581794E+002, 2.6759070E+002
 8.3000929E+002, 3.2874218E+002, 2.4490591E+002, 2.9321471E+002, 3.0010864E+002, 2.9583185E+002, 3.0092629E+002, 2.9485367E+002, 1.9606265E+002, 2.6789872E+002
 8.4001139E+002, 3.2456868E+002, 2.4542011E+002, 2.9316505E+002, 2.9974762E+002, 2.9560147E+002, 3.0053565E+002, 2.9470578E+002, 1.9621966E+002, 2.6809211E+002
 8.5000870E+002, 3.2040539E+002, 2.4584772E+002, 2.9300549E+002, 2.9928626E+002, 2.9527252E+002, 3.0004478E+002, 2.9445343E+002, 1.9630733E+002, 2.6821321E+002
 8.6002562E+002, 3.1623552E+002, 2.4618008E+002, 2.9272444E+002, 2.9870153E+002, 2.9482002E+002, 2.9943064E+002, 2.9407873E+002, 1.9631594E+002, 2.6822069E+002
 8.7001920E+002, 3.1207197E+002, 2.4641242E+002, 2.9230971E+002, 2.9798086E+002, 2.9423104E+002, 2.9868069E+002, 2.9356883E+002, 1.9625112E+002, 2.6811501E+002
 8.8003349E+002, 3.3187060E+002, 2.4656721E+002, 2.9178930E+002, 2.9715912E+002, 2.9353985E+002, 2.9783007E+002, 2.9295499E+002, 1.9613537E+002, 2.6793475E+002
 8.9000079E+002, 3.7515975E+002, 2.4690771E+002, 2.9143497E+002, 2.9659016E+002, 2.9308863E+002, 2.9723711E+002, 2.9254388E+002, 1.9632447E+002, 2.6819015E+002
 9.0000390E+002, 4.1840883E+002, 2.4810277E+002, 2.9197300E+002, 2.9713875E+002, 2.9371005E+002, 2.9777581E+002, 2.9311740E+002, 1.9754336E+002, 2.6987107E+002
 9.1000683E+002, 4.6176364E+002, 2.5069767E+002, 2.9399254E+002, 2.9943372E+002, 2.9600390E+002, 3.0008066E+002, 2.9527341E+002, 2.0028709E+002, 2.7355426E+002
 9.2000670E+002, 5.0510608E+002, 2.5507764E+002, 2.9792112E+002, 3.0390701E+002, 3.0038760E+002, 3.0458585E+002, 2.9943593E+002, 2.0486999E+002, 2.7957981E+002
 9.3001802E+002, 5.4844102E+002, 2.6154595E+002, 3.0409246E+002, 3.1089242E+002, 3.0719262E+002, 3.1162532E+002, 3.0593754E+002, 2.1155124E+002, 2.8822372E+002
 9.4001993E+002, 5.9181946E+002, 2.7037643E+002, 3.1281107E+002, 3.2069643E+002, 3.1673174E+002, 3.2150431E+002, 3.1508651E+002, 2.2058229E+002, 2.9974436E+002
 9.5000425E+002, 6.3511653E+002, 2.8176312E+002, 3.2427568E+002, 3.3350019E+002, 3.2920305E+002, 3.3440038E+002, 3.2708034E+002, 2.3217396E+002, 3.1428893E+002
 9.6000661E+002, 6.7841139E+002, 2.9589935E+002, 3.3868431E+002, 3.4949165E+002, 3.4481937E+002, 3.5049680E+002, 3.4212320E+002, 2.4654653E+002, 3.3202692E+002
 9.7000796E+002, 6.7955730E+002, 3.1278816E+002, 3.5602165E+002, 3.6858203E+002, 3.6352718E+002, 3.6969662E+002, 3.6017988E+002, 2.6370279E+002, 3.5275476E+002
 9.8001597E+002, 6.3883237E+002, 3.3074365E+002, 3.7456619E+002, 3.8853483E+002, 3.8315497E+002, 3.8973737E+002, 3.7930468E+002, 2.8137279E+002, 3.7324318E+002
 9.9002487E+002, 5.9807776E+002, 3.4646668E+002, 3.9094708E+002, 4.0544385E+002, 3.9987454E+002, 4.0668629E+002, 3.9588634E+002, 2.9582601E+002, 3.8894020E+002
 1.0000124E+003, 5.5735842E+002, 3.5837464E+002, 4.0353789E+002, 4.1781577E+002, 4.1220779E+002, 4.1905347E+002, 4.0836165E+002, 3.0590152E+002, 3.9897053E+002
 1.0100310E+003, 5.1663378E+002, 3.6634887E+002, 4.1219228E+002, 4.2577806E+002, 4.2025897E+002, 4.2697906E+002, 4.1670964E+002, 3.1193708E+002, 4.0410920E+002
 1.0200299E+003, 4.7589121E+002, 3.7082368E+002, 4.1731507E+002, 4.2995050E+002, 4.2461713E+002, 4.3109367E+002, 4.2143201E+002, 3.1463973E+002, 4.0540864E+002
 1.0300184E+003, 4.3518766E+002, 3.7238853E+002, 4.1945333E+002, 4.3101271E+002, 4.2593587E+002, 4.3208401E+002, 4.2313441E+002, 3.1472744E+002, 4.0381138E+002
 1.0400190E+003, 4.1053111E+002, 3.7165127E+002, 4.1917119E+002, 4.2961059E+002, 4.2484159E+002, 4.3060119E+002, 4.2241576E+002, 3.1285609E+002, 4.0012231E+002
 1.0500220E+003, 4.0167234E+002, 3.6936567E+002, 4.1720375E+002, 4.2659189E+002, 4.2215974E+002, 4.2749968E+002, 4.2005890E+002, 3.0983900E+002, 3.9538076E+002
 1.0600041E+003, 3.9281519E+002, 3.6640155E+002, 4.1442550E+002, 4.2292658E+002, 4.1883043E+002, 4.2375671E+002, 4.1697500E+002, 3.0653525E+002, 3.9063464E+002
 1.0700079E+003, 3.8395199E+002, 3.6324444E+002, 4.1132169E+002, 4.1907287E+002, 4.1529453E+002, 4.1983211E+002, 4.1362999E+002, 3.0329448E+002, 3.8620438E+002
 1.0800031E+003, 3.7509502E+002, 3.6009696E+002, 4.0808565E+002, 4.1517540E+002, 4.1169088E+002, 4.1587000E+002, 4.1018994E+002, 3.0020785E+002, 3.8211512E+002
 1.0900036E+003, 3.6623115E+002, 3.5704009E+002, 4.0479921E+002, 4.1128262E+002, 4.0806967E+002, 4.1191757E+002, 4.0671972E+002, 2.9727562E+002, 3.7832622E+002
 1.1000292E+003, 3.5735637E+002, 3.5408529E+002, 4.0147648E+002, 4.0738362E+002, 4.0442363E+002, 4.0796263E+002, 4.0322175E+002, 2.9446551E+002, 3.7476303E+002
 1.1100138E+003, 3.4848611E+002, 3.5121563E+002, 3.9809991E+002, 4.0344148E+002, 4.0071688E+002, 4.0396757E+002, 3.9966847E+002, 2.9173944E+002, 3.7133909E+002
 1.1200012E+003, 3.3963712E+002, 3.4840518E+002, 3.9464649E+002, 3.9942442E+002, 3.9691982E+002, 3.9990010E+002, 3.9603277E+002, 2.8906663E+002, 3.6799207E+002
 1.1300311E+003, 3.3076259E+002, 3.4562322E+002, 3.9108962E+002, 3.9530429E+002, 3.9300902E+002, 3.9573129E+002, 3.9228879E+002, 2.8641901E+002, 3.6468088E+002
 1.1400171E+003, 3.2189109E+002, 3.4285555E+002, 3.8742405E+002, 3.9107353E+002, 3.8897744E+002, 3.9145345E+002, 3.8843030E+002, 2.8378197E+002, 3.6136930E+002
 1.1500129E+003, 3.1304195E+002, 3.4009183E+002, 3.8364941E+002, 3.8673658E+002, 3.8483043E+002, 3.8707106E+002, 3.8445941E+002, 2.8114973E+002, 3.5805271E+002
 1.1600037E+003, 3.0418032E+002, 3.3736506E+002, 3.7982560E+002, 3.8237339E+002, 3.8065194E+002, 3.8266400E+002, 3.8044763E+002, 2.7854720E+002, 3.5480700E+002
 1.1700253E+003, 2.9531494E+002, 3.3466554E+002, 3.7595381E+002, 3.7797604E+002, 3.7643435E+002, 3.7822397E+002, 3.7639224E+002, 2.7595877E+002, 3.5158709E+002
 1.1800185E+003, 2.8643649E+002, 3.3196274E+002, 3.7200286E+002, 3.7350211E+002, 3.7213451E+002, 3.7370833E+002, 3.7225625E+002, 2.7336387E+002, 3.4833032E+002
 1.1900163E+003, 2.7758235E+002, 3.2924189E+002, 3.6796203E+002, 3.6894337E+002, 3.6774438E+002, 3.6910894E+002, 3.6802997E+002, 2.7075940E+002, 3.4503131E+002
 1.2000186E+003, 2.6872052E+002, 3.2653031E+002, 3.6387739E+002, 3.6436130E+002, 3.6332798E+002, 3.6448735E+002, 3.6376811E+002, 2.6816970E+002, 3.4175426E+002
 1.2100239E+003, 2.5984816E+002, 3.2381899E+002, 3.5974625E+002, 3.5974437E+002, 3.5887232E+002, 3.5983194E+002, 3.5946343E+002, 2.6558290E+002, 3.3846146E+002
 1.2200039E+003, 2.5099300E+002, 3.2111043E+002, 3.5557759E+002, 3.5510444E+002, 3.5438893E+002, 3.5515470E+002, 3.5512605E+002, 2.6300838E+002, 3.3516621E+002
 1.2300405E+003, 2.4212192E+002, 3.1838577E+002, 3.5135266E+002, 3.5041565E+002, 3.4985223E+002, 3.5042952E+002, 3.5073402E+002, 2.6042904E+002, 3.3182882E+002
