s,C,C,C,C,C,C,C,C,C
Time,"Air Temp","IRSN_1","IRSN_2","TRAC_2","TRAC_3","TRAC_4","VTT_1","GRS_2","NRC_1"
 0.0000000E+000, 2.0000000E+001, 2.0000000E+001, 2.0000000E+001, 2.0000000E+001, 2.0000000E+001, 2.0000000E+001, 2.0000000E+001, 2.0000000E+001, 2.0000000E+001
 1.0200000E+001, 2.2365918E+001, 2.0000094E+001, 2.0000097E+001, 2.0000135E+001, 2.0000131E+001, 2.0000137E+001, 2.0000113E+001, 2.0000144E+001, 2.0000221E+001
 2.0058237E+001, 2.6915061E+001, 2.0002737E+001, 2.0002900E+001, 2.0003814E+001, 2.0003655E+001, 2.0003869E+001, 2.0003276E+001, 2.0003650E+001, 2.0005433E+001
 3.0058358E+001, 3.7424516E+001, 2.0015434E+001, 2.0016736E+001, 2.0021217E+001, 2.0020270E+001, 2.0021514E+001, 2.0018524E+001, 2.0018713E+001, 2.0027610E+001
 4.0069443E+001, 5.9678006E+001, 2.0055081E+001, 2.0060565E+001, 2.0075765E+001, 2.0072471E+001, 2.0076784E+001, 2.0066604E+001, 2.0064118E+001, 2.0095325E+001
 5.0076598E+001, 8.2272655E+001, 2.0170971E+001, 2.0190171E+001, 2.0235851E+001, 2.0225969E+001, 2.0238904E+001, 2.0208368E+001, 2.0192844E+001, 2.0288913E+001
 6.0020614E+001, 1.0483127E+002, 2.0421932E+001, 2.0474996E+001, 2.0580742E+001, 2.0556411E+001, 2.0588019E+001, 2.0516679E+001, 2.0456600E+001, 2.0684265E+001
 7.0046591E+001, 1.2740381E+002, 2.0851014E+001, 2.0967304E+001, 2.1165469E+001, 2.1115304E+001, 2.1179809E+001, 2.1043740E+001, 2.0887957E+001, 2.1323439E+001
 8.0044950E+001, 1.5005922E+002, 2.1498347E+001, 2.1716066E+001, 2.2042407E+001, 2.1951990E+001, 2.2067240E+001, 2.1838876E+001, 2.1518481E+001, 2.2249772E+001
 9.0038425E+001, 1.7265152E+002, 2.2392230E+001, 2.2756154E+001, 2.3246278E+001, 2.3098246E+001, 2.3285511E+001, 2.2935610E+001, 2.2369979E+001, 2.3485317E+001
 1.0003744E+002, 1.9526792E+002, 2.3566644E+001, 2.4129610E+001, 2.4823304E+001, 2.4597770E+001, 2.4881388E+001, 2.4376822E+001, 2.3471673E+001, 2.5072167E+001
 1.1003491E+002, 2.1587413E+002, 2.5064740E+001, 2.5890967E+001, 2.6833770E+001, 2.6508211E+001, 2.6915761E+001, 2.6218749E+001, 2.4859469E+001, 2.7062278E+001
 1.2002272E+002, 2.1851612E+002, 2.6903262E+001, 2.8064395E+001, 2.9297276E+001, 2.8846891E+001, 2.9408447E+001, 2.8482380E+001, 2.6536864E+001, 2.9451986E+001
 1.3002346E+002, 2.1687700E+002, 2.8976408E+001, 3.0541813E+001, 3.2067802E+001, 3.1473071E+001, 3.2211345E+001, 3.1043206E+001, 2.8361954E+001, 3.2028934E+001
 1.4000123E+002, 2.1524040E+002, 3.1117531E+001, 3.3141552E+001, 3.4933196E+001, 3.4186693E+001, 3.5109446E+001, 3.3709140E+001, 3.0169141E+001, 3.4568826E+001
 1.5001202E+002, 2.1360178E+002, 3.3230124E+001, 3.5754287E+001, 3.7780794E+001, 3.6883083E+001, 3.7988706E+001, 3.6372366E+001, 3.1892208E+001, 3.6987731E+001
 1.6005109E+002, 2.1195840E+002, 3.5271527E+001, 3.8326290E+001, 4.0561385E+001, 3.9516558E+001, 4.0799498E+001, 3.8982924E+001, 3.3516161E+001, 3.9267604E+001
 1.7000089E+002, 2.1087373E+002, 3.7215799E+001, 4.0822626E+001, 4.3246689E+001, 4.2062333E+001, 4.3513178E+001, 4.1510833E+001, 3.5033944E+001, 4.1409238E+001
 1.8000469E+002, 2.1835209E+002, 3.9069635E+001, 4.3245930E+001, 4.5846485E+001, 4.4530620E+001, 4.6139658E+001, 4.3962651E+001, 3.6464461E+001, 4.3442225E+001
 1.9002868E+002, 2.2876811E+002, 4.0904181E+001, 4.5670072E+001, 4.8455314E+001, 4.7011642E+001, 4.8774824E+001, 4.6420754E+001, 3.7896232E+001, 4.5492656E+001
 2.0001224E+002, 2.3917780E+002, 4.2803833E+001, 4.8182592E+001, 5.1177239E+001, 4.9602827E+001, 5.1524313E+001, 4.8978308E+001, 3.9419885E+001, 4.7679262E+001
 2.1002109E+002, 2.4957557E+002, 4.4831840E+001, 5.0854611E+001, 5.4086544E+001, 5.2374435E+001, 5.4463118E+001, 5.1706503E+001, 4.1078515E+001, 5.0063471E+001
 2.2001232E+002, 2.5997870E+002, 4.7023528E+001, 5.3726823E+001, 5.7222789E+001, 5.5362803E+001, 5.7631283E+001, 5.4644055E+001, 4.2894088E+001, 5.2671915E+001
 2.3000853E+002, 2.7037927E+002, 4.9412676E+001, 5.6839346E+001, 6.0627816E+001, 5.8609311E+001, 6.1070749E+001, 5.7831692E+001, 4.4887411E+001, 5.5539887E+001
 2.4002487E+002, 2.8078859E+002, 5.2011673E+001, 6.0208797E+001, 6.4312965E+001, 6.2123890E+001, 6.4792903E+001, 6.1282822E+001, 4.7059479E+001, 5.8662434E+001
 2.5000169E+002, 2.9118657E+002, 5.4821002E+001, 6.3835478E+001, 6.8276049E+001, 6.5903894E+001, 6.8795575E+001, 6.4996193E+001, 4.9409636E+001, 6.2033760E+001
 2.6002568E+002, 3.0159554E+002, 5.7852702E+001, 6.7734604E+001, 7.2532253E+001, 6.9964216E+001, 7.3094002E+001, 6.8986792E+001, 5.1947115E+001, 6.5665928E+001
 2.7002809E+002, 3.1201381E+002, 6.1124673E+001, 7.1926746E+001, 7.7103823E+001, 7.4328603E+001, 7.7710208E+001, 7.3276615E+001, 5.4687693E+001, 6.9584453E+001
 2.8000160E+002, 3.2240575E+002, 6.4629962E+001, 7.6405066E+001, 8.1981209E+001, 7.8987039E+001, 8.2634620E+001, 7.7857354E+001, 5.7622404E+001, 7.3770734E+001
 2.9000277E+002, 3.3279721E+002, 6.8375966E+001, 8.1181152E+001, 8.7175633E+001, 8.3949131E+001, 8.7878708E+001, 8.2739648E+001, 6.0757376E+001, 7.8229526E+001
 3.0001740E+002, 3.4321332E+002, 7.2380407E+001, 8.6275447E+001, 9.2709442E+001, 8.9237727E+001, 9.3464783E+001, 8.7945046E+001, 6.4109180E+001, 8.2985612E+001
 3.1002005E+002, 3.5362332E+002, 7.6644839E+001, 9.1687760E+001, 9.8581023E+001, 9.4852426E+001, 9.9390971E+001, 9.3473215E+001, 6.7680991E+001, 8.8038009E+001
 3.2003376E+002, 3.6403342E+002, 8.1173144E+001, 9.7424799E+001, 1.0479730E+002, 1.0079970E+002, 1.0566423E+002, 9.9330786E+001, 7.1475061E+001, 9.3389107E+001
 3.3000515E+002, 3.7443223E+002, 8.5963693E+001, 1.0348454E+002, 1.1135474E+002, 1.0707760E+002, 1.1228066E+002, 1.0551573E+002, 7.5488799E+001, 9.9037487E+001
 3.4001625E+002, 3.8482565E+002, 9.1038023E+001, 1.0988828E+002, 1.1827543E+002, 1.1371132E+002, 1.1926184E+002, 1.1205110E+002, 7.9746055E+001, 1.0501355E+002
 3.5001547E+002, 3.9029538E+002, 9.6406838E+001, 1.1665141E+002, 1.2557356E+002, 1.2071398E+002, 1.2662204E+002, 1.1895139E+002, 8.4250520E+001, 1.1131808E+002
 3.6001494E+002, 3.9088432E+002, 1.0198522E+002, 1.2368028E+002, 1.3312731E+002, 1.2797081E+002, 1.3423737E+002, 1.2611225E+002, 8.8894951E+001, 1.1779383E+002
 3.7000578E+002, 3.9147227E+002, 1.0761124E+002, 1.3078718E+002, 1.4071010E+002, 1.3527088E+002, 1.4187769E+002, 1.3333320E+002, 9.3510530E+001, 1.2420204E+002
 3.8002610E+002, 3.9206089E+002, 1.1317063E+002, 1.3784598E+002, 1.4819188E+002, 1.4248945E+002, 1.4941205E+002, 1.4048805E+002, 9.8002046E+001, 1.3043022E+002
 3.9000629E+002, 3.9264881E+002, 1.1860227E+002, 1.4478653E+002, 1.5551021E+002, 1.4956632E+002, 1.5677792E+002, 1.4751140E+002, 1.0234109E+002, 1.3644952E+002
 4.0002675E+002, 3.9323760E+002, 1.2388706E+002, 1.5157368E+002, 1.6263277E+002, 1.5647292E+002, 1.6394253E+002, 1.5437127E+002, 1.0653439E+002, 1.4226395E+002
 4.1003380E+002, 3.9382637E+002, 1.2903436E+002, 1.5820839E+002, 1.6956732E+002, 1.6321775E+002, 1.7091372E+002, 1.6107254E+002, 1.1060368E+002, 1.4790421E+002
 4.2001542E+002, 3.9441421E+002, 1.3402882E+002, 1.6467281E+002, 1.7630304E+002, 1.6978666E+002, 1.7768137E+002, 1.6759953E+002, 1.1453261E+002, 1.5336616E+002
 4.3002847E+002, 3.9500225E+002, 1.3889059E+002, 1.7098216E+002, 1.8285603E+002, 1.7619446E+002, 1.8426191E+002, 1.7396748E+002, 1.1834829E+002, 1.5867660E+002
 4.4000565E+002, 3.9559019E+002, 1.4362182E+002, 1.7712704E+002, 1.8921511E+002, 1.8242891E+002, 1.9064436E+002, 1.8016568E+002, 1.2205923E+002, 1.6383455E+002
 4.5001151E+002, 3.9617795E+002, 1.4821779E+002, 1.8309385E+002, 1.9536513E+002, 1.8847413E+002, 1.9681360E+002, 1.8617941E+002, 1.2566075E+002, 1.6883152E+002
 4.6000899E+002, 3.9676630E+002, 1.5270451E+002, 1.8892367E+002, 2.0136312E+002, 1.9438244E+002, 2.0282784E+002, 1.9205543E+002, 1.2916509E+002, 1.7372335E+002
 4.7000557E+002, 3.9735470E+002, 1.5709735E+002, 1.9462822E+002, 2.0721923E+002, 2.0016362E+002, 2.0869726E+002, 1.9780478E+002, 1.3259014E+002, 1.7852325E+002
 4.8003186E+002, 3.9794304E+002, 1.6140634E+002, 2.0020845E+002, 2.1292913E+002, 2.0581415E+002, 2.1441732E+002, 2.0342611E+002, 1.3594603E+002, 1.8323178E+002
 4.9001984E+002, 3.9853194E+002, 1.6562519E+002, 2.0565320E+002, 2.1848189E+002, 2.1132097E+002, 2.1997745E+002, 2.0890738E+002, 1.3922699E+002, 1.8783868E+002
 5.0002042E+002, 3.9911988E+002, 1.6975807E+002, 2.1095783E+002, 2.2387248E+002, 2.1668014E+002, 2.2537252E+002, 2.1424412E+002, 1.4244296E+002, 1.9235094E+002
 5.1001284E+002, 3.9970775E+002, 1.7381475E+002, 2.1613459E+002, 2.2911413E+002, 2.2190296E+002, 2.3061609E+002, 2.1944826E+002, 1.4559748E+002, 1.9677303E+002
 5.2002512E+002, 3.9916074E+002, 1.7779735E+002, 2.2118447E+002, 2.3421049E+002, 2.2699212E+002, 2.3571207E+002, 2.2452151E+002, 1.4869065E+002, 2.0111267E+002
 5.3002630E+002, 3.9749333E+002, 1.8170114E+002, 2.2610974E+002, 2.3916347E+002, 2.3194815E+002, 2.4066251E+002, 2.2946550E+002, 1.5170471E+002, 2.0535320E+002
 5.4002435E+002, 3.9582641E+002, 1.8548585E+002, 2.3086285E+002, 2.4391717E+002, 2.3671714E+002, 2.4541098E+002, 2.3422922E+002, 1.5459859E+002, 2.0943590E+002
 5.5000446E+002, 3.9416155E+002, 1.8911989E+002, 2.3540608E+002, 2.4842799E+002, 2.4125573E+002, 2.4991368E+002, 2.3877223E+002, 1.5734803E+002, 2.1331424E+002
 5.6000331E+002, 3.9249618E+002, 1.9258508E+002, 2.3970890E+002, 2.5266389E+002, 2.4553183E+002, 2.5413863E+002, 2.4306300E+002, 1.5995338E+002, 2.1697421E+002
 5.7000677E+002, 3.9082938E+002, 1.9590478E+002, 2.4380287E+002, 2.5667059E+002, 2.4959116E+002, 2.5813195E+002, 2.4713999E+002, 1.6243200E+002, 2.2047124E+002
 5.8000753E+002, 3.8916267E+002, 1.9907312E+002, 2.4767365E+002, 2.6042795E+002, 2.5341298E+002, 2.6187337E+002, 2.5098597E+002, 1.6478417E+002, 2.2378430E+002
 5.9000453E+002, 3.8749615E+002, 2.0209281E+002, 2.5132448E+002, 2.6394417E+002, 2.5700258E+002, 2.6537177E+002, 2.5460530E+002, 1.6701623E+002, 2.2692241E+002
 6.0000229E+002, 3.8583048E+002, 2.0497974E+002, 2.5477571E+002, 2.6724697E+002, 2.6038610E+002, 2.6865534E+002, 2.5802115E+002, 1.6914208E+002, 2.2991637E+002
 6.1000226E+002, 3.8416365E+002, 2.0774449E+002, 2.5804732E+002, 2.7035905E+002, 2.6358472E+002, 2.7174705E+002, 2.6125436E+002, 1.7115933E+002, 2.3277419E+002
 6.2001834E+002, 3.8249554E+002, 2.1038020E+002, 2.6112664E+002, 2.7326067E+002, 2.6657823E+002, 2.7462702E+002, 2.6428863E+002, 1.7306629E+002, 2.3547450E+002
 6.3001392E+002, 3.8082821E+002, 2.1290053E+002, 2.6402743E+002, 2.7597389E+002, 2.6938823E+002, 2.7731770E+002, 2.6714135E+002, 1.7488094E+002, 2.3805213E+002
 6.4002267E+002, 3.7916030E+002, 2.1532348E+002, 2.6677559E+002, 2.7852893E+002, 2.7204379E+002, 2.7984958E+002, 2.6984020E+002, 1.7661452E+002, 2.4052834E+002
 6.5000830E+002, 3.7749502E+002, 2.1764476E+002, 2.6936322E+002, 2.8091107E+002, 2.7453036E+002, 2.8220764E+002, 2.7237417E+002, 1.7826187E+002, 2.4288094E+002
 6.6000953E+002, 3.7582980E+002, 2.1987105E+002, 2.7179514E+002, 2.8312933E+002, 2.7685720E+002, 2.8440107E+002, 2.7474993E+002, 1.7983411E+002, 2.4512995E+002
 6.7001212E+002, 3.7416211E+002, 2.2202401E+002, 2.7410528E+002, 2.8522428E+002, 2.7906437E+002, 2.8647063E+002, 2.7700459E+002, 1.8134136E+002, 2.4730432E+002
 6.8001787E+002, 3.7249464E+002, 2.2409779E+002, 2.7628536E+002, 2.8718208E+002, 2.8113624E+002, 2.8840261E+002, 2.7912649E+002, 1.8278185E+002, 2.4938269E+002
 6.9001771E+002, 3.7082696E+002, 2.2609109E+002, 2.7833061E+002, 2.8899737E+002, 2.8306661E+002, 2.9019188E+002, 2.8111005E+002, 1.8416086E+002, 2.5136332E+002
 7.0003490E+002, 3.6915922E+002, 2.2801160E+002, 2.8025299E+002, 2.9068543E+002, 2.8487051E+002, 2.9185384E+002, 2.8296866E+002, 1.8548172E+002, 2.5325878E+002
 7.1002888E+002, 3.6749181E+002, 2.2985664E+002, 2.8205260E+002, 2.9224519E+002, 2.8654777E+002, 2.9338713E+002, 2.8470237E+002, 1.8673764E+002, 2.5506052E+002
 7.2000142E+002, 3.6582716E+002, 2.3160647E+002, 2.8370077E+002, 2.9364051E+002, 2.8806099E+002, 2.9475570E+002, 2.8627827E+002, 1.8792174E+002, 2.5673119E+002
 7.3001028E+002, 3.6416276E+002, 2.3326685E+002, 2.8520358E+002, 2.9488224E+002, 2.8942163E+002, 2.9597045E+002, 2.8770484E+002, 1.8904112E+002, 2.5829147E+002
 7.4002232E+002, 3.6249424E+002, 2.3486284E+002, 2.8660108E+002, 2.9602160E+002, 2.9067992E+002, 2.9708301E+002, 2.8902727E+002, 1.9011085E+002, 2.5978714E+002
 7.5002883E+002, 3.6082560E+002, 2.3639138E+002, 2.8789041E+002, 2.9705102E+002, 2.9182772E+002, 2.9808576E+002, 2.9024031E+002, 1.9112909E+002, 2.6120157E+002
 7.6002907E+002, 3.5789734E+002, 2.3786012E+002, 2.8908371E+002, 2.9798715E+002, 2.9288205E+002, 2.9899544E+002, 2.9135838E+002, 1.9210133E+002, 2.6255268E+002
 7.7000409E+002, 3.5373537E+002, 2.3923880E+002, 2.9014845E+002, 2.9878436E+002, 2.9379650E+002, 2.9976606E+002, 2.9234238E+002, 1.9299372E+002, 2.6377177E+002
 7.8000468E+002, 3.4957374E+002, 2.4049583E+002, 2.9104960E+002, 2.9940406E+002, 2.9453463E+002, 3.0035865E+002, 2.9315615E+002, 1.9377623E+002, 2.6482430E+002
 7.9002230E+002, 3.4540244E+002, 2.4163492E+002, 2.9180074E+002, 2.9987047E+002, 2.9512265E+002, 3.0079741E+002, 2.9381922E+002, 1.9444837E+002, 2.6574246E+002
 8.0001308E+002, 3.4123478E+002, 2.4264097E+002, 2.9238483E+002, 3.0016025E+002, 2.9553588E+002, 3.0105902E+002, 2.9431123E+002, 1.9500163E+002, 2.6649340E+002
 8.1001733E+002, 3.3706958E+002, 2.4352302E+002, 2.9281325E+002, 3.0029357E+002, 2.9579563E+002, 3.0116378E+002, 2.9464812E+002, 1.9544986E+002, 2.6711329E+002
 8.2002402E+002, 3.3289988E+002, 2.4428243E+002, 2.9308131E+002, 3.0025793E+002, 2.9588722E+002, 3.0109929E+002, 2.9482082E+002, 1.9579932E+002, 2.6758081E+002
 8.3003466E+002, 3.2872916E+002, 2.4491947E+002, 2.9318841E+002, 3.0005830E+002, 2.9581579E+002, 3.0087065E+002, 2.9483111E+002, 1.9605432E+002, 2.6791478E+002
 8.4000882E+002, 3.2456451E+002, 2.4545826E+002, 2.9317189E+002, 2.9974007E+002, 2.9562690E+002, 3.0052341E+002, 2.9472067E+002, 1.9622902E+002, 2.6815148E+002
 8.5000619E+002, 3.2040512E+002, 2.4587681E+002, 2.9299635E+002, 2.9925169E+002, 2.9526660E+002, 3.0000592E+002, 2.9444527E+002, 1.9631096E+002, 2.6823017E+002
 8.6001800E+002, 3.1623589E+002, 2.4618271E+002, 2.9266648E+002, 2.9860577E+002, 2.9474910E+002, 2.9933087E+002, 2.9401371E+002, 1.9631283E+002, 2.6818592E+002
 8.7002973E+002, 3.1207043E+002, 2.4640322E+002, 2.9222410E+002, 2.9785347E+002, 2.9412534E+002, 2.9854969E+002, 2.9347255E+002, 1.9625008E+002, 2.6806089E+002
 8.8002343E+002, 3.3185848E+002, 2.4655064E+002, 2.9168503E+002, 2.9701334E+002, 2.9341295E+002, 2.9768110E+002, 2.9283857E+002, 1.9613785E+002, 2.6787694E+002
 8.9001569E+002, 3.7516754E+002, 2.4688843E+002, 2.9132522E+002, 2.9643901E+002, 2.9295328E+002, 2.9708319E+002, 2.9242050E+002, 1.9632511E+002, 2.6812600E+002
 9.0003296E+002, 4.1850496E+002, 2.4806010E+002, 2.9182649E+002, 2.9694212E+002, 2.9352636E+002, 2.9757662E+002, 2.9295153E+002, 1.9752913E+002, 2.6976393E+002
 9.1000042E+002, 4.6181560E+002, 2.5063591E+002, 2.9382198E+002, 2.9921336E+002, 2.9579539E+002, 2.9985796E+002, 2.9508287E+002, 2.0025598E+002, 2.7343011E+002
 9.2002518E+002, 5.0512900E+002, 2.5500260E+002, 2.9773654E+002, 3.0367397E+002, 3.0016607E+002, 3.0435058E+002, 2.9923181E+002, 2.0482313E+002, 2.7944526E+002
 9.3002581E+002, 5.4849175E+002, 2.6146444E+002, 3.0389756E+002, 3.1064936E+002, 3.0696100E+002, 3.1138005E+002, 3.0572318E+002, 2.1150096E+002, 2.8808418E+002
 9.4000931E+002, 5.9181904E+002, 2.7025819E+002, 3.1256833E+002, 3.2039698E+002, 3.1644500E+002, 3.2120220E+002, 3.1482060E+002, 2.2050394E+002, 2.9954819E+002
 9.5001767E+002, 6.3511313E+002, 2.8160757E+002, 3.2397698E+002, 3.3313379E+002, 3.2885079E+002, 3.3403076E+002, 3.2675371E+002, 2.3207396E+002, 3.1403050E+002
 9.6002083E+002, 6.7847859E+002, 2.9570144E+002, 3.3831949E+002, 3.4904664E+002, 3.4438911E+002, 3.5004808E+002, 3.4172465E+002, 2.4642418E+002, 3.3169737E+002
 9.7002554E+002, 6.7948924E+002, 3.1255469E+002, 3.5560458E+002, 3.6808606E+002, 3.6304497E+002, 3.6919720E+002, 3.5972912E+002, 2.6356617E+002, 3.5239872E+002
 9.8000946E+002, 6.3880724E+002, 3.3050998E+002, 3.7415260E+002, 3.8805967E+002, 3.8269134E+002, 3.8925953E+002, 3.7886507E+002, 2.8123902E+002, 3.7292910E+002
 9.9000735E+002, 5.9811552E+002, 3.4623211E+002, 3.9053938E+002, 4.0498503E+002, 3.9942669E+002, 4.0622504E+002, 3.9545780E+002, 2.9568430E+002, 3.8864834E+002
 1.0000220E+003, 5.5739705E+002, 3.5816998E+002, 4.0316808E+002, 4.1740155E+002, 4.1180530E+002, 4.1863687E+002, 4.0797473E+002, 3.0577775E+002, 3.9872020E+002
 1.0100016E+003, 5.1666894E+002, 3.6617667E+002, 4.1186417E+002, 4.2541624E+002, 4.1990852E+002, 4.2661503E+002, 4.1636956E+002, 3.1183748E+002, 4.0391409E+002
 1.0200189E+003, 4.7596877E+002, 3.7068662E+002, 4.1702839E+002, 4.2963727E+002, 4.2431438E+002, 4.3077825E+002, 4.2113657E+002, 3.1456842E+002, 4.0526236E+002
 1.0300300E+003, 4.3519477E+002, 3.7227448E+002, 4.1919065E+002, 4.3071943E+002, 4.2565266E+002, 4.3178839E+002, 4.2286087E+002, 3.1467483E+002, 4.0367081E+002
 1.0400165E+003, 4.1052879E+002, 3.7155272E+002, 4.1892964E+002, 4.2934256E+002, 4.2458364E+002, 4.3033095E+002, 4.2216528E+002, 3.1281646E+002, 4.0000517E+002
 1.0500062E+003, 4.0167892E+002, 3.6929471E+002, 4.1700312E+002, 4.2637354E+002, 4.2195169E+002, 4.2727930E+002, 4.1985387E+002, 3.0981542E+002, 3.9530538E+002
 1.0600151E+003, 3.9281840E+002, 3.6633066E+002, 4.1423060E+002, 4.2271008E+002, 4.1862433E+002, 4.2353802E+002, 4.1677403E+002, 3.0650309E+002, 3.9054292E+002
 1.0700276E+003, 3.8394346E+002, 3.6316781E+002, 4.1111896E+002, 4.1884542E+002, 4.1507573E+002, 4.1960274E+002, 4.1341873E+002, 3.0325863E+002, 3.8609878E+002
 1.0800297E+003, 3.7507222E+002, 3.6003230E+002, 4.0789723E+002, 4.1496561E+002, 4.1148830E+002, 4.1565869E+002, 4.0999386E+002, 3.0018229E+002, 3.8202627E+002
 1.0900255E+003, 3.6620608E+002, 3.5697281E+002, 4.0460604E+002, 4.1106363E+002, 4.0785615E+002, 4.1169723E+002, 4.0651597E+002, 2.9724729E+002, 3.7821906E+002
 1.1000080E+003, 3.5735892E+002, 3.5399114E+002, 4.0124623E+002, 4.0711437E+002, 4.0415690E+002, 4.0769209E+002, 4.0297319E+002, 2.9441499E+002, 3.7458976E+002
 1.1100282E+003, 3.4848858E+002, 3.5106959E+002, 3.9779849E+002, 4.0308734E+002, 4.0036390E+002, 4.0361201E+002, 3.9934109E+002, 2.9165591E+002, 3.7108319E+002
 1.1200240E+003, 3.3961853E+002, 3.4823527E+002, 3.9431274E+002, 3.9904277E+002, 3.9654118E+002, 3.9951694E+002, 3.9567579E+002, 2.8897510E+002, 3.6773122E+002
 1.1300228E+003, 3.3075866E+002, 3.4545899E+002, 3.9076596E+002, 3.9494105E+002, 3.9264949E+002, 3.9536668E+002, 3.9194636E+002, 2.8633411E+002, 3.6444204E+002
 1.1400238E+003, 3.2189284E+002, 3.4270686E+002, 3.8712296E+002, 3.9074281E+002, 3.8865014E+002, 3.9112170E+002, 3.8811526E+002, 2.8371028E+002, 3.6116905E+002
 1.1500055E+003, 3.1303892E+002, 3.3998062E+002, 3.8340058E+002, 3.8647213E+002, 3.8457011E+002, 3.8680586E+002, 3.8420400E+002, 2.8110627E+002, 3.5792086E+002
 1.1600071E+003, 3.0418113E+002, 3.3728812E+002, 3.7962585E+002, 3.8216602E+002, 3.8044947E+002, 3.8245595E+002, 3.8024577E+002, 2.7852537E+002, 3.5472328E+002
 1.1700077E+003, 2.9531595E+002, 3.3459641E+002, 3.7576760E+002, 3.7777767E+002, 3.7624051E+002, 3.7802480E+002, 3.7620179E+002, 2.7593720E+002, 3.5149295E+002
 1.1800393E+003, 2.8643981E+002, 3.3190537E+002, 3.7183279E+002, 3.7332408E+002, 3.7196115E+002, 3.7352961E+002, 3.7208387E+002, 2.7335180E+002, 3.4826010E+002
 1.1900391E+003, 2.7756285E+002, 3.2920735E+002, 3.6782273E+002, 3.6880133E+002, 3.6760687E+002, 3.6896640E+002, 3.6789088E+002, 2.7076271E+002, 3.4499375E+002
 1.2000302E+003, 2.6869877E+002, 3.2650143E+002, 3.6374580E+002, 3.6422161E+002, 3.6319010E+002, 3.6434744E+002, 3.6363302E+002, 2.6817387E+002, 3.4170294E+002
 1.2100370E+003, 2.5984057E+002, 3.2377850E+002, 3.5959803E+002, 3.5958014E+002, 3.5870711E+002, 3.5966773E+002, 3.5930653E+002, 2.6557975E+002, 3.3837520E+002
 1.2200237E+003, 2.5097743E+002, 3.2103313E+002, 3.5537711E+002, 3.5487444E+002, 3.5415509E+002, 3.5492484E+002, 3.5490880E+002, 2.6298212E+002, 3.3500698E+002
 1.2300346E+003, 2.4211169E+002, 3.1828697E+002, 3.5112096E+002, 3.5015205E+002, 3.4958304E+002, 3.5016629E+002, 3.5048324E+002, 2.6039576E+002, 3.3164269E+002
