s,C,C,C,C,C,C,C
Time,"Air Temp","VTT_1","IRSN_1","TRAC_2","TRAC_4","GRS_2","NRC_2"
 0.0000000E+000, 2.5000000E+001, 2.5000000E+001, 2.5000000E+001, 2.5000000E+001, 2.5000000E+001, 2.5000000E+001, 2.5000000E+001
 1.0200000E+001, 2.5421647E+001, 2.5000022E+001, 2.5000018E+001, 2.5000026E+001, 2.5000026E+001, 2.5000028E+001, 2.5000209E+001
 2.0200000E+001, 2.6216000E+001, 2.5000614E+001, 2.5000513E+001, 2.5000715E+001, 2.5000725E+001, 2.5000682E+001, 2.5003173E+001
 3.0200000E+001, 2.9182381E+001, 2.5003227E+001, 2.5002708E+001, 2.5003694E+001, 2.5003747E+001, 2.5003274E+001, 2.5011494E+001
 4.0008309E+001, 4.4071037E+001, 2.5012022E+001, 2.5010064E+001, 2.5013747E+001, 2.5013944E+001, 2.5012135E+001, 2.5047429E+001
 5.0003385E+001, 6.0755903E+001, 2.5056212E+001, 2.5046467E+001, 2.5064299E+001, 2.5065179E+001, 2.5055756E+001, 2.5214272E+001
 6.0077725E+001, 7.7616021E+001, 2.5189398E+001, 2.5155386E+001, 2.5214668E+001, 2.5217490E+001, 2.5176301E+001, 2.5584611E+001
 7.0011574E+001, 9.4432193E+001, 2.5451275E+001, 2.5369457E+001, 2.5507057E+001, 2.5513559E+001, 2.5398527E+001, 2.6172884E+001
 8.0024647E+001, 1.1120124E+002, 2.5876022E+001, 2.5715800E+001, 2.5977586E+001, 2.5989854E+001, 2.5742038E+001, 2.7006533E+001
 9.0008397E+001, 1.2801951E+002, 2.6494613E+001, 2.6218421E+001, 2.6658766E+001, 2.6679208E+001, 2.6223789E+001, 2.8095282E+001
 1.0005514E+002, 1.4486400E+002, 2.7324227E+001, 2.6891019E+001, 2.7567967E+001, 2.7599232E+001, 2.6851585E+001, 2.9431759E+001
 1.1000481E+002, 1.6168430E+002, 2.8383899E+001, 2.7747976E+001, 2.8725533E+001, 2.8770479E+001, 2.7637665E+001, 3.1053164E+001
 1.2000511E+002, 1.7307345E+002, 2.9693101E+001, 2.8803870E+001, 3.0151741E+001, 3.0213457E+001, 2.8592213E+001, 3.2942214E+001
 1.3002725E+002, 1.7919110E+002, 3.1246840E+001, 3.0052860E+001, 3.1838542E+001, 3.1919983E+001, 2.9698640E+001, 3.4995497E+001
 1.4003412E+002, 1.8531109E+002, 3.2983250E+001, 3.1441449E+001, 3.3715573E+001, 3.3818688E+001, 3.0896654E+001, 3.7083174E+001
 1.5000989E+002, 1.9141997E+002, 3.4857366E+001, 3.2929361E+001, 3.5734579E+001, 3.5860609E+001, 3.2154474E+001, 3.9215820E+001
 1.6003657E+002, 1.9752641E+002, 3.6847542E+001, 3.4496766E+001, 3.7872919E+001, 3.8022901E+001, 3.3458813E+001, 4.1369203E+001
 1.7001315E+002, 2.0363937E+002, 3.8937287E+001, 3.6128992E+001, 4.0114434E+001, 4.0289308E+001, 3.4803608E+001, 4.3580146E+001
 1.8002777E+002, 2.0975094E+002, 4.1126016E+001, 3.7824779E+001, 4.2459281E+001, 4.2659950E+001, 3.6192005E+001, 4.5838379E+001
 1.9002581E+002, 2.1586341E+002, 4.3411303E+001, 3.9582049E+001, 4.4905583E+001, 4.5133050E+001, 3.7625346E+001, 4.8177948E+001
 2.0003463E+002, 2.2197646E+002, 4.5805475E+001, 4.1411988E+001, 4.7466472E+001, 4.7721517E+001, 3.9117116E+001, 5.0631371E+001
 2.1000456E+002, 2.3101347E+002, 4.8306912E+001, 4.3314376E+001, 5.0139736E+001, 5.0423147E+001, 4.0665204E+001, 5.3170266E+001
 2.2003580E+002, 2.4293569E+002, 5.0948760E+001, 4.5316892E+001, 5.2963076E+001, 5.3276139E+001, 4.2303402E+001, 5.5941773E+001
 2.3000341E+002, 2.5486008E+002, 5.3790269E+001, 4.7470343E+001, 5.6002283E+001, 5.6347104E+001, 4.4084954E+001, 5.9022729E+001
 2.4002763E+002, 2.6677556E+002, 5.6882466E+001, 4.9817987E+001, 5.9312200E+001, 5.9691589E+001, 4.6045479E+001, 6.2448307E+001
 2.5000924E+002, 2.7870328E+002, 6.0257215E+001, 5.2388264E+001, 6.2924744E+001, 6.3341746E+001, 4.8202596E+001, 6.6194009E+001
 2.6001282E+002, 2.9061138E+002, 6.3926318E+001, 5.5191095E+001, 6.6851772E+001, 6.7309663E+001, 5.0560027E+001, 7.0265361E+001
 2.7001143E+002, 3.0253557E+002, 6.7918831E+001, 5.8248880E+001, 7.1123802E+001, 7.1626071E+001, 5.3135458E+001, 7.4705051E+001
 2.8003862E+002, 3.1448121E+002, 7.2266594E+001, 6.1589697E+001, 7.5772525E+001, 7.6322326E+001, 5.5956304E+001, 7.9566893E+001
 2.9001624E+002, 3.2640725E+002, 7.6978835E+001, 6.5222168E+001, 8.0805912E+001, 8.1406237E+001, 5.9025060E+001, 8.4808079E+001
 3.0001401E+002, 3.3830941E+002, 8.2051779E+001, 6.9142198E+001, 8.6219039E+001, 8.6873045E+001, 6.2332278E+001, 9.0380788E+001
 3.1002683E+002, 3.5024139E+002, 8.7508844E+001, 7.3368175E+001, 9.2036381E+001, 9.2747327E+001, 6.5895710E+001, 9.6351893E+001
 3.2000541E+002, 3.6216323E+002, 9.3350458E+001, 7.7901143E+001, 9.8257351E+001, 9.9028211E+001, 6.9718176E+001, 1.0270770E+002
 3.3001755E+002, 3.7407503E+002, 9.9594773E+001, 8.2758673E+001, 1.0489911E+002, 1.0573244E+002, 7.3820536E+001, 1.0951960E+002
 3.4003673E+002, 3.8261225E+002, 1.0628161E+002, 8.7970116E+001, 1.1200397E+002, 1.1290259E+002, 7.8222274E+001, 1.1675664E+002
 3.5002077E+002, 3.8779443E+002, 1.1333214E+002, 9.3466539E+001, 1.1948281E+002, 1.2044884E+002, 8.2834975E+001, 1.2409783E+002
 3.6002517E+002, 3.9296670E+002, 1.2061025E+002, 9.9140494E+001, 1.2717868E+002, 1.2821113E+002, 8.7554208E+001, 1.3137593E+002
 3.7001559E+002, 3.9814645E+002, 1.2803084E+002, 1.0492053E+002, 1.3500036E+002, 1.3609676E+002, 9.2325539E+001, 1.3860317E+002
 3.8003905E+002, 4.0332661E+002, 1.3555506E+002, 1.1076982E+002, 1.4291030E+002, 1.4406812E+002, 9.7127455E+001, 1.4579619E+002
 3.9001175E+002, 4.0850580E+002, 1.4314266E+002, 1.1665949E+002, 1.5086696E+002, 1.5208308E+002, 1.0195100E+002, 1.5299019E+002
 4.0002821E+002, 4.1368111E+002, 1.5080589E+002, 1.2259630E+002, 1.5888780E+002, 1.6015961E+002, 1.0680637E+002, 1.6024139E+002
 4.1002357E+002, 4.1886337E+002, 1.5855063E+002, 1.2859248E+002, 1.6697658E+002, 1.6830104E+002, 1.1171214E+002, 1.6754319E+002
 4.2002795E+002, 4.2403929E+002, 1.6635218E+002, 1.3463563E+002, 1.7510626E+002, 1.7647999E+002, 1.1666131E+002, 1.7486799E+002
 4.3002250E+002, 4.2921754E+002, 1.7419614E+002, 1.4072235E+002, 1.8326016E+002, 1.8467949E+002, 1.2165494E+002, 1.8222490E+002
 4.4002684E+002, 4.3439791E+002, 1.8210976E+002, 1.4686696E+002, 1.9147407E+002, 1.9293657E+002, 1.2669922E+002, 1.8968648E+002
 4.5003015E+002, 4.3957850E+002, 1.9009254E+002, 1.5307481E+002, 1.9974459E+002, 2.0124753E+002, 1.3180002E+002, 1.9719136E+002
 4.6003121E+002, 4.4475798E+002, 1.9810755E+002, 1.5933155E+002, 2.0802699E+002, 2.0956655E+002, 1.3695479E+002, 2.0470702E+002
 4.7003082E+002, 4.4993590E+002, 2.0615332E+002, 1.6564113E+002, 2.1632135E+002, 2.1789370E+002, 1.4217072E+002, 2.1230595E+002
 4.8001187E+002, 4.5510960E+002, 2.1424206E+002, 1.7200840E+002, 2.2464488E+002, 2.2624704E+002, 1.4744441E+002, 2.1997665E+002
 4.9001810E+002, 4.6028451E+002, 2.2237944E+002, 1.7843476E+002, 2.3300460E+002, 2.3463415E+002, 1.5276666E+002, 2.2766092E+002
 5.0000864E+002, 4.6546208E+002, 2.3054011E+002, 1.8491136E+002, 2.4136945E+002, 2.4302320E+002, 1.5814161E+002, 2.3536965E+002
 5.1000633E+002, 4.7063667E+002, 2.3870594E+002, 1.9143502E+002, 2.4971841E+002, 2.5139252E+002, 1.6357872E+002, 2.4313493E+002
 5.2001107E+002, 4.7581676E+002, 2.4689321E+002, 1.9801974E+002, 2.5807029E+002, 2.5976129E+002, 1.6908698E+002, 2.5093582E+002
 5.3001501E+002, 4.8099717E+002, 2.5507421E+002, 2.0464826E+002, 2.6639467E+002, 2.6809896E+002, 1.7465073E+002, 2.5873360E+002
 5.4002027E+002, 4.8617800E+002, 2.6325606E+002, 2.1132294E+002, 2.7470300E+002, 2.7641746E+002, 1.8027111E+002, 2.6658313E+002
 5.5000463E+002, 4.9135396E+002, 2.7144947E+002, 2.1804918E+002, 2.8300972E+002, 2.8473170E+002, 1.8595278E+002, 2.7453669E+002
 5.6003506E+002, 4.9653468E+002, 2.7966843E+002, 2.2484155E+002, 2.9132630E+002, 2.9305311E+002, 1.9170408E+002, 2.8245600E+002
 5.7001889E+002, 5.0171879E+002, 2.8785223E+002, 2.3166396E+002, 2.9958549E+002, 3.0131371E+002, 1.9750354E+002, 2.9037816E+002
 5.8001848E+002, 5.0689279E+002, 2.9603762E+002, 2.3853083E+002, 3.0783605E+002, 3.0956360E+002, 2.0335754E+002, 2.9839708E+002
 5.9000948E+002, 5.1206896E+002, 3.0422540E+002, 2.4544917E+002, 3.1607367E+002, 3.1779801E+002, 2.0927167E+002, 3.0638278E+002
 6.0002785E+002, 5.1724965E+002, 3.1239455E+002, 2.5240753E+002, 3.2427554E+002, 3.2599396E+002, 2.1524034E+002, 3.1437799E+002
 6.1001452E+002, 5.2242748E+002, 3.2052377E+002, 2.5938995E+002, 3.3241970E+002, 3.3412968E+002, 2.2125118E+002, 3.2229736E+002
 6.2002542E+002, 5.2500000E+002, 3.2858692E+002, 2.6637973E+002, 3.4047865E+002, 3.4217757E+002, 2.2729391E+002, 3.3015648E+002
 6.3002627E+002, 5.2500000E+002, 3.3653332E+002, 2.7332778E+002, 3.4839560E+002, 3.5008028E+002, 2.3329644E+002, 3.3767946E+002
 6.4000344E+002, 5.2500000E+002, 3.4420718E+002, 2.8008866E+002, 3.5600466E+002, 3.5767101E+002, 2.3909591E+002, 3.4466071E+002
 6.5000334E+002, 5.2500000E+002, 3.5160895E+002, 2.8662867E+002, 3.6332008E+002, 3.6496533E+002, 2.4465225E+002, 3.5128567E+002
 6.6003123E+002, 5.2500000E+002, 3.5865270E+002, 2.9289856E+002, 3.7024141E+002, 3.7186165E+002, 2.4994811E+002, 3.5731797E+002
 6.7002668E+002, 5.3144592E+002, 3.6532715E+002, 2.9888909E+002, 3.7676954E+002, 3.7836176E+002, 2.5500555E+002, 3.6313031E+002
 6.8003035E+002, 5.4421959E+002, 3.7184351E+002, 3.0477690E+002, 3.8314882E+002, 3.8471321E+002, 2.6005606E+002, 3.6953605E+002
 6.9000385E+002, 5.5698461E+002, 3.7859202E+002, 3.1091518E+002, 3.8980415E+002, 3.9134446E+002, 2.6549119E+002, 3.7703968E+002
 7.0000729E+002, 5.6974588E+002, 3.8580924E+002, 3.1752783E+002, 3.9697569E+002, 3.9849669E+002, 2.7149006E+002, 3.8556664E+002
 7.1001740E+002, 5.8253708E+002, 3.9361708E+002, 3.2472667E+002, 4.0477866E+002, 4.0628469E+002, 2.7811082E+002, 3.9493153E+002
 7.2000663E+002, 5.9531161E+002, 4.0192873E+002, 3.3246584E+002, 4.1310219E+002, 4.1459549E+002, 2.8529796E+002, 4.0487981E+002
 7.3002514E+002, 6.0809195E+002, 4.1078588E+002, 3.4076354E+002, 4.2199217E+002, 4.2347505E+002, 2.9304850E+002, 4.1550842E+002
 7.4001195E+002, 6.2087501E+002, 4.2010825E+002, 3.4956275E+002, 4.3135094E+002, 4.3282381E+002, 3.0131319E+002, 4.2652187E+002
 7.5002527E+002, 6.3364944E+002, 4.2989011E+002, 3.5884396E+002, 4.4117749E+002, 4.4264067E+002, 3.1007752E+002, 4.3815510E+002
 7.6001317E+002, 6.4055955E+002, 4.4013717E+002, 3.6859179E+002, 4.5147607E+002, 4.5292962E+002, 3.1930721E+002, 4.5014053E+002
 7.7002835E+002, 6.4167058E+002, 4.5055387E+002, 3.7855320E+002, 4.6190958E+002, 4.6335003E+002, 3.2868526E+002, 4.6128520E+002
 7.8002077E+002, 6.4278195E+002, 4.6064604E+002, 3.8827642E+002, 4.7194644E+002, 4.7336719E+002, 3.3771512E+002, 4.7103248E+002
 7.9002601E+002, 6.4389324E+002, 4.7016053E+002, 3.9750994E+002, 4.8134051E+002, 4.8273519E+002, 3.4620716E+002, 4.7977460E+002
 8.0002315E+002, 6.4500426E+002, 4.7913851E+002, 4.0624773E+002, 4.9016178E+002, 4.9152640E+002, 3.5419053E+002, 4.8780485E+002
 8.1000511E+002, 6.4611380E+002, 4.8756861E+002, 4.1447477E+002, 4.9840805E+002, 4.9973975E+002, 3.6167385E+002, 4.9520363E+002
 8.2000998E+002, 6.4722455E+002, 4.9549146E+002, 4.2223663E+002, 5.0612551E+002, 5.0742215E+002, 3.6872644E+002, 5.0201487E+002
 8.3000557E+002, 6.4833589E+002, 5.0293357E+002, 4.2956747E+002, 5.1334635E+002, 5.1460667E+002, 3.7539100E+002, 5.0839843E+002
 8.4002102E+002, 6.4944699E+002, 5.0997651E+002, 4.3653416E+002, 5.2016276E+002, 5.2138664E+002, 3.8172555E+002, 5.1447512E+002
 8.5001695E+002, 6.5055923E+002, 5.1667664E+002, 4.4319115E+002, 5.2663489E+002, 5.2782248E+002, 3.8778165E+002, 5.2033915E+002
 8.6002133E+002, 6.5167044E+002, 5.2306656E+002, 4.4957626E+002, 5.3279520E+002, 5.3394675E+002, 3.9359201E+002, 5.2599448E+002
 8.7000910E+002, 6.5278076E+002, 5.2918246E+002, 4.5572542E+002, 5.3868092E+002, 5.3979695E+002, 3.9917717E+002, 5.3132470E+002
 8.8000350E+002, 6.5389074E+002, 5.3492168E+002, 4.6158100E+002, 5.4417432E+002, 5.4525464E+002, 4.0449034E+002, 5.3613412E+002
 8.9002369E+002, 6.5500302E+002, 5.4033253E+002, 4.6718428E+002, 5.4933406E+002, 5.5037896E+002, 4.0958700E+002, 5.4078647E+002
 9.0000081E+002, 6.5611392E+002, 5.4547857E+002, 4.7257885E+002, 5.5423276E+002, 5.5524321E+002, 4.1449979E+002, 5.4533100E+002
 9.1002403E+002, 6.5722510E+002, 5.5040482E+002, 4.7780637E+002, 5.5891508E+002, 5.5989196E+002, 4.1926333E+002, 5.4971738E+002
 9.2001907E+002, 6.5833727E+002, 5.5508437E+002, 4.8285594E+002, 5.6334740E+002, 5.6429112E+002, 4.2386275E+002, 5.5383798E+002
 9.3001021E+002, 6.5944752E+002, 5.5955529E+002, 4.8774922E+002, 5.6757716E+002, 5.6848899E+002, 4.2832083E+002, 5.5792456E+002
 9.4002735E+002, 6.5364552E+002, 5.6383544E+002, 4.9250399E+002, 5.7161705E+002, 5.7249786E+002, 4.3263703E+002, 5.6167947E+002
 9.5001289E+002, 6.4101285E+002, 5.6764542E+002, 4.9687776E+002, 5.7515206E+002, 5.7600022E+002, 4.3648451E+002, 5.6402376E+002
 9.6000491E+002, 6.2839379E+002, 5.7050562E+002, 5.0043482E+002, 5.7766421E+002, 5.7847471E+002, 4.3937739E+002, 5.6434335E+002
 9.7001530E+002, 6.1575766E+002, 5.7227192E+002, 5.0302346E+002, 5.7902547E+002, 5.7979354E+002, 4.4124183E+002, 5.6346909E+002
 9.8000009E+002, 6.0313206E+002, 5.7309982E+002, 5.0474411E+002, 5.7942618E+002, 5.8014915E+002, 4.4222334E+002, 5.6184943E+002
 9.9001125E+002, 5.9049904E+002, 5.7304042E+002, 5.0566183E+002, 5.7891900E+002, 5.7959483E+002, 4.4241412E+002, 5.5922776E+002
 1.0000019E+003, 5.7787098E+002, 5.7208741E+002, 5.0580166E+002, 5.7749880E+002, 5.7812602E+002, 4.4187508E+002, 5.5587460E+002
 1.0100126E+003, 5.6523671E+002, 5.7039023E+002, 5.0529292E+002, 5.7533166E+002, 5.7590985E+002, 4.4074715E+002, 5.5207660E+002
 1.0200219E+003, 5.5259285E+002, 5.6806909E+002, 5.0424541E+002, 5.7254439E+002, 5.7307346E+002, 4.3913384E+002, 5.4797857E+002
 1.0300231E+003, 5.3995409E+002, 5.6518813E+002, 5.0272928E+002, 5.6919910E+002, 5.6967942E+002, 4.3709917E+002, 5.4346107E+002
 1.0400024E+003, 5.2733611E+002, 5.6179749E+002, 5.0079759E+002, 5.6534644E+002, 5.6577831E+002, 4.3469735E+002, 5.3857678E+002
 1.0500122E+003, 5.1470638E+002, 5.5784367E+002, 4.9843097E+002, 5.6092181E+002, 5.6130527E+002, 4.3191530E+002, 5.3315303E+002
 1.0600015E+003, 5.0208025E+002, 5.5344828E+002, 4.9572266E+002, 5.5606447E+002, 5.5640031E+002, 4.2885626E+002, 5.2771747E+002
 1.0700232E+003, 4.8943280E+002, 5.4871046E+002, 4.9275033E+002, 5.5087638E+002, 5.5116550E+002, 4.2557385E+002, 5.2217132E+002
 1.0800066E+003, 4.7680598E+002, 5.4365543E+002, 4.8954010E+002, 5.4537835E+002, 5.4562144E+002, 4.2208719E+002, 5.1642673E+002
 1.0900210E+003, 4.6417140E+002, 5.3833473E+002, 4.8613618E+002, 5.3962531E+002, 5.3982316E+002, 4.1844481E+002, 5.1062517E+002
 1.1000217E+003, 4.5153301E+002, 5.3278511E+002, 4.8256558E+002, 5.3365449E+002, 5.3380771E+002, 4.1466080E+002, 5.0483362E+002
 1.1100312E+003, 4.3889522E+002, 5.2704009E+002, 4.7885416E+002, 5.2749695E+002, 5.2760607E+002, 4.1075962E+002, 4.9884151E+002
 1.1200189E+003, 4.2626682E+002, 5.2106850E+002, 4.7498628E+002, 5.2111732E+002, 5.2118300E+002, 4.0674070E+002, 4.9272677E+002
 1.1300009E+003, 4.1748691E+002, 5.1492464E+002, 4.7099856E+002, 5.1457546E+002, 5.1459840E+002, 4.0263963E+002, 4.8658613E+002
 1.1400137E+003, 4.1248794E+002, 5.0863828E+002, 4.6692385E+002, 5.0790444E+002, 5.0788601E+002, 3.9851043E+002, 4.8052868E+002
 1.1500162E+003, 4.0748475E+002, 5.0234328E+002, 4.6287712E+002, 5.0125221E+002, 5.0119540E+002, 3.9448659E+002, 4.7485073E+002
 1.1600013E+003, 4.0248706E+002, 4.9618131E+002, 4.5896842E+002, 4.9476766E+002, 4.9467606E+002, 3.9065923E+002, 4.6960788E+002
 1.1700296E+003, 3.9748235E+002, 4.9020388E+002, 4.5523449E+002, 4.8849965E+002, 4.8837649E+002, 3.8703465E+002, 4.6473764E+002
 1.1800080E+003, 3.9248049E+002, 4.8438916E+002, 4.5165651E+002, 4.8241518E+002, 4.8226305E+002, 3.8357937E+002, 4.5993307E+002
 1.1900304E+003, 3.8748090E+002, 4.7867990E+002, 4.4818650E+002, 4.7645085E+002, 4.7627187E+002, 3.8025047E+002, 4.5519414E+002
 1.2000026E+003, 3.8248246E+002, 4.7306014E+002, 4.4480123E+002, 4.7058994E+002, 4.7038599E+002, 3.7702401E+002, 4.5054058E+002
 1.2100100E+003, 3.7748694E+002, 4.6754616E+002, 4.4150189E+002, 4.6485084E+002, 4.6462369E+002, 3.7390146E+002, 4.4604582E+002
 1.2200248E+003, 3.7248099E+002, 4.6215606E+002, 4.3829471E+002, 4.5925387E+002, 4.5900500E+002, 3.7088586E+002, 4.4180634E+002
 1.2300304E+003, 3.6747796E+002, 4.5693584E+002, 4.3520461E+002, 4.5384515E+002, 4.5357589E+002, 3.6798927E+002, 4.3768253E+002
 1.2400318E+003, 3.6247615E+002, 4.5179740E+002, 4.3216582E+002, 4.4852479E+002, 4.4823605E+002, 3.6515538E+002, 4.3349936E+002
 1.2500121E+003, 3.5747893E+002, 4.4674243E+002, 4.2917287E+002, 4.4329750E+002, 4.4299028E+002, 3.6238631E+002, 4.2933082E+002
 1.2600247E+003, 3.5248104E+002, 4.4170691E+002, 4.2617782E+002, 4.3809355E+002, 4.3776865E+002, 3.5964202E+002, 4.2506815E+002
 1.2700004E+003, 3.4748503E+002, 4.3669091E+002, 4.2317540E+002, 4.3291559E+002, 4.3257386E+002, 3.5692501E+002, 4.2080609E+002
 1.2800033E+003, 3.4249024E+002, 4.3174530E+002, 4.2019777E+002, 4.2782096E+002, 4.2746334E+002, 3.5426553E+002, 4.1676409E+002
 1.2900053E+003, 3.3748905E+002, 4.2688609E+002, 4.1725714E+002, 4.2282336E+002, 4.2245069E+002, 3.5166434E+002, 4.1270106E+002
 1.3000071E+003, 3.3248521E+002, 4.2204319E+002, 4.1430272E+002, 4.1784441E+002, 4.1745720E+002, 3.4907866E+002, 4.0854111E+002
 1.3100258E+003, 3.2748149E+002, 4.1727892E+002, 4.1137630E+002, 4.1295716E+002, 4.1255613E+002, 3.4655179E+002, 4.0467716E+002
 1.3200202E+003, 3.2247824E+002, 4.1259953E+002, 4.0848297E+002, 4.0816149E+002, 4.0774711E+002, 3.4406979E+002, 4.0070222E+002
 1.3300134E+003, 3.1748271E+002, 4.0795528E+002, 4.0558653E+002, 4.0340411E+002, 4.0297688E+002, 3.4160899E+002, 3.9674494E+002
 1.3400262E+003, 3.1248103E+002, 4.0337539E+002, 4.0270865E+002, 3.9871960E+002, 3.9828005E+002, 3.3919001E+002, 3.9290562E+002
 1.3500243E+003, 3.0747811E+002, 3.9882305E+002, 3.9982289E+002, 3.9406422E+002, 3.9361277E+002, 3.3678500E+002, 3.8889695E+002
 1.3600189E+003, 3.0247966E+002, 3.9426265E+002, 3.9690112E+002, 3.8940132E+002, 3.8893830E+002, 3.3438009E+002, 3.8484014E+002
 1.3700002E+003, 2.9748560E+002, 3.8971481E+002, 3.9395826E+002, 3.8475514E+002, 3.8428091E+002, 3.3198846E+002, 3.8083110E+002
 1.3800157E+003, 2.9248470E+002, 3.8521122E+002, 3.9101935E+002, 3.8016093E+002, 3.7967596E+002, 3.2962835E+002, 3.7696200E+002
 1.3900238E+003, 2.8747908E+002, 3.8078087E+002, 3.8810735E+002, 3.7564817E+002, 3.7515294E+002, 3.2731440E+002, 3.7317989E+002
 1.4000017E+003, 2.8248356E+002, 3.7640138E+002, 3.8520643E+002, 3.7118848E+002, 3.7068332E+002, 3.2502617E+002, 3.6934210E+002
 1.4100279E+003, 2.7748429E+002, 3.7205415E+002, 3.8230374E+002, 3.6676407E+002, 3.6624925E+002, 3.2275746E+002, 3.6551915E+002
 1.4200004E+003, 2.7248218E+002, 3.6774650E+002, 3.7940479E+002, 3.6238307E+002, 3.6185889E+002, 3.2051250E+002, 3.6176660E+002
 1.4300028E+003, 2.6748866E+002, 3.6348803E+002, 3.7651788E+002, 3.5805436E+002, 3.5752102E+002, 3.1829416E+002, 3.5801534E+002
 1.4400212E+003, 2.6248136E+002, 3.5924832E+002, 3.7362186E+002, 3.5374592E+002, 3.5320356E+002, 3.1608649E+002, 3.5425571E+002
 1.4500222E+003, 2.5747844E+002, 3.5501585E+002, 3.7070740E+002, 3.4944460E+002, 3.4889341E+002, 3.1388105E+002, 3.5040819E+002
 1.4600323E+003, 2.5247693E+002, 3.5078721E+002, 3.6777189E+002, 3.4514844E+002, 3.4458867E+002, 3.1168008E+002, 3.4658861E+002
 1.4700241E+003, 2.4747418E+002, 3.4660628E+002, 3.6485080E+002, 3.4090544E+002, 3.4033730E+002, 3.0951158E+002, 3.4294570E+002
 1.4800414E+003, 2.4247319E+002, 3.4248124E+002, 3.6195116E+002, 3.3672203E+002, 3.3614577E+002, 3.0737411E+002, 3.3924177E+002
 1.4900387E+003, 2.3747086E+002, 3.3835891E+002, 3.5903212E+002, 3.3254087E+002, 3.3195664E+002, 3.0523722E+002, 3.3553297E+002
 1.5000226E+003, 2.3247259E+002, 3.3431415E+002, 3.5615211E+002, 3.2844456E+002, 3.2785261E+002, 3.0315196E+002, 3.3205410E+002
 1.5100376E+003, 2.2747201E+002, 3.3033735E+002, 3.5330738E+002, 3.2441880E+002, 3.2381923E+002, 3.0110149E+002, 3.2852745E+002
 1.5200129E+003, 2.2247663E+002, 3.2635048E+002, 3.5043667E+002, 3.2037829E+002, 3.1977117E+002, 2.9903537E+002, 3.2482819E+002
 1.5300391E+003, 2.1747349E+002, 3.2237540E+002, 3.4755585E+002, 3.1635213E+002, 3.1573765E+002, 2.9698071E+002, 3.2126665E+002
 1.5400402E+003, 2.1246894E+002, 3.1844078E+002, 3.4468857E+002, 3.1237022E+002, 3.1174848E+002, 2.9495315E+002, 3.1777754E+002
