s,C,C,C,C,C,C,C,C,C
Time,"Air Temp","IRSN_1","IRSN_2","TRAC_2","TRAC_3","TRAC_4","VTT_1","GRS_2","NRC_1"
 0.0000000E+000, 2.0000000E+001, 2.0000000E+001, 2.0000000E+001, 2.0000000E+001, 2.0000000E+001, 2.0000000E+001, 2.0000000E+001, 2.0000000E+001, 2.0000000E+001
 1.0200000E+001, 2.2365918E+001, 2.0000094E+001, 2.0000097E+001, 2.0000135E+001, 2.0000131E+001, 2.0000137E+001, 2.0000113E+001, 2.0000144E+001, 2.0000222E+001
 2.0200000E+001, 2.6956000E+001, 2.0002790E+001, 2.0002958E+001, 2.0003887E+001, 2.0003723E+001, 2.0003943E+001, 2.0003339E+001, 2.0003715E+001, 2.0005526E+001
 3.0009653E+001, 3.7504887E+001, 2.0015284E+001, 2.0016567E+001, 2.0020980E+001, 2.0020016E+001, 2.0021278E+001, 2.0018317E+001, 2.0018523E+001, 2.0027245E+001
 4.0004994E+001, 5.9509128E+001, 2.0052979E+001, 2.0058186E+001, 2.0072762E+001, 2.0069491E+001, 2.0073761E+001, 2.0063921E+001, 2.0061749E+001, 2.0091329E+001
 5.0029477E+001, 8.2173816E+001, 2.0161663E+001, 2.0179379E+001, 2.0222181E+001, 2.0212318E+001, 2.0225169E+001, 2.0196137E+001, 2.0183055E+001, 2.0271618E+001
 6.0045358E+001, 1.0480558E+002, 2.0397394E+001, 2.0445585E+001, 2.0544293E+001, 2.0519785E+001, 2.0551428E+001, 2.0483657E+001, 2.0432719E+001, 2.0641779E+001
 7.0060044E+001, 1.2743918E+002, 2.0808500E+001, 2.0915456E+001, 2.1102952E+001, 2.1052400E+001, 2.1117086E+001, 2.0986349E+001, 2.0848491E+001, 2.1255428E+001
 8.0007662E+001, 1.5004005E+002, 2.1431065E+001, 2.1633804E+001, 2.1945007E+001, 2.1854195E+001, 2.1969515E+001, 2.1748810E+001, 2.1456656E+001, 2.2147620E+001
 9.0032262E+001, 1.7260314E+002, 2.2305587E+001, 2.2650499E+001, 2.3124482E+001, 2.2976450E+001, 2.3163314E+001, 2.2821729E+001, 2.2290096E+001, 2.3364834E+001
 1.0001254E+002, 1.9523440E+002, 2.3462979E+001, 2.4005087E+001, 2.4681303E+001, 2.4455532E+001, 2.4738997E+001, 2.4243318E+001, 2.3371170E+001, 2.4931415E+001
 1.1002883E+002, 2.1584860E+002, 2.4933982E+001, 2.5736094E+001, 2.6657943E+001, 2.6331229E+001, 2.6739617E+001, 2.6052715E+001, 2.4728865E+001, 2.6886631E+001
 1.2001596E+002, 2.1851757E+002, 2.6756338E+001, 2.7893072E+001, 2.9106303E+001, 2.8654200E+001, 2.9217326E+001, 2.8300200E+001, 2.6386215E+001, 2.9265735E+001
 1.3002961E+002, 2.1687822E+002, 2.8812802E+001, 3.0355240E+001, 3.1861776E+001, 3.1264250E+001, 3.2005385E+001, 3.0845399E+001, 2.8185837E+001, 3.1826141E+001
 1.4003372E+002, 2.1523802E+002, 3.0938019E+001, 3.2940741E+001, 3.4712837E+001, 3.3961405E+001, 3.4889530E+001, 3.3496093E+001, 2.9969671E+001, 3.4348495E+001
 1.5003394E+002, 2.1359696E+002, 3.3034175E+001, 3.5536925E+001, 3.7543953E+001, 3.6639069E+001, 3.7752708E+001, 3.6141739E+001, 3.1670646E+001, 3.6751221E+001
 1.6000908E+002, 2.1196103E+002, 3.5053312E+001, 3.8085585E+001, 4.0301073E+001, 3.9247553E+001, 4.0540315E+001, 3.8728173E+001, 3.3266459E+001, 3.9008865E+001
 1.7003707E+002, 2.1088419E+002, 3.6981632E+001, 4.0567569E+001, 4.2972209E+001, 4.1776089E+001, 4.3240396E+001, 4.1240410E+001, 3.4761497E+001, 4.1132701E+001
 1.8004595E+002, 2.1839468E+002, 3.8828656E+001, 4.2988179E+001, 4.5571417E+001, 4.4239733E+001, 4.5867073E+001, 4.3688701E+001, 3.6179158E+001, 4.3160244E+001
 1.9004150E+002, 2.2879853E+002, 4.0649405E+001, 4.5400056E+001, 4.8169733E+001, 4.6706863E+001, 4.8492370E+001, 4.6133825E+001, 3.7593281E+001, 4.5199346E+001
 2.0002027E+002, 2.3919436E+002, 4.2541041E+001, 4.7908206E+001, 5.0890716E+001, 4.9294587E+001, 5.1241451E+001, 4.8687509E+001, 3.9101143E+001, 4.7385091E+001
 2.1001343E+002, 2.4957932E+002, 4.4568290E+001, 5.0585668E+001, 5.3810546E+001, 5.2073824E+001, 5.4191407E+001, 5.1422313E+001, 4.0749877E+001, 4.9778595E+001
 2.2000198E+002, 2.5997328E+002, 4.6764166E+001, 5.3470368E+001, 5.6964298E+001, 5.5076633E+001, 5.7377718E+001, 5.4373464E+001, 4.2556735E+001, 5.2398897E+001
 2.3001478E+002, 2.7037856E+002, 4.9154212E+001, 5.6591384E+001, 6.0379824E+001, 5.8330160E+001, 6.0828313E+001, 5.7569044E+001, 4.4538750E+001, 5.5267513E+001
 2.4003541E+002, 2.8079644E+002, 5.1753772E+001, 5.9969208E+001, 6.4076049E+001, 6.1851480E+001, 6.4562357E+001, 6.1027939E+001, 4.6701092E+001, 5.8390922E+001
 2.5002242E+002, 2.9121131E+002, 5.4565256E+001, 6.3607161E+001, 6.8054742E+001, 6.5642216E+001, 6.8581593E+001, 6.4752514E+001, 4.9043302E+001, 6.1768298E+001
 2.6003610E+002, 3.0161199E+002, 5.7602699E+001, 6.7522659E+001, 7.2333382E+001, 6.9720013E+001, 7.2903461E+001, 6.8760190E+001, 5.1576881E+001, 6.5414159E+001
 2.7001251E+002, 3.1201254E+002, 6.0874507E+001, 7.1724918E+001, 7.6919342E+001, 7.4093211E+001, 7.7535091E+001, 7.3059754E+001, 5.4307040E+001, 6.9331883E+001
 2.8001629E+002, 3.2240918E+002, 6.4373658E+001, 7.6211654E+001, 8.1809227E+001, 7.8755293E+001, 8.2473570E+001, 7.7646933E+001, 5.7222269E+001, 7.3506011E+001
 2.9002634E+002, 3.3281573E+002, 6.8127743E+001, 8.1012045E+001, 8.7035535E+001, 8.3741510E+001, 8.7751030E+001, 8.2553673E+001, 6.0353259E+001, 7.7981117E+001
 3.0003496E+002, 3.4323112E+002, 7.2143594E+001, 8.6130878E+001, 9.2600506E+001, 8.9056228E+001, 9.3369254E+001, 8.7784550E+001, 6.3705622E+001, 8.2758562E+001
 3.1000857E+002, 3.5362545E+002, 7.6421409E+001, 9.1567255E+001, 9.8502774E+001, 9.4699274E+001, 9.9326658E+001, 9.3338956E+001, 6.7280123E+001, 8.7838404E+001
 3.2001421E+002, 3.6401961E+002, 8.0970936E+001, 9.7340101E+001, 1.0476324E+002, 1.0068815E+002, 1.0564474E+002, 9.9235348E+001, 7.1077623E+001, 9.3226017E+001
 3.3002495E+002, 3.7443227E+002, 8.5802921E+001, 1.0345907E+002, 1.1138810E+002, 1.0703101E+002, 1.1232925E+002, 1.0548252E+002, 7.5112499E+001, 9.8931522E+001
 3.4000711E+002, 3.8483485E+002, 9.0916265E+001, 1.0991755E+002, 1.1837081E+002, 1.1372473E+002, 1.1937306E+002, 1.1207537E+002, 7.9388773E+001, 1.0495956E+002
 3.5002522E+002, 3.9029553E+002, 9.6326492E+001, 1.1673551E+002, 1.2573118E+002, 1.2078922E+002, 1.2679593E+002, 1.1903396E+002, 8.3914992E+001, 1.1132147E+002
 3.6000104E+002, 3.9088411E+002, 1.0194945E+002, 1.2382383E+002, 1.3335246E+002, 1.2811145E+002, 1.3447961E+002, 1.2625730E+002, 8.8582051E+001, 1.1785331E+002
 3.7000434E+002, 3.9147198E+002, 1.0760939E+002, 1.3098401E+002, 1.4099662E+002, 1.3546747E+002, 1.4218262E+002, 1.3353310E+002, 9.3210992E+001, 1.2429920E+002
 3.8000698E+002, 3.9206005E+002, 1.1320504E+002, 1.3809910E+002, 1.4854277E+002, 1.4274562E+002, 1.4978253E+002, 1.4074604E+002, 9.7727317E+001, 1.3057120E+002
 3.9003340E+002, 3.9264916E+002, 1.1868276E+002, 1.4510156E+002, 1.5592858E+002, 1.4988805E+002, 1.5721650E+002, 1.4783311E+002, 1.0210738E+002, 1.3664487E+002
 4.0001816E+002, 3.9323788E+002, 1.2401707E+002, 1.5195411E+002, 1.6312485E+002, 1.5686717E+002, 1.6445538E+002, 1.5476187E+002, 1.0634688E+002, 1.4252283E+002
 4.1002530E+002, 3.9382558E+002, 1.2920372E+002, 1.5865251E+002, 1.7013598E+002, 1.6368326E+002, 1.7150451E+002, 1.6153078E+002, 1.1044443E+002, 1.4821599E+002
 4.2000139E+002, 3.9441381E+002, 1.3424418E+002, 1.6519457E+002, 1.7696336E+002, 1.7033525E+002, 1.7836579E+002, 1.6813844E+002, 1.1440693E+002, 1.5373636E+002
 4.3001100E+002, 3.9500133E+002, 1.3915207E+002, 1.7158450E+002, 1.8361100E+002, 1.7682856E+002, 1.8504300E+002, 1.7458977E+002, 1.1825648E+002, 1.5910474E+002
 4.4000845E+002, 3.9558983E+002, 1.4393364E+002, 1.7781901E+002, 1.9007457E+002, 1.8315861E+002, 1.9153185E+002, 1.8088089E+002, 1.2200131E+002, 1.6432747E+002
 4.5001034E+002, 3.9617807E+002, 1.4859124E+002, 1.8389563E+002, 1.9635489E+002, 1.8932437E+002, 1.9783361E+002, 1.8701013E+002, 1.2564391E+002, 1.6941283E+002
 4.6000506E+002, 3.9676591E+002, 1.5313179E+002, 1.8981312E+002, 2.0244850E+002, 1.9532257E+002, 2.0394469E+002, 1.9297537E+002, 1.2919409E+002, 1.7436551E+002
 4.7002159E+002, 3.9735502E+002, 1.5756866E+002, 1.9558725E+002, 2.0837785E+002, 2.0117256E+002, 2.0988833E+002, 1.9879415E+002, 1.3265782E+002, 1.7920817E+002
 4.8001882E+002, 3.9794340E+002, 1.6190568E+002, 2.0121778E+002, 2.1414035E+002, 2.0687091E+002, 2.1566196E+002, 2.0446477E+002, 1.3604091E+002, 1.8394015E+002
 4.9002034E+002, 3.9853174E+002, 1.6615298E+002, 2.0670869E+002, 2.1974244E+002, 2.1242471E+002, 2.2127205E+002, 2.0999255E+002, 1.3935460E+002, 1.8857814E+002
 5.0001091E+002, 3.9911963E+002, 1.7031199E+002, 2.1206369E+002, 2.2518851E+002, 2.1783488E+002, 2.2672358E+002, 2.1538006E+002, 1.4259240E+002, 1.9311697E+002
 5.1002165E+002, 3.9970788E+002, 1.7439636E+002, 2.1729688E+002, 2.3049534E+002, 2.2311769E+002, 2.3203347E+002, 2.2064248E+002, 1.4576843E+002, 1.9757691E+002
 5.2001115E+002, 3.9916038E+002, 1.7840849E+002, 2.2241401E+002, 2.3567130E+002, 2.2827913E+002, 2.3721055E+002, 2.2578585E+002, 1.4887752E+002, 2.0195776E+002
 5.3001952E+002, 3.9749507E+002, 1.8232564E+002, 2.2738756E+002, 2.4067865E+002, 2.3328166E+002, 2.4221671E+002, 2.3077773E+002, 1.5189321E+002, 2.0620965E+002
 5.4001399E+002, 3.9582761E+002, 1.8611496E+002, 2.3217039E+002, 2.4546109E+002, 2.3807373E+002, 2.4699472E+002, 2.3556830E+002, 1.5479050E+002, 2.1028709E+002
 5.5002860E+002, 3.9416040E+002, 1.8976198E+002, 2.3675335E+002, 2.5001780E+002, 2.4265275E+002, 2.5154437E+002, 2.4015147E+002, 1.5755160E+002, 2.1418881E+002
 5.6000811E+002, 3.9249422E+002, 1.9327011E+002, 2.4114898E+002, 2.5436988E+002, 2.4703682E+002, 2.5588743E+002, 2.4454283E+002, 1.6017893E+002, 2.1793221E+002
 5.7002183E+002, 3.9082747E+002, 1.9662620E+002, 2.4532675E+002, 2.5847422E+002, 2.5118549E+002, 2.5997996E+002, 2.4870692E+002, 1.6267295E+002, 2.2148370E+002
 5.8002293E+002, 3.8916054E+002, 1.9983920E+002, 2.4929425E+002, 2.6234545E+002, 2.5511286E+002, 2.6383695E+002, 2.5265438E+002, 1.6504598E+002, 2.2486864E+002
 5.9000398E+002, 3.8749458E+002, 2.0291361E+002, 2.5305884E+002, 2.6599627E+002, 2.5882936E+002, 2.6747165E+002, 2.5639438E+002, 1.6730171E+002, 2.2809647E+002
 6.0002860E+002, 3.8582698E+002, 2.0583823E+002, 2.5658803E+002, 2.6937668E+002, 2.6228796E+002, 2.7083301E+002, 2.5988724E+002, 1.6944140E+002, 2.3112389E+002
 6.1003701E+002, 3.8415880E+002, 2.0861876E+002, 2.5988817E+002, 2.7250466E+002, 2.6550521E+002, 2.7393964E+002, 2.6314404E+002, 1.7147150E+002, 2.3398129E+002
 6.2002047E+002, 3.8249237E+002, 2.1127854E+002, 2.6300349E+002, 2.7544233E+002, 2.6853819E+002, 2.7685505E+002, 2.6621568E+002, 1.7340345E+002, 2.3671829E+002
 6.3002617E+002, 3.8082636E+002, 2.1382945E+002, 2.6594809E+002, 2.7820011E+002, 2.7139617E+002, 2.7958964E+002, 2.6911416E+002, 1.7524474E+002, 2.3933703E+002
 6.4000697E+002, 3.7916119E+002, 2.1629254E+002, 2.6876020E+002, 2.8082704E+002, 2.7412517E+002, 2.8219325E+002, 2.7188167E+002, 1.7700447E+002, 2.4187467E+002
 6.5002861E+002, 3.7749426E+002, 2.1865995E+002, 2.7141893E+002, 2.8328617E+002, 2.7669029E+002, 2.8462804E+002, 2.7449054E+002, 1.7868237E+002, 2.4429033E+002
 6.6002198E+002, 3.7582682E+002, 2.2094315E+002, 2.7394574E+002, 2.8561254E+002, 2.7912457E+002, 2.8692991E+002, 2.7696758E+002, 1.8028468E+002, 2.4662401E+002
 6.7002229E+002, 3.7416061E+002, 2.2313820E+002, 2.7633387E+002, 2.8779054E+002, 2.8141255E+002, 2.8908295E+002, 2.7930202E+002, 1.8181067E+002, 2.4884812E+002
 6.8000258E+002, 3.7249460E+002, 2.2524369E+002, 2.7857302E+002, 2.8980844E+002, 2.8354368E+002, 2.9107522E+002, 2.8148318E+002, 1.8326696E+002, 2.5096282E+002
 6.9003573E+002, 3.7082674E+002, 2.2726500E+002, 2.8067201E+002, 2.9167711E+002, 2.8552795E+002, 2.9291771E+002, 2.8352057E+002, 1.8465488E+002, 2.5297371E+002
 7.0001268E+002, 3.6915859E+002, 2.2919983E+002, 2.8263238E+002, 2.9340042E+002, 2.8736812E+002, 2.9461457E+002, 2.8541635E+002, 1.8597226E+002, 2.5488051E+002
 7.1001964E+002, 3.6749421E+002, 2.3104385E+002, 2.8444534E+002, 2.9496597E+002, 2.8905231E+002, 2.9615324E+002, 2.8716026E+002, 1.8722075E+002, 2.5667031E+002
 7.2002994E+002, 3.6582591E+002, 2.3280872E+002, 2.8612267E+002, 2.9639087E+002, 2.9059801E+002, 2.9755090E+002, 2.8876671E+002, 1.8841274E+002, 2.5837075E+002
 7.3001188E+002, 3.6416016E+002, 2.3452202E+002, 2.8771950E+002, 2.9774686E+002, 2.9207325E+002, 2.9888034E+002, 2.9029758E+002, 1.8955829E+002, 2.6003487E+002
 7.4000583E+002, 3.6249554E+002, 2.3617406E+002, 2.8921826E+002, 2.9900181E+002, 2.9344691E+002, 3.0010907E+002, 2.9172872E+002, 1.9065193E+002, 2.6162049E+002
 7.5000017E+002, 3.6082966E+002, 2.3775542E+002, 2.9060472E+002, 3.0013788E+002, 2.9470201E+002, 3.0121870E+002, 2.9304428E+002, 1.9168763E+002, 2.6311088E+002
 7.6000076E+002, 3.5790890E+002, 2.3924914E+002, 2.9185137E+002, 3.0112065E+002, 2.9580467E+002, 3.0217427E+002, 2.9421356E+002, 1.9265880E+002, 2.6447526E+002
 7.7002310E+002, 3.5373645E+002, 2.4065383E+002, 2.9295891E+002, 3.0195619E+002, 2.9676187E+002, 3.0298227E+002, 2.9524001E+002, 1.9356183E+002, 2.6572595E+002
 7.8003780E+002, 3.4956402E+002, 2.4196230E+002, 2.9393994E+002, 3.0266411E+002, 2.9759281E+002, 3.0366259E+002, 2.9613976E+002, 1.9437039E+002, 2.6686231E+002
 7.9000414E+002, 3.4539747E+002, 2.4313369E+002, 2.9474701E+002, 3.0318333E+002, 2.9823683E+002, 3.0415340E+002, 2.9685909E+002, 1.9505268E+002, 2.6781238E+002
 8.0003701E+002, 3.4123391E+002, 2.4416020E+002, 2.9536274E+002, 3.0349681E+002, 2.9867857E+002, 3.0443754E+002, 2.9738112E+002, 1.9561418E+002, 2.6857970E+002
 8.1003508E+002, 3.3706173E+002, 2.4504277E+002, 2.9578503E+002, 3.0360420E+002, 2.9891754E+002, 3.0451465E+002, 2.9770457E+002, 1.9606102E+002, 2.6917047E+002
 8.2000047E+002, 3.3290132E+002, 2.4580531E+002, 2.9605595E+002, 3.0356722E+002, 2.9901335E+002, 3.0444749E+002, 2.9788018E+002, 1.9641110E+002, 2.6965095E+002
 8.3002281E+002, 3.2873882E+002, 2.4645710E+002, 2.9618788E+002, 3.0338936E+002, 2.9896834E+002, 3.0423960E+002, 2.9791601E+002, 1.9666631E+002, 2.7000386E+002
 8.4003131E+002, 3.2456415E+002, 2.4699012E+002, 2.9615889E+002, 3.0304377E+002, 2.9875718E+002, 3.0386383E+002, 2.9778792E+002, 1.9683161E+002, 2.7022044E+002
 8.5003385E+002, 3.2039433E+002, 2.4742377E+002, 2.9600337E+002, 3.0257594E+002, 2.9842305E+002, 3.0336615E+002, 2.9753504E+002, 1.9691715E+002, 2.7033741E+002
 8.6002803E+002, 3.1622931E+002, 2.4775780E+002, 2.9571579E+002, 3.0197535E+002, 2.9795621E+002, 3.0273569E+002, 2.9714972E+002, 1.9692738E+002, 2.7034307E+002
 8.7003753E+002, 3.1206526E+002, 2.4800333E+002, 2.9531023E+002, 3.0125949E+002, 2.9737381E+002, 3.0198998E+002, 2.9664746E+002, 1.9687050E+002, 2.7025564E+002
 8.8002133E+002, 3.3185739E+002, 2.4817255E+002, 2.9479816E+002, 3.0044188E+002, 2.9668821E+002, 3.0114287E+002, 2.9604038E+002, 1.9676619E+002, 2.7009678E+002
 8.9002293E+002, 3.7518298E+002, 2.4855005E+002, 2.9448907E+002, 2.9992442E+002, 2.9628978E+002, 3.0060112E+002, 2.9567806E+002, 1.9697468E+002, 2.7041615E+002
 9.0001750E+002, 4.1848648E+002, 2.4977849E+002, 2.9507008E+002, 3.0051649E+002, 2.9695496E+002, 3.0118303E+002, 2.9629515E+002, 1.9820537E+002, 2.7214205E+002
 9.1001608E+002, 4.6180529E+002, 2.5240303E+002, 2.9713208E+002, 3.0285440E+002, 2.9929263E+002, 3.0353048E+002, 2.9849450E+002, 2.0095360E+002, 2.7586573E+002
 9.2002942E+002, 5.0516284E+002, 2.5681974E+002, 3.0110717E+002, 3.0737471E+002, 3.0372539E+002, 3.0808220E+002, 3.0270492E+002, 2.0555179E+002, 2.8194245E+002
 9.3002769E+002, 5.4851613E+002, 2.6333083E+002, 3.0732013E+002, 3.1439886E+002, 3.1057309E+002, 3.1515957E+002, 3.0924868E+002, 2.1226807E+002, 2.9063828E+002
 9.4000900E+002, 5.9180541E+002, 2.7217894E+002, 3.1604080E+002, 3.2419144E+002, 3.2010635E+002, 3.2502575E+002, 3.1839569E+002, 2.2132072E+002, 3.0216014E+002
 9.5001519E+002, 6.3511224E+002, 2.8359217E+002, 3.2750596E+002, 3.3698269E+002, 3.3257083E+002, 3.3790799E+002, 3.3038616E+002, 2.3295075E+002, 3.1671783E+002
 9.6001204E+002, 6.7844850E+002, 2.9775619E+002, 3.4190551E+002, 3.5294850E+002, 3.4816807E+002, 3.5397731E+002, 3.4541454E+002, 2.4737229E+002, 3.3446337E+002
 9.7001849E+002, 6.7951941E+002, 3.1469561E+002, 3.5925836E+002, 3.7205179E+002, 3.6689663E+002, 3.7318889E+002, 3.6348849E+002, 2.6460346E+002, 3.5526081E+002
 9.8000072E+002, 6.3883903E+002, 3.3273810E+002, 3.7787059E+002, 3.9208325E+002, 3.8661158E+002, 3.9330740E+002, 3.8269001E+002, 2.8236269E+002, 3.7588273E+002
 9.9002255E+002, 5.9810332E+002, 3.4854741E+002, 3.9432104E+002, 4.0905966E+002, 4.0340661E+002, 4.1032234E+002, 3.9934416E+002, 2.9688767E+002, 3.9166897E+002
 1.0000147E+003, 5.5736435E+002, 3.6051037E+002, 4.0693588E+002, 4.2143586E+002, 4.1575235E+002, 4.2269197E+002, 4.1183757E+002, 3.0701449E+002, 4.0171514E+002
 1.0100063E+003, 5.1667250E+002, 3.6850962E+002, 4.1558112E+002, 4.2937555E+002, 4.2378827E+002, 4.3059323E+002, 4.2017302E+002, 3.1308295E+002, 4.0685879E+002
 1.0200247E+003, 4.7594740E+002, 3.7301403E+002, 4.2070650E+002, 4.3354127E+002, 4.2814617E+002, 4.3469980E+002, 4.2489595E+002, 3.1581583E+002, 4.0817610E+002
 1.0300259E+003, 4.3517849E+002, 3.7461898E+002, 4.2286898E+002, 4.3462377E+002, 4.2949244E+002, 4.3570941E+002, 4.2662343E+002, 3.1593624E+002, 4.0661998E+002
 1.0400100E+003, 4.1053516E+002, 3.7393991E+002, 4.2264652E+002, 4.3329105E+002, 4.2847403E+002, 4.3429527E+002, 4.2597216E+002, 3.1410030E+002, 4.0301915E+002
 1.0500125E+003, 4.0168012E+002, 3.7170446E+002, 4.2073188E+002, 4.3032503E+002, 4.2584985E+002, 4.3124554E+002, 4.2367075E+002, 3.1110603E+002, 3.9832706E+002
 1.0600309E+003, 3.9280581E+002, 3.6873867E+002, 4.1794003E+002, 4.2662897E+002, 4.2249414E+002, 4.2747047E+002, 4.2056703E+002, 3.0778434E+002, 3.9354143E+002
 1.0700179E+003, 3.8393957E+002, 3.6559504E+002, 4.1483944E+002, 4.2277492E+002, 4.1896178E+002, 4.2354470E+002, 4.1722505E+002, 3.0454965E+002, 3.8912504E+002
 1.0800064E+003, 3.7509080E+002, 3.6245299E+002, 4.1159457E+002, 4.1885791E+002, 4.1534196E+002, 4.1956214E+002, 4.1377233E+002, 3.0146196E+002, 3.8501817E+002
 1.0900271E+003, 3.6621827E+002, 3.5935922E+002, 4.0824401E+002, 4.1487721E+002, 4.1163585E+002, 4.1552059E+002, 4.1022754E+002, 2.9849736E+002, 3.8114092E+002
 1.1000349E+003, 3.5734244E+002, 3.5634948E+002, 4.0482977E+002, 4.1086508E+002, 4.0787936E+002, 4.1145151E+002, 4.0662819E+002, 2.9565064E+002, 3.7748381E+002
 1.1100226E+003, 3.4848378E+002, 3.5345809E+002, 4.0140697E+002, 4.0687299E+002, 4.0412653E+002, 4.0740590E+002, 4.0302814E+002, 2.9291700E+002, 3.7404237E+002
 1.1200081E+003, 3.3963008E+002, 3.5065028E+002, 3.9794241E+002, 4.0284846E+002, 4.0032706E+002, 4.0333034E+002, 3.9938520E+002, 2.9025173E+002, 3.7071808E+002
 1.1300232E+003, 3.3076562E+002, 3.4789208E+002, 3.9440466E+002, 3.9875493E+002, 3.9644745E+002, 3.9918769E+002, 3.9566613E+002, 2.8762225E+002, 3.6745709E+002
 1.1400163E+003, 3.2189395E+002, 3.4517283E+002, 3.9079191E+002, 3.9458845E+002, 3.9248522E+002, 3.9497372E+002, 3.9186852E+002, 2.8501897E+002, 3.6422762E+002
 1.1500226E+003, 3.1303952E+002, 3.4245306E+002, 3.8706499E+002, 3.9030437E+002, 3.8839707E+002, 3.9064339E+002, 3.8795068E+002, 2.8241256E+002, 3.6097201E+002
 1.1600218E+003, 3.0416557E+002, 3.3975974E+002, 3.8327594E+002, 3.8597559E+002, 3.8425834E+002, 3.8626986E+002, 3.8397599E+002, 2.7982519E+002, 3.5776287E+002
 1.1700148E+003, 2.9530593E+002, 3.3707625E+002, 3.7941477E+002, 3.8158085E+002, 3.8004711E+002, 3.8183158E+002, 3.7992906E+002, 2.7724134E+002, 3.5454245E+002
 1.1800320E+003, 2.8644588E+002, 3.3440124E+002, 3.7548955E+002, 3.7713625E+002, 3.7578133E+002, 3.7734464E+002, 3.7582246E+002, 2.7466485E+002, 3.5133340E+002
 1.1900304E+003, 2.7756192E+002, 3.3172037E+002, 3.7149216E+002, 3.7262425E+002, 3.7144255E+002, 3.7279130E+002, 3.7164350E+002, 2.7208205E+002, 3.4808555E+002
 1.2000055E+003, 2.6871671E+002, 3.2902522E+002, 3.6741870E+002, 3.6804548E+002, 3.6703216E+002, 3.6817229E+002, 3.6739027E+002, 2.6949824E+002, 3.4480910E+002
 1.2100269E+003, 2.5985129E+002, 3.2633128E+002, 3.6330016E+002, 3.6343829E+002, 3.6258995E+002, 3.6352595E+002, 3.6309833E+002, 2.6691938E+002, 3.4153218E+002
 1.2200114E+003, 2.5098500E+002, 3.2362045E+002, 3.5911935E+002, 3.5877732E+002, 3.5808963E+002, 3.5882678E+002, 3.5874624E+002, 2.6433445E+002, 3.3821694E+002
 1.2300059E+003, 2.4212998E+002, 3.2088581E+002, 3.5487213E+002, 3.5405615E+002, 3.5352416E+002, 3.5406839E+002, 3.5432848E+002, 2.6174560E+002, 3.3484958E+002
