s,C,C,C,C,C,C,C,C,C
Time,Air Temp,IRSN_1,IRSN_2,TRAC_2,TRAC_3,TRAC_4,VTT_1,GRS_2,NRC_1
 0.0000000E+000, 2.0000000E+001, 2.0000000E+001, 2.0000000E+001, 2.0000000E+001, 2.0000000E+001, 2.0000000E+001, 2.0000000E+001, 2.0000000E+001, 2.0000000E+001
 1.0200000E+001, 2.2365918E+001, 2.0000094E+001, 2.0000097E+001, 2.0000135E+001, 2.0000131E+001, 2.0000137E+001, 2.0000113E+001, 2.0000144E+001, 2.0000221E+001
 2.0058233E+001, 2.6915060E+001, 2.0002738E+001, 2.0002902E+001, 2.0003816E+001, 2.0003657E+001, 2.0003871E+001, 2.0003278E+001, 2.0003652E+001, 2.0005437E+001
 3.0091353E+001, 3.7459991E+001, 2.0015605E+001, 2.0016940E+001, 2.0021487E+001, 2.0020534E+001, 2.0021787E+001, 2.0018760E+001, 2.0018908E+001, 2.0027974E+001
 4.0064183E+001, 5.9701867E+001, 2.0056016E+001, 2.0061723E+001, 2.0077271E+001, 2.0073973E+001, 2.0078300E+001, 2.0067935E+001, 2.0065080E+001, 2.0097215E+001
 5.0039319E+001, 8.2225407E+001, 2.0173221E+001, 2.0193084E+001, 2.0239517E+001, 2.0229655E+001, 2.0242587E+001, 2.0211669E+001, 2.0195027E+001, 2.0292995E+001
 6.0015579E+001, 1.0476892E+002, 2.0424668E+001, 2.0478411E+001, 2.0584710E+001, 2.0560197E+001, 2.0592033E+001, 2.0520301E+001, 2.0460171E+001, 2.0687882E+001
 7.0019964E+001, 1.2736699E+002, 2.0856497E+001, 2.0972676E+001, 2.1171608E+001, 2.1120690E+001, 2.1186096E+001, 2.1049172E+001, 2.0897187E+001, 2.1330252E+001
 8.0018470E+001, 1.4999509E+002, 2.1508182E+001, 2.1722716E+001, 2.2049327E+001, 2.1956828E+001, 2.2074520E+001, 2.1844756E+001, 2.1537677E+001, 2.2259506E+001
 9.0006215E+001, 1.7258706E+002, 2.2413877E+001, 2.2771789E+001, 2.3263949E+001, 2.3112216E+001, 2.3303873E+001, 2.2950604E+001, 2.2407016E+001, 2.3511493E+001
 1.0002004E+002, 1.9520828E+002, 2.3608553E+001, 2.4164751E+001, 2.4863402E+001, 2.4632255E+001, 2.4922588E+001, 2.4411954E+001, 2.3532783E+001, 2.5124428E+001
 1.1002643E+002, 2.1586559E+002, 2.5128155E+001, 2.5947296E+001, 2.6896956E+001, 2.6563606E+001, 2.6980456E+001, 2.6275061E+001, 2.4944274E+001, 2.7138719E+001
 1.2004565E+002, 2.1851515E+002, 2.6988058E+001, 2.8140478E+001, 2.9380201E+001, 2.8919329E+001, 2.9493276E+001, 2.8557247E+001, 2.6644463E+001, 2.9547752E+001
 1.3001844E+002, 2.1687582E+002, 2.9075325E+001, 3.0628414E+001, 3.2159590E+001, 3.1552008E+001, 3.2305334E+001, 3.1126702E+001, 2.8485361E+001, 3.2132886E+001
 1.4001210E+002, 2.1523986E+002, 3.1224788E+001, 3.3231268E+001, 3.5025698E+001, 3.4264202E+001, 3.5204398E+001, 3.3793601E+001, 3.0304847E+001, 3.4673162E+001
 1.5004676E+002, 2.1359722E+002, 3.3351236E+001, 3.5853821E+001, 3.7882737E+001, 3.6967900E+001, 3.8093449E+001, 3.6465459E+001, 3.2045612E+001, 3.7102788E+001
 1.6002072E+002, 2.1195828E+002, 3.5403672E+001, 3.8434774E+001, 4.0674191E+001, 3.9611401E+001, 4.0915324E+001, 3.9085467E+001, 3.3684232E+001, 3.9396300E+001
 1.7002435E+002, 2.1088068E+002, 3.7361210E+001, 4.0943552E+001, 4.3372832E+001, 4.2169066E+001, 4.3642600E+001, 4.1625626E+001, 3.5218043E+001, 4.1549399E+001
 1.8000779E+002, 2.1836853E+002, 3.9227675E+001, 4.3379174E+001, 4.5984843E+001, 4.4647401E+001, 4.6281640E+001, 4.4088743E+001, 3.6663000E+001, 4.3589553E+001
 1.9001591E+002, 2.2876587E+002, 4.1064776E+001, 4.5804533E+001, 4.8594627E+001, 4.7127801E+001, 4.8918017E+001, 4.6547153E+001, 3.8101003E+001, 4.5638740E+001
 2.0001984E+002, 2.3917213E+002, 4.2972716E+001, 4.8327770E+001, 5.1329002E+001, 4.9730510E+001, 5.1680160E+001, 4.9115815E+001, 3.9632236E+001, 4.7835651E+001
 2.1001551E+002, 2.4957708E+002, 4.5012959E+001, 5.1017800E+001, 5.4260517E+001, 5.2523401E+001, 5.4641444E+001, 5.1863648E+001, 4.1302546E+001, 5.0239238E+001
 2.2003152E+002, 2.5999131E+002, 4.7222744E+001, 5.3916301E+001, 5.7427715E+001, 5.5541531E+001, 5.7840873E+001, 5.4829302E+001, 4.3134638E+001, 5.2872310E+001
 2.3003949E+002, 2.7040666E+002, 4.9624611E+001, 5.7048245E+001, 6.0853396E+001, 5.8806267E+001, 6.1301431E+001, 5.8035973E+001, 4.5140145E+001, 5.5749473E+001
 2.4003670E+002, 2.8081148E+002, 5.2226199E+001, 6.0423248E+001, 6.4544277E+001, 6.2323406E+001, 6.5029890E+001, 6.1491363E+001, 4.7320314E+001, 5.8868358E+001
 2.5000776E+002, 2.9120501E+002, 5.5031979E+001, 6.4048051E+001, 6.8505515E+001, 6.6097930E+001, 6.9031378E+001, 6.5201240E+001, 4.9674038E+001, 6.2228570E+001
 2.6002634E+002, 3.0160206E+002, 5.8053743E+001, 6.7939446E+001, 7.2753382E+001, 7.0145464E+001, 7.3322269E+001, 6.9181778E+001, 5.2208061E+001, 6.5839989E+001
 2.7000257E+002, 3.1200291E+002, 6.1300772E+001, 7.2109031E+001, 7.7300920E+001, 7.4479982E+001, 7.7915485E+001, 7.3445633E+001, 5.4930630E+001, 6.9718058E+001
 2.8002452E+002, 3.2240350E+002, 6.4790370E+001, 7.6576890E+001, 8.2169673E+001, 7.9123699E+001, 8.2832448E+001, 7.8013956E+001, 5.7856909E+001, 7.3884081E+001
 2.9001545E+002, 3.3281432E+002, 6.8532738E+001, 8.1355584E+001, 8.7371305E+001, 8.4087829E+001, 8.8084854E+001, 8.2898675E+001, 6.0993388E+001, 7.8343805E+001
 3.0001935E+002, 3.4321494E+002, 7.2528468E+001, 8.6445378E+001, 9.2904167E+001, 8.9371994E+001, 9.3670770E+001, 8.8099652E+001, 6.4340408E+001, 8.3095043E+001
 3.1001927E+002, 3.5362127E+002, 7.6786822E+001, 9.1858250E+001, 9.8780069E+001, 9.4987772E+001, 9.9601980E+001, 9.3628713E+001, 6.7905847E+001, 8.8145534E+001
 3.2002155E+002, 3.6403112E+002, 8.1315130E+001, 9.7604464E+001, 1.0501105E+002, 1.0094679E+002, 1.0589063E+002, 9.9496818E+001, 7.1698194E+001, 9.3505957E+001
 3.3000358E+002, 3.7442569E+002, 8.6112184E+001, 1.0368398E+002, 1.1159497E+002, 1.0724687E+002, 1.1253447E+002, 1.0570293E+002, 7.5716721E+001, 9.9168763E+001
 3.4002075E+002, 3.8482842E+002, 9.1192431E+001, 1.1011117E+002, 1.1854555E+002, 1.1390354E+002, 1.1954682E+002, 1.1226188E+002, 7.9974320E+001, 1.0515273E+002
 3.5003213E+002, 3.9029614E+002, 9.6566027E+001, 1.1689633E+002, 1.2587126E+002, 1.2092715E+002, 1.2693568E+002, 1.1918399E+002, 8.4477474E+001, 1.1146535E+002
 3.6001405E+002, 3.9088459E+002, 1.0214595E+002, 1.2393913E+002, 1.3344298E+002, 1.2819791E+002, 1.3456954E+002, 1.2635894E+002, 8.9118438E+001, 1.1794716E+002
 3.7002957E+002, 3.9147294E+002, 1.0776729E+002, 1.3105980E+002, 1.4104295E+002, 1.3550897E+002, 1.4222781E+002, 1.3359266E+002, 9.3716560E+001, 1.2434622E+002
 3.8003737E+002, 3.9206178E+002, 1.1331040E+002, 1.3811986E+002, 1.4852571E+002, 1.4272419E+002, 1.4976350E+002, 1.4074680E+002, 9.8180374E+001, 1.3055086E+002
 3.9002169E+002, 3.9264973E+002, 1.1872020E+002, 1.4505447E+002, 1.5583918E+002, 1.4979436E+002, 1.5712444E+002, 1.4776396E+002, 1.0248902E+002, 1.3655025E+002
 4.0002863E+002, 3.9323778E+002, 1.2399138E+002, 1.5184828E+002, 1.6297304E+002, 1.5670974E+002, 1.6430047E+002, 1.5463177E+002, 1.0665584E+002, 1.4235899E+002
 4.1001426E+002, 3.9382585E+002, 1.2911229E+002, 1.5846747E+002, 1.6989014E+002, 1.6343621E+002, 1.7125402E+002, 1.6131625E+002, 1.1068927E+002, 1.4796975E+002
 4.2000779E+002, 3.9441355E+002, 1.3409023E+002, 1.6491797E+002, 1.7660900E+002, 1.6998925E+002, 1.7800447E+002, 1.6782828E+002, 1.1459865E+002, 1.5341473E+002
 4.3001475E+002, 3.9500155E+002, 1.3893886E+002, 1.7121715E+002, 1.8315003E+002, 1.7638568E+002, 1.8457276E+002, 1.7418542E+002, 1.1839339E+002, 1.5871078E+002
 4.4003309E+002, 3.9559067E+002, 1.4366642E+002, 1.7736545E+002, 1.8951384E+002, 1.8262586E+002, 1.9095963E+002, 1.8038809E+002, 1.2208643E+002, 1.6387085E+002
 4.5001293E+002, 3.9617890E+002, 1.4827137E+002, 1.8335607E+002, 1.9569683E+002, 1.8870453E+002, 1.9716186E+002, 1.8643039E+002, 1.2567763E+002, 1.6889898E+002
 4.6002162E+002, 3.9676674E+002, 1.5276811E+002, 1.8920532E+002, 2.0171781E+002, 1.9463735E+002, 2.0319878E+002, 1.9232853E+002, 1.2917816E+002, 1.7381104E+002
 4.7001196E+002, 3.9735514E+002, 1.5716322E+002, 1.9491323E+002, 2.0757363E+002, 2.0042142E+002, 2.0906715E+002, 1.9808103E+002, 1.3259386E+002, 1.7860918E+002
 4.8000746E+002, 3.9794280E+002, 1.6145655E+002, 2.0047226E+002, 2.1325685E+002, 2.0604841E+002, 2.1475975E+002, 2.0367995E+002, 1.3592824E+002, 1.8329313E+002
 4.9000473E+002, 3.9853078E+002, 1.6566313E+002, 2.0589852E+002, 2.1878739E+002, 2.1153826E+002, 2.2029665E+002, 2.0914320E+002, 1.3918965E+002, 1.8788611E+002
 5.0002186E+002, 3.9911933E+002, 1.6979957E+002, 2.1121181E+002, 2.2418886E+002, 2.1691364E+002, 2.2570170E+002, 2.1449208E+002, 1.4238863E+002, 1.9241080E+002
 5.1002943E+002, 3.9970838E+002, 1.7385715E+002, 2.1639612E+002, 2.2943825E+002, 2.2214919E+002, 2.3095207E+002, 2.1970623E+002, 1.4552219E+002, 1.9683658E+002
 5.2000971E+002, 3.9916018E+002, 1.7781333E+002, 2.2141503E+002, 2.3449440E+002, 2.2720289E+002, 2.3600673E+002, 2.2474631E+002, 1.4857937E+002, 2.0113098E+002
 5.3002751E+002, 3.9749350E+002, 1.8167366E+002, 2.2628056E+002, 2.3937378E+002, 2.3209240E+002, 2.4088201E+002, 2.2962694E+002, 1.5155001E+002, 2.0530500E+002
 5.4003097E+002, 3.9582544E+002, 1.8540976E+002, 2.3096385E+002, 2.4404219E+002, 2.3678425E+002, 2.4554340E+002, 2.3431686E+002, 1.5440130E+002, 2.0931513E+002
 5.5000227E+002, 3.9416083E+002, 1.8899583E+002, 2.3543473E+002, 2.4847068E+002, 2.4124747E+002, 2.4996238E+002, 2.3878558E+002, 1.5711872E+002, 2.1313576E+002
 5.6001044E+002, 3.9249634E+002, 1.9242767E+002, 2.3968729E+002, 2.5265267E+002, 2.4547611E+002, 2.5413222E+002, 2.4302712E+002, 1.5969984E+002, 2.1676372E+002
 5.7000433E+002, 3.9082884E+002, 1.9570956E+002, 2.4372324E+002, 2.5659355E+002, 2.4947545E+002, 2.5805852E+002, 2.4704491E+002, 1.6215222E+002, 2.2021412E+002
 5.8000238E+002, 3.8916315E+002, 1.9885953E+002, 2.4756717E+002, 2.6032903E+002, 2.5327935E+002, 2.6177760E+002, 2.5086822E+002, 1.6448985E+002, 2.2352587E+002
 5.9002985E+002, 3.8749480E+002, 2.0188082E+002, 2.5122053E+002, 2.6385437E+002, 2.5688198E+002, 2.6528469E+002, 2.5449517E+002, 1.6671614E+002, 2.2668450E+002
 6.0000753E+002, 3.8582777E+002, 2.0476076E+002, 2.5466548E+002, 2.6715065E+002, 2.6026279E+002, 2.6856118E+002, 2.5790658E+002, 1.6882404E+002, 2.2967059E+002
 6.1000967E+002, 3.8416185E+002, 2.0749752E+002, 2.5789795E+002, 2.7021606E+002, 2.6341998E+002, 2.7160518E+002, 2.6109932E+002, 1.7081516E+002, 2.3248982E+002
 6.2002029E+002, 3.8249460E+002, 2.1012370E+002, 2.6095896E+002, 2.7310043E+002, 2.6640207E+002, 2.7446701E+002, 2.6411829E+002, 1.7271652E+002, 2.3519278E+002
 6.3000050E+002, 3.8082968E+002, 2.1264055E+002, 2.6385109E+002, 2.7580630E+002, 2.6921051E+002, 2.7714945E+002, 2.6696563E+002, 1.7452671E+002, 2.3777492E+002
 6.4000710E+002, 3.7916251E+002, 2.1505661E+002, 2.6658368E+002, 2.7834378E+002, 2.7185524E+002, 2.7966258E+002, 2.6965101E+002, 1.7625391E+002, 2.4024628E+002
 6.5000710E+002, 3.7749594E+002, 2.1737779E+002, 2.6916393E+002, 2.8071789E+002, 2.7433961E+002, 2.8201154E+002, 2.7217995E+002, 1.7790106E+002, 2.4260267E+002
 6.6002232E+002, 3.7582862E+002, 2.1959454E+002, 2.7157671E+002, 2.8291111E+002, 2.7664550E+002, 2.8417892E+002, 2.7453569E+002, 1.7946669E+002, 2.4483149E+002
 6.7001835E+002, 3.7416022E+002, 2.2173562E+002, 2.7386141E+002, 2.8497632E+002, 2.7882763E+002, 2.8621785E+002, 2.7676488E+002, 1.8097147E+002, 2.4699084E+002
 6.8002314E+002, 3.7249382E+002, 2.2380266E+002, 2.7602365E+002, 2.8691615E+002, 2.8088743E+002, 2.8813105E+002, 2.7887131E+002, 1.8241120E+002, 2.4906814E+002
 6.9002469E+002, 3.7082587E+002, 2.2578656E+002, 2.7805205E+002, 2.8871264E+002, 2.8280477E+002, 2.8990063E+002, 2.8083958E+002, 1.8377934E+002, 2.5103597E+002
 7.0001919E+002, 3.6915990E+002, 2.2768039E+002, 2.7993723E+002, 2.9035732E+002, 2.8456979E+002, 2.9151838E+002, 2.8266000E+002, 1.8507721E+002, 2.5289101E+002
 7.1002113E+002, 3.6749376E+002, 2.2949587E+002, 2.8169539E+002, 2.9187107E+002, 2.8620291E+002, 2.9300537E+002, 2.8435083E+002, 1.8631398E+002, 2.5465359E+002
 7.2000480E+002, 3.6582795E+002, 2.3123323E+002, 2.8332967E+002, 2.9325779E+002, 2.8770882E+002, 2.9436535E+002, 2.8591591E+002, 1.8748883E+002, 2.5632555E+002
 7.3001096E+002, 3.6416289E+002, 2.3290393E+002, 2.8485476E+002, 2.9453384E+002, 2.8910516E+002, 2.9561454E+002, 2.8737139E+002, 1.8861051E+002, 2.5792097E+002
 7.4003402E+002, 3.6249361E+002, 2.3449727E+002, 2.8625680E+002, 2.9567927E+002, 2.9037249E+002, 2.9673269E+002, 2.8870067E+002, 1.8966946E+002, 2.5941434E+002
 7.5003356E+002, 3.6082438E+002, 2.3601408E+002, 2.8753749E+002, 2.9669969E+002, 2.9151399E+002, 2.9772596E+002, 2.8990626E+002, 1.9067323E+002, 2.6081493E+002
 7.6001237E+002, 3.5789972E+002, 2.3746099E+002, 2.8870790E+002, 2.9761015E+002, 2.9254388E+002, 2.9860968E+002, 2.9100072E+002, 1.9162756E+002, 2.6213674E+002
 7.7001408E+002, 3.5373580E+002, 2.3883200E+002, 2.8976600E+002, 2.9840398E+002, 2.9345738E+002, 2.9937668E+002, 2.9198071E+002, 1.9251443E+002, 2.6335783E+002
 7.8001090E+002, 3.4957021E+002, 2.4009313E+002, 2.9067803E+002, 2.9904107E+002, 2.9421718E+002, 2.9998623E+002, 2.9281044E+002, 1.9329591E+002, 2.6443019E+002
 7.9001419E+002, 3.4540354E+002, 2.4121558E+002, 2.9141218E+002, 2.9948541E+002, 2.9478611E+002, 3.0040238E+002, 2.9345563E+002, 1.9395080E+002, 2.6531619E+002
 8.0001912E+002, 3.4123509E+002, 2.4218923E+002, 2.9195522E+002, 2.9972667E+002, 2.9515453E+002, 3.0061477E+002, 2.9390457E+002, 1.9447924E+002, 2.6601900E+002
 8.1000926E+002, 3.3707044E+002, 2.4302619E+002, 2.9232398E+002, 2.9978913E+002, 2.9534466E+002, 3.0064822E+002, 2.9417693E+002, 1.9489664E+002, 2.6656759E+002
 8.2000894E+002, 3.3290374E+002, 2.4374813E+002, 2.9254511E+002, 2.9970612E+002, 2.9539091E+002, 3.0053607E+002, 2.9430305E+002, 1.9522289E+002, 2.6700100E+002
 8.3003609E+002, 3.2873312E+002, 2.4436754E+002, 2.9263278E+002, 2.9949063E+002, 2.9530577E+002, 3.0029128E+002, 2.9429661E+002, 1.9546646E+002, 2.6732594E+002
 8.4003112E+002, 3.2456074E+002, 2.4487490E+002, 2.9257546E+002, 2.9912546E+002, 2.9507158E+002, 2.9989658E+002, 2.9414318E+002, 1.9561801E+002, 2.6751663E+002
 8.5000955E+002, 3.2040150E+002, 2.4525997E+002, 2.9235961E+002, 2.9859612E+002, 2.9467308E+002, 2.9933761E+002, 2.9382826E+002, 1.9567429E+002, 2.6756337E+002
 8.6004042E+002, 3.1623099E+002, 2.4555020E+002, 2.9201720E+002, 2.9794384E+002, 2.9415250E+002, 2.9865580E+002, 2.9338870E+002, 1.9566116E+002, 2.6751830E+002
 8.7004013E+002, 3.1206486E+002, 2.4576226E+002, 2.9157046E+002, 2.9719309E+002, 2.9353333E+002, 2.9787579E+002, 2.9284756E+002, 1.9559053E+002, 2.6739988E+002
 8.8001553E+002, 3.3187856E+002, 2.4590847E+002, 2.9103505E+002, 2.9636188E+002, 2.9283325E+002, 2.9701567E+002, 2.9222148E+002, 1.9547934E+002, 2.6722695E+002
 8.9000011E+002, 3.7513665E+002, 2.4624634E+002, 2.9067845E+002, 2.9579495E+002, 2.9238442E+002, 2.9642467E+002, 2.9181030E+002, 1.9566830E+002, 2.6748613E+002
 9.0003493E+002, 4.1849460E+002, 2.4742747E+002, 2.9119537E+002, 2.9632063E+002, 2.9298143E+002, 2.9694062E+002, 2.9236107E+002, 1.9687694E+002, 2.6914965E+002
 9.1000944E+002, 4.6183388E+002, 2.5000982E+002, 2.9319993E+002, 2.9860121E+002, 2.9525855E+002, 2.9923144E+002, 2.9450134E+002, 1.9960536E+002, 2.7281968E+002
 9.2000872E+002, 5.0509802E+002, 2.5438444E+002, 2.9712616E+002, 3.0307970E+002, 2.9964623E+002, 3.0374225E+002, 2.9866456E+002, 2.0417324E+002, 2.7885969E+002
 9.3003089E+002, 5.4847960E+002, 2.6088016E+002, 3.0333567E+002, 3.1011549E+002, 3.0650006E+002, 3.1083272E+002, 3.0520990E+002, 2.1086145E+002, 2.8755669E+002
 9.4000641E+002, 5.9181165E+002, 2.6969903E+002, 3.1203936E+002, 3.1989785E+002, 3.1601560E+002, 3.2069016E+002, 3.1434009E+002, 2.1987280E+002, 2.9904486E+002
 9.5000296E+002, 6.3508290E+002, 2.8105622E+002, 3.2346612E+002, 3.3265601E+002, 3.2843898E+002, 3.3354078E+002, 3.2629123E+002, 2.3143273E+002, 3.1353838E+002
 9.6000951E+002, 6.7842503E+002, 2.9516919E+002, 3.3783967E+002, 3.4860554E+002, 3.4401134E+002, 3.4959544E+002, 3.4129466E+002, 2.4578601E+002, 3.3123561E+002
 9.7001989E+002, 6.7951888E+002, 3.1204591E+002, 3.5515515E+002, 3.6767488E+002, 3.6269516E+002, 3.6877490E+002, 3.5932833E+002, 2.6294076E+002, 3.5195511E+002
 9.8001972E+002, 6.3878776E+002, 3.3001965E+002, 3.7372158E+002, 3.8766293E+002, 3.8235635E+002, 3.8885168E+002, 3.7848060E+002, 2.8062972E+002, 3.7249366E+002
 9.9000233E+002, 5.9810888E+002, 3.4573910E+002, 3.9010471E+002, 4.0458048E+002, 3.9908422E+002, 4.0580937E+002, 3.9506759E+002, 2.9507705E+002, 3.8819937E+002
 1.0000217E+003, 5.5740497E+002, 3.5762889E+002, 4.0267298E+002, 4.1691938E+002, 4.1138401E+002, 4.1814346E+002, 4.0751504E+002, 3.0513783E+002, 3.9817995E+002
 1.0100123E+003, 5.1665746E+002, 3.6558469E+002, 4.1130466E+002, 4.2485686E+002, 4.1940921E+002, 4.2604441E+002, 4.1583846E+002, 3.1116722E+002, 4.0329434E+002
 1.0200254E+003, 4.7592722E+002, 3.7005312E+002, 4.1642069E+002, 4.2902826E+002, 4.2376758E+002, 4.3015780E+002, 4.2055720E+002, 3.1387779E+002, 4.0460427E+002
 1.0300167E+003, 4.3521364E+002, 3.7163033E+002, 4.1857734E+002, 4.3011565E+002, 4.2511404E+002, 4.3117311E+002, 4.2228241E+002, 3.1398389E+002, 4.0303424E+002
 1.0400304E+003, 4.1053399E+002, 3.7088940E+002, 4.1830352E+002, 4.2872469E+002, 4.2403475E+002, 4.2970092E+002, 4.2157512E+002, 3.1210593E+002, 3.9934743E+002
 1.0500051E+003, 4.0167408E+002, 3.6858216E+002, 4.1632173E+002, 4.2568820E+002, 4.2133675E+002, 4.2658122E+002, 4.1920314E+002, 3.0906360E+002, 3.9457100E+002
 1.0600056E+003, 3.9282151E+002, 3.6557694E+002, 4.1350098E+002, 4.2197322E+002, 4.1795827E+002, 4.2278832E+002, 4.1607349E+002, 3.0572265E+002, 3.8976398E+002
 1.0700089E+003, 3.8395624E+002, 3.6236887E+002, 4.1033796E+002, 4.1805252E+002, 4.1435461E+002, 4.1879676E+002, 4.1266481E+002, 3.0244340E+002, 3.8526547E+002
 1.0800050E+003, 3.7509107E+002, 3.5919099E+002, 4.0706892E+002, 4.1412332E+002, 4.1072045E+002, 4.1480287E+002, 4.0919267E+002, 2.9933621E+002, 3.8114907E+002
 1.0900090E+003, 3.6622954E+002, 3.5607394E+002, 4.0371175E+002, 4.1014770E+002, 4.0701687E+002, 4.1076724E+002, 4.0564625E+002, 2.9635553E+002, 3.7726850E+002
 1.1000259E+003, 3.5735749E+002, 3.5303529E+002, 4.0028432E+002, 4.0612648E+002, 4.0324761E+002, 4.0668981E+002, 4.0203468E+002, 2.9348234E+002, 3.7357967E+002
 1.1100281E+003, 3.4848084E+002, 3.5007901E+002, 3.9679720E+002, 4.0206233E+002, 3.9941834E+002, 4.0257260E+002, 3.9836486E+002, 2.9069867E+002, 3.7004827E+002
 1.1200379E+003, 3.3961266E+002, 3.4720351E+002, 3.9326068E+002, 3.9796051E+002, 3.9553693E+002, 3.9842030E+002, 3.9464539E+002, 2.8798582E+002, 3.6663889E+002
 1.1300250E+003, 3.3074952E+002, 3.4437384E+002, 3.8964311E+002, 3.9377998E+002, 3.9156378E+002, 3.9419143E+002, 3.9084015E+002, 2.8530741E+002, 3.6328249E+002
 1.1400243E+003, 3.2189360E+002, 3.4159773E+002, 3.8597251E+002, 3.8956123E+002, 3.8754588E+002, 3.8992588E+002, 3.8698556E+002, 2.8266963E+002, 3.6000847E+002
 1.1500219E+003, 3.1303203E+002, 3.3886544E+002, 3.8224992E+002, 3.8530114E+002, 3.8348133E+002, 3.8562017E+002, 3.8308163E+002, 2.8005989E+002, 3.5678154E+002
 1.1600107E+003, 3.0417434E+002, 3.3614943E+002, 3.7845237E+002, 3.8097146E+002, 3.7934138E+002, 3.8124596E+002, 3.7910235E+002, 2.7745584E+002, 3.5355636E+002
 1.1700209E+003, 2.9530811E+002, 3.3344968E+002, 3.7459211E+002, 3.7659039E+002, 3.7514573E+002, 3.7682143E+002, 3.7506349E+002, 2.7486126E+002, 3.5034320E+002
 1.1800305E+003, 2.8643972E+002, 3.3074918E+002, 3.7065676E+002, 3.7214088E+002, 3.7087665E+002, 3.7232948E+002, 3.7095024E+002, 2.7226337E+002, 3.4710856E+002
 1.1900134E+003, 2.7757748E+002, 3.2802726E+002, 3.6662752E+002, 3.6759710E+002, 3.6650505E+002, 3.6774457E+002, 3.6673908E+002, 2.6965027E+002, 3.4381096E+002
 1.2000110E+003, 2.6872140E+002, 3.2529707E+002, 3.6252638E+002, 3.6299341E+002, 3.6206595E+002, 3.6310134E+002, 3.6245804E+002, 2.6704278E+002, 3.4049916E+002
 1.2100062E+003, 2.5985808E+002, 3.2256475E+002, 3.5837388E+002, 3.5835378E+002, 3.5758697E+002, 3.5842324E+002, 3.5813110E+002, 2.6444109E+002, 3.3718110E+002
 1.2200079E+003, 2.5099700E+002, 3.1982637E+002, 3.5417536E+002, 3.5368211E+002, 3.5307331E+002, 3.5371393E+002, 3.5376367E+002, 2.6184231E+002, 3.3384779E+002
 1.2300338E+003, 2.4212444E+002, 3.1707096E+002, 3.4991922E+002, 3.4896240E+002, 3.4850789E+002, 3.4895750E+002, 3.4934158E+002, 2.5924038E+002, 3.3047883E+002
