s,C,C,C,C,C,C,C
Time,"Air Temp","VTT_1","IRSN_1","TRAC_2","TRAC_4","GRS_2","NRC_2"
 0.0000000E+000, 2.5000000E+001, 2.5000000E+001, 2.5000000E+001, 2.5000000E+001, 2.5000000E+001, 2.5000000E+001, 2.5000000E+001
 1.0200000E+001, 2.5421647E+001, 2.5000022E+001, 2.5000018E+001, 2.5000026E+001, 2.5000026E+001, 2.5000028E+001, 2.5000209E+001
 2.0200000E+001, 2.6216000E+001, 2.5000614E+001, 2.5000513E+001, 2.5000715E+001, 2.5000725E+001, 2.5000682E+001, 2.5003173E+001
 3.0200000E+001, 2.9182381E+001, 2.5003226E+001, 2.5002708E+001, 2.5003692E+001, 2.5003746E+001, 2.5003273E+001, 2.5011478E+001
 4.0023909E+001, 4.4090755E+001, 2.5011930E+001, 2.5010001E+001, 2.5013643E+001, 2.5013840E+001, 2.5012057E+001, 2.5046616E+001
 5.0072739E+001, 6.0841566E+001, 2.5055078E+001, 2.5045686E+001, 2.5063059E+001, 2.5063937E+001, 2.5054911E+001, 2.5208454E+001
 6.0004779E+001, 7.7617822E+001, 2.5183330E+001, 2.5151043E+001, 2.5208010E+001, 2.5210796E+001, 2.5172106E+001, 2.5565689E+001
 7.0023710E+001, 9.4389417E+001, 2.5438919E+001, 2.5360499E+001, 2.5493620E+001, 2.5500050E+001, 2.5390595E+001, 2.6144502E+001
 8.0032403E+001, 1.1121632E+002, 2.5855261E+001, 2.5700801E+001, 2.5955032E+001, 2.5967211E+001, 2.5728978E+001, 2.6956089E+001
 9.0003074E+001, 1.2802142E+002, 2.6461708E+001, 2.6194514E+001, 2.6623265E+001, 2.6643560E+001, 2.6204227E+001, 2.8038373E+001
 1.0003223E+002, 1.4484870E+002, 2.7285660E+001, 2.6863068E+001, 2.7526838E+001, 2.7557920E+001, 2.6830781E+001, 2.9383057E+001
 1.1004543E+002, 1.6169793E+002, 2.8341821E+001, 2.7718088E+001, 2.8680677E+001, 2.8725479E+001, 2.7615546E+001, 3.0986183E+001
 1.2000586E+002, 1.7308800E+002, 2.9641557E+001, 2.8767557E+001, 3.0096860E+001, 3.0158475E+001, 2.8564889E+001, 3.2868467E+001
 1.3004777E+002, 1.7919779E+002, 3.1184949E+001, 3.0009353E+001, 3.1772776E+001, 3.1854116E+001, 2.9665610E+001, 3.4907456E+001
 1.4003147E+002, 1.8532027E+002, 3.2910308E+001, 3.1390596E+001, 3.3638031E+001, 3.3741014E+001, 3.0858109E+001, 3.6978147E+001
 1.5004940E+002, 1.9142785E+002, 3.4765006E+001, 3.2864977E+001, 3.5636025E+001, 3.5761925E+001, 3.2103345E+001, 3.9058558E+001
 1.6002112E+002, 1.9753558E+002, 3.6726785E+001, 3.4411686E+001, 3.7744388E+001, 3.7894232E+001, 3.3390834E+001, 4.1183243E+001
 1.7000998E+002, 2.0363349E+002, 3.8791376E+001, 3.6025597E+001, 3.9959844E+001, 4.0134533E+001, 3.4722989E+001, 4.3376880E+001
 1.8000779E+002, 2.0974273E+002, 4.0961929E+001, 3.7709034E+001, 4.2286124E+001, 4.2486586E+001, 3.6105033E+001, 4.5642329E+001
 1.9001261E+002, 2.1585300E+002, 4.3239003E+001, 3.9462607E+001, 4.4724020E+001, 4.4951118E+001, 3.7538954E+001, 4.7984942E+001
 2.0000299E+002, 2.2196614E+002, 4.5618994E+001, 4.1283999E+001, 4.7269706E+001, 4.7524271E+001, 3.9024099E+001, 5.0411051E+001
 2.1001065E+002, 2.3099766E+002, 4.8104963E+001, 4.3176086E+001, 4.9926812E+001, 5.0209789E+001, 4.0563270E+001, 5.2924886E+001
 2.2001078E+002, 2.4292264E+002, 5.0728437E+001, 4.5164722E+001, 5.2731791E+001, 5.3044637E+001, 4.2189749E+001, 5.5671354E+001
 2.3003673E+002, 2.5485976E+002, 5.3558876E+001, 4.7309265E+001, 5.5760919E+001, 5.6105812E+001, 4.3965088E+001, 5.8748606E+001
 2.4003256E+002, 2.6679877E+002, 5.6635815E+001, 4.9645236E+001, 5.9055649E+001, 5.9435340E+001, 4.5915044E+001, 6.2138954E+001
 2.5001647E+002, 2.7870712E+002, 5.9988799E+001, 5.2198125E+001, 6.2647074E+001, 6.3064633E+001, 4.8059775E+001, 6.5886910E+001
 2.6001173E+002, 2.9061566E+002, 6.3656874E+001, 5.5000295E+001, 6.6575161E+001, 6.7033817E+001, 5.0422061E+001, 7.0003087E+001
 2.7002063E+002, 3.0254534E+002, 6.7663722E+001, 5.8072230E+001, 7.0862811E+001, 7.1365717E+001, 5.3015481E+001, 7.4491888E+001
 2.8003335E+002, 3.1448242E+002, 7.2015499E+001, 6.1420598E+001, 7.5514455E+001, 7.6064633E+001, 5.5842359E+001, 7.9325677E+001
 2.9000944E+002, 3.2639850E+002, 7.6709385E+001, 6.5040822E+001, 8.0527872E+001, 8.1128610E+001, 5.8895909E+001, 8.4503667E+001
 3.0003144E+002, 3.3831859E+002, 8.1767961E+001, 6.8949215E+001, 8.5927045E+001, 8.6581858E+001, 6.2189800E+001, 9.0046648E+001
 3.1001448E+002, 3.5024566E+002, 8.7204571E+001, 7.3157682E+001, 9.1724820E+001, 9.2436996E+001, 6.5737826E+001, 9.5996228E+001
 3.2001630E+002, 3.6215509E+002, 9.3030752E+001, 7.7678459E+001, 9.7931087E+001, 9.8703387E+001, 6.9552884E+001, 1.0236409E+002
 3.3001446E+002, 3.7408129E+002, 9.9275439E+001, 8.2535861E+001, 1.0457513E+002, 1.0541020E+002, 7.3656424E+001, 1.0917861E+002
 3.4001987E+002, 3.8260907E+002, 1.0594042E+002, 8.7732830E+001, 1.1165628E+002, 1.1255644E+002, 7.8048196E+001, 1.1639159E+002
 3.5000006E+002, 3.8778038E+002, 1.1296720E+002, 9.3220801E+001, 1.1910594E+002, 1.2007237E+002, 8.2664437E+001, 1.2373558E+002
 3.6001693E+002, 3.9295769E+002, 1.2023361E+002, 9.8891837E+001, 1.2678793E+002, 1.2782032E+002, 8.7384055E+001, 1.3098664E+002
 3.7001582E+002, 3.9814201E+002, 1.2764103E+002, 1.0466311E+002, 1.3459628E+002, 1.3569284E+002, 9.2145508E+001, 1.3817995E+002
 3.8001620E+002, 4.0332053E+002, 1.3513857E+002, 1.1049469E+002, 1.4247797E+002, 1.4363578E+002, 9.6936211E+001, 1.4536142E+002
 3.9001316E+002, 4.0850001E+002, 1.4270813E+002, 1.1637242E+002, 1.5041624E+002, 1.5163239E+002, 1.0175052E+002, 1.5253200E+002
 4.0001534E+002, 4.1367685E+002, 1.5036487E+002, 1.2230043E+002, 1.5843383E+002, 1.5970641E+002, 1.0659525E+002, 1.5978149E+002
 4.1002617E+002, 4.1885803E+002, 1.5810226E+002, 1.2828797E+002, 1.6651761E+002, 1.6784342E+002, 1.1149211E+002, 1.6706855E+002
 4.2001002E+002, 4.2403626E+002, 1.6588985E+002, 1.3431929E+002, 1.7463415E+002, 1.7600956E+002, 1.1643197E+002, 1.7439163E+002
 4.3001029E+002, 4.2921007E+002, 1.7373388E+002, 1.4040388E+002, 1.8279115E+002, 1.8421256E+002, 1.2142613E+002, 1.8178536E+002
 4.4002129E+002, 4.3439078E+002, 1.8165768E+002, 1.4655611E+002, 1.9101656E+002, 1.9248135E+002, 1.2647774E+002, 1.8923598E+002
 4.5001418E+002, 4.3957467E+002, 1.8962211E+002, 1.5275474E+002, 1.9926552E+002, 2.0077036E+002, 1.3157398E+002, 1.9670508E+002
 4.6000360E+002, 4.4474486E+002, 1.9762194E+002, 1.5899886E+002, 2.0753393E+002, 2.0907554E+002, 1.3671735E+002, 2.0422394E+002
 4.7001755E+002, 4.4992518E+002, 2.0567492E+002, 1.6530708E+002, 2.1583985E+002, 2.1741497E+002, 1.4192688E+002, 2.1183243E+002
 4.8001508E+002, 4.5510896E+002, 2.1377920E+002, 1.7168598E+002, 2.2418002E+002, 2.2578501E+002, 1.4721281E+002, 2.1952233E+002
 4.9002783E+002, 4.6028855E+002, 2.2192402E+002, 1.7812404E+002, 2.3254531E+002, 2.3417726E+002, 1.5255417E+002, 2.2724361E+002
 5.0001320E+002, 4.6546390E+002, 2.3009246E+002, 1.8461297E+002, 2.4091708E+002, 2.4257287E+002, 1.5794746E+002, 2.3497465E+002
 5.1001483E+002, 4.7063991E+002, 2.3826707E+002, 1.9114420E+002, 2.4927601E+002, 2.5095225E+002, 1.6338982E+002, 2.4273717E+002
 5.2000749E+002, 4.7581842E+002, 2.4647552E+002, 1.9773805E+002, 2.5765479E+002, 2.5934860E+002, 1.6889958E+002, 2.5061402E+002
 5.3000920E+002, 4.8099367E+002, 2.5470220E+002, 2.0438901E+002, 2.6603290E+002, 2.6774102E+002, 1.7447253E+002, 2.5844272E+002
 5.4000665E+002, 4.8617231E+002, 2.6290087E+002, 2.1107194E+002, 2.7435904E+002, 2.7607761E+002, 1.8009372E+002, 2.6628182E+002
 5.5002001E+002, 4.9135562E+002, 2.7112929E+002, 2.1781946E+002, 2.8270361E+002, 2.8442998E+002, 1.8578829E+002, 2.7427019E+002
 5.6000982E+002, 4.9653109E+002, 2.7936051E+002, 2.2461782E+002, 2.9103270E+002, 2.9276378E+002, 1.9154200E+002, 2.8219026E+002
 5.7002991E+002, 5.0171545E+002, 2.8754803E+002, 2.3144193E+002, 2.9929397E+002, 3.0102614E+002, 1.9734144E+002, 2.9007044E+002
 5.8002022E+002, 5.0689600E+002, 2.9571797E+002, 2.3830069E+002, 3.0752359E+002, 3.0925435E+002, 2.0318975E+002, 2.9801116E+002
 5.9000452E+002, 5.1206939E+002, 3.0387390E+002, 2.4519345E+002, 3.1572782E+002, 3.1745519E+002, 2.0908398E+002, 3.0600241E+002
 6.0002398E+002, 5.1724545E+002, 3.1204172E+002, 2.5214214E+002, 3.2393143E+002, 3.2565347E+002, 2.1503936E+002, 3.1397461E+002
 6.1000708E+002, 5.2242661E+002, 3.2016330E+002, 2.5911202E+002, 3.3206922E+002, 3.3378311E+002, 2.2103735E+002, 3.2192127E+002
 6.2002147E+002, 5.2500000E+002, 3.2824659E+002, 2.6610723E+002, 3.4015281E+002, 3.4185603E+002, 2.2708176E+002, 3.2982606E+002
 6.3000106E+002, 5.2500000E+002, 3.3621844E+002, 2.7306134E+002, 3.4810095E+002, 3.4979047E+002, 2.3308094E+002, 3.3738673E+002
 6.4000634E+002, 5.2500000E+002, 3.4394957E+002, 2.7984738E+002, 3.5577662E+002, 3.5744884E+002, 2.3888562E+002, 3.4444696E+002
 6.5000702E+002, 5.2500000E+002, 3.5138003E+002, 2.8640227E+002, 3.6312065E+002, 3.6477198E+002, 2.4444377E+002, 3.5100481E+002
 6.6003428E+002, 5.2500000E+002, 3.5844120E+002, 2.9267737E+002, 3.7006156E+002, 3.7168816E+002, 2.4973704E+002, 3.5707686E+002
 6.7001244E+002, 5.3144096E+002, 3.6512526E+002, 2.9866519E+002, 3.7660092E+002, 3.7819988E+002, 2.5478301E+002, 3.6287757E+002
 6.8001008E+002, 5.4419777E+002, 3.7164769E+002, 3.0454815E+002, 3.8298789E+002, 3.8455934E+002, 2.5982130E+002, 3.6928895E+002
 6.9001740E+002, 5.5698293E+002, 3.7843413E+002, 3.1070409E+002, 3.8968544E+002, 3.9123347E+002, 2.6525971E+002, 3.7684079E+002
 7.0001783E+002, 5.6976234E+002, 3.8566895E+002, 3.1732600E+002, 3.9687305E+002, 3.9840183E+002, 2.7125939E+002, 3.8528821E+002
 7.1000228E+002, 5.8253368E+002, 3.9340434E+002, 3.2447494E+002, 4.0459309E+002, 4.0610614E+002, 2.7784111E+002, 3.9450527E+002
 7.2000664E+002, 5.9530110E+002, 4.0169643E+002, 3.3219771E+002, 4.1289821E+002, 4.1439853E+002, 2.8502373E+002, 4.0456659E+002
 7.3000908E+002, 6.0808699E+002, 4.1058891E+002, 3.4051666E+002, 4.2182877E+002, 4.2331873E+002, 2.9279881E+002, 4.1534328E+002
 7.4000409E+002, 6.2085662E+002, 4.2002079E+002, 3.4938267E+002, 4.3131118E+002, 4.3279185E+002, 3.0111492E+002, 4.2663322E+002
 7.5001349E+002, 6.3363809E+002, 4.2992906E+002, 3.5874939E+002, 4.4127259E+002, 4.4274396E+002, 3.0993767E+002, 4.3834845E+002
 7.6000018E+002, 6.4055785E+002, 4.4023960E+002, 3.6854705E+002, 4.5163234E+002, 4.5309352E+002, 3.1920103E+002, 4.5029646E+002
 7.7000990E+002, 6.4166852E+002, 4.5070254E+002, 3.7854561E+002, 4.6211085E+002, 4.6355851E+002, 3.2860607E+002, 4.6149824E+002
 7.8002739E+002, 6.4278121E+002, 4.6084027E+002, 3.8830497E+002, 4.7219150E+002, 4.7361908E+002, 3.3765672E+002, 4.7125536E+002
 7.9001159E+002, 6.4389246E+002, 4.7038285E+002, 3.9755348E+002, 4.8161296E+002, 4.8301437E+002, 3.4614266E+002, 4.7993933E+002
 8.0001247E+002, 6.4500276E+002, 4.7936475E+002, 4.0628559E+002, 4.9043791E+002, 4.9180916E+002, 3.5410844E+002, 4.8799414E+002
 8.1002248E+002, 6.4611476E+002, 4.8780782E+002, 4.1452284E+002, 4.9869365E+002, 5.0003171E+002, 3.6159429E+002, 4.9532025E+002
 8.2002382E+002, 6.4722616E+002, 4.9575218E+002, 4.2229716E+002, 5.0643367E+002, 5.0773669E+002, 3.6865331E+002, 5.0223294E+002
 8.3000159E+002, 6.4833627E+002, 5.0321134E+002, 4.2963249E+002, 5.1367210E+002, 5.1493864E+002, 3.7531601E+002, 5.0860494E+002
 8.4001464E+002, 6.4944696E+002, 5.1026022E+002, 4.3660176E+002, 5.2049237E+002, 5.2172195E+002, 3.8165668E+002, 5.1465831E+002
 8.5000104E+002, 6.5055802E+002, 5.1688028E+002, 4.4320774E+002, 5.2687002E+002, 5.2806221E+002, 3.8767308E+002, 5.2022827E+002
 8.6002665E+002, 6.5166977E+002, 5.2314900E+002, 4.4951235E+002, 5.3289495E+002, 5.3405012E+002, 3.9342590E+002, 5.2565271E+002
 8.7002274E+002, 6.5278197E+002, 5.2914366E+002, 4.5558027E+002, 5.3864983E+002, 5.3976883E+002, 3.9896402E+002, 5.3096088E+002
 8.8001602E+002, 6.5389266E+002, 5.3487060E+002, 4.6142585E+002, 5.4413710E+002, 5.4522069E+002, 4.0429154E+002, 5.3594530E+002
 8.9001135E+002, 6.5500306E+002, 5.4028593E+002, 4.6703089E+002, 5.4930583E+002, 5.5035438E+002, 4.0939624E+002, 5.4066866E+002
 9.0000343E+002, 6.5611357E+002, 5.4548076E+002, 4.7246057E+002, 5.5426048E+002, 5.5527511E+002, 4.1433892E+002, 5.4535273E+002
 9.1002442E+002, 6.5722523E+002, 5.5045333E+002, 4.7772461E+002, 5.5899147E+002, 5.5997283E+002, 4.1912084E+002, 5.4971990E+002
 9.2001928E+002, 6.5833713E+002, 5.5514134E+002, 4.8278264E+002, 5.6343073E+002, 5.6437912E+002, 4.2371450E+002, 5.5377161E+002
 9.3002042E+002, 6.5944782E+002, 5.5956926E+002, 4.8765025E+002, 5.6761039E+002, 5.6852672E+002, 4.2814326E+002, 5.5771466E+002
 9.4002587E+002, 6.5363902E+002, 5.6382481E+002, 4.9238906E+002, 5.7162556E+002, 5.7251087E+002, 4.3245308E+002, 5.6162311E+002
 9.5002024E+002, 6.4101163E+002, 5.6768761E+002, 4.9680091E+002, 5.7521936E+002, 5.7607193E+002, 4.3633811E+002, 5.6408398E+002
 9.6001014E+002, 6.2838610E+002, 5.7062096E+002, 5.0041341E+002, 5.7781039E+002, 5.7862494E+002, 4.3928011E+002, 5.6461398E+002
 9.7000257E+002, 6.1576374E+002, 5.7248627E+002, 5.0307245E+002, 5.7927701E+002, 5.8004887E+002, 4.4119261E+002, 5.6378742E+002
 9.8001195E+002, 6.0313040E+002, 5.7330753E+002, 5.0479600E+002, 5.7966061E+002, 5.8038667E+002, 4.4216290E+002, 5.6191306E+002
 9.9000161E+002, 5.9049712E+002, 5.7317984E+002, 5.0567125E+002, 5.7907453E+002, 5.7975277E+002, 4.4232025E+002, 5.5922561E+002
 1.0000240E+003, 5.7786234E+002, 5.7222213E+002, 5.0580510E+002, 5.7764998E+002, 5.7827908E+002, 4.4178282E+002, 5.5597689E+002
 1.0100000E+003, 5.6522959E+002, 5.7054192E+002, 5.0530579E+002, 5.7550081E+002, 5.7608055E+002, 4.4066604E+002, 5.5221112E+002
 1.0200221E+003, 5.5259665E+002, 5.6821352E+002, 5.0425520E+002, 5.7270330E+002, 5.7323383E+002, 4.3905164E+002, 5.4801886E+002
 1.0300007E+003, 5.3996672E+002, 5.6530961E+002, 5.0272439E+002, 5.6933184E+002, 5.6981333E+002, 4.3700735E+002, 5.4346637E+002
 1.0400194E+003, 5.2733491E+002, 5.6190062E+002, 5.0078191E+002, 5.6546008E+002, 5.6589303E+002, 4.3460400E+002, 5.3869043E+002
 1.0500158E+003, 5.1469470E+002, 5.5805448E+002, 4.9849079E+002, 5.6115686E+002, 5.6154181E+002, 4.3189338E+002, 5.3362146E+002
 1.0600023E+003, 5.0207602E+002, 5.5378087E+002, 4.9586903E+002, 5.5642801E+002, 5.5676542E+002, 4.2889608E+002, 5.2825622E+002
 1.0700276E+003, 4.8943747E+002, 5.4911770E+002, 4.9295292E+002, 5.5131472E+002, 5.5160510E+002, 4.2564972E+002, 5.2275004E+002
 1.0800325E+003, 4.7678275E+002, 5.4415324E+002, 4.8980947E+002, 5.4591121E+002, 5.4615540E+002, 4.2221006E+002, 5.1715296E+002
 1.0900004E+003, 4.6416731E+002, 5.3892618E+002, 4.8647203E+002, 5.4025393E+002, 5.4045247E+002, 4.1860779E+002, 5.1141667E+002
 1.1000240E+003, 4.5154320E+002, 5.3341741E+002, 4.8293271E+002, 5.3431912E+002, 5.3447248E+002, 4.1483796E+002, 5.0547280E+002
 1.1100027E+003, 4.3890766E+002, 5.2765210E+002, 4.7921236E+002, 5.2813444E+002, 5.2824341E+002, 4.1093103E+002, 4.9944243E+002
 1.1200152E+003, 4.2628475E+002, 5.2167739E+002, 4.7534382E+002, 5.2174894E+002, 5.2181421E+002, 4.0691310E+002, 4.9327159E+002
 1.1300308E+003, 4.1748188E+002, 5.1545764E+002, 4.7130508E+002, 5.1512185E+002, 5.1514393E+002, 4.0276801E+002, 4.8694277E+002
 1.1400236E+003, 4.1247788E+002, 5.0916714E+002, 4.6722339E+002, 5.0845018E+002, 5.0843104E+002, 3.9864042E+002, 4.8116967E+002
 1.1500016E+003, 4.0748510E+002, 5.0302821E+002, 4.6327852E+002, 5.0196993E+002, 5.0191289E+002, 3.9469992E+002, 4.7584116E+002
 1.1600101E+003, 4.0248745E+002, 4.9696072E+002, 4.5943456E+002, 4.9558039E+002, 4.9548826E+002, 3.9090678E+002, 4.7047649E+002
 1.1700336E+003, 3.9748088E+002, 4.9096192E+002, 4.5568627E+002, 4.8928133E+002, 4.8915683E+002, 3.8725560E+002, 4.6545070E+002
 1.1800142E+003, 3.9248069E+002, 4.8514509E+002, 4.5210505E+002, 4.8319222E+002, 4.8303834E+002, 3.8379516E+002, 4.6067546E+002
 1.1900299E+003, 3.8748102E+002, 4.7944696E+002, 4.4863980E+002, 4.7723817E+002, 4.7705714E+002, 3.8046589E+002, 4.5598260E+002
 1.2000338E+003, 3.8247428E+002, 4.7386155E+002, 4.4527637E+002, 4.7141349E+002, 4.7120723E+002, 3.7725368E+002, 4.5144228E+002
 1.2100107E+003, 3.7747785E+002, 4.6838464E+002, 4.4200221E+002, 4.6571079E+002, 4.6548097E+002, 3.7414242E+002, 4.4690191E+002
 1.2200222E+003, 3.7248140E+002, 4.6300676E+002, 4.3880363E+002, 4.6012312E+002, 4.5987140E+002, 3.7112657E+002, 4.4263680E+002
 1.2300349E+003, 3.6747886E+002, 4.5777587E+002, 4.3570747E+002, 4.5470030E+002, 4.5442799E+002, 3.6822424E+002, 4.3846967E+002
 1.2400257E+003, 3.6247493E+002, 4.5261649E+002, 4.3265374E+002, 4.4935466E+002, 4.4906269E+002, 3.6537364E+002, 4.3417473E+002
 1.2500332E+003, 3.5747455E+002, 4.4749883E+002, 4.2961527E+002, 4.4405823E+002, 4.4374749E+002, 3.6256488E+002, 4.2994566E+002
 1.2600319E+003, 3.5247410E+002, 4.4245216E+002, 4.2661154E+002, 4.3884446E+002, 4.3851593E+002, 3.5982179E+002, 4.2578172E+002
 1.2700290E+003, 3.4747499E+002, 4.3747954E+002, 4.2363943E+002, 4.3371488E+002, 4.3336944E+002, 3.5713365E+002, 4.2168812E+002
 1.2800070E+003, 3.4248098E+002, 4.3256960E+002, 4.2068829E+002, 4.2865555E+002, 4.2829399E+002, 3.5448997E+002, 4.1755334E+002
 1.2900181E+003, 3.3748489E+002, 4.2768624E+002, 4.1773298E+002, 4.2362863E+002, 4.2325168E+002, 3.5187497E+002, 4.1343513E+002
 1.3000315E+003, 3.3247857E+002, 4.2285755E+002, 4.1479141E+002, 4.1866562E+002, 4.1827395E+002, 3.4930028E+002, 4.0935864E+002
 1.3100036E+003, 3.2748080E+002, 4.1804222E+002, 4.1183196E+002, 4.1371777E+002, 4.1331203E+002, 3.4673745E+002, 4.0514487E+002
 1.3200222E+003, 3.2248722E+002, 4.1324130E+002, 4.0885382E+002, 4.0879039E+002, 4.0837122E+002, 3.4419383E+002, 4.0098377E+002
 1.3300303E+003, 3.1747621E+002, 4.0846428E+002, 4.0586397E+002, 4.0389381E+002, 4.0346182E+002, 3.4167180E+002, 3.9689955E+002
 1.3400245E+003, 3.1247533E+002, 4.0379272E+002, 4.0292055E+002, 3.9911567E+002, 3.9867154E+002, 3.3921882E+002, 3.9301323E+002
 1.3500059E+003, 3.0748307E+002, 3.9917362E+002, 3.9998788E+002, 3.9439238E+002, 3.9393646E+002, 3.3678987E+002, 3.8900068E+002
 1.3600134E+003, 3.0248745E+002, 3.9459060E+002, 3.9705421E+002, 3.8970989E+002, 3.8924256E+002, 3.3438441E+002, 3.8507662E+002
 1.3700237E+003, 2.9748225E+002, 3.9005938E+002, 3.9413081E+002, 3.8508569E+002, 3.8460738E+002, 3.3201369E+002, 3.8120051E+002
 1.3800083E+003, 2.9248233E+002, 3.8562706E+002, 3.9125243E+002, 3.8056989E+002, 3.8008102E+002, 3.2970168E+002, 3.7755193E+002
 1.3900003E+003, 2.8748715E+002, 3.8126391E+002, 3.8839892E+002, 3.7612512E+002, 3.7562601E+002, 3.2741950E+002, 3.7371029E+002
 1.4000350E+003, 2.8248134E+002, 3.7687076E+002, 3.8549718E+002, 3.7164732E+002, 3.7113818E+002, 3.2511848E+002, 3.6974087E+002
 1.4100301E+003, 2.7747433E+002, 3.7244952E+002, 3.8254672E+002, 3.6714085E+002, 3.6662188E+002, 3.2280562E+002, 3.6573336E+002
 1.4200243E+003, 2.7247576E+002, 3.6807237E+002, 3.7960097E+002, 3.6268570E+002, 3.6215720E+002, 3.2052725E+002, 3.6192499E+002
 1.4300322E+003, 2.6747417E+002, 3.6378536E+002, 3.7669781E+002, 3.5833022E+002, 3.5779250E+002, 3.1830539E+002, 3.5831695E+002
 1.4400248E+003, 2.6247495E+002, 3.5958965E+002, 3.7384025E+002, 3.5407113E+002, 3.5352442E+002, 3.1613157E+002, 3.5470534E+002
 1.4500335E+003, 2.5747436E+002, 3.5541512E+002, 3.7097690E+002, 3.4983110E+002, 3.4927551E+002, 3.1396141E+002, 3.5097146E+002
 1.4600112E+003, 2.5247847E+002, 3.5127637E+002, 3.6811759E+002, 3.4562948E+002, 3.4506511E+002, 3.1181188E+002, 3.4737331E+002
 1.4700200E+003, 2.4748069E+002, 3.4719326E+002, 3.6527737E+002, 3.4148753E+002, 3.4091461E+002, 3.0969448E+002, 3.4378851E+002
 1.4800336E+003, 2.4247567E+002, 3.4311565E+002, 3.6241933E+002, 3.3735038E+002, 3.3676914E+002, 3.0757729E+002, 3.4007913E+002
 1.4900129E+003, 2.3747619E+002, 3.3905534E+002, 3.5955188E+002, 3.3323256E+002, 3.3264331E+002, 3.0547363E+002, 3.3645497E+002
 1.5000196E+003, 2.3247943E+002, 3.3503864E+002, 3.5669559E+002, 3.2916244E+002, 3.2856546E+002, 3.0339836E+002, 3.3286943E+002
 1.5100350E+003, 2.2747727E+002, 3.3105762E+002, 3.5384694E+002, 3.2513124E+002, 3.2452663E+002, 3.0134579E+002, 3.2938963E+002
 1.5200364E+003, 2.2247183E+002, 3.2715515E+002, 3.5104227E+002, 3.2118273E+002, 3.2057039E+002, 2.9933739E+002, 3.2598490E+002
 1.5300427E+003, 2.1747037E+002, 3.2327665E+002, 3.4824002E+002, 3.1725582E+002, 3.1663580E+002, 2.9733136E+002, 3.2247331E+002
 1.5400454E+003, 2.1246661E+002, 3.1941365E+002, 3.4543258E+002, 3.1334482E+002, 3.1271726E+002, 2.9533404E+002, 3.1901524E+002
