m,kW/m2,C
Height,Flux,Temp
 1.000E-02, 2.328E+01, 4.124E+02
 3.000E-02, 3.247E+01, 4.947E+02
 5.000E-02, 3.612E+01, 5.219E+02
 7.000E-02, 3.658E+01, 5.251E+02
 9.000E-02, 3.550E+01, 5.170E+02
 1.100E-01, 3.373E+01, 5.037E+02
 1.300E-01, 3.185E+01, 4.889E+02
 1.500E-01, 2.996E+01, 4.733E+02
 1.700E-01, 2.816E+01, 4.578E+02
 1.900E-01, 2.654E+01, 4.429E+02
 2.100E-01, 2.506E+01, 4.286E+02
 2.300E-01, 2.368E+01, 4.147E+02
 2.500E-01, 2.234E+01, 4.008E+02
 2.700E-01, 2.103E+01, 3.866E+02
 2.900E-01, 1.977E+01, 3.724E+02
 3.100E-01, 1.856E+01, 3.582E+02
 3.300E-01, 1.738E+01, 3.437E+02
 3.500E-01, 1.625E+01, 3.292E+02
 3.700E-01, 1.518E+01, 3.146E+02
 3.900E-01, 1.415E+01, 2.999E+02
 4.100E-01, 1.317E+01, 2.854E+02
 4.300E-01, 1.225E+01, 2.710E+02
 4.500E-01, 1.136E+01, 2.569E+02
 4.700E-01, 1.054E+01, 2.432E+02
 4.900E-01, 9.766E+00, 2.299E+02
 5.100E-01, 9.046E+00, 2.171E+02
 5.300E-01, 8.381E+00, 2.049E+02
 5.500E-01, 7.756E+00, 1.932E+02
 5.700E-01, 7.173E+00, 1.820E+02
 5.900E-01, 6.642E+00, 1.715E+02
 6.100E-01, 6.150E+00, 1.615E+02
 6.300E-01, 5.698E+00, 1.521E+02
 6.500E-01, 5.280E+00, 1.433E+02
 6.700E-01, 4.906E+00, 1.353E+02
 6.900E-01, 4.564E+00, 1.279E+02
 7.100E-01, 4.258E+00, 1.211E+02
 7.300E-01, 3.975E+00, 1.149E+02
 7.500E-01, 3.720E+00, 1.091E+02
 7.700E-01, 3.487E+00, 1.038E+02
 7.900E-01, 3.271E+00, 9.895E+01
 8.100E-01, 3.073E+00, 9.442E+01
 8.300E-01, 2.894E+00, 9.033E+01
 8.500E-01, 2.730E+00, 8.657E+01
 8.700E-01, 2.584E+00, 8.318E+01
 8.900E-01, 2.449E+00, 8.008E+01
 9.100E-01, 2.328E+00, 7.729E+01
 9.300E-01, 2.218E+00, 7.472E+01
 9.500E-01, 2.118E+00, 7.239E+01
 9.700E-01, 2.027E+00, 7.023E+01
 9.900E-01, 1.943E+00, 6.826E+01
 1.010E+00, 1.866E+00, 6.642E+01
 1.030E+00, 1.796E+00, 6.473E+01
 1.050E+00, 1.731E+00, 6.317E+01
 1.070E+00, 1.670E+00, 6.171E+01
 1.090E+00, 1.614E+00, 6.035E+01
 1.110E+00, 1.561E+00, 5.909E+01
 1.130E+00, 1.512E+00, 5.791E+01
 1.150E+00, 1.466E+00, 5.680E+01
 1.170E+00, 1.423E+00, 5.576E+01
 1.190E+00, 1.383E+00, 5.478E+01
 1.210E+00, 1.345E+00, 5.385E+01
 1.230E+00, 1.310E+00, 5.299E+01
 1.250E+00, 1.276E+00, 5.216E+01
 1.270E+00, 1.244E+00, 5.137E+01
 1.290E+00, 1.213E+00, 5.060E+01
 1.310E+00, 1.183E+00, 4.987E+01
 1.330E+00, 1.154E+00, 4.917E+01
 1.350E+00, 1.127E+00, 4.852E+01
 1.370E+00, 1.102E+00, 4.791E+01
 1.390E+00, 1.079E+00, 4.734E+01
 1.410E+00, 1.056E+00, 4.679E+01
 1.430E+00, 1.035E+00, 4.628E+01
 1.450E+00, 1.014E+00, 4.577E+01
 1.470E+00, 9.941E-01, 4.529E+01
 1.490E+00, 9.747E-01, 4.481E+01
 1.510E+00, 9.561E-01, 4.434E+01
 1.530E+00, 9.382E-01, 4.389E+01
 1.550E+00, 9.210E-01, 4.346E+01
 1.570E+00, 9.045E-01, 4.303E+01
 1.590E+00, 8.889E-01, 4.263E+01
 1.610E+00, 8.738E-01, 4.224E+01
 1.630E+00, 8.592E-01, 4.186E+01
 1.650E+00, 8.448E-01, 4.148E+01
 1.670E+00, 8.306E-01, 4.112E+01
 1.690E+00, 8.168E-01, 4.077E+01
 1.710E+00, 8.032E-01, 4.043E+01
 1.730E+00, 7.899E-01, 4.010E+01
 1.750E+00, 7.770E-01, 3.978E+01
 1.770E+00, 7.645E-01, 3.947E+01
 1.790E+00, 7.524E-01, 3.917E+01
 1.810E+00, 7.410E-01, 3.889E+01
 1.830E+00, 7.299E-01, 3.861E+01
 1.850E+00, 7.195E-01, 3.834E+01
 1.870E+00, 7.094E-01, 3.809E+01
 1.890E+00, 6.996E-01, 3.783E+01
 1.910E+00, 6.901E-01, 3.759E+01
 1.930E+00, 6.807E-01, 3.735E+01
 1.950E+00, 6.718E-01, 3.712E+01
 1.970E+00, 6.632E-01, 3.689E+01
 1.990E+00, 6.550E-01, 3.668E+01
 2.010E+00, 6.470E-01, 3.647E+01
 2.030E+00, 6.392E-01, 3.627E+01
 2.050E+00, 6.312E-01, 3.606E+01
 2.070E+00, 6.234E-01, 3.586E+01
 2.090E+00, 6.157E-01, 3.566E+01
 2.110E+00, 6.084E-01, 3.547E+01
 2.130E+00, 6.014E-01, 3.529E+01
 2.150E+00, 5.945E-01, 3.511E+01
 2.170E+00, 5.876E-01, 3.493E+01
 2.190E+00, 5.806E-01, 3.476E+01
 2.210E+00, 5.736E-01, 3.459E+01
 2.230E+00, 5.666E-01, 3.441E+01
 2.250E+00, 5.595E-01, 3.424E+01
 2.270E+00, 5.522E-01, 3.406E+01
 2.290E+00, 5.449E-01, 3.388E+01
 2.310E+00, 5.375E-01, 3.370E+01
 2.330E+00, 5.301E-01, 3.353E+01
 2.350E+00, 5.227E-01, 3.335E+01
 2.370E+00, 5.147E-01, 3.316E+01
 2.390E+00, 5.065E-01, 3.297E+01
 2.410E+00, 4.969E-01, 3.275E+01
 2.430E+00, 4.901E-01, 3.261E+01
